0.145374
0.152794
0.157417
0.147236
0.13876
0.129997
0.132603
0.137065
0.161667
0.133824
0.129775
0.14014
0.128306
0.146542
0.167768
0.175654
0.158382
0.163986
0.185497
0.198042
0.18732
0.14898
0.09196
0.115606
0.111805
0.100919
0.129298
0.106493
0.098659
0.08324
0.073703
0.08118
0.095764
0.115944
0.117937
0.092531
0.098083
0.108465
0.101861
0.108119
0.097014
0.070266
0.055784
0.076812
0.054023
0.051704
0.032316
0.02701
0.044351
0.080155
0.05442
0.052166
0.043439
0.060851
0.06468
0.055309
0.053326
0.060216
0.054714
0.063843
0.060596
0.06071
0.047028
0.042828
0.042778
0.064724
0.051611
0.033939
0.02805
0.018994
0.023637
0.025865
0.025967
0.022979
0.030247
0.038604
0.054603
0.073603
0.085439
0.092792
0.073059
0.060901
0.057219
0.056904
0.044939
0.045262
0.031331
0.001092
0.017677
0.007284
0.019417
0.020522
0.019728
0.028929
0.056303
0.053494
0.065272
0.068433
0.055691
0.042318
0.062804
0.018659
0.031733
0.042436
0.032045
0.026609
0.014996
-0.002861
0.009231
0.011802
-0.009511
-0.005297
-0.017064
-0.021734
-0.000301
0.019442
0.041648
0.05276
0.069086
0.062611
0.063236
0.045614
0.08649
0.113564
0.122825
0.126705
0.151668
0.164659
0.193701
0.253256
0.308956
0.348236
0.404251
0.415637
0.463176
0.527644
0.586357
0.637864
0.684466
0.709645
0.741147
0.752487
0.765538
0.81894
0.836685
0.817763
0.806501
0.75961
0.72763
0.708113
0.675971
0.652486
0.616164
0.570284
0.508832
0.442302
0.39017
0.363178
0.369838
0.322296
0.3109
0.269316
0.238346
0.218248
0.146346
0.09756
0.080657
0.04447
0.032106
0.038528
0.033345
0.026829
0.020971
0.035857
0.048434
0.052871
0.059284
0.05813
0.077235
0.066553
0.074297
0.080857
0.087997
0.084113
0.08124
0.071795
0.071006
0.083412
0.084226
0.100185
0.098088
0.078315
0.072678
0.086118
0.095422
0.096394
0.089216
0.106919
0.099864
0.096615
0.091305
0.093395
0.109964
0.105777
0.085368
0.092417
0.09529
0.06651
0.051212
0.064147
0.053918
0.064661
0.067871
0.087248
0.082014
0.085388
0.095348
0.092058
0.105491
0.098621
0.099018
0.090303
0.097573
0.1076
0.099553
0.076962
0.058562
0.079449
0.067035
0.075609
0.099404
0.06129
0.069458
0.09943
0.11053
0.109131
0.100617
0.090135
0.060702
0.105654
0.109064
0.107707
0.116597
0.103073
0.094684
0.095686
0.072588
0.066442
0.058006
0.059096
0.08471
0.086776
0.089956
0.099316
0.105115
0.117852
0.12485
0.133547
0.120586
0.119193
0.112219
0.114441
0.128789
0.103589
0.079242
0.090887
0.082972
0.089661
0.064044
0.073186
0.093969
0.103887
0.100513
0.103321
0.102258
0.122774
0.108933
0.094242
0.101514
0.110519
0.115952
0.1266
0.108496
0.073719
0.060004
0.08903
0.111208
0.099202
0.089084
0.087624
0.068243
0.071482
0.115233
0.130574
0.139845
0.136238
0.139173
0.170735
0.13749
0.120107
0.115948
0.127278
0.105
0.108503
0.124275
0.105627
0.079041
0.094294
0.102997
0.115445
0.125671
0.121712
0.109604
0.109318
0.118265
0.117135
0.124352
0.133983
0.156184
0.139908
0.167596
0.170569
0.142686
0.142657
0.141382
0.135537
0.118783
0.128455
0.121402
0.09927
0.126786
0.136609
0.151342
0.142096
0.129039
0.17615
0.191972
0.162001
0.185688
0.180638
0.176288
0.179471
0.174345
0.179118
0.170948
0.165996
0.175442
0.182075
0.179047
0.180869
0.179204
0.190709
0.19966
0.185387
0.180571
0.171651
0.199391
0.230547
0.236715
0.241445
0.23487
0.220389
0.245333
0.235356
0.238911
0.241629
0.237202
0.239302
0.218684
0.207261
0.21725
0.223878
0.239078
0.260837
0.278228
0.2573
0.252325
0.251713
0.250325
0.253092
0.263686
0.246188
0.253664
0.245088
0.253296
0.245491
0.233742
0.243105
0.228244
0.243931
0.247137
0.264601
0.265813
0.259349
0.258226
0.261276
0.281712
0.276515
0.271565
0.259561
0.256167
0.259085
0.260982
0.265815
0.254747
0.237094
0.221296
0.219175
0.223785
0.221059
0.225124
0.212831
0.223006
0.213998
0.21656
0.22535
0.232158
0.224597
0.215746
0.224602
0.198975
0.1842
0.187583
0.175739
0.170047
0.166226
0.153437
0.12952
0.135731
0.138357
0.123533
0.13759
0.136796
0.115163
0.100655
0.111617
0.136989
0.154832
0.168235
0.16919
0.157711
0.132216
0.119628
0.086796
0.098315
0.099995
0.093777
0.072517
0.067357
0.066887
0.071696
0.08583
0.095466
0.103812
0.092287
0.086437
0.088932
0.110189
0.113211
0.088307
0.077556
0.076709
0.070068
0.066047
0.06528
0.061891
0.049972
0.050615
0.049327
0.029954
0.044092
0.062921
0.034032
0.054448
0.049085
0.08522
0.071694
0.079436
0.049016
0.047761
0.071429
0.062109
0.047969
0.048388
0.047873
0.031998
0.024865
0.04762
0.034198
0.022413
0.024515
0.038308
0.043152
0.050294
0.048563
0.06294
0.059619
0.057242
0.076661
0.081558
0.067419
0.064684
0.052064
0.054206
0.045281
0.034268
0.030742
0.025794
0.018571
0.021789
0.023114
0.026672
0.029905
0.026268
0.04348
0.046263
0.038566
0.045958
0.057269
0.061642
0.072265
0.071462
0.067038
0.044637
0.034588
0.040121
0.046419
0.026342
0.011466
0.051793
0.08108
0.07449
0.043267
0.058283
0.06278
0.079141
0.079067
0.075446
0.071208
0.067409
0.071494
0.068117
0.062279
0.056851
0.050119
0.042609
0.029557
0.046299
0.035469
0.041915
0.058034
0.065786
0.046473
0.052149
0.063167
0.069667
0.083497
0.082284
0.090924
0.096293
0.091339
0.075758
0.060558
0.072829
0.07801
0.059721
0.044635
0.047916
0.035975
0.065719
0.063001
0.049926
0.036024
0.069761
0.083899
0.083055
0.12441
0.126566
0.095718
0.080612
0.097396
0.077338
0.081604
0.086822
0.077576
0.053285
0.049556
0.039134
0.048414
0.07566
0.083316
0.081891
0.063084
0.06531
0.066467
0.080984
0.078529
0.086905
0.097949
0.089903
0.094589
0.092344
0.075476
0.071391
0.066022
0.065536
0.063279
0.049883
0.052841
0.05007
0.055062
0.062674
0.076113
0.078494
0.064544
0.072557
0.117067
0.07022
0.092756
0.088404
0.100062
0.103504
0.066212
0.048286
0.067445
0.041808
0.044286
0.060891
0.059726
0.06063
0.07231
0.068633
0.061107
0.081636
0.060312
0.057938
0.082447
0.090269
0.097085
0.090413
0.083527
0.073727
0.080552
0.082858
0.077578
0.053047
0.048119
0.043425
0.052847
0.057568
0.043346
0.033812
0.054332
0.064007
0.065345
0.071602
0.09586
0.092151
0.083973
0.085521
0.081322
0.071737
0.066659
0.049196
0.050747
0.063857
0.034648
0.056352
0.007438
0.002503
0.051524
0.060646
0.061565
0.0792
0.111845
0.069828
0.082611
0.085477
0.102458
0.058415
0.078463
0.073678
0.067198
0.054416
0.071625
0.067276
0.038501
0.036091
0.035755
0.052484
0.067064
0.028069
0.014695
0.025124
0.03876
0.05296
0.059678
0.078169
0.092593
0.079743
0.074802
0.069361
0.055779
0.042956
0.050563
0.051178
0.037126
0.059715
0.061719
0.059209
0.064117
0.036827
0.040976
0.066754
0.073755
0.072161
0.088945
0.082003
0.073667
0.084775
0.068466
0.068089
0.064759
0.062975
0.05995
0.053266
0.041977
0.056824
0.043834
0.034345
0.040294
0.062912
0.053324
0.048813
0.047162
0.071282
0.08238
0.080333
0.081893
0.093812
0.099164
0.078614
0.066369
0.069723
0.054209
0.032553
0.014677
0.017099
0.028367
0.036537
0.056021
0.076665
0.069384
0.071539
0.074145
0.086489
0.075795
0.079993
0.087623
0.062327
0.071214
0.06157
0.069363
0.053595
0.048102
0.051885
0.054223
0.052265
0.050144
0.053505
0.064129
0.051727
0.060746
0.080813
0.078074
0.059994
0.067505
0.091717
0.101899
0.084669
0.062195
0.037947
0.048606
0.044804
0.056578
0.068256
0.037927
0.021536
0.046166
0.045184
0.053222
0.059596
0.062623
0.073941
0.07274
0.049259
0.044485
0.061168
0.073534
0.082835
0.079368
0.073895
0.071097
0.057662
0.065065
0.060474
0.079344
0.033656
0.012187
0.033691
0.055255
0.049834
0.050659
0.066839
0.059535
0.051068
0.070976
0.070513
0.079475
0.078032
0.072313
0.053787
0.06393
0.064808
0.060608
0.069621
0.064773
0.05716
0.054706
0.060589
0.048097
0.062344
0.06807
0.087301
0.090179
0.073703
0.086278
0.099469
0.087986
0.082755
0.085728
0.078652
0.06581
0.080715
0.074463
0.081007
0.083518
0.067785
0.070103
0.08291
0.099073
0.090783
0.112174
0.119601
0.111612
0.137014
0.130244
0.130333
0.141921
0.148019
0.133104
0.145998
0.120547
0.124104
0.13124
0.108494
0.099014
0.101493
0.117325
0.112971
0.09671
0.118519
0.130364
0.146181
0.168075
0.161184
0.153479
0.139868
0.137577
0.152335
0.163879
0.1465
0.138479
0.129938
0.116555
0.122747
0.12286
0.144681
0.141639
0.144603
0.143875
0.153407
0.152824
0.165598
0.173502
0.172695
0.185989
0.158817
0.157114
0.163542
0.158181
0.141366
0.128738
0.110355
0.116441
0.101671
0.121882
0.124903
0.08997
0.074635
0.061599
0.088974
0.074488
0.085947
0.092848
0.088872
0.097568
0.10742
0.082623
0.072691
0.089556
0.079912
0.091031
0.07687
0.060179
0.050149
0.053329
0.070149
0.066427
0.0625
0.04207
0.056843
0.048555
0.050967
0.078339
0.069081
0.06851
0.059628
0.058571
0.053959
0.05304
0.045172
0.03263
0.034393
0.029043
0.025396
0.028142
0.02943
0.029159
0.035994
0.042337
0.02094
0.019979
0.019086
0.045094
0.042577
0.047814
0.046413
0.066002
0.079881
0.075533
0.039461
0.024715
0.022707
0.032036
0.030014
0.018987
0.010056
0.029014
0.024898
0.015396
0.016737
0.036806
0.021921
0.043349
0.045939
0.051689
0.058441
0.062401
0.052505
0.051003
0.046962
0.044209
0.023398
0.005418
0.006293
-0.013451
-0.003127
-0.023463
-0.040459
-0.016675
0.003841
0.03281
0.037442
0.02737
0.028723
0.032805
0.05949
0.063684
0.071846
0.100136
0.104526
0.121746
0.158334
0.177787
0.188223
0.215115
0.237406
0.292174
0.345335
0.383424
0.435662
0.447823
0.522874
0.591743
0.646366
0.679122
0.710306
0.745443
0.784353
0.792581
0.808793
0.839908
0.825962
0.812158
0.791351
0.764552
0.7384
0.689201
0.646895
0.620402
0.574253
0.510802
0.458243
0.407338
0.386551
0.366961
0.365905
0.30646
0.27941
0.258003
0.235046
0.187703
0.129627
0.069624
0.042222
0.032333
-0.010304
-0.003649
0.007221
0.018584
0.014945
0.015894
0.042611
0.065194
0.054814
0.062018
0.07538
0.103289
0.106717
0.074441
0.082434
0.085729
0.090493
0.094039
0.080072
0.064254
0.076414
0.088396
0.081434
0.063991
0.076511
0.076387
0.079736
0.104038
0.090012
0.088956
0.094157
0.103861
0.123967
0.08587
0.079419
0.097886
0.085419
0.078846
0.064675
0.057381
0.066319
0.060385
0.079617
0.075208
0.06452
0.07277
0.096022
0.102902
0.111252
0.125854
0.117147
0.116037
0.091072
0.093471
0.085969
0.093816
0.085928
0.082923
0.069335
0.066429
0.087192
0.083359
0.067481
0.054055
0.061858
0.076903
0.076678
0.088224
0.106135
0.103883
0.112708
0.105218
0.120621
0.109447
0.09652
0.104837
0.09824
0.091343
0.076332
0.054521
0.063317
0.061697
0.08222
0.078815
0.098072
0.127959
0.108544
0.095731
0.124588
0.108311
0.114304
0.115625
0.115774
0.115027
0.10539
0.096836
0.093391
0.087111
0.0882
0.09043
0.101278
0.130138
0.106062
0.069959
0.074946
0.076271
0.071187
0.097038
0.10992
0.116105
0.13131
0.116026
0.104201
0.099471
0.106086
0.107211
0.10598
0.094602
0.074808
0.082591
0.079636
0.089802
0.101278
0.105107
0.100783
0.112955
0.108899
0.115708
0.124718
0.127978
0.131833
0.115907
0.124762
0.133553
0.106995
0.099672
0.107874
0.124047
0.12918
0.106985
0.134407
0.123131
0.112865
0.122352
0.122384
0.129531
0.111423
0.1206
0.126938
0.128012
0.17849
0.166493
0.156115
0.140339
0.153332
0.151775
0.135999
0.13678
0.114382
0.115934
0.104715
0.11699
0.122071
0.143922
0.154533
0.151201
0.152037
0.164106
0.200708
0.174337
0.166669
0.155385
0.174371
0.179321
0.174464
0.184106
0.171948
0.148395
0.148741
0.187141
0.154906
0.150106
0.171429
0.186417
0.151916
0.168147
0.208334
0.214737
0.221166
0.226785
0.219637
0.229653
0.232639
0.246092
0.235811
0.220173
0.216343
0.231348
0.226026
0.21463
0.213808
0.238289
0.243909
0.230328
0.228756
0.237797
0.251273
0.253072
0.267507
0.276598
0.257491
0.26744
0.270079
0.280393
0.283881
0.272553
0.221019
0.248465
0.243069
0.242134
0.231717
0.225672
0.2545
0.246553
0.223696
0.250685
0.256021
0.275344
0.289595
0.296282
0.302281
0.292487
0.283858
0.258639
0.23302
0.245503
0.284481
0.240134
0.209109
0.212161
0.209617
0.189802
0.196839
0.216136
0.212216
0.210415
0.178891
0.222483
0.23849
0.23241
0.213351
0.217023
0.217625
0.204983
0.192123
0.179277
0.17025
0.170238
0.155777
0.143442
0.135554
0.130373
0.127771
0.135599
0.155916
0.145724
0.156579
0.129789
0.130882
0.122264
0.140934
0.161167
0.139168
0.1034
0.098067
0.097323
0.104779
0.089651
0.065739
0.07296
0.073958
0.060946
0.067846
0.08675
0.075664
0.063058
0.075461
0.095528
0.113553
0.11
0.108627
0.095219
0.090984
0.088926
0.060872
0.067173
0.069545
0.054805
0.053077
0.051616
0.041086
0.038873
0.049362
0.055612
0.051074
0.055803
0.040701
0.062808
0.116847
0.093945
0.068044
0.063602
0.055196
0.058431
0.062362
0.050527
0.058536
0.036366
0.015336
0.026531
0.046487
0.059326
0.050632
0.038687
0.051359
0.05525
0.038243
0.068222
0.069534
0.070232
0.061281
0.067754
0.061858
0.049349
0.077546
0.06033
0.054866
0.031455
0.025739
0.043795
0.019816
0.032562
0.039509
0.03633
0.053843
0.059807
0.057658
0.058696
0.065057
0.069689
0.080873
0.079183
0.109686
0.073784
0.030936
0.015793
0.02412
0.034546
0.035807
0.020454
0.038995
0.049238
0.073651
0.062705
0.056474
0.042608
0.052879
0.08175
0.070819
0.066808
0.061798
0.055926
0.055349
0.03453
0.048267
0.062318
0.056056
0.051312
0.055238
0.065542
0.075223
0.067443
0.065655
0.066592
0.067179
0.076837
0.068156
0.058558
0.108315
0.108822
0.111341
0.105904
0.09298
0.088539
0.064153
0.040621
0.059772
0.044432
0.073487
0.048541
0.050422
0.050383
0.06517
0.055089
0.049542
0.056438
0.067185
0.084689
0.090422
0.096493
0.092714
0.10535
0.081705
0.082215
0.088163
0.086603
0.067344
0.070069
0.067183
0.072678
0.069169
0.06109
0.06882
0.082093
0.081604
0.108071
0.102389
0.086787
0.086054
0.067597
0.084113
0.096526
0.090887
0.082933
0.083548
0.069265
0.072579
0.063246
0.062852
0.057877
0.056164
0.046382
0.049986
0.068992
0.061562
0.064012
0.088522
0.107506
0.101047
0.111581
0.099065
0.107308
0.099696
0.103079
0.100015
0.092184
0.092734
0.082304
0.055862
0.065258
0.030689
0.046245
0.027841
0.041641
0.084186
0.080732
0.097618
0.086407
0.103848
0.100893
0.094515
0.083959
0.076391
0.079258
0.064059
0.079857
0.070912
0.046605
0.057555
0.060506
0.058943
0.054232
0.054541
0.064911
0.060893
0.085346
0.083077
0.081401
0.087271
0.081853
0.086818
0.092327
0.10259
0.084616
0.087625
0.083068
0.073019
0.051563
0.060238
0.063834
0.069836
0.086042
0.043546
0.03257
0.033117
0.066194
0.066201
0.073642
0.082329
0.089607
0.09174
0.083327
0.087461
0.072129
0.072861
0.074149
0.051672
0.032603
0.054896
0.050174
0.040135
0.044212
0.04737
0.059464
0.061111
0.048441
0.059297
0.088225
0.127229
0.102778
0.095721
0.097108
0.082007
0.073453
0.060764
0.050338
0.068979
0.061407
0.043158
0.034164
0.033939
0.035644
0.038341
0.037607
0.060994
0.065874
0.087226
0.097075
0.079926
0.069551
0.059101
0.080438
0.085074
0.081441
0.083851
0.080611
0.071542
0.063431
0.05308
0.042476
0.049219
0.047315
0.06008
0.069982
0.055684
0.064626
0.060957
0.069932
0.07586
0.082244
0.106684
0.092673
0.087017
0.079338
0.074552
0.079156
0.096814
0.074953
0.055264
0.028374
-0.005602
0.013336
0.040289
0.032868
0.041861
0.049664
0.058762
0.073205
0.093194
0.070285
0.052805
0.078526
0.064666
0.065336
0.063084
0.049132
0.036639
0.074353
0.058289
0.050329
0.064638
0.072572
0.060993
0.046054
0.065935
0.057566
0.060493
0.05531
0.066917
0.056764
0.080973
0.093407
0.088389
0.081944
0.056894
0.05772
0.065866
0.039695
0.035375
0.026922
0.038109
0.053128
0.063383
0.051996
0.051366
0.030612
0.038701
0.080541
0.092111
0.081175
0.10064
0.102637
0.05854
0.043428
0.072853
0.06664
0.054652
0.046042
0.047457
0.044148
0.047941
0.058254
0.062764
0.064732
0.063227
0.066358
0.091681
0.086681
0.075782
0.089054
0.090717
0.068637
0.078197
0.078843
0.06069
0.059481
0.058806
0.073206
0.047766
0.043055
0.044378
0.037591
0.039896
0.063842
0.069073
0.0622
0.047256
0.068387
0.088751
0.091731
0.100266
0.093373
0.090056
0.072878
0.064813
0.063928
0.063057
0.045815
0.041342
0.034552
0.037892
0.061063
0.070721
0.064478
0.075076
0.059679
0.09335
0.075461
0.093717
0.081162
0.081568
0.095201
0.092931
0.102613
0.098025
0.090709
0.068246
0.032928
0.046883
0.068661
0.067243
0.062965
0.057872
0.086956
0.083122
0.085405
0.109751
0.121852
0.134785
0.151276
0.158314
0.145673
0.120151
0.110006
0.123923
0.123068
0.121152
0.111281
0.112555
0.112512
0.102175
0.112793
0.133969
0.126745
0.116232
0.137388
0.140985
0.128367
0.124215
0.146184
0.167388
0.166234
0.143251
0.13908
0.130381
0.14818
0.130515
0.129065
0.141946
0.135988
0.140461
0.144191
0.170722
0.149863
0.157501
0.166212
0.15397
0.174161
0.195837
0.189662
0.178759
0.168088
0.14131
0.131447
0.140714
0.146229
0.121352
0.108868
0.100164
0.077106
0.075125
0.085227
0.088449
0.090754
0.094256
0.096678
0.105339
0.108821
0.085791
0.11678
0.120494
0.108236
0.113222
0.099367
0.094521
0.070952
0.065157
0.044384
0.055631
0.047261
0.041045
0.033189
0.035294
0.034811
0.050263
0.070369
0.065724
0.077742
0.082463
0.066746
0.044705
0.04723
0.072088
0.062585
0.036553
0.034712
0.041276
0.049119
0.041756
-0.008765
0.000063
0.035382
0.065521
0.049938
0.02723
0.050465
0.048829
0.042855
0.048995
0.056243
0.061729
0.065146
0.07717
0.057834
0.019264
0.041111
0.065896
0.040023
0.037688
0.02612
0.033656
0.016667
0.016073
0.045011
0.038266
0.04255
0.050565
0.051702
0.055002
0.065555
0.059101
0.067017
0.050139
0.064326
0.063747
0.039488
0.038409
0.036558
0.033077
-0.006302
-0.014646
-0.011924
-0.011819
-0.000215
0.008455
0.021482
0.043976
0.047041
0.034473
0.031243
0.028202
0.039426
0.067836
0.093882
0.074446
0.078059
0.102383
0.123497
0.130576
0.181932
0.227419
0.258669
0.284138
0.335224
0.391246
0.45106
0.472904
0.50094
0.568387
0.659862
0.688865
0.701577
0.736781
0.751608
0.795444
0.813251
0.830154
0.828
0.82651
0.796369
0.756127
0.746762
0.692553
0.649285
0.633679
0.577278
0.519257
0.457871
0.418577
0.39452
0.356817
0.339507
0.32887
0.303286
0.245689
0.210669
0.173904
0.13825
0.102774
0.060016
0.045129
0.035437
0.019864
0.049795
0.051794
0.02515
0.062983
0.067332
0.079362
0.072135
0.073935
0.082116
0.078376
0.069089
0.076876
0.102947
0.092087
0.068063
0.086682
0.071572
0.072028
0.080075
0.098563
0.096159
0.097185
0.094846
0.128264
0.127365
0.079462
0.102001
0.131875
0.136213
0.137092
0.110691
0.088529
0.08041
0.06588
0.061193
0.087304
0.052523
0.074941
0.082832
0.088095
0.05855
0.096214
0.073121
0.091146
0.102176
0.123624
0.128707
0.109602
0.106582
0.109888
0.114849
0.107358
0.115489
0.102136
0.065293
0.083541
0.093788
0.089442
0.105506
0.096322
0.092948
0.101552
0.104846
0.102453
0.119274
0.115995
0.12192
0.121362
0.114191
0.120571
0.086139
0.099813
0.096206
0.074339
0.090449
0.088323
0.08204
0.0815
0.099411
0.098308
0.112282
0.110059
0.124433
0.13562
0.138274
0.120945
0.130396
0.121264
0.145205
0.130763
0.095704
0.112011
0.086309
0.066787
0.082732
0.10484
0.095168
0.08408
0.075576
0.096688
0.096632
0.107231
0.121569
0.130458
0.130964
0.134073
0.138283
0.124329
0.136731
0.130653
0.131035
0.119979
0.111092
0.085709
0.088458
0.09381
0.094291
0.093952
0.125634
0.122482
0.117171
0.137901
0.140678
0.122995
0.113445
0.132291
0.146572
0.137542
0.133573
0.122826
0.12637
0.120801
0.103935
0.121166
0.122374
0.11256
0.102585
0.110058
0.127276
0.1475
0.125619
0.139144
0.155235
0.172596
0.150513
0.161484
0.16431
0.158434
0.14165
0.146919
0.130115
0.125193
0.131442
0.131487
0.127283
0.146949
0.144168
0.132465
0.13656
0.152567
0.162084
0.17826
0.182384
0.187861
0.198496
0.191492
0.200918
0.20498
0.211
0.18942
0.204392
0.195846
0.187591
0.178914
0.149749
0.171292
0.202871
0.202068
0.196582
0.171933
0.20715
0.195626
0.188963
0.223769
0.225506
0.231064
0.242776
0.237862
0.236749
0.242814
0.249585
0.260704
0.255171
0.239384
0.213276
0.218837
0.228769
0.22397
0.216148
0.239976
0.250572
0.249961
0.264123
0.282046
0.292265
0.28628
0.294798
0.292731
0.29114
0.294472
0.286312
0.277231
0.280985
0.283249
0.281612
0.289852
0.282985
0.251741
0.239287
0.259108
0.265989
0.263803
0.274718
0.298664
0.302284
0.299945
0.304293
0.317569
0.314783
0.30273
0.284337
0.272105
0.281099
0.267524
0.258503
0.254323
0.239332
0.243265
0.257642
0.266187
0.260022
0.231054
0.237504
0.26468
0.25607
0.255299
0.248542
0.245318
0.236735
0.223293
0.223924
0.200043
0.200802
0.20055
0.205655
0.167404
0.161937
0.171715
0.172052
0.172434
0.149947
0.151694
0.161774
0.179901
0.194293
0.182824
0.18473
0.170846
0.149476
0.157328
0.155284
0.125392
0.123261
0.117163
0.113806
0.116876
0.107902
0.105881
0.10824
0.105481
0.095488
0.100234
0.088541
0.104906
0.125292
0.108378
0.104533
0.094513
0.099292
0.106485
0.096177
0.096326
0.08308
0.064349
0.073165
0.060474
0.065009
0.061953
0.072185
0.04766
0.038792
0.089549
0.099096
0.109576
0.061079
0.066172
0.102262
0.090686
0.089372
0.06934
0.072496
0.08592
0.054208
0.051407
0.046819
0.040088
0.029824
0.055538
0.057431
0.052582
0.054763
0.075389
0.0716
0.069725
0.070753
0.076788
0.081615
0.078321
0.063723
0.066468
0.073007
0.07387
0.052307
0.054292
0.037002
0.036091
0.030255
0.053942
0.05132
0.051719
0.045655
0.05368
0.071988
0.086585
0.068719
0.075834
0.091847
0.066825
0.067705
0.056281
0.053766
0.038376
0.05975
0.056521
0.021964
0.037319
0.04586
0.060674
0.073796
0.072935
0.067058
0.075634
0.069033
0.080441
0.091941
0.103238
0.088307
0.100858
0.1045
0.082332
0.078638
0.076175
0.090822
0.076111
0.066128
0.049457
0.052887
0.035362
0.056796
0.06843
0.064676
0.06716
0.072655
0.090348
0.110527
0.099805
0.095745
0.092436
0.101594
0.097855
0.072627
0.061035
0.095209
0.104935
0.097134
0.074975
0.058544
0.077079
0.084151
0.087631
0.082744
0.087446
0.087864
0.100441
0.123344
0.103382
0.087066
0.09148
0.106276
0.099572
0.096263
0.093695
0.077975
0.073577
0.080728
0.087972
0.076246
0.047058
0.056957
0.086096
0.092153
0.096302
0.091906
0.108652
0.137034
0.143306
0.1228
0.114961
0.123902
0.103054
0.100067
0.109656
0.101934
0.09757
0.086034
0.087027
0.094111
0.088626
0.088635
0.089211
0.088244
0.102346
0.101185
0.091199
0.103346
0.108398
0.10061
0.105499
0.116962
0.099596
0.104294
0.119132
0.098941
0.080971
0.041838
0.037417
0.071833
0.085019
0.052497
0.077776
0.093529
0.106453
0.104243
0.12192
0.133073
0.107598
0.101923
0.115484
0.103388
0.092402
0.101129
0.083295
0.083595
0.074717
0.071578
0.077511
0.088065
0.086138
0.061935
0.075243
0.09432
0.107165
0.104356
0.104129
0.109178
0.116688
0.117882
0.1174
0.098794
0.099644
0.088895
0.074332
0.066046
0.045893
0.070297
0.075524
0.072522
0.076854
0.094536
0.084678
0.099429
0.09947
0.095506
0.124739
0.119397
0.125211
0.114842
0.106981
0.061034
0.069639
0.076633
0.072853
0.074215
0.076581
0.078522
0.061148
0.04773
0.057912
0.066828
0.077476
0.073558
0.066451
0.082674
0.101473
0.093948
0.109351
0.130385
0.118635
0.085612
0.085688
0.097306
0.087811
0.078736
0.058858
0.052525
0.043296
0.059901
0.072045
0.060209
0.050742
0.053705
0.076837
0.083151
0.091852
0.08611
0.104743
0.111228
0.097048
0.092523
0.098281
0.099375
0.100826
0.082796
0.062001
0.05473
0.068908
0.072826
0.074604
0.048097
0.073165
0.058682
0.040605
0.058615
0.088025
0.106641
0.111312
0.096053
0.096553
0.0774
0.077977
0.073944
0.059631
0.071295
0.076645
0.060021
0.045634
0.059749
0.044026
0.050156
0.055565
0.073103
0.06644
0.090997
0.092702
0.097587
0.094522
0.113913
0.122427
0.101356
0.084841
0.079246
0.082801
0.070343
0.066442
0.066375
0.063114
0.051729
0.059968
0.075783
0.071547
0.059726
0.062219
0.069202
0.089289
0.101469
0.099514
0.116548
0.10113
0.080595
0.083636
0.091506
0.076585
0.078181
0.079894
0.064299
0.051066
0.056007
0.062982
0.069776
0.073479
0.079851
0.074934
0.095194
0.093506
0.090649
0.059446
0.055085
0.082697
0.094975
0.092745
0.085808
0.078536
0.054273
0.058303
0.059471
0.052456
0.061421
0.055907
0.048288
0.081982
0.062474
0.068709
0.091654
0.097724
0.115772
0.101974
0.079631
0.085915
0.090834
0.080974
0.083251
0.086296
0.080592
0.065903
0.067484
0.056802
0.04334
0.050682
0.069407
0.063108
0.067893
0.083119
0.090987
0.094785
0.105646
0.098336
0.093308
0.101814
0.106617
0.081585
0.087141
0.083149
0.051808
0.056567
0.106517
0.099161
0.09823
0.066887
0.071062
0.044167
0.063474
0.079751
0.08633
0.094759
0.087951
0.111175
0.104577
0.09569
0.10065
0.108408
0.0848
0.035053
0.058194
0.070813
0.058528
0.050081
0.043433
0.072534
0.089421
0.088389
0.087336
0.059857
0.085085
0.128949
0.131227
0.113323
0.100126
0.087356
0.091424
0.084594
0.077683
0.069635
0.060654
0.073813
0.075467
0.062957
0.051648
0.074779
0.094731
0.083282
0.086122
0.088404
0.101676
0.109264
0.100849
0.125811
0.134299
0.139214
0.134815
0.131394
0.119883
0.140427
0.129365
0.125687
0.129797
0.117044
0.09151
0.105723
0.116558
0.133687
0.149469
0.129168
0.152401
0.160897
0.164444
0.146824
0.146235
0.131803
0.15616
0.158292
0.145065
0.145536
0.154026
0.136063
0.159373
0.162866
0.133961
0.154747
0.138406
0.112849
0.147928
0.159293
0.174527
0.181101
0.200474
0.201922
0.206911
0.196293
0.182961
0.164871
0.148069
0.155481
0.149017
0.147225
0.141951
0.14573
0.141881
0.129402
0.142651
0.164798
0.147734
0.163671
0.154493
0.165744
0.157285
0.153268
0.146288
0.155581
0.124185
0.089955
0.108403
0.106098
0.086068
0.079334
0.073509
0.063104
0.082252
0.074682
0.073052
0.082852
0.075847
0.074
0.074239
0.070329
0.083665
0.102064
0.108292
0.07162
0.055775
0.095991
0.099462
0.103474
0.099763
0.057733
0.054307
0.035936
0.042317
0.072532
0.068072
0.047083
0.059457
0.060853
0.095778
0.103021
0.09508
0.062522
0.060166
0.044562
0.029563
0.040043
0.039077
0.039506
0.041823
0.048114
0.07905
0.071982
0.047392
0.045685
0.026568
0.038809
0.034803
0.064395
0.063863
0.072833
0.086165
0.079991
0.067763
0.075189
0.064893
0.076635
0.068638
0.038996
0.036587
0.031903
0.035828
0.035028
0.055728
0.065619
0.048693
0.049034
0.057053
0.050795
0.06382
0.058641
0.065404
0.051192
0.035818
0.021998
0.023334
0.014679
0.013049
0.023756
0.003385
-0.014082
0.019098
0.035977
0.037654
0.051368
0.064826
0.092541
0.126903
0.14693
0.16398
0.213901
0.263421
0.302613
0.33461
0.371447
0.422264
0.437534
0.474447
0.499612
0.541845
0.575091
0.628267
0.627441
0.677739
0.729389
0.754438
0.810241
0.80972
0.839516
0.83766
0.807078
0.773884
0.762847
0.720183
0.671542
0.623646
0.584976
0.500809
0.427487
0.40377
0.373126
0.340481
0.32865
0.305839
0.266714
0.235582
0.21755
0.190293
0.164976
0.144305
0.125289
0.101635
0.087795
0.085904
0.080739
0.063518
0.049318
0.045251
0.066957
0.066004
0.033495
0.044456
0.054253
0.067021
0.090399
0.081588
0.093542
0.113099
0.104979
0.098523
0.126957
0.133374
0.122118
0.130064
0.141235
0.136044
0.108184
0.091933
0.08513
0.080377
0.076719
0.079896
0.086338
0.082355
0.107297
0.113783
0.105808
0.089032
0.093083
0.112369
0.117222
0.128983
0.130934
0.116956
0.121194
0.099985
0.101839
0.11787
0.126824
0.113115
0.098004
0.103337
0.072647
0.092651
0.097452
0.083828
0.067414
0.097836
0.115349
0.108684
0.145849
0.13534
0.143708
0.125538
0.119475
0.110277
0.108662
0.087529
0.085341
0.0953
0.087363
0.087141
0.089312
0.095946
0.087195
0.090283
0.106138
0.110572
0.103958
0.115855
0.126081
0.136962
0.117897
0.127727
0.121104
0.122913
0.108861
0.096216
0.097969
0.09829
0.093686
0.080355
0.093634
0.128606
0.129322
0.136004
0.122587
0.123301
0.140341
0.131779
0.120041
0.141841
0.130164
0.141861
0.151455
0.161301
0.148203
0.127129
0.107299
0.121504
0.116246
0.086966
0.073493
0.105415
0.11509
0.124962
0.100688
0.09709
0.100919
0.121184
0.141234
0.16468
0.152032
0.128388
0.137758
0.122621
0.101397
0.125724
0.132247
0.126403
0.108905
0.12147
0.131712
0.098994
0.099327
0.113902
0.144603
0.138189
0.135127
0.129018
0.125464
0.143067
0.143269
0.161393
0.156715
0.141481
0.139623
0.14399
0.146172
0.136049
0.140401
0.12623
0.147997
0.159342
0.148733
0.133981
0.140941
0.172359
0.188189
0.175749
0.199748
0.197609
0.192218
0.198157
0.204638
0.201596
0.174916
0.179093
0.187683
0.159234
0.153479
0.174148
0.17546
0.157725
0.149778
0.154945
0.168162
0.185197
0.19443
0.203009
0.21624
0.215051
0.21706
0.213912
0.232387
0.218606
0.217918
0.226418
0.217507
0.208369
0.197416
0.215062
0.206911
0.232004
0.246832
0.223619
0.246989
0.278615
0.260235
0.240136
0.266182
0.28881
0.292548
0.251734
0.266637
0.259627
0.253369
0.254913
0.268332
0.252497
0.236606
0.239197
0.251687
0.243623
0.25535
0.262177
0.257388
0.284547
0.30927
0.296261
0.302865
0.301353
0.289543
0.283475
0.305681
0.287879
0.272092
0.302148
0.299596
0.273323
0.276186
0.26087
0.293345
0.28527
0.261832
0.271787
0.26951
0.259947
0.253582
0.279285
0.312184
0.29257
0.292717
0.260859
0.259488
0.278056
0.270119
0.24169
0.252769
0.232813
0.241028
0.195344
0.197993
0.193971
0.223083
0.209822
0.215927
0.216156
0.208171
0.18366
0.196181
0.20793
0.197195
0.18643
0.203816
0.170758
0.180459
0.139218
0.149439
0.153428
0.144304
0.131939
0.128877
0.117569
0.141058
0.117798
0.128433
0.157492
0.166457
0.128221
0.157967
0.185856
0.185026
0.162559
0.151738
0.134704
0.117554
0.129869
0.121155
0.087125
0.081564
0.07609
0.064862
0.042726
0.068478
0.087448
0.096585
0.088256
0.094592
0.099378
0.11836
0.101574
0.086849
0.095557
0.088893
0.090211
0.077365
0.06233
0.07547
0.072404
0.068481
0.041304
0.06626
0.069551
0.06272
0.07286
0.067503
0.069476
0.080016
0.077269
0.087979
0.090368
0.064896
0.065002
0.065014
0.054233
0.055922
0.076088
0.033601
0.048396
0.043551
0.03769
0.061016
0.068965
0.07924
0.095257
0.111829
0.094973
0.104423
0.085862
0.106617
0.101429
0.11938
0.12262
0.100085
0.095145
0.100152
0.087826
0.076377
0.04447
0.046884
0.02517
0.031409
0.045483
0.034601
0.050019
0.07469
0.070641
0.072735
0.082142
0.075321
0.089541
0.054581
0.046157
0.038269
0.062091
0.049463
0.037596
0.033656
0.026826
0.054828
0.089939
0.071437
0.057883
0.063925
0.079355
0.077288
0.06862
0.081223
0.101022
0.094656
0.099027
0.131219
0.128159
0.111973
0.091694
0.083718
0.066042
0.051663
0.045687
0.056062
0.062251
0.059997
0.075215
0.06376
0.09953
0.097115
0.084391
0.113515
0.098499
0.124996
0.133652
0.126047
0.122722
0.131757
0.107366
0.081197
0.109291
0.070945
0.04782
0.054575
0.064998
0.072008
0.069878
0.074994
0.065567
0.078218
0.105778
0.124695
0.142112
0.155762
0.155838
0.146081
0.121073
0.106898
0.122553
0.102004
0.101666
0.094456
0.08269
0.059285
0.054065
0.090536
0.076432
0.078107
0.098345
0.123689
0.127567
0.112868
0.138556
0.141783
0.120883
0.087276
0.085034
0.07947
0.086518
0.068122
0.071037
0.071487
0.070371
0.086007
0.063717
0.041268
0.064978
0.086914
0.078728
0.072808
0.07553
0.106057
0.094727
0.098599
0.116351
0.116484
0.105674
0.095182
0.109597
0.102014
0.072993
0.084731
0.08234
0.042752
0.019119
0.03017
0.042583
0.051388
0.047718
0.08581
0.089257
0.082449
0.087825
0.10147
0.131469
0.132107
0.122607
0.101957
0.122428
0.094259
0.059528
0.071164
0.109926
0.097481
0.070064
0.084608
0.110356
0.085511
0.092672
0.091307
0.078836
0.110715
0.100035
0.069218
0.067507
0.07357
0.075977
0.093356
0.079271
0.083711
0.08315
0.070311
0.084707
0.057849
0.055769
0.036787
0.023861
0.046865
0.073944
0.105822
0.092936
0.077152
0.109693
0.115873
0.116538
0.125725
0.109095
0.108918
0.104017
0.097328
0.088156
0.096918
0.073313
0.073308
0.055378
0.040402
0.043659
0.058221
0.066547
0.073447
0.061859
0.117953
0.095681
0.063524
0.095429
0.074308
0.093608
0.109589
0.094676
0.084395
0.059617
0.068962
0.054025
0.049532
0.068634
0.086365
0.074293
0.064263
0.058654
0.032018
0.02805
0.046674
0.045897
0.023914
0.025331
0.047936
0.061375
0.071949
0.090143
0.065851
0.077828
0.09621
0.058276
0.058541
0.050595
0.030388
0.050561
0.047712
0.060971
0.06633
0.060434
0.059137
0.069462
0.070695
0.085065
0.043336
0.052511
0.064128
0.060696
0.062129
0.062609
0.06907
0.07108
0.003561
-0.006084
0.025991
0.027121
0.03723
0.046028
0.059673
0.054079
0.057881
0.064214
0.059617
0.04075
0.053046
0.061794
0.049982
0.053285
0.051097
0.044088
0.049025
0.011693
0.027045
0.028619
0.022111
0.05598
0.074086
0.084102
0.083437
0.111577
0.092995
0.083508
0.068011
0.105556
0.11219
0.099862
0.077926
0.058219
0.07111
0.076793
0.079108
0.07291
0.045428
0.030911
0.03333
0.027548
0.043821
0.038531
0.066011
0.080995
0.055088
0.093246
0.107946
0.109998
0.082251
0.068064
0.070947
0.077821
0.090423
0.078281
0.092316
0.081525
0.078872
0.06122
0.060165
0.047596
0.039987
0.041713
0.042825
0.068693
0.072516
0.079627
0.090357
0.063984
0.063449
0.070272
0.060496
0.072781
0.059192
0.058258
0.035959
0.037645
0.044231
0.021914
0.026248
0.045806
0.060053
0.056985
0.053311
0.059358
0.07267
0.084828
0.075358
0.054835
0.077587
0.072145
0.080503
0.071413
0.032029
0.034849
0.024544
0.020617
0.019764
0.055152
0.020354
0.009051
0.027964
0.054318
0.05505
0.067345
0.094819
0.113373
0.084257
0.072095
0.076164
0.06808
0.101428
0.100453
0.04911
0.048435
0.040864
0.030117
0.032714
0.048564
0.057532
0.045826
0.056252
0.058368
0.085946
0.089451
0.072939
0.09846
0.076983
0.08886
0.100885
0.111043
0.076951
0.054187
0.059776
0.055812
0.066607
0.079884
0.104631
0.110681
0.053005
0.045585
0.064474
0.080859
0.074263
0.095354
0.121971
0.14481
0.139974
0.160939
0.120566
0.110833
0.116559
0.110724
0.105149
0.116032
0.103345
0.103914
0.119741
0.121783
0.117383
0.142151
0.14014
0.130155
0.126904
0.13028
0.148655
0.14655
0.143463
0.154943
0.170726
0.167255
0.153059
0.15757
0.148127
0.144493
0.159915
0.143501
0.130192
0.113056
0.092374
0.11051
0.135336
0.126018
0.119667
0.127167
0.111062
0.13676
0.152299
0.142678
0.152197
0.135355
0.122531
0.115195
0.109171
0.102001
0.06281
0.103483
0.113507
0.107413
0.091825
0.076746
0.059684
0.083524
0.094341
0.089406
0.091209
0.086919
0.08673
0.107256
0.098993
0.086332
0.059066
0.050846
0.053336
0.062856
0.051677
0.026986
0.018515
0.023778
0.026947
0.025687
-0.005419
0.022586
0.03401
0.038038
0.02503
0.050669
0.045344
0.010043
0.052224
0.069236
0.050668
0.044873
0.035286
0.019118
-0.034331
-0.054351
-0.064082
-0.058404
-0.006091
0.079466
0.07364
0.116407
0.096017
0.116368
0.114424
0.08873
0.059472
-0.010509
-0.042418
-0.054142
-0.001819
0.021118
0.016776
0.016521
0.017447
0.027872
-0.007335
-0.013433
0.004486
0.005391
-0.006617
0.013055
0.02359
0.026603
0.014262
0.029631
0.011425
0.04889
0.05131
0.056667
0.034921
0.02194
0.012114
-0.01993
-0.033326
-0.049776
-0.032209
-0.013444
-0.006519
-0.015227
-0.006031
-0.00836
0.00881
0.036355
0.06754
0.068081
0.097738
0.100375
0.131005
0.159076
0.176794
0.223992
0.25597
0.301735
0.296066
0.354536
0.375077
0.443271
0.48233
0.550929
0.573531
0.648134
0.692332
0.737775
0.788001
0.828277
0.848481
0.868174
0.852075
0.863158
0.827628
0.757891
0.715097
0.713629
0.67729
0.615682
0.557279
0.466229
0.397992
0.35203
0.352228
0.331536
0.271361
0.263679
0.240739
0.235217
0.204857
0.175343
0.135345
0.084689
0.082795
0.064122
0.034896
0.006972
-0.002882
-0.001999
0.017484
0.00297
0.023968
-0.020929
-0.015629
0.027305
0.046367
0.051356
0.062945
0.080295
0.112441
0.087999
0.072234
0.076657
0.098438
0.096079
0.088579
0.077003
0.106969
0.10835
0.109956
0.092363
0.066586
0.052477
0.06818
0.038358
0.061971
0.075244
0.070372
0.087302
0.101464
0.107428
0.098647
0.082434
0.080343
0.048942
0.025924
0.031757
0.006164
0.011625
0.006167
0.027856
0.04321
0.032689
0.029504
0.059695
0.049777
0.04866
0.03951
0.060135
0.078252
0.091955
0.071027
0.075415
0.090981
0.095701
0.106029
0.09194
0.101113
0.0981
0.078131
0.048956
0.0577
0.081459
0.100744
0.10409
0.101043
0.112578
0.112215
0.125012
0.092553
0.094594
0.089633
0.109252
0.098342
0.066297
0.070665
0.087274
0.095916
0.080383
0.069356
0.081682
0.087253
0.085789
0.083199
0.096774
0.089806
0.083948
0.108528
0.113344
0.122318
0.133863
0.118647
0.107944
0.102248
0.120388
0.083889
0.087966
0.061963
0.033655
0.059251
0.047799
0.058537
0.074912
0.077124
0.088928
0.082291
0.094479
0.112713
0.126633
0.10638
0.077417
0.094892
0.10475
0.114515
0.107779
0.115087
0.13375
0.149059
0.144303
0.075273
0.072409
0.085256
0.111226
0.132242
0.10769
0.088063
0.08306
0.11057
0.136787
0.137454
0.114654
0.125002
0.148202
0.126129
0.078363
0.069543
0.095431
0.105312
0.079748
0.082314
0.115956
0.144108
0.144342
0.115952
0.11276
0.133729
0.118084
0.12224
0.128289
0.146257
0.155807
0.148841
0.123663
0.104144
0.134416
0.156579
0.128159
0.124765
0.162914
0.196672
0.15672
0.155294
0.128217
0.109388
0.110227
0.122031
0.130524
0.153828
0.166774
0.191953
0.241002
0.216251
0.209783
0.188535
0.197442
0.194082
0.187137
0.1591
0.146979
0.193718
0.215795
0.220899
0.190154
0.161593
0.169566
0.151469
0.19719
0.239174
0.216684
0.217909
0.211266
0.249586
0.263272
0.241956
0.239024
0.233946
0.255869
0.260312
0.25116
0.253118
0.250916
0.247541
0.286243
0.270677
0.231363
0.306572
0.281516
0.280642
0.290879
0.334854
0.309698
0.258074
0.271253
0.265735
0.261191
0.25929
0.253569
0.286022
0.310426
0.266634
0.222581
0.26682
0.282118
0.25598
0.269651
0.292961
0.308128
0.316781
0.265062
0.222238
0.241586
0.227514
0.256847
0.274289
0.235264
0.176562
0.175472
0.220538
0.221973
0.15445
0.138856
0.090405
0.091685
0.157509
0.190531
0.224964
0.247626
0.229633
0.238945
0.237066
0.241453
0.229879
0.187572
0.226643
0.200287
0.0944
0.177204
0.150237
0.139648
0.095588
0.119715
0.111673
0.063097
0.039685
0.034707
0.111005
0.114277
0.092356
0.157914
0.161302
0.115091
0.141745
0.097826
0.128276
0.182787
0.079609
0.006142
0.059385
0.086783
0.019301
0.024828
0.022791
0.05811
0.082603
0.075163
0.064507
0.09455
0.053092
0.046441
0.089349
0.084779
0.104379
0.050755
0.076215
0.063559
0.030757
0.027
0.048359
0.019391
0.120411
0.081287
0.012126
0.041272
0.003028
0.024184
0.060332
0.058812
0.062122
0.047578
0.07174
0.07986
0.058192
0.034768
0.056685
0.074928
0.033864
-0.028561
0.010751
-0.029738
-0.010742
0.00501
-0.000052
-0.075367
-0.008649
0.004206
0.035762
-0.002546
0.021669
0.034619
0.098287
0.047864
0.085129
0.090354
0.036013
0.02196
0.026685
0.040504
0.059659
0.042672
-0.019626
0.028642
0.060399
0.018109
0.031157
0.047036
0.049352
0.051548
-0.005561
0.028486
0.021724
0.030595
0.03924
0.068046
0.021853
0.017148
0.00783
-0.020006
0.0296
0.02992
-0.006867
0.002678
0.004597
0.017685
-0.008985
-0.01265
-0.002588
0.031794
0.050659
0.094803
0.062924
-0.008974
-0.031487
0.029456
0.057198
0.034875
0.046235
0.040209
0.025466
0.071733
0.054414
0.049142
0.05907
0.013971
0.012013
0.030365
0.032188
0.039483
0.009003
0.037565
0.052793
0.038022
0.075823
0.054972
0.084651
0.054634
0.055389
0.070189
0.053228
0.069294
0.044434
0.005775
0.036207
0.078611
0.053548
0.060689
0.075038
0.051859
0.070683
0.084316
0.064928
0.070596
0.067081
0.053675
0.072698
0.118324
0.095663
-0.010338
-0.052117
0.003412
0.034574
0.110669
0.019437
-0.044679
-0.021073
-0.005109
0.021059
0.03198
0.050536
0.073344
0.073008
0.061472
0.076203
0.034309
0.044343
0.047658
-0.017165
-0.029492
0.022423
0.032165
-0.004262
-0.005655
0.063424
0.055509
0.084543
0.082983
0.086381
0.089667
0.054943
0.04469
0.060363
0.054056
0.058328
0.050469
0.074533
0.047448
0.055327
0.092821
0.056109
-0.040233
0.024405
0.013159
0.010921
-0.00467
0.013495
0.026107
0.041845
0.092607
0.065821
0.102004
0.069851
0.050774
0.065701
0.066838
0.094418
-0.005101
0.100086
0.052925
0.006839
0.06537
0.015161
-0.02534
0.022702
0.031297
-0.008337
0.045787
0.039927
0.019837
0.089411
0.069461
0.018219
0.080866
0.080141
0.042237
0.057048
0.034326
0.030285
0.014681
0.041694
0.024779
0.011163
0.053202
0.027449
0.007261
0.014426
0.034705
0.047422
0.045197
0.110646
0.008691
0.025806
0.019088
-0.008353
0.006469
0.051371
0.083987
-0.015109
-0.023286
-0.030282
-0.020868
0.008229
0.038937
0.038236
-0.01814
-0.014955
-0.031354
-0.005372
0.029586
0.049812
0.055234
0.059046
0.056085
0.041524
0.045715
0.039036
0.038747
0.040495
0.038228
-0.037795
0.025982
0.021002
0.031133
0.091312
0.108418
-0.077712
-0.043768
0.002234
0.020345
0.059142
0.086718
0.032339
-0.003799
0.000752
0.049868
0.032818
-0.027165
-0.006764
0.015413
0.012875
0.021277
0.03622
0.030937
0.035293
0.039237
0.075906
0.058599
0.004549
0.071617
0.033588
-0.006367
-0.001596
0.026073
-0.068103
-0.031165
0.016791
-0.018375
0.033738
0.051581
0.022227
0.025152
0.043167
0.032269
-0.034452
0.001675
-0.018661
0.021231
0.086422
0.075749
0.042878
0.040765
0.007312
0.000003
0.02935
0.071226
-0.023252
-0.02519
-0.003008
-0.003052
-0.004349
0.029537
0.01
0.002519
0.007072
0.016058
0.014382
0.02191
0.044331
0.027521
0.012073
0.032671
0.037489
0.044891
0.044439
0.009557
0.019013
0.042314
0.03502
0.02127
-0.045095
-0.045688
-0.013935
0.056039
-0.078994
-0.002342
-0.017289
-0.035885
-0.024677
0.007145
0.065871
0.05758
0.030985
0.084012
0.07569
0.091933
0.084553
0.118161
0.109977
0.028461
0.020187
0.018247
0.007389
-0.01103
-0.004502
0.022972
0.016762
0.052052
-0.008901
-0.009743
0.025385
0.062208
0.01029
0.019336
-0.024857
-0.029309
-0.051145
-0.000585
-0.027971
-0.038309
-0.017538
-0.062912
-0.019184
-0.059047
-0.012541
0.039078
0.013036
0.049868
0.012763
-0.050135
0.017927
0.04696
0.105381
0.054298
0.058299
0.062464
0.051645
0.010391
0.034168
0.016062
0.021754
0.049926
0.056223
0.059615
-0.00558
0.016181
-0.020045
-0.000255
0.000335
0.024048
0.075232
0.070176
0.058295
0.068808
0.053462
0.00683
0.044091
0.035718
0.039771
-0.078168
-0.174801
-0.083388
-0.092325
-0.04867
-0.049632
0.002852
-0.004493
0.032879
0.035996
-0.007623
0.016243
0.001767
0.06909
0.04495
0.059115
-0.028202
0.070907
0.001701
0.030535
0.063995
-0.015548
0.004286
-0.039276
-0.032314
0.047858
-0.016681
-0.002962
0.020838
-0.05106
0.030654
0.075133
0.120984
0.057919
0.063131
0.044162
0.040908
0.050344
0.058965
0.056926
-0.052955
-0.002649
0.059771
0.035261
0.049263
0.059963
0.079881
0.074915
0.116691
0.080674
0.088743
0.043857
0.120846
0.12572
0.072076
0.074314
0.08195
0.086344
0.121048
0.130615
0.165971
0.076025
0.029341
0.121713
0.130412
0.091579
0.131321
0.096871
0.115907
0.073549
0.042708
0.042933
0.097919
0.13888
0.140652
0.107664
0.13056
0.14608
0.055688
0.05203
0.00783
-0.0245
0.048702
0.061481
0.089052
0.104111
0.162084
0.15457
0.088441
0.03885
-0.019514
0.074695
0.085895
0.063654
0.134297
0.106806
0.108321
0.084369
0.119775
0.111019
0.113917
0.094109
0.080643
0.008553
0.013698
-0.113969
0.016169
0.003692
-0.004629
0.033945
0.036076
0.016204
0.047796
0.007304
-0.002384
-0.018588
0.034198
0.08888
0.011952
-0.039623
-0.034351
-0.008991
0.087456
-0.04981
-0.099898
-0.05198
0.034902
-0.001378
-0.026796
-0.000477
0.044188
0.004665
0.037589
0.023628
0.035271
0.008396
-0.062509
-0.0728
-0.061461
-0.089677
-0.06663
-0.01025
-0.049079
-0.043408
0.015194
-0.032099
-0.010569
0.000106
-0.019006
-0.028217
-0.035311
0.0628
0.007389
-0.017083
0.024511
0.032804
-0.071477
-0.089924
-0.033513
-0.014886
-0.055668
-0.095607
-0.1285
-0.118622
-0.097632
-0.098701
-0.102796
0.023482
0.014678
-0.069354
0.016757
0.003775
-0.011499
-0.054031
-0.009689
-0.040224
-0.066665
-0.026536
-0.032947
-0.048968
-0.072368
-0.093914
-0.077923
-0.064208
-0.063984
-0.058389
-0.093487
-0.054059
-0.02494
0.025309
0.048123
0.016114
-0.004094
0.009953
0.038148
0.08454
0.102225
0.131926
0.158586
0.174184
0.244545
0.311803
0.345922
0.404988
0.336887
0.356474
0.559577
0.692726
0.693431
0.669615
0.722001
0.773479
0.763101
0.777841
0.768423
0.710455
0.707043
0.670219
0.677851
0.636299
0.59174
0.52393
0.419037
0.347353
0.323989
0.339475
0.273702
0.204372
0.082802
0.225832
0.155498
0.164784
0.117885
0.048229
0.01879
0.020837
0.008872
0.006916
-0.012789
-0.033178
-0.065922
-0.02031
-0.036096
-0.014681
-0.056299
-0.023779
-0.001199
0.042369
0.049292
0.084361
0.102892
0.063148
0.054646
0.059111
0.046507
-0.017939
-0.059128
-0.060801
-0.030801
-0.048039
-0.060125
-0.040929
-0.060367
-0.063238
-0.050261
-0.034697
-0.026006
-0.01394
-0.023793
-0.021624
0.025439
-0.013585
-0.000703
-0.007424
0.000269
0.023161
0.004468
0.010447
-0.027801
-0.027791
-0.042018
-0.044697
-0.002647
-0.028272
-0.035462
-0.023121
-0.008197
-0.013285
0.026961
0.033364
-0.004847
0.053834
0.024375
-0.026135
0.044197
0.001446
0.004212
0.033833
-0.009476
0.038168
0.041198
0.097338
0.019628
-0.020633
0.042412
-0.006305
-0.014001
0.007552
0.011921
0.009465
0.029738
0.074916
0.103366
0.083149
0.076173
0.02529
0.022282
0.001081
0.007854
0.018558
-0.000331
0.014683
0.031073
0.045379
0.082192
-0.048918
-0.034311
-0.013567
0.017357
0.038542
0.058895
0.036582
0.103413
0.094664
0.031
0.016815
0.096129
0.010205
0.0419
0.057643
0.022574
0.018838
0.021436
0.096835
0.081606
0.022671
0.052598
0.04948
0.055943
0.064924
0.031459
0.086542
0.13936
0.124166
0.118889
0.047257
0.017105
0.077567
0.042645
0.021217
0.0256
0.023847
0.023446
0.023572
0.051327
0.115991
0.129306
0.10447
0.054295
0.049545
0.002125
-0.00395
-0.002874
-0.000449
0.022458
0.069098
0.07416
0.064685
0.071628
0.062987
0.052653
0.05582
0.065815
0.024855
0.082326
0.05778
0.058598
0.041468
0.046577
0.056384
0.05166
0.1026
0.111333
0.125376
0.077465
0.086967
0.102349
0.097361
0.102977
0.084675
0.05419
0.078927
0.118939
0.096185
0.086887
0.061447
0.067584
0.072769
0.103703
0.126985
0.126947
0.144731
0.191865
0.150309
0.097257
0.146448
0.179434
0.123891
0.184852
0.143446
0.13101
0.141517
0.166118
0.193161
0.193617
0.169728
0.142228
0.190037
0.178256
0.158442
0.126862
0.103845
0.101934
0.132872
0.172321
0.211252
0.16203
0.162316
0.183546
0.188544
0.159115
0.186105
0.168044
0.178113
0.247748
0.214993
0.207406
0.201238
0.221033
0.252512
0.255058
0.255411
0.23714
0.212439
0.239579
0.249007
0.212281
0.225555
0.241616
0.205219
0.211811
0.23563
0.20135
0.220681
0.186374
0.204654
0.227255
0.21116
0.175745
0.178206
0.186174
0.180488
0.188113
0.144007
0.184094
0.192248
0.230272
0.214291
0.173613
0.203405
0.140975
0.114519
0.159227
0.167731
0.175165
0.166542
0.179629
0.178056
0.170552
0.208852
0.209535
0.173042
0.170425
0.142355
0.142528
0.148324
0.144419
0.107234
0.15477
0.107039
0.062315
0.079754
0.121129
0.090537
0.087293
0.06856
0.077878
0.072309
0.103614
0.103446
0.100086
0.06389
0.056323
0.016359
0.018796
-0.035877
0.014282
-0.040967
-0.039458
-0.004934
0.015582
0.038146
0.048687
0.006777
-0.002609
0.026997
0.025027
0.05877
0.032042
-0.002754
0.022361
0.027248
0.020801
0.06515
0.001053
-0.003761
0.030201
0.051563
-0.023706
-0.073661
-0.044887
-0.035067
-0.059721
-0.043051
-0.018627
-0.042061
-0.001947
-0.011193
0.01077
-0.015522
-0.003726
-0.018537
-0.059036
-0.008145
0.039226
0.042249
-0.016442
-0.029325
-0.017333
-0.043956
-0.00116
0.007863
-0.066022
-0.053022
-0.039585
-0.029747
0.00591
0.018276
0.005604
0.035759
0.022778
0.019795
0.039385
-0.020925
-0.001533
0.046875
0.021652
0.018635
0.020476
-0.009426
-0.020505
0.007697
0.019487
0.044978
-0.029938
-0.073436
-0.07513
0.010398
-0.017978
-0.052211
-0.012893
-0.005763
0.022121
-0.041152
-0.016011
0.020436
0.053825
0.030678
-0.068825
-0.065825
-0.058819
-0.06251
-0.062022
-0.020961
-0.016854
-0.017066
-0.038611
-0.026136
-0.007263
-0.033213
-0.033283
-0.005342
0.005891
0.000381
0.007498
0.006694
0.048292
0.018043
0.015411
-0.008969
-0.038982
0.006092
0.006693
-0.020554
-0.007763
-0.051889
-0.029618
0.01589
0.022185
0.024251
0.01897
0.015839
0.020408
0.040251
0.013077
-0.008066
0.002062
0.006919
0.027035
0.011965
0.045526
0.023613
0.005756
-0.048982
-0.028709
-0.012972
-0.000117
0.01603
-0.005143
0.033743
0.072239
-0.02417
0.030692
0.051711
0.017304
0.030949
0.054691
0.098966
0.056182
-0.000119
-0.014372
-0.028885
0.02748
0.032581
0.03367
0.014264
-0.036667
-0.034317
-0.038586
-0.04079
-0.042151
-0.027527
-0.013776
-0.003239
0.026015
0.063728
0.066671
0.046092
0.032628
0.015347
-0.005367
0.04528
-0.002249
0.023687
0.010531
0.013125
0.007353
0.012911
-0.02316
-0.00318
0.002036
-0.017183
-0.013608
0.006737
-0.008979
0.034199
0.010198
0.032221
0.028882
0.004565
-0.024572
-0.00937
-0.029355
-0.00501
0.007578
-0.017292
-0.052941
0.003469
0.015736
0.011261
0.001199
0.008047
0.016555
0.00022
-0.027932
-0.014212
-0.010918
-0.008018
0.022531
-0.006643
-0.006768
-0.006738
0.006669
0.009945
0.00625
0.010974
0.026329
0.017134
0.014485
0.030088
0.019781
0.022564
0.021135
0.020615
0.00276
0.00985
0.031258
-0.019801
-0.086398
-0.020865
-0.022029
-0.022532
-0.033906
-0.047552
-0.051015
-0.081331
-0.032233
-0.010118
0.020409
0.007738
0.005062
0.00523
0.018618
0.044713
0.052099
-0.017581
-0.069239
-0.069342
-0.049977
-0.040844
-0.057988
0.001254
-0.016357
-0.043993
-0.027114
-0.012126
-0.01436
-0.009533
-0.009081
-0.01129
-0.0308
-0.02042
-0.030159
0.003039
0.027218
-0.013044
-0.014776
-0.03018
-0.053339
-0.086879
-0.087635
-0.051796
-0.01142
-0.009721
-0.026916
-0.029818
-0.021091
-0.007434
0.014402
0.019894
0.027195
0.004874
-0.016331
0.037314
0.028342
0.011247
0.017226
0.012493
-0.016091
-0.022163
-0.074012
-0.069195
0.002498
-0.02359
-0.037512
-0.052282
-0.048596
-0.04568
-0.041065
-0.043151
-0.039096
-0.057515
-0.037454
-0.014202
-0.002362
-0.026151
-0.019543
0.036461
-0.049117
-0.073593
-0.068476
-0.09346
-0.091638
-0.101163
-0.054255
-0.067689
-0.049025
-0.0405
-0.0357
-0.023502
0.002062
0.005783
0.005591
0.002023
0.034767
0.038539
-0.034676
-0.020325
-0.060738
-0.110467
-0.100781
-0.090678
-0.086201
-0.079228
-0.077388
-0.065745
-0.063895
-0.050527
-0.024667
-0.045767
-0.020677
-0.031715
-0.022923
-0.028058
-0.035833
-0.151524
-0.063635
-0.045327
-0.057613
-0.108818
-0.094149
-0.135703
-0.088145
-0.058749
-0.072243
-0.078773
-0.053571
-0.047758
-0.024476
-0.004706
-0.044878
0.015437
-0.010976
-0.022877
0.027068
0.037626
0.061378
-0.059759
-0.064205
-0.025047
-0.039221
-0.047011
-0.035155
-0.011581
-0.008876
-0.008439
-0.054276
-0.075216
-0.036062
-0.039712
-0.06355
-0.0882
-0.119097
-0.09167
-0.095336
-0.085952
-0.066895
-0.144578
-0.104326
-0.041871
-0.077061
-0.056008
-0.054489
-0.107598
-0.015855
-0.070241
-0.07328
-0.093861
-0.044296
-0.028695
0.011571
-0.06976
-0.071763
-0.074774
-0.036636
-0.067126
-0.091736
-0.125619
-0.080687
-0.101756
-0.118447
-0.10474
-0.099602
-0.076407
-0.058573
-0.063824
-0.073196
-0.098728
-0.081929
-0.025798
-0.020662
-0.057898
-0.077357
-0.051129
-0.03019
-0.021697
-0.065954
-0.093805
-0.059528
-0.079047
-0.065667
-0.059255
-0.059423
-0.078665
-0.131184
-0.064133
-0.018107
-0.059046
-0.039652
0.000515
-0.034592
-0.063108
-0.05502
-0.082036
-0.075698
-0.083838
-0.063571
-0.054861
-0.075045
-0.056664
-0.065811
-0.077146
-0.069552
-0.056235
-0.07317
-0.084749
-0.09557
-0.068884
-0.085665
-0.017208
-0.007434
-0.004934
0.030473
0.027759
-0.070976
0.017548
-0.018483
-0.038208
-0.034667
0.020155
-0.000914
0.024667
0.040989
0.020304
-0.027853
0.003465
0.048818
0.022675
0.082315
0.011125
0.044788
0.04992
0.001376
0.014585
0.004485
-0.019894
-0.092377
-0.045908
-0.06519
-0.067926
-0.050032
-0.015125
-0.016193
-0.026749
0.00136
0.015863
0.047402
-0.009622
0.012414
-0.003514
-0.026603
0.009608
0.028816
-0.012799
-0.037906
-0.013539
0.040228
-0.002961
-0.05509
-0.05274
-0.035934
-0.030818
-0.03739
-0.066504
-0.093474
-0.023758
-0.018587
-0.027773
-0.033464
-0.032569
-0.012824
-0.00399
-0.061914
-0.035084
-0.029865
-0.036359
-0.040074
-0.075779
-0.106869
-0.149061
-0.098111
-0.064184
-0.072224
-0.072187
-0.060081
-0.102774
-0.05994
-0.046513
-0.042309
-0.065311
-0.060317
-0.0555
-0.092938
-0.049383
-0.054398
-0.069394
-0.138446
-0.160716
-0.146421
-0.156902
-0.181548
-0.168604
-0.150848
-0.158081
-0.139281
-0.139783
-0.128246
-0.109048
-0.09942
-0.091757
-0.101326
-0.164123
-0.103647
-0.063239
-0.052314
-0.080283
-0.1165
-0.146864
-0.151329
-0.124584
-0.086038
-0.09822
-0.149257
-0.155495
-0.102709
-0.080631
-0.155277
-0.079985
-0.046876
-0.05953
-0.047384
-0.053446
0.015313
0.018666
-0.057681
-0.193316
-0.191961
-0.161415
-0.185378
-0.131352
-0.085771
-0.148391
-0.183328
-0.223893
-0.132828
-0.140504
-0.150115
-0.137642
-0.144123
-0.137566
-0.084855
-0.099505
-0.108794
-0.088012
-0.132244
-0.079053
-0.130938
-0.138616
-0.143542
-0.102039
-0.061114
-0.021715
-0.011739
0.036467
0.041988
0.071802
0.109497
0.130639
0.164579
0.245928
0.294686
0.331605
0.388405
0.470179
0.493273
0.548136
0.59969
0.62951
0.611923
0.643613
0.649977
0.608197
0.620019
0.570898
0.567038
0.53309
0.494041
0.446169
0.435932
0.402354
0.319463
0.266591
0.224297
0.200336
0.193503
0.148647
0.152237
0.145133
0.074919
0.008805
-0.03739
-0.06978
-0.091435
-0.102771
-0.083414
-0.086691
-0.147616
-0.143094
-0.100743
-0.088752
-0.083748
-0.056081
-0.067271
-0.140177
-0.151878
-0.185471
-0.169871
-0.140908
-0.128444
-0.134995
-0.075716
-0.052995
-0.150573
-0.115024
-0.089379
-0.076244
-0.088879
-0.067559
-0.075513
-0.024974
-0.070966
-0.072296
-0.017391
-0.025261
-0.045365
-0.011306
-0.064656
-0.078165
-0.130651
-0.141958
-0.093713
-0.0161
-0.056153
-0.130506
-0.088321
-0.003334
-0.079307
-0.124182
-0.151923
-0.126991
-0.114526
-0.013287
-0.068756
-0.054032
-0.020389
-0.039702
-0.069538
-0.007166
-0.090251
-0.108405
-0.109328
-0.114555
-0.134178
-0.115299
-0.105164
-0.069517
-0.038753
-0.044845
-0.062309
-0.061119
-0.058018
-0.045432
-0.041582
-0.047486
-0.023209
-0.02723
-0.109641
-0.118867
-0.086969
-0.130317
-0.118413
-0.106914
-0.091257
-0.106098
-0.071656
-0.083236
-0.064922
-0.079593
-0.057677
-0.028788
-0.043403
-0.069037
-0.017997
-0.008353
-0.031359
-0.045127
-0.034992
-0.051717
-0.070963
-0.095489
-0.089356
-0.068135
-0.091866
-0.083181
-0.079339
-0.055961
-0.039704
-0.091834
-0.060264
-0.022374
-0.049177
-0.089681
-0.021511
-0.011617
-0.039514
-0.064084
-0.057521
-0.029753
-0.004443
0.0072
-0.063662
-0.095558
-0.074594
-0.022458
-0.036179
-0.105743
-0.046922
-0.088736
-0.131565
-0.098928
-0.098921
-0.086911
-0.061789
-0.080994
-0.079399
-0.056941
-0.041725
-0.072556
-0.069844
-0.084501
-0.090909
-0.061285
-0.072939
-0.10971
-0.086775
-0.057405
-0.071422
-0.021796
-0.008481
-0.01468
-0.062314
-0.077016
-0.066637
-0.080577
-0.085202
-0.082154
-0.104187
-0.064644
-0.069388
-0.043631
-0.012987
-0.036075
-0.027395
-0.004274
-0.059956
-0.07565
-0.017949
-0.045277
-0.03061
0.039726
0.011695
0.047998
0.028434
0.019978
0.023107
-0.001204
-0.006731
-0.009783
-0.007266
0.015598
-0.018696
-0.013276
-0.043397
-0.028669
0.027461
-0.007481
-0.010589
-0.040491
-0.036631
-0.003189
0.029737
0.077441
0.055878
0.094156
0.027383
0.022447
0.069078
0.011357
-0.003053
-0.022999
-0.015763
0.044479
0.092656
0.063835
0.081559
0.096465
0.100634
0.08281
0.072309
0.119681
0.103427
0.076646
0.051023
0.005991
0.021465
0.089829
0.111601
0.059543
0.099776
0.036595
0.024455
0.086048
0.078557
0.110214
0.079654
0.047335
0.082712
0.129125
0.10147
0.088474
0.101107
0.113011
0.143404
0.125574
0.084555
0.032591
0.010814
0.036023
0.002033
0.029503
0.047879
0.058014
0.073262
0.080618
0.069394
0.025349
0.060872
0.09911
0.112745
0.152578
0.116467
0.07795
0.074599
0.078511
0.097467
0.046878
0.066114
0.040243
-0.0137
0.001736
0.007144
0.024796
0.045664
-0.032825
-0.02669
-0.038554
-0.015264
-0.097344
-0.168786
-0.109878
-0.052288
-0.045694
-0.062038
-0.064714
-0.030508
-0.042943
-0.076847
-0.11425
-0.059349
-0.057715
-0.071881
-0.042774
-0.003395
-0.082205
-0.088392
-0.092516
-0.131243
-0.081839
-0.079958
-0.062588
-0.083028
-0.069957
0.035345
-0.070006
-0.113353
-0.143685
-0.222044
-0.168569
-0.148583
-0.115346
-0.151912
-0.129129
-0.146926
-0.168624
-0.133721
-0.131132
-0.163235
-0.133564
-0.104351
-0.14071
-0.071734
-0.082029
-0.07735
-0.119355
-0.123245
-0.142856
-0.16891
-0.16254
-0.161981
-0.161494
-0.123125
-0.118514
-0.170929
-0.130567
-0.142608
-0.122953
-0.085483
-0.088177
-0.115637
-0.082363
-0.115554
-0.110457
-0.076856
-0.134276
-0.199055
-0.176032
-0.187211
-0.147324
-0.150656
-0.115209
-0.122942
-0.177647
-0.116092
-0.171889
-0.112175
-0.151383
-0.095446
-0.131492
-0.209623
-0.141896
-0.103273
-0.116383
-0.162355
-0.124352
-0.084827
-0.144684
-0.132808
-0.104414
-0.145924
-0.16365
-0.193423
-0.171923
-0.133641
-0.155372
-0.139688
-0.10699
-0.057461
-0.061428
-0.050571
-0.024141
-0.055421
-0.071589
-0.110373
-0.076164
-0.089233
-0.095402
-0.090189
-0.10039
-0.153317
-0.121871
-0.12396
-0.166872
-0.21303
-0.188628
-0.167144
-0.15951
-0.141063
-0.126632
-0.103619
-0.089307
-0.085826
-0.158263
-0.153955
-0.170616
-0.121792
-0.112638
-0.122919
-0.1832
-0.114827
-0.166489
-0.14854
-0.135107
-0.14135
-0.120069
-0.128152
-0.115733
-0.144366
-0.154741
-0.141702
-0.066649
-0.057247
-0.084592
-0.04558
-0.034153
-0.07642
-0.125261
-0.167271
-0.164979
-0.143732
-0.184405
-0.188764
-0.179433
-0.181519
-0.158236
-0.149981
-0.105243
-0.075272
-0.062507
-0.067666
-0.053627
-0.11647
-0.129811
-0.12812
-0.141496
-0.121882
-0.142207
-0.169667
-0.146062
-0.10686
-0.078378
-0.098588
-0.135878
-0.152618
-0.135886
-0.116969
-0.121633
-0.136194
-0.1143
-0.107656
-0.096989
-0.099567
-0.077925
-0.05272
-0.098474
-0.10128
-0.107605
-0.096365
-0.108484
-0.099422
-0.07193
-0.116265
-0.131734
-0.112148
-0.126152
-0.118153
-0.096415
-0.12415
-0.10574
-0.125825
-0.123716
-0.083047
-0.090786
-0.113001
-0.109099
-0.082031
-0.139498
-0.131704
-0.108464
-0.118577
-0.107965
-0.070999
-0.066393
-0.110903
-0.101128
-0.173382
-0.137781
-0.120289
-0.069646
-0.105406
-0.106284
-0.042145
-0.072575
-0.065053
-0.031471
-0.028232
-0.048869
-0.038954
-0.077467
-0.18113
-0.236838
-0.207362
-0.174055
-0.165009
-0.180738
-0.194646
-0.185756
-0.204511
-0.174532
-0.091447
-0.093098
-0.151874
-0.209041
-0.234551
-0.203298
-0.197646
-0.142049
-0.146085
-0.110108
-0.102396
-0.153809
-0.115199
-0.148963
-0.191484
-0.176684
-0.156632
-0.192568
-0.183274
-0.112427
-0.120973
-0.116088
-0.110139
-0.092212
-0.11126
-0.115725
-0.125018
-0.104091
-0.11037
-0.135429
-0.15848
-0.167004
-0.148175
-0.122609
-0.152474
-0.174452
-0.191403
-0.205013
-0.131973
-0.175989
-0.156486
-0.12099
-0.109023
-0.125543
-0.137849
-0.123703
-0.144311
-0.126036
-0.114369
-0.12027
-0.107532
-0.123061
-0.13198
-0.169358
-0.134106
-0.173866
-0.113864
-0.131809
-0.133757
-0.057519
-0.118437
-0.140496
-0.127087
-0.129514
-0.179755
-0.086066
-0.097881
-0.122574
-0.088574
-0.089055
-0.093382
-0.140172
-0.132977
-0.155278
-0.199971
-0.161194
-0.171818
-0.220464
-0.278485
-0.258554
-0.15788
-0.071316
-0.073075
-0.093522
-0.116518
-0.082919
-0.060949
-0.099713
-0.113087
-0.151203
-0.169396
-0.152908
-0.095311
-0.120209
-0.166701
-0.165964
-0.160029
-0.125468
-0.192421
-0.193672
-0.176842
-0.167118
-0.141513
-0.148203
-0.124955
-0.094549
-0.144847
-0.143779
-0.147301
-0.143469
-0.163088
-0.174574
-0.157442
-0.145693
-0.149232
-0.112605
-0.127912
-0.115062
-0.110061
-0.09257
-0.091823
-0.101343
-0.108872
-0.113996
-0.111018
-0.081122
-0.13412
-0.120592
-0.091887
-0.063115
-0.126676
-0.139696
-0.163494
-0.20068
-0.166451
-0.127563
-0.165226
-0.164198
-0.109363
-0.071463
-0.08743
-0.090694
-0.090434
-0.095169
-0.1278
-0.147129
-0.135159
-0.16029
-0.15743
-0.149066
-0.130452
-0.158486
-0.160243
-0.152573
-0.16181
-0.204087
-0.136313
-0.173592
-0.135794
-0.129782
-0.16802
-0.180017
-0.193713
-0.176632
-0.132947
-0.139615
-0.182537
-0.202401
-0.196496
-0.111855
-0.129943
-0.154701
-0.107789
-0.053913
-0.089018
-0.141281
-0.148662
-0.109877
-0.08477
-0.141157
-0.126878
-0.019109
0.008719
0.039324
-0.081347
-0.117283
-0.077727
-0.068019
-0.11804
-0.100412
-0.068926
-0.078342
-0.082712
-0.068375
-0.071933
-0.121282
-0.130142
-0.130326
-0.101434
-0.076623
-0.039118
-0.084236
-0.09717
-0.074804
-0.036311
-0.057979
-0.031074
-0.069976
-0.046853
-0.007857
-0.011294
-0.072625
-0.137779
-0.106014
-0.079704
-0.038741
-0.065791
0.009825
-0.031014
-0.023121
-0.000868
0.023176
-0.01871
0.04159
0.081778
0.028454
-0.05753
-0.027369
-0.068503
-0.081231
-0.077373
-0.0644
-0.100458
-0.045021
-0.035456
-0.085681
-0.123169
-0.125361
-0.091309
-0.109896
-0.063194
-0.080628
-0.115202
-0.098948
-0.093481
-0.086862
-0.062961
-0.088827
-0.15556
-0.183796
-0.161753
-0.125605
-0.124059
-0.127976
-0.167457
-0.120509
-0.119078
-0.172729
-0.181753
-0.144879
-0.133953
-0.11706
-0.143483
-0.15217
-0.140117
-0.140703
-0.139866
-0.147798
-0.142302
-0.159078
-0.160032
-0.149898
-0.170249
-0.161569
-0.22411
-0.232036
-0.103927
-0.125658
-0.150502
-0.172669
-0.205046
-0.209063
-0.177405
-0.134898
-0.165645
-0.129547
-0.088192
-0.143275
-0.196873
-0.222291
-0.185061
-0.192334
-0.14896
-0.115899
-0.192339
-0.195844
-0.178658
-0.135656
-0.127203
-0.134425
-0.143991
-0.084517
-0.058102
-0.080544
-0.123763
-0.11796
-0.130429
-0.165994
-0.158751
-0.199308
-0.189056
-0.200982
-0.170572
-0.214716
-0.169925
-0.14322
-0.133865
-0.058668
-0.08342
-0.160431
-0.150091
-0.168061
-0.196543
-0.127904
-0.158769
-0.158195
-0.159811
-0.192527
-0.169107
-0.175753
-0.203841
-0.187609
-0.157334
-0.152964
-0.128775
-0.121708
-0.104306
-0.050311
-0.058628
-0.006886
0.003276
0.030922
0.103547
0.122538
0.157096
0.220169
0.241622
0.227385
0.264197
0.328085
0.341961
0.391197
0.45886
0.525641
0.560758
0.607535
0.634217
0.646962
0.604713
0.592077
0.583138
0.531196
0.500785
0.493945
0.463092
0.39274
0.338245
0.25861
0.188586
0.15991
0.096201
0.064049
0.060688
0.033974
0.025857
-0.00773
-0.016142
0.003985
0.011376
-0.072364
-0.082411
-0.116824
-0.115459
-0.111976
-0.166555
-0.156178
-0.165034
-0.155449
-0.15474
-0.080728
-0.110424
-0.152289
-0.159249
-0.141642
-0.140567
-0.066044
-0.045323
-0.05225
-0.075494
-0.120859
-0.12411
-0.12439
-0.092168
-0.076051
-0.080228
-0.100654
-0.08285
-0.087773
-0.093344
-0.150257
-0.138517
-0.139646
-0.103761
-0.100708
-0.142546
-0.173524
-0.144947
-0.127636
-0.129166
-0.079941
-0.04485
-0.054708
-0.069677
-0.071573
-0.108855
-0.102208
-0.07871
-0.092029
-0.090462
-0.0895
-0.10833
-0.088505
-0.139795
-0.152362
-0.140119
-0.145046
-0.139206
-0.135955
-0.102637
-0.074442
-0.083663
-0.135082
-0.14368
-0.074981
-0.08511
-0.113528
-0.095683
-0.109274
-0.137823
-0.139291
-0.12378
-0.098075
-0.098483
-0.117847
-0.12818
-0.099065
-0.118795
-0.093467
-0.06038
-0.060366
-0.087592
-0.093821
-0.056835
-0.055915
-0.074638
-0.093585
-0.076468
-0.088077
-0.103145
-0.07985
-0.123454
-0.152463
-0.140408
-0.149069
-0.111723
-0.102065
-0.112068
-0.108305
-0.103206
-0.068653
-0.056518
-0.013149
-0.02241
-0.062253
-0.077978
-0.101034
-0.160773
-0.151526
-0.154844
-0.128584
-0.033842
-0.096349
-0.135747
-0.097456
-0.09508
-0.078286
-0.046297
-0.08457
-0.113074
-0.068691
-0.070562
-0.055681
-0.032741
-0.051453
-0.042569
-0.101202
-0.13596
-0.107531
-0.05739
-0.031985
-0.012198
-0.081347
-0.074774
-0.04634
-0.063359
-0.090039
-0.095915
-0.062221
-0.037304
-0.104392
-0.087325
-0.036813
-0.025779
0.017651
0.028094
0.036491
-0.045018
-0.063094
-0.06418
-0.111138
-0.0671
-0.074717
-0.085469
-0.138049
-0.073699
-0.03759
-0.046351
-0.097435
-0.119248
-0.033831
-0.015804
-0.043147
-0.085905
-0.092393
-0.078459
-0.002826
-0.009005
-0.028462
-0.035995
-0.078016
-0.062983
-0.038475
-0.041478
-0.036158
-0.054406
-0.044712
-0.004566
-0.007686
0.02066
-0.03838
-0.041956
0.021498
0.015826
0.009009
-0.006249
-0.004554
0.030228
0.063815
0.029107
-0.028125
-0.008142
0.020391
0.012038
-0.035579
0.020457
0.049183
0.052566
0.025332
0.050103
0.074063
0.053593
0.018395
0.071207
0.084348
0.079936
0.045779
0.028126
0.040103
0.045651
0.039949
0.023319
0.052681
-0.005162
0.011491
0.043659
0.072266
0.058473
0.056775
0.097423
0.143287
0.125959
0.113249
0.065613
0.149653
0.152634
0.140424
0.135235
0.115013
0.036574
0.054886
0.076796
0.055798
0.081793
0.014053
-0.028672
0.024702
0.03984
0.023235
0.10556
0.072046
0.017353
0.03358
0.076315
0.060282
0.04994
0.034073
0.001031
0.018796
-0.00342
0.001429
0.005404
-0.013918
-0.053226
-0.029369
0.00927
0.041766
0.030233
-0.043119
-0.073952
-0.046901
-0.043667
-0.036896
-0.001819
-0.00109
-0.042363
-0.009304
-0.0129
-0.021896
-0.038587
-0.001204
0.007417
-0.109479
-0.122179
-0.113643
-0.072299
-0.079077
-0.12827
-0.088093
-0.107105
-0.14252
-0.076339
-0.038344
-0.035394
-0.012113
-0.065757
-0.119965
-0.157274
-0.155895
-0.102157
-0.076121
-0.103237
-0.123728
-0.096873
-0.100291
-0.106234
-0.13304
-0.117234
-0.100116
-0.090921
-0.102437
-0.15516
-0.08815
-0.073984
-0.087951
-0.17369
-0.125923
-0.146637
-0.152975
-0.149502
-0.155632
-0.161593
-0.155033
-0.175371
-0.159945
-0.159346
-0.189505
-0.133912
-0.095916
-0.074705
-0.094734
-0.144916
-0.184831
-0.185928
-0.152775
-0.158771
-0.156996
-0.155743
-0.153582
-0.117151
-0.129473
-0.108689
-0.165695
-0.22561
-0.128
-0.122044
-0.108279
-0.12061
-0.089567
-0.139522
-0.156429
-0.146425
-0.155694
-0.131704
-0.140679
-0.133299
-0.12683
-0.112502
-0.13292
-0.167276
-0.155697
-0.119695
-0.138491
-0.186565
-0.173094
-0.209634
-0.211424
-0.152803
-0.162653
-0.165418
-0.165112
-0.186265
-0.172479
-0.179059
-0.168955
-0.175812
-0.146413
-0.09956
-0.118635
-0.146103
-0.167054
-0.093493
-0.090481
-0.099282
-0.133487
-0.152506
-0.13352
-0.126466
-0.130761
-0.09382
-0.103982
-0.107117
-0.048184
-0.03775
-0.171962
-0.100457
-0.110814
-0.102488
-0.130721
-0.106503
-0.152802
-0.151587
-0.199069
-0.190585
-0.154189
-0.14235
-0.121989
-0.113932
-0.142082
-0.114286
-0.09751
-0.135787
-0.117697
-0.107977
-0.107742
-0.087124
-0.073715
-0.079467
-0.096671
-0.135548
-0.119033
-0.118799
-0.108996
-0.091308
-0.074176
-0.102436
-0.110403
-0.145821
-0.108212
-0.099845
-0.115433
-0.064851
-0.050431
-0.116431
-0.146548
-0.150525
-0.147973
-0.151211
-0.149769
-0.134143
-0.113509
-0.119394
-0.166592
-0.166242
-0.1514
-0.126271
-0.134594
-0.120983
-0.102576
-0.085168
-0.030712
-0.066485
-0.166051
-0.116658
-0.11778
-0.102528
-0.09397
-0.116401
-0.138136
-0.114149
-0.142495
-0.155483
-0.120657
-0.10231
-0.076074
-0.07448
-0.094572
-0.062512
-0.057119
-0.075456
-0.124471
-0.109493
-0.094407
-0.065512
-0.095883
-0.117124
-0.091703
-0.081289
-0.13746
-0.171193
-0.182599
-0.215553
-0.201549
-0.140951
-0.168871
-0.184633
-0.198661
-0.131808
-0.088847
-0.095098
-0.090649
-0.117637
-0.11904
-0.115455
-0.115462
-0.089177
-0.151065
-0.139566
-0.109895
-0.104869
-0.099863
-0.113145
-0.117512
-0.131592
-0.124497
-0.135369
-0.164711
-0.143874
-0.152192
-0.129348
-0.139988
-0.11345
-0.155778
-0.093282
-0.124668
-0.178642
-0.097667
-0.081546
-0.070966
-0.145089
-0.097952
-0.101051
-0.128316
-0.112669
-0.163285
-0.115595
-0.090547
-0.125714
-0.170837
-0.15036
-0.150863
-0.128194
-0.100256
-0.087881
-0.10224
-0.128615
-0.164322
-0.167637
-0.143337
-0.153385
-0.167813
-0.145854
-0.151772
-0.154151
-0.133722
-0.136664
-0.166814
-0.182074
-0.166779
-0.143997
-0.085662
-0.068508
-0.085229
-0.057926
-0.029178
-0.07538
-0.07868
-0.06705
-0.205802
-0.14547
-0.103386
-0.008009
-0.107516
-0.135882
-0.136735
-0.142104
-0.204387
-0.184632
-0.19356
-0.159193
-0.130345
-0.119161
-0.162297
-0.149371
-0.156914
-0.108143
-0.140551
-0.155209
-0.166837
-0.159178
-0.153812
-0.114097
-0.106531
-0.100039
-0.137463
-0.17091
-0.169808
-0.131491
-0.13815
-0.137411
-0.13299
-0.114379
-0.077819
-0.084634
-0.093026
-0.074214
-0.102962
-0.093136
-0.113021
-0.148196
-0.181487
-0.167813
-0.154141
-0.178262
-0.156994
-0.156364
-0.174299
-0.159118
-0.151718
-0.109443
-0.12848
-0.115962
-0.177176
-0.140319
-0.113635
-0.095375
-0.127568
-0.084541
-0.087858
-0.122201
-0.117175
-0.066163
-0.113617
-0.140805
-0.181907
-0.175052
-0.164768
-0.158453
-0.123843
-0.099668
-0.0744
-0.055309
-0.079519
-0.097021
-0.083863
-0.076143
-0.068786
-0.10621
-0.108748
-0.138906
-0.136293
-0.137445
-0.179761
-0.149858
-0.136231
-0.078531
-0.061818
-0.094133
-0.0744
-0.122035
-0.101149
-0.102012
-0.136511
-0.070093
-0.072352
-0.087883
-0.068694
-0.152074
-0.182523
-0.172389
-0.184438
-0.16908
-0.162979
-0.133247
-0.14884
-0.148481
-0.149104
-0.153685
-0.132795
-0.128537
-0.125866
-0.086695
-0.086755
-0.091457
-0.101705
-0.119893
-0.117895
-0.121033
-0.129478
-0.15177
-0.14251
-0.108433
-0.095051
-0.115725
-0.150916
-0.134073
-0.126972
-0.147775
-0.135168
-0.129628
-0.141596
-0.132191
-0.093258
-0.063265
-0.041185
-0.042492
-0.093295
-0.133754
-0.106484
-0.157952
-0.145677
-0.126548
-0.079681
-0.086447
-0.11173
-0.085635
-0.089618
-0.046434
-0.061562
-0.061379
-0.066756
-0.037434
-0.037233
-0.0346
-0.012246
-0.010166
-0.023977
-0.034443
-0.009266
-0.063284
-0.079093
-0.090076
-0.082948
-0.037536
-0.009777
0.010544
-0.057343
-0.072402
-0.067732
-0.034418
-0.005443
-0.024884
-0.049515
-0.009929
-0.038752
-0.069176
-0.06835
-0.079979
-0.055456
-0.067283
-0.118113
-0.090209
-0.059444
-0.042334
-0.081099
-0.076989
-0.096319
-0.054212
-0.016364
-0.008634
0.007074
0.034067
0.053805
0.007371
-0.011853
-0.011562
-0.086027
-0.058593
-0.023511
-0.071189
-0.063194
-0.051179
-0.029273
-0.022001
-0.038066
-0.095693
-0.091452
-0.128696
-0.061324
-0.081476
-0.072554
-0.073986
-0.04558
-0.080734
-0.151974
-0.13037
-0.114445
-0.158183
-0.149155
-0.135015
-0.120897
-0.112042
-0.136372
-0.126041
-0.105348
-0.093199
-0.090234
-0.064751
-0.070526
-0.101272
-0.094571
-0.106995
-0.073693
-0.1066
-0.107555
-0.152913
-0.099856
-0.123859
-0.115306
-0.107414
-0.140969
-0.124895
-0.132534
-0.161043
-0.179812
-0.160361
-0.180799
-0.168843
-0.103684
-0.101977
-0.091932
-0.115678
-0.131127
-0.115313
-0.122412
-0.122226
-0.123322
-0.123006
-0.11951
-0.134216
-0.130248
-0.127741
-0.129831
-0.131939
-0.113158
-0.114145
-0.107571
-0.115242
-0.140334
-0.099281
-0.093751
-0.085713
-0.07199
-0.099526
-0.062346
-0.142374
-0.19061
-0.19065
-0.184945
-0.208025
-0.189266
-0.170279
-0.179443
-0.201751
-0.181763
-0.144454
-0.121538
-0.170434
-0.180743
-0.167349
-0.155288
-0.112242
-0.101809
-0.11302
-0.113887
-0.130556
-0.084911
-0.057738
-0.063259
-0.077939
-0.069632
-0.020974
-0.010808
0.053416
0.117904
0.141495
0.186598
0.246129
0.343167
0.389408
0.442189
0.477918
0.483298
0.560558
0.541071
0.603308
0.638491
0.658011
0.699248
0.709278
0.650633
0.611985
0.580995
0.556161
0.526275
0.456324
0.471192
0.43431
0.333264
0.291331
0.244455
0.24313
0.224028
0.172576
0.166526
0.100403
0.105238
0.065994
-0.003451
-0.03803
-0.098259
-0.079066
-0.092001
-0.100695
-0.162729
-0.18305
-0.130364
-0.156458
-0.107901
-0.11327
-0.145314
-0.145823
-0.160508
-0.142026
-0.090319
-0.083583
-0.080248
-0.085066
-0.066757
-0.091128
-0.097682
-0.084345
-0.037265
-0.038513
-0.029634
-0.055068
-0.111869
-0.060066
-0.035426
-0.050365
-0.004713
-0.012851
-0.036543
-0.065612
-0.091674
-0.056301
-0.007498
-0.095372
-0.10954
-0.107107
-0.081751
-0.065801
-0.052941
-0.075689
-0.122212
-0.1245
-0.111567
-0.09757
-0.130415
-0.119322
-0.055904
-0.063415
-0.052774
-0.069647
-0.109782
-0.100073
-0.107997
-0.088999
-0.069651
-0.071193
-0.08455
-0.096812
-0.067238
-0.060002
-0.040199
-0.038647
-0.066396
-0.029234
-0.021538
-0.08418
-0.107657
-0.052194
-0.047587
-0.040844
-0.016565
-0.021747
-0.053911
-0.020755
-0.045413
-0.0838
-0.119821
-0.07322
-0.036405
-0.059317
-0.077747
-0.091442
-0.113628
-0.069212
-0.074681
-0.080028
-0.045965
-0.018503
-0.032591
-0.069905
-0.071294
-0.026399
-0.024606
-0.060686
-0.067584
-0.082185
-0.100689
-0.065836
-0.063495
-0.084094
-0.087981
-0.01953
-0.026158
-0.070362
-0.024863
-0.013341
-0.006257
0.030371
0.022543
-0.016426
0.010169
0.017882
-0.048308
-0.068773
-0.103682
-0.096142
-0.064103
-0.078851
-0.060161
-0.05218
-0.078771
-0.072001
-0.048977
-0.013512
-0.048795
-0.041323
-0.061711
-0.016609
-0.012253
-0.028006
-0.028643
-0.034258
-0.062267
-0.069345
-0.04722
-0.050307
-0.049978
-0.034749
-0.011
-0.028808
-0.038842
0.009376
-0.014799
-0.07144
-0.005609
0.027622
0.009676
-0.004466
-0.042789
-0.019783
0.040662
0.038289
-0.021888
-0.037121
-0.089191
-0.061825
-0.055163
-0.044027
-0.054888
-0.103882
-0.129539
-0.083304
-0.030361
0.010181
0.036437
0.086082
0.055364
0.038431
0.037207
0.049114
0.062782
0.035416
0.000498
0.021101
0.042451
0.042971
0.061964
0.059625
0.032007
0.037199
0.02459
0.03166
0.061136
0.073693
0.110699
0.124426
0.101227
0.112733
0.119722
0.118434
0.106945
0.105276
0.099913
0.090743
0.09172
0.051661
0.043993
0.041953
0.078223
0.095455
0.049264
0.081608
0.102885
0.115297
0.150564
0.133763
0.10104
0.095711
0.124427
0.136737
0.141895
0.174762
0.142766
0.111855
0.092944
0.118148
0.045591
0.014886
-0.024558
-0.013921
0.036209
0.090727
0.172955
0.177636
0.195246
0.189974
0.154161
0.148551
0.159516
0.168839
0.158605
0.161006
0.148387
0.125239
0.107372
0.099363
0.093106
0.081798
0.079267
0.07883
0.083819
0.101487
0.066611
0.040956
0.097476
0.125742
0.102376
0.110451
0.089368
0.126264
0.149218
0.079807
0.024726
0.01236
0.054262
0.029623
0.017739
-0.006333
0.034792
0.046586
0.018924
-0.025794
0.005937
-0.026713
-0.029985
-0.008439
-0.015489
0.026894
0.046035
0.020677
0.030878
0.013892
0.003377
0.004988
-0.021907
-0.054392
-0.103257
-0.094702
-0.038206
-0.046144
-0.098061
-0.072018
-0.082248
-0.040346
-0.038632
-0.029337
-0.010746
-0.017649
-0.04088
-0.01169
-0.047714
-0.098236
-0.127114
-0.094339
-0.109552
-0.111213
-0.08482
-0.112553
-0.074872
-0.055063
-0.138911
-0.103355
-0.092208
-0.068256
-0.037808
-0.039629
-0.047462
-0.061414
-0.106317
-0.07787
-0.065025
-0.088949
-0.074385
-0.074835
-0.098925
-0.102032
-0.125248
-0.105334
-0.104242
-0.096588
-0.099182
-0.101003
-0.073522
-0.056973
-0.034456
-0.036211
-0.011837
0.012349
-0.011986
-0.052951
-0.086909
-0.081108
-0.069075
-0.11939
-0.101926
-0.102113
-0.103137
-0.050299
-0.073305
-0.116424
-0.135744
-0.102325
-0.103542
-0.140478
-0.118636
-0.124366
-0.125756
-0.13936
-0.141454
-0.10811
-0.118412
-0.082249
-0.056916
-0.081379
-0.095038
-0.10136
-0.090465
-0.100294
-0.079933
-0.078995
-0.097537
-0.073955
-0.103208
-0.103447
-0.066322
-0.052052
-0.059876
-0.065145
-0.070568
-0.066062
-0.073609
-0.066316
-0.090963
-0.081894
-0.090779
-0.124855
-0.122281
-0.11872
-0.079354
-0.034598
-0.041603
-0.099853
-0.09613
-0.038081
-0.04932
-0.020184
-0.03386
-0.052315
-0.030794
-0.02641
-0.043844
-0.112589
-0.084962
-0.075255
-0.038746
-0.046448
-0.071253
-0.100495
-0.079952
-0.098729
-0.070779
-0.061484
-0.08222
-0.043282
-0.088899
-0.043129
-0.063648
-0.067359
-0.043354
-0.052218
-0.060003
-0.032504
-0.063969
-0.063115
-0.099317
-0.067977
-0.078833
-0.110083
-0.090116
-0.045175
-0.043323
-0.040985
-0.031146
-0.036708
-0.070335
-0.047894
-0.020476
-0.041763
-0.062588
-0.07449
-0.076366
-0.088436
-0.084196
-0.093991
-0.072705
-0.074029
-0.063227
-0.078344
-0.090066
-0.079484
-0.069815
-0.041162
-0.067165
-0.047557
-0.041081
-0.057161
-0.043485
-0.043398
-0.049696
-0.037168
-0.033562
-0.031457
-0.032211
-0.033568
-0.0632
-0.053435
-0.070815
-0.075209
-0.077004
-0.087966
-0.100287
-0.058843
-0.041871
-0.075985
-0.068717
-0.034639
-0.054102
-0.061779
-0.062179
-0.061402
-0.091719
-0.102442
-0.128437
-0.090397
-0.069284
-0.081956
-0.124968
-0.117628
-0.107845
-0.060284
-0.069252
-0.087419
-0.072834
-0.068492
-0.031393
-0.05857
-0.023981
-0.021942
-0.046115
-0.061725
-0.048025
-0.024461
-0.014546
0.001856
-0.071354
-0.130805
-0.12667
-0.096142
-0.064964
-0.075329
-0.076054
-0.058272
-0.101724
-0.115442
-0.103421
-0.122651
-0.092299
-0.101363
-0.117419
-0.061759
-0.083053
-0.054062
-0.059589
-0.090174
-0.105815
-0.095653
-0.111161
-0.06061
-0.098598
-0.078503
-0.039841
-0.042615
-0.068402
-0.068815
-0.062484
-0.039271
-0.075541
-0.047694
-0.005424
-0.027446
-0.064678
-0.062705
-0.148502
-0.11723
-0.080237
-0.038306
-0.073369
-0.10529
-0.082269
-0.057144
-0.048771
-0.072259
-0.087693
-0.087145
-0.046142
-0.049062
-0.040273
-0.060607
-0.083414
-0.074462
-0.04782
-0.016801
-0.000468
-0.05978
-0.082966
-0.067965
-0.063984
-0.088138
-0.133808
-0.089801
-0.119913
-0.093682
-0.057395
-0.075418
-0.073955
-0.057979
-0.032722
-0.035458
-0.071471
-0.060185
-0.061362
-0.088147
-0.107774
-0.103192
-0.078643
-0.070642
-0.066037
-0.082607
-0.091673
-0.091229
-0.089665
-0.121608
-0.095742
-0.067676
-0.064172
-0.06953
-0.035074
-0.041122
-0.054274
-0.079907
-0.079095
-0.029384
-0.050311
-0.064339
-0.07917
-0.107864
-0.123064
-0.088988
-0.044561
-0.029658
-0.045532
-0.049587
-0.070076
-0.041977
-0.02125
-0.035783
-0.071131
-0.047296
-0.023219
-0.075874
-0.126001
-0.081959
-0.088565
-0.090225
-0.091652
-0.077804
-0.069398
-0.087344
-0.129399
-0.066968
-0.029437
-0.020034
-0.026003
-0.042867
-0.006566
-0.007483
-0.056121
-0.065784
-0.040357
-0.047093
-0.053413
-0.063316
-0.046485
-0.030807
-0.062481
-0.086938
-0.103868
-0.104199
-0.080164
-0.085817
-0.092991
-0.085039
-0.073838
-0.069911
-0.057508
-0.066569
-0.061819
-0.051151
-0.056154
-0.094644
-0.098642
-0.072841
-0.070168
-0.094219
-0.081775
-0.085026
-0.067678
-0.038567
-0.056951
-0.047758
-0.076303
-0.038326
-0.055733
-0.092824
-0.05862
-0.036367
-0.034927
-0.092581
-0.097212
-0.053557
-0.055827
-0.04956
-0.078354
-0.079694
-0.079594
-0.064206
-0.075358
-0.090421
-0.053835
-0.053036
-0.086779
-0.064661
-0.033595
-0.001651
0.036346
0.07661
0.053595
0.031367
0.0347
0.031605
0.001996
0.0041
-0.016601
-0.039074
-0.070239
-0.009611
-0.017197
-0.002598
-0.000771
-0.042038
-0.047732
-0.013875
0.028808
0.025752
0.061916
0.067229
0.059082
0.045994
-0.035467
-0.0458
0.000513
0.007816
0.037656
0.008881
0.008744
-0.060361
-0.033615
0.012039
0.037273
0.025126
0.02265
-0.008032
-0.007301
0.030556
0.065266
0.073402
0.048652
0.017821
0.01089
0.012865
0.000085
-0.008126
0.01449
0.015739
-0.030043
-0.004122
-0.011798
-0.00777
-0.019425
-0.06575
-0.072464
-0.060634
-0.032183
-0.03823
-0.028152
-0.037013
-0.034611
-0.024872
-0.015898
-0.015013
-0.01724
-0.008207
-0.052293
-0.063217
-0.050894
-0.038137
-0.028706
-0.081171
-0.125415
-0.110458
-0.079729
-0.055314
-0.063506
-0.038298
-0.034594
-0.02269
0.03064
-0.006617
-0.029715
-0.074922
-0.10354
-0.076553
-0.07927
-0.101716
-0.128443
-0.151923
-0.149033
-0.139411
-0.146298
-0.129084
-0.109592
-0.070097
-0.043712
-0.068197
-0.135537
-0.090627
-0.054907
-0.042213
-0.063713
-0.096298
-0.058653
-0.037767
-0.085949
-0.106834
-0.126814
-0.11046
-0.093994
-0.096531
-0.112493
-0.132874
-0.140812
-0.086207
-0.091327
-0.059566
-0.071461
-0.087441
-0.101715
-0.087099
-0.066738
-0.052396
-0.024341
-0.016532
-0.046689
-0.109231
-0.098071
-0.109145
-0.109426
-0.128767
-0.124026
-0.129738
-0.158776
-0.133411
-0.086834
-0.108115
-0.081787
-0.088798
-0.097078
-0.132338
-0.096392
-0.047148
-0.028042
-0.053942
-0.089411
-0.066625
-0.052247
-0.005672
0.040228
0.098377
0.132449
0.189308
0.174368
0.204597
0.237203
0.28284
0.334966
0.389795
0.461167
0.526835
0.521241
0.551191
0.591098
0.614019
0.62306
0.664781
0.678632
0.685257
0.684199
0.63392
0.58546
0.578516
0.514124
0.477022
0.47823
0.472754
0.400159
0.320725
0.285922
0.227975
0.178124
0.226749
0.195181
0.171339
0.136656
0.070481
0.054379
0.023416
-0.005769
-0.049351
-0.104866
-0.096983
-0.106615
-0.108466
-0.090194
-0.073856
-0.064196
-0.077504
-0.060746
-0.083458
-0.085543
-0.087471
-0.063894
-0.044823
-0.054665
-0.052766
-0.023347
-0.027854
-0.054614
-0.036409
-0.032184
0.004903
-0.017272
-0.029454
-0.02425
-0.016326
-0.046024
-0.02904
0.009671
-0.020314
0.02383
0.041562
0.00055
-0.013234
-0.022053
-0.014115
-0.022833
-0.050927
-0.042544
-0.025926
-0.039895
-0.087878
-0.055892
-0.023911
-0.015246
-0.031433
-0.019212
0.00783
-0.019476
-0.03461
-0.041948
-0.069347
-0.0513
-0.008295
-0.017793
-0.008254
0.004734
-0.040153
-0.081575
-0.06894
-0.043414
-0.026618
-0.017493
-0.021425
-0.027074
-0.021248
-0.005336
-0.028783
-0.029749
-0.045798
-0.007628
-0.008063
-0.00725
-0.013586
-0.003755
-0.008739
-0.022138
-0.046269
-0.091676
-0.07054
-0.061389
-0.053675
0.023684
0.049713
0.018423
-0.023823
0.009958
-0.009106
-0.012553
-0.011187
-0.002109
-0.021528
-0.040349
-0.03833
-0.042224
-0.001135
-0.015603
0.009151
0.027226
0.006252
0.034224
0.028633
-0.01879
-0.000251
-0.027262
-0.022199
-0.006537
-0.013625
0.004613
0.011782
0.043724
0.007853
0.01333
-0.008411
-0.057877
-0.053516
-0.027886
0.00002
0.002912
-0.011494
-0.000377
0.008861
0.00873
0.012202
0.016455
0.028208
0.060054
0.06184
0.074031
0.033371
0.053543
0.010591
-0.010427
-0.013292
-0.013992
-0.024932
-0.022757
-0.014315
-0.025278
-0.034455
-0.017187
0.001831
-0.01282
-0.01428
-0.017861
-0.006371
0.001252
-0.001683
0.041562
0.040679
0.03763
0.031203
0.037914
0.03816
0.035989
0.028862
0.001497
0.02662
0.00857
0.020475
0.020753
-0.001671
-0.004495
0.034029
0.075549
0.070765
0.054521
0.078526
0.073165
0.070974
0.106129
0.127172
0.056377
0.050411
0.070422
0.072438
0.051755
0.047757
0.016805
0.030598
0.022438
0.050436
0.04619
0.058445
0.101341
0.129783
0.121952
0.116333
0.111993
0.074878
0.058993
0.078008
0.115481
0.113884
0.119315
0.104123
0.106701
0.116643
0.154678
0.147235
0.146878
0.154921
0.169048
0.134275
0.133778
0.13203
0.113629
0.144466
0.200087
0.206863
0.193643
0.196706
0.168165
0.143552
0.143371
0.129316
0.127761
0.132022
0.101533
0.112708
0.102963
0.119452
0.118703
0.115216
0.122744
0.175598
0.185618
0.156901
0.176029
0.181888
0.20292
0.209853
0.19164
0.163049
0.106066
0.153196
0.201461
0.170327
0.167491
0.133119
0.117057
0.11095
0.132899
0.127185
0.118446
0.110028
0.086103
0.098087
0.114626
0.130756
0.130012
0.099341
0.071155
0.064411
0.077962
0.077834
0.082214
0.065071
0.063536
0.060166
0.040619
0.034939
0.047642
0.061434
0.065181
0.060441
0.077909
0.068076
0.042244
0.05639
0.077623
0.059676
0.05163
0.063498
0.058467
0.040097
-0.067513
-0.060029
0.024353
0.0223
-0.011565
-0.004536
-0.057975
-0.027374
0.011394
0.003412
-0.01082
-0.009293
0.007708
0.012725
-0.037845
-0.081253
-0.061024
-0.039507
-0.016975
-0.009063
-0.057624
-0.048934
-0.068185
-0.055568
-0.028723
-0.026511
-0.059588
-0.04776
-0.019113
-0.002724
0.008845
-0.020434
-0.044542
-0.045576
-0.030573
-0.034355
-0.036389
-0.079557
-0.078635
-0.08079
-0.042279
-0.044779
-0.049723
-0.050082
-0.024796
0.004427
-0.045429
-0.077956
-0.05026
-0.026609
-0.048054
-0.058753
-0.042751
-0.010221
0.025395
-0.034454
-0.102353
-0.042807
-0.100344
-0.085375
-0.07637
-0.097806
-0.084654
-0.037932
-0.04669
-0.050457
-0.041969
-0.059622
-0.057038
-0.057942
-0.051228
-0.027698
-0.025225
-0.034505
-0.019743
-0.040982
-0.04454
-0.032516
-0.034315
-0.065911
-0.058783
-0.049935
-0.048926
-0.023613
-0.021465
-0.028508
-0.05127
-0.048355
-0.025626
-0.003092
-0.010255
-0.031162
0.011968
0.033087
-0.001808
-0.068624
-0.094227
-0.080397
-0.066872
-0.051561
-0.039363
-0.070273
-0.070603
-0.057063
-0.05314
-0.024847
0.001815
0.008349
0.013954
0.004778
0.006695
0.015783
-0.001846
-0.003103
-0.016632
-0.021751
-0.046952
-0.07296
-0.052579
-0.013612
-0.060223
-0.086628
-0.036582
-0.068613
-0.053415
-0.018542
-0.039877
-0.03502
-0.034001
0.010308
0.019109
0.015772
-0.009134
-0.027525
-0.027221
-0.007511
-0.024596
-0.032194
-0.049815
-0.062014
-0.061352
-0.058479
-0.054834
-0.054808
-0.03751
-0.040913
-0.041562
0.004319
0.005879
-0.01394
-0.008526
-0.004202
0.026836
0.006623
-0.011473
-0.004098
-0.023255
-0.00819
-0.008018
-0.02813
-0.039931
-0.035443
-0.024014
-0.023248
-0.01216
-0.032941
-0.023544
-0.027127
-0.003773
0.015318
0.013153
0.007456
-0.017337
0.005461
0.01749
-0.035393
-0.063942
-0.032809
-0.019013
0.011208
-0.001
-0.018097
-0.026068
-0.026045
-0.043308
-0.06071
-0.036259
0.009577
-0.001084
-0.000567
0.001231
-0.007336
-0.010102
-0.003
0.022007
0.023377
-0.003055
-0.035531
-0.029184
-0.036807
-0.047517
-0.05898
-0.05362
-0.048088
-0.051955
-0.044984
-0.047847
-0.047341
-0.033179
0.006855
0.025256
0.025251
-0.013046
-0.0153
-0.065512
-0.058809
-0.03455
-0.034516
-0.029198
-0.022869
-0.045574
-0.031554
-0.023256
-0.049563
-0.04411
-0.033152
-0.021635
-0.017843
0.002944
-0.0006
-0.018867
0.001511
0.003953
0.018723
0.004914
-0.017272
-0.030387
-0.052272
-0.048919
-0.032624
-0.037449
-0.042108
-0.024082
-0.003574
-0.044849
-0.069935
-0.03483
-0.051175
-0.071797
-0.044962
-0.031773
-0.023844
-0.020774
-0.030819
0.002794
-0.017319
-0.020538
-0.024939
-0.017979
-0.049704
-0.004923
-0.006997
-0.062132
-0.084288
-0.042718
0.009785
0.01113
-0.013409
-0.035301
-0.01246
-0.007433
-0.010586
-0.016133
0.019752
0.029427
0.004535
-0.023638
-0.019425
-0.032545
-0.060347
-0.061992
-0.03494
-0.043641
-0.011124
-0.015208
-0.027448
-0.027429
-0.009566
0.009444
0.012573
-0.013428
-0.010841
-0.038055
-0.024773
-0.018605
0.006885
0.015206
-0.013988
-0.058751
-0.07268
-0.049891
-0.023025
-0.035187
-0.032407
-0.008879
-0.009834
-0.013644
-0.029559
-0.02132
-0.012591
-0.001187
-0.011859
-0.015543
-0.021848
-0.030973
-0.030203
-0.020266
-0.020977
-0.032141
-0.044321
-0.053256
-0.080486
-0.048003
-0.049266
-0.038453
-0.046067
-0.046257
-0.014538
-0.036913
-0.039109
-0.05884
-0.0314
-0.016576
-0.027565
-0.0107
-0.022931
-0.000094
-0.017023
-0.046372
-0.075273
-0.070405
-0.051287
-0.049998
-0.024616
-0.047451
-0.026681
0.001053
0.010496
0.008419
0.024731
0.033397
0.02942
-0.000472
-0.016747
-0.029475
-0.016406
-0.017018
-0.004675
-0.014657
-0.042167
-0.036074
-0.021781
-0.022484
-0.031399
-0.04972
-0.05852
-0.059478
-0.019832
-0.015579
-0.011987
-0.008142
0.039687
0.043271
0.030753
0.031493
0.059292
0.070742
0.024043
0.032595
0.003851
0.008606
-0.024512
-0.040898
-0.006001
0.020452
-0.028197
-0.047278
0.004697
0.040747
0.053167
0.053212
0.043104
0.049074
0.041422
0.06442
0.072905
0.098804
0.076163
0.050976
0.056958
0.06272
0.057687
0.055122
0.074644
0.068244
0.045771
0.022994
0.067494
0.051665
0.055616
0.069261
0.070395
0.074364
0.076246
0.096884
0.082704
0.082508
0.053529
0.012267
0.025959
0.036772
0.050219
0.036804
0.058119
0.061183
0.029121
0.010549
0.0541
0.05939
0.055258
0.086342
0.059335
0.028932
0.057655
0.057424
0.061119
0.04973
0.021227
0.001111
-0.0313
-0.036733
-0.025753
-0.019815
-0.016646
-0.011264
-0.008008
-0.022817
-0.047847
-0.024279
0.000766
-0.003455
0.036768
0.00329
-0.004381
-0.027591
-0.012713
-0.002119
-0.009564
-0.009522
-0.017372
-0.028246
-0.0293
-0.0467
-0.07406
-0.071181
-0.034373
-0.049301
-0.058311
-0.037683
-0.002593
-0.007139
-0.049399
-0.054627
-0.03948
-0.041742
-0.042852
-0.070531
-0.079667
-0.050695
-0.032571
-0.030623
-0.054681
-0.038498
-0.035967
-0.071469
-0.077906
-0.044457
-0.042814
-0.015134
-0.076699
-0.078611
0.003221
0.020958
-0.024779
-0.036249
-0.048125
-0.04629
-0.047696
-0.081412
-0.056868
-0.056032
-0.058287
-0.032551
-0.04962
-0.070918
-0.044155
-0.034835
-0.023157
-0.002875
-0.003929
-0.035975
-0.032369
-0.025844
-0.01586
-0.021027
-0.017418
-0.070078
-0.084189
-0.095995
-0.079112
-0.107184
-0.104232
-0.070486
-0.062279
-0.057667
-0.054819
-0.061159
-0.057593
-0.007735
0.062287
0.080135
0.099217
0.114798
0.158314
0.208987
0.24345
0.2396
0.326922
0.332953
0.346934
0.37494
0.447021
0.518161
0.519602
0.5466
0.626967
0.690997
0.703377
0.736828
0.745929
0.759962
0.774597
0.726349
0.700777
0.65114
0.625982
0.585905
0.539319
0.485356
0.421635
0.359793
0.292355
0.284527
0.263872
0.225608
0.238953
0.268471
0.195286
0.150305
0.094839
0.067189
0.033357
0.004566
0.024572
0.01639
-0.002074
0.013947
-0.017007
-0.053778
-0.085958
-0.104813
-0.077498
-0.029359
-0.043206
-0.04954
0.010457
-0.011927
-0.021196
0.003989
0.047131
0.020042
0.016532
0.028237
0.02031
0.026623
0.029571
0.026379
0.027763
0.031732
0.009979
-0.003022
0.022632
-0.004351
-0.009612
0.004945
-0.032094
0.001466
0.004004
-0.038392
0.00691
0.02102
-0.002995
0.020675
0.047763
0.069671
0.046123
0.020129
0.030432
0.003775
-0.040487
-0.033912
-0.014048
0.008456
0.028458
-0.024651
-0.010744
0.019583
0.044635
0.055158
-0.003885
0.056296
0.098754
0.118824
0.022741
0.009092
0.024854
-0.007003
-0.009406
0.024947
0.003271
-0.014026
0.012477
0.015901
-0.029759
-0.007076
0.020038
0.023808
0.029139
0.041786
0.038621
0.044139
0.032924
0.036086
0.027944
0.046227
0.053433
0.035707
0.009
-0.0007
-0.017524
0.009552
0.016831
-0.009186
-0.03455
-0.01265
0.007869
-0.000822
0.035452
0.074181
0.106654
0.093495
0.066168
0.063772
0.081785
0.077377
0.079672
0.066815
0.055842
0.025582
-0.002084
0.013727
0.022686
0.045338
0.060453
0.042953
-0.000777
0.008419
0.019281
0.027815
0.01425
-0.013484
0.017196
0.045018
0.044591
0.033806
0.040417
0.056333
0.044351
0.027611
0.02192
0.041791
0.05591
0.054059
0.062045
0.06107
0.042705
0.065018
0.091585
0.105564
0.100092
0.085419
0.071004
0.066252
0.061601
0.055107
0.110711
0.127921
0.079754
0.040339
0.035562
0.015182
0.033063
0.032312
0.049299
0.094493
0.061151
0.022045
0.058978
0.088798
0.088286
0.068801
0.091936
0.101519
0.108885
0.097697
0.083774
0.071743
0.03638
0.065726
0.071833
0.075897
0.07133
0.065331
0.069193
0.112393
0.136068
0.146605
0.106528
0.094419
0.099126
0.131768
0.135352
0.122821
0.150772
0.107242
0.071409
0.110009
0.116629
0.10005
0.119488
0.156473
0.167557
0.126205
0.132626
0.162742
0.181667
0.146459
0.132128
0.161656
0.212379
0.20271
0.17764
0.192015
0.184063
0.172871
0.16674
0.165825
0.185358
0.191669
0.16718
0.149608
0.154962
0.174964
0.202686
0.201412
0.193198
0.211713
0.228336
0.235164
0.24912
0.204793
0.177773
0.190788
0.215423
0.210953
0.216855
0.247068
0.24352
0.202367
0.195069
0.16761
0.135145
0.140296
0.18454
0.192787
0.181124
0.197996
0.192893
0.211525
0.222446
0.226736
0.206046
0.213889
0.228072
0.21966
0.183875
0.142468
0.13942
0.169642
0.12628
0.121936
0.114659
0.148818
0.149842
0.110339
0.125795
0.14163
0.164495
0.1555
0.167833
0.156754
0.135082
0.119705
0.148151
0.16217
0.092764
0.090532
0.079779
0.063602
0.064524
0.055306
0.052473
0.04981
0.035541
0.026599
0.063023
0.090405
0.120156
0.135186
0.11083
0.088567
0.088288
0.00617
-0.016538
0.009645
0.038292
0.080074
0.072922
0.064395
0.040442
0.03034
0.026557
0.006269
0.005624
0.001029
-0.034753
-0.001087
-0.000563
0.023698
0.009258
0.028618
0.035087
0.055357
0.024466
0.008115
0.023519
0.03365
0.012681
-0.000981
-0.033741
-0.021286
-0.015452
-0.013151
0.000445
-0.008938
-0.003937
-0.002281
0.016351
-0.003928
-0.001062
0.015205
-0.011541
0.014001
0.081633
0.057547
0.007292
-0.023101
-0.030971
-0.045099
-0.038721
-0.039154
-0.045822
-0.034711
-0.027553
-0.004971
-0.023237
-0.001893
0.054788
0.069956
0.060718
0.034487
0.0167
-0.004588
0.010838
0.024918
0.016499
0.015678
-0.003307
-0.022244
-0.017226
-0.031302
-0.023231
-0.004565
-0.021603
0.006786
0.024238
0.016948
0.013489
0.025109
0.042933
0.031798
0.037501
0.058509
0.015923
0.00463
-0.00597
0.017842
0.004003
0.002236
-0.020172
-0.015658
0.005296
-0.000979
0.000293
0.014089
0.043748
0.030452
0.02545
0.048677
0.061589
0.073274
0.071931
0.048314
0.000842
0.029939
0.000543
-0.016335
-0.018241
-0.015275
-0.016866
0.011084
0.044926
0.068331
0.012725
-0.008627
-0.006226
0.004898
0.03873
0.033206
0.097694
0.064529
0.024125
0.059664
0.039077
-0.004499
-0.008195
-0.019898
-0.024439
-0.018249
-0.000305
0.021284
0.039119
0.001843
0.006267
0.029926
0.071912
0.075754
0.07334
0.078065
0.078727
0.07137
0.055792
0.03578
0.016882
0.086944
0.067276
0.046175
0.019049
0.019668
0.055355
0.0722
0.079852
0.060191
0.055924
0.046245
0.03108
0.039089
0.045925
0.085308
0.078043
0.091895
0.07321
0.056893
0.031404
0.036645
0.053453
0.062408
0.03627
0.028909
0.00685
0.015745
0.028537
0.017494
0.008119
0.045807
0.065273
0.080316
0.087304
0.077389
0.027581
0.050325
0.063495
0.045658
0.052474
0.069309
0.070546
0.058055
0.042454
0.03429
0.038341
0.040783
0.037245
0.063976
0.060813
0.055182
0.059057
0.044154
0.046643
0.032164
0.03291
0.052616
0.058704
0.050277
0.083502
0.063277
0.037051
0.030792
0.012978
0.003114
0.008107
0.005614
-0.036977
-0.005852
0.010678
0.06155
0.071627
0.016038
0.054482
0.054628
0.015845
0.021489
0.04266
0.023367
0.04457
0.050834
0.029326
0.025568
0.030019
0.038717
0.023004
0.005204
0.004824
0.020195
0.026557
0.055224
0.076133
0.060161
0.060947
0.094192
0.067306
0.0641
0.047417
0.037966
0.029607
0.0285
0.019936
0.022492
0.009143
0.0136
0.01705
-0.000698
0.004793
0.038362
0.055642
0.058462
0.040684
0.027383
0.021633
0.053011
0.069744
0.041285
0.062319
0.061555
0.085735
0.052858
0.079848
0.071266
0.027974
0.042483
0.048596
0.047932
0.003321
0.028275
0.042941
0.050928
0.043341
0.020303
0.046388
0.072477
0.061326
0.055756
0.055324
0.082857
0.052393
0.051812
0.047524
0.005124
0.038871
0.017076
-0.005781
-0.014542
0.030728
0.039799
0.035309
0.015809
0.035205
0.060619
0.063686
0.062391
0.069343
0.055451
0.089555
0.088302
0.07982
0.026728
0.031616
0.026587
0.033827
-0.007551
-0.025546
-0.015046
-0.00507
0.039521
0.065199
0.078941
0.087169
0.115674
0.097773
0.097336
0.078146
0.050213
0.048482
0.043512
0.046275
0.045273
0.061929
0.042083
0.039048
0.03828
-0.009491
-0.024034
-0.011623
0.020998
0.031693
0.048945
0.082313
0.039351
0.02472
0.032088
0.023333
0.045357
0.020878
0.047256
0.032715
0.037505
0.04959
0.042063
0.073622
0.031236
0.017605
0.011998
0.004119
0.003711
0.031815
0.03301
0.061315
0.026979
0.051589
0.07462
0.050043
0.061948
0.057152
0.039234
0.044137
0.053074
0.060545
0.068049
0.045552
0.007107
0.009138
0.038423
0.053357
0.056422
0.036668
0.020795
0.025564
0.026881
0.037426
0.08105
0.083018
0.098753
0.086282
0.067309
0.054672
0.068673
0.080533
0.068337
0.052156
0.040456
0.028606
0.036547
0.028776
0.044036
0.041574
0.013107
-0.007225
0.005811
0.045148
0.069597
0.053549
0.055396
0.084966
0.068185
0.089327
0.098942
0.095547
0.072598
0.063135
0.043419
0.055895
0.035603
0.053473
0.052271
0.086683
0.074053
0.108134
0.119157
0.156635
0.171628
0.198291
0.216355
0.153043
0.117496
0.128077
0.080512
0.075245
0.100536
0.126415
0.096336
0.084923
0.115878
0.138619
0.09593
0.116135
0.149673
0.160741
0.163723
0.139952
0.143836
0.149703
0.148384
0.133333
0.11699
0.093306
0.082352
0.093904
0.109989
0.138363
0.127132
0.141066
0.146376
0.130158
0.119743
0.170004
0.193146
0.136125
0.12968
0.12834
0.138559
0.12787
0.131595
0.130395
0.119775
0.148291
0.12096
0.125755
0.123856
0.105263
0.0524
0.088575
0.102197
0.125325
0.118299
0.092921
0.074602
0.070807
0.089903
0.105119
0.121445
0.087027
0.081313
0.074246
0.081421
0.073795
0.075377
0.0706
0.053836
0.045087
0.026503
0.047523
0.055497
0.076617
0.076617
0.04581
0.012476
0.020171
0.030928
0.05513
0.043883
0.063481
0.074265
0.082137
0.069146
0.04575
0.046692
0.062465
0.01493
0.037364
0.010851
0.050425
0.029066
0.011119
0.015218
0.038173
0.054317
0.065611
0.039744
0.046438
0.044211
0.057699
0.072277
0.063713
0.072179
0.070791
0.079135
0.069807
0.021195
0.03462
0.02868
0.015002
0.039998
0.057761
0.068676
0.058751
0.023128
-0.008432
0.04143
0.063023
0.048203
0.028649
0.041559
0.04264
0.065601
0.055906
0.013555
0.023504
0.0469
0.013905
0.024692
0.002824
0.029133
0.055808
0.021208
0.000409
0.003416
0.035559
0.040816
0.042524
0.040557
0.055343
0.060028
0.070684
0.069068
0.099017
0.098102
0.080354
0.065847
0.120526
0.128999
0.194366
0.24163
0.317852
0.317386
0.342452
0.409296
0.488228
0.528503
0.598168
0.630026
0.697935
0.730465
0.773898
0.814542
0.850512
0.854938
0.843296
0.879312
0.852885
0.804627
0.760204
0.723662
0.718825
0.703441
0.649267
0.604487
0.546642
0.500733
0.472241
0.459199
0.401817
0.384755
0.324218
0.286832
0.259347
0.269192
0.224089
0.177219
0.10247
0.024168
-0.009584
0.023861
0.021843
0.054764
0.032753
0.067535
0.032405
0.035089
0.072915
0.085055
0.07709
0.104784
0.129801
0.143992
0.146303
0.127019
0.117409
0.07368
0.081467
0.061041
0.088244
0.081618
0.075739
0.070995
0.077765
0.077921
0.097608
0.131494
0.121765
0.120221
0.140841
0.158038
0.158523
0.128967
0.101815
0.155187
0.096578
0.074277
0.08574
0.083769
0.059871
0.0423
0.074649
0.067381
0.06474
0.109388
0.138897
0.124116
0.120933
0.140449
0.13273
0.137581
0.150271
0.14154
0.128845
0.105277
0.078952
0.103393
0.10941
0.08705
0.072287
0.094927
0.09971
0.095369
0.071221
0.077193
0.101191
0.113581
0.16108
0.134711
0.137622
0.163159
0.172693
0.149322
0.122845
0.136085
0.134978
0.124491
0.129358
0.134462
0.115675
0.09357
0.086964
0.103996
0.123063
0.103266
0.133382
0.145457
0.149697
0.13569
0.131355
0.087604
0.098872
0.087979
0.086155
0.101078
0.090355
0.096541
0.107639
0.085098
0.088571
0.11889
0.112633
0.099077
0.111763
0.126913
0.137804
0.146074
0.140915
0.125024
0.136314
0.139008
0.129141
0.138572
0.140473
0.144707
0.152638
0.161329
0.171021
0.113667
0.096236
0.093597
0.051237
0.045945
0.114013
0.135012
0.141688
0.162049
0.186971
0.18212
0.153707
0.165675
0.146269
0.147031
0.166365
0.134994
0.130843
0.120225
0.095945
0.077445
0.082119
0.146028
0.128826
0.106671
0.135585
0.170848
0.215717
0.152704
0.170998
0.200867
0.198166
0.192794
0.171842
0.134527
0.145093
0.171359
0.185322
0.175497
0.165947
0.165059
0.172067
0.16657
0.196639
0.167644
0.097999
0.11376
0.172031
0.186607
0.200153
0.209435
0.230337
0.255518
0.230438
0.255105
0.249298
0.228137
0.211494
0.137437
0.173192
0.235899
0.241101
0.241687
0.213893
0.223782
0.227763
0.228851
0.246528
0.260172
0.267125
0.283405
0.27362
0.241773
0.220081
0.250462
0.227811
0.22529
0.219573
0.237487
0.242966
0.24389
0.251364
0.24852
0.234894
0.239187
0.274945
0.294773
0.313265
0.316083
0.30571
0.295897
0.326068
0.333179
0.282248
0.281109
0.280069
0.292644
0.318534
0.291172
0.256075
0.238744
0.254728
0.292517
0.32583
0.320594
0.28762
0.280538
0.28596
0.326932
0.32315
0.300392
0.298483
0.309625
0.327368
0.315789
0.298514
0.302394
0.298407
0.275694
0.274763
0.297745
0.281487
0.286655
0.253046
0.22924
0.250118
0.243636
0.255067
0.279832
0.282842
0.243117
0.236781
0.196497
0.225558
0.264976
0.241708
0.233145
0.232339
0.222081
0.201583
0.225011
0.226232
0.152352
0.191415
0.218202
0.22192
0.22843
0.266086
0.218285
0.171257
0.146439
0.139868
0.134637
0.158392
0.151801
0.167675
0.177923
0.175279
0.171288
0.143582
0.116118
0.076686
0.095124
0.090287
0.123527
0.13779
0.132521
0.133458
0.132574
0.128423
0.110263
0.13049
0.160913
0.117543
0.110755
0.111932
0.137248
0.109419
0.081569
0.058181
0.084971
0.085358
0.078585
0.085131
0.088824
0.094155
0.100422
0.096009
0.137626
0.115361
0.099849
0.072675
0.035033
0.035756
0.061558
0.092411
0.064252
0.083834
0.080745
0.081666
0.093189
0.062035
0.081208
0.08326
0.053711
0.060053
0.087435
0.075582
0.100768
0.090113
0.084413
0.089838
0.097092
0.105179
0.086681
0.067497
0.040127
0.037884
0.005346
0.037732
0.064972
0.06075
0.068262
0.046119
0.074643
0.078668
0.103069
0.139902
0.119301
0.112751
0.099288
0.077514
0.077461
0.121469
0.115896
0.107493
0.104177
0.084038
0.065997
0.059254
0.07585
0.057774
0.064693
0.062302
0.076413
0.080679
0.085838
0.114708
0.112961
0.11236
0.093655
0.111182
0.106478
0.108397
0.103178
0.085576
0.092577
0.11862
0.111063
0.080335
0.074733
0.078766
0.072877
0.089399
0.093453
0.088571
0.09896
0.119939
0.108689
0.125601
0.147671
0.116655
0.107219
0.063659
0.112158
0.120615
0.10936
0.103854
0.133875
0.116
0.08952
0.045156
0.056351
0.060647
0.047188
0.079323
0.063973
0.08559
0.102895
0.150263
0.147397
0.131326
0.122148
0.126793
0.120027
0.133433
0.124281
0.101492
0.101692
0.087123
0.130303
0.12029
0.081139
0.081239
0.079757
0.050913
0.106334
0.153501
0.153407
0.110946
0.123031
0.16894
0.175229
0.1214
0.116303
0.092508
0.083218
0.092014
0.093244
0.080697
0.080733
0.100505
0.106051
0.084774
0.095304
0.117207
0.113824
0.104891
0.101422
0.120197
0.148743
0.165697
0.151464
0.11176
0.117628
0.086982
0.068726
0.085787
0.071723
0.067964
0.093835
0.093621
0.092778
0.075649
0.052767
0.022934
0.073516
0.115473
0.138609
0.153491
0.160015
0.142461
0.108089
0.104563
0.110278
0.12595
0.120579
0.131092
0.132291
0.099012
0.085678
0.081719
0.058046
0.055453
0.070152
0.12387
0.102173
0.115805
0.131497
0.143439
0.168334
0.165794
0.152514
0.157265
0.143564
0.138984
0.089747
0.082309
0.07382
0.063061
0.061242
0.08382
0.10482
0.087406
0.056931
0.054195
0.120721
0.116012
0.10679
0.115222
0.134781
0.146651
0.1221
0.087327
0.039167
0.046183
0.118059
0.096875
0.085496
0.075009
0.102542
0.098006
0.104334
0.117263
0.149218
0.145465
0.106529
0.078124
0.094721
0.140666
0.148137
0.132182
0.099927
0.106418
0.116103
0.108531
0.110505
0.10249
0.085121
0.077725
0.072123
0.104307
0.088286
0.0539
0.041358
0.028495
0.045166
0.040262
0.043752
0.082241
0.080762
0.094682
0.116131
0.112224
0.093482
0.079528
0.066811
0.074115
0.068793
0.072366
0.091393
0.103351
0.107185
0.118995
0.121733
0.089195
0.092356
0.13049
0.085736
0.055612
0.119183
0.115065
0.103746
0.093005
0.095886
0.083207
0.093926
0.083257
0.052708
0.064025
0.090713
0.091569
0.063043
0.056526
0.094368
0.108111
0.111782
0.087236
0.111377
0.13901
0.105928
0.086055
0.079305
0.097937
0.111291
0.106289
0.103876
0.115428
0.093841
0.067901
0.073524
0.058572
0.066711
0.103401
0.127623
0.130268
0.109147
0.088451
0.12285
0.115794
0.11482
0.12793
0.11965
0.074975
0.07568
0.067589
0.071043
0.099402
0.111327
0.065823
0.049649
0.055634
0.077499
0.064233
0.065651
0.079234
0.088899
0.078877
0.099135
0.087145
0.111162
0.091915
0.110767
0.107148
0.133614
0.10531
0.109191
0.102622
0.085168
0.062841
0.078632
0.101947
0.105223
0.115717
0.113468
0.117857
0.123049
0.128489
0.111771
0.108669
0.079502
0.06866
0.058771
0.068216
0.101808
0.101532
0.079665
0.073074
0.078789
0.093025
0.071544
0.020207
0.046468
0.09709
0.087281
0.085876
0.122081
0.034995
-0.011338
0.05254
0.078196
0.084295
0.091693
0.0601
0.088504
0.156468
0.11292
0.075871
0.061358
0.076331
0.084459
0.064799
0.064506
0.080573
0.086508
0.071551
0.098664
0.097882
0.100323
0.092045
0.119092
0.108813
0.152776
0.15215
0.150586
0.151165
0.120761
0.05708
0.052006
0.049043
0.048334
0.088665
0.112967
0.095309
0.102692
0.06896
0.073101
0.10339
0.103141
0.106097
0.137633
0.138771
0.120737
0.090406
0.130146
0.144117
0.108027
0.165679
0.15846
0.117935
0.088649
0.092353
0.128488
0.130796
0.144411
0.155952
0.145464
0.149538
0.160782
0.167473
0.181702
0.191854
0.174953
0.169662
0.185285
0.183622
0.128599
0.140531
0.153752
0.163509
0.160773
0.202647
0.186477
0.152622
0.128351
0.145493
0.157967
0.179012
0.18342
0.174254
0.186501
0.210572
0.214012
0.220006
0.194212
0.18482
0.161437
0.151214
0.137715
0.137969
0.164369
0.138671
0.158516
0.14951
0.142817
0.146414
0.134927
0.175142
0.211162
0.184807
0.134754
0.163251
0.171328
0.159413
0.161301
0.110985
0.073732
0.060093
0.096695
0.142775
0.104601
0.070198
0.080072
0.086116
0.07843
0.083029
0.103611
0.113118
0.085375
0.094086
0.092012
0.070735
0.103593
0.099003
0.064624
0.044584
0.039957
0.071497
0.087013
0.103829
0.099145
0.093655
0.095603
0.094679
0.080941
0.063547
0.030782
0.03033
0.081515
0.062522
0.077364
0.087068
0.096506
0.108751
0.092412
0.066716
0.046028
0.078458
0.071678
0.070136
0.054919
0.058213
0.029512
0.02044
0.014888
0.054689
0.094698
0.086686
0.10116
0.092695
0.117517
0.108852
0.060158
0.045579
0.053915
0.034969
0.059685
0.082113
0.044632
0.015588
0.029561
0.087565
0.068675
0.076041
0.054823
0.04522
0.052493
0.048188
0.115182
0.077389
0.059283
0.07151
0.020881
0.008522
0.02344
-0.020101
-0.007509
0.032954
0.051785
0.058686
0.0188
-0.009012
0.006605
0.056934
0.095317
0.09779
0.147268
0.125183
0.125863
0.145193
0.189467
0.238821
0.280285
0.285819
0.316414
0.333801
0.338587
0.375919
0.434931
0.472249
0.537463
0.602256
0.661481
0.732907
0.785746
0.838564
0.809359
0.846647
0.896343
0.89924
0.859747
0.866763
0.836084
0.756384
0.720236
0.680797
0.676744
0.614179
0.552851
0.477252
0.42824
0.404824
0.361035
0.326263
0.338133
0.285481
0.259364
0.257638
0.23311
0.200544
0.187979
0.15498
0.105581
0.086362
0.083603
0.047649
0.04575
0.053029
0.046387
0.034447
0.030792
0.040331
0.071175
0.089171
0.100387
0.114174
0.120912
0.140273
0.156026
0.155208
0.161498
0.130299
0.121813
0.136407
0.136135
0.135706
0.140543
0.121016
0.096235
0.085412
0.065573
0.072544
0.090116
0.102333
0.104836
0.111373
0.117628
0.115394
0.118375
0.121307
0.116231
0.104682
0.11111
0.122575
0.117242
0.086536
0.11522
0.103727
0.102811
0.124827
0.078601
0.085928
0.141681
0.154043
0.094013
0.095746
0.116916
0.092779
0.101235
0.143059
0.135934
0.127722
0.131237
0.169005
0.141689
0.10858
0.07484
0.058468
0.079684
0.086132
0.103481
0.070197
0.055669
0.091238
0.108389
0.097764
0.119832
0.09975
0.094165
0.119666
0.116598
0.099107
0.107931
0.134922
0.138044
0.088261
0.076784
0.117004
0.11016
0.158924
0.154066
0.141496
0.135021
0.130764
0.151905
0.157103
0.101759
0.102159
0.124014
0.139457
0.124867
0.134561
0.141236
0.126847
0.121423
0.135198
0.162633
0.170769
0.144364
0.097628
0.108275
0.108442
0.110648
0.133642
0.141659
0.173053
0.157405
0.137819
0.138172
0.160281
0.163046
0.159268
0.136873
0.132685
0.115006
0.11188
0.163667
0.133033
0.136316
0.165118
0.119111
0.075931
0.087373
0.107014
0.135572
0.15394
0.147124
0.157423
0.155068
0.165265
0.189766
0.142758
0.112625
0.135518
0.150216
0.116933
0.119385
0.146853
0.145888
0.170978
0.158548
0.13643
0.130725
0.153588
0.147469
0.171586
0.186841
0.195305
0.180633
0.196358
0.196757
0.187407
0.173921
0.183449
0.182425
0.160292
0.161219
0.157776
0.125222
0.138037
0.130261
0.132746
0.16717
0.203744
0.176081
0.172954
0.164472
0.16043
0.189169
0.216976
0.223859
0.234197
0.269123
0.225489
0.207234
0.234715
0.226902
0.200208
0.194978
0.223678
0.256149
0.248773
0.251036
0.23511
0.247755
0.257601
0.250331
0.266674
0.27496
0.287488
0.307425
0.298669
0.28488
0.270363
0.294973
0.268208
0.243335
0.240908
0.263974
0.2682
0.255237
0.268382
0.293244
0.281043
0.273043
0.28454
0.313292
0.317897
0.293592
0.275651
0.336324
0.313017
0.298953
0.268886
0.26692
0.280496
0.276651
0.290843
0.279899
0.277692
0.296147
0.289256
0.269033
0.275826
0.293522
0.332002
0.287693
0.307115
0.316234
0.286226
0.30781
0.295143
0.259081
0.278057
0.291147
0.281044
0.282908
0.279869
0.254611
0.275485
0.269524
0.205395
0.215564
0.231854
0.244716
0.235576
0.232985
0.255979
0.241487
0.251824
0.239715
0.220005
0.207531
0.204628
0.197968
0.164807
0.173611
0.194275
0.1937
0.150479
0.075868
0.080115
0.160443
0.156061
0.149028
0.157192
0.191998
0.212991
0.196215
0.177139
0.177657
0.141304
0.123988
0.129724
0.153252
0.137153
0.110712
0.086204
0.084415
0.054619
0.102137
0.092317
0.09355
0.087424
0.100116
0.080772
0.092927
0.114492
0.12713
0.114071
0.107624
0.121055
0.113492
0.130635
0.117706
0.079768
0.073402
0.069486
0.05087
0.04553
0.03573
0.057501
0.085068
0.096965
0.095746
0.071414
0.046981
0.06197
0.045532
0.09338
0.102636
0.077558
0.111129
0.087825
0.085509
0.082094
0.056963
0.04124
0.03786
0.054382
0.049536
0.040646
0.08421
0.096419
0.084921
0.094639
0.075265
0.069236
0.116357
0.117195
0.082147
0.097291
0.089068
0.098156
0.093617
0.070022
0.049277
0.059812
0.073515
0.102419
0.080786
0.045408
0.058986
0.034731
0.043305
0.080966
0.094924
0.059643
0.045314
0.10416
0.116447
0.082352
0.070383
0.060566
0.056262
0.04697
0.034276
0.01872
0.05297
0.025887
0.038356
0.082478
0.091421
0.10048
0.126782
0.117607
0.111809
0.102198
0.111602
0.129155
0.131928
0.131253
0.120457
0.097104
0.065771
0.075598
0.064452
0.045523
0.062189
0.062373
0.044706
0.062914
0.100196
0.09204
0.08561
0.087999
0.102204
0.088006
0.11048
0.113515
0.113892
0.107686
0.087621
0.111838
0.126834
0.079985
0.067366
0.048659
0.06146
0.028898
0.039805
0.072103
0.073541
0.074809
0.111911
0.114068
0.10623
0.088503
0.115122
0.126744
0.131894
0.134526
0.11769
0.104009
0.093999
0.093169
0.118244
0.132533
0.126537
0.107549
0.071912
0.053145
0.073133
0.098458
0.132111
0.129125
0.095871
0.132072
0.130718
0.12735
0.130675
0.117166
0.118352
0.151219
0.18163
0.175165
0.09816
0.042949
0.052669
0.089121
0.085722
0.054868
0.033183
0.057216
0.065442
0.08468
0.125157
0.125411
0.114142
0.089379
0.110713
0.134305
0.113503
0.098886
0.104758
0.109281
0.050312
0.030587
0.071154
0.055716
0.060878
0.069446
0.078506
0.104397
0.080119
0.107065
0.146448
0.128313
0.116949
0.143708
0.149202
0.131311
0.105349
0.102449
0.134856
0.129871
0.085342
0.045012
0.056607
0.075196
0.054302
0.037289
0.017467
0.050246
0.062457
0.103372
0.116328
0.087093
0.101241
0.099321
0.105866
0.092288
0.096755
0.086864
0.06871
0.074153
0.07805
0.078199
0.062606
0.033983
0.025354
0.062028
0.073533
0.087961
0.11317
0.068524
0.088299
0.102623
0.11479
0.058857
0.092413
0.084103
0.105433
0.154724
0.079997
0.125795
0.119731
0.0725
0.068425
0.057946
0.085126
0.079891
0.101639
0.100325
0.113344
0.133785
0.140921
0.078026
0.056415
0.065125
0.087956
0.082808
0.074094
0.063302
0.07771
0.07512
0.069571
0.061462
0.071177
0.052099
0.045002
0.046122
0.079365
0.069415
0.081158
0.119825
0.137725
0.118071
0.108398
0.079349
0.066004
0.070502
0.095565
0.110718
0.123132
0.103447
0.057032
0.034715
0.050942
0.046644
0.073101
0.059358
0.060045
0.067804
0.075921
0.087263
0.105072
0.112862
0.097664
0.088667
0.082878
0.092514
0.086824
0.077387
0.086804
0.072225
0.068352
0.080185
0.074265
0.071614
0.104134
0.058775
0.061511
0.091058
0.06662
0.062921
0.082088
0.082475
0.093688
0.136643
0.147942
0.090608
0.085993
0.105933
0.109208
0.090727
0.067456
0.016356
0.036738
0.093577
0.113671
0.061921
0.066407
0.086965
0.075672
0.07835
0.080585
0.071514
0.081372
0.09076
0.090186
0.07775
0.088254
0.087566
0.084428
0.099902
0.10997
0.088033
0.067023
0.073803
0.063302
0.061826
0.057313
0.058932
0.080283
0.098315
0.10302
0.105117
0.094534
0.097597
0.111383
0.098541
0.098064
0.09375
0.105659
0.083286
0.060489
0.07014
0.039584
-0.025099
0.016856
0.066601
0.062639
0.043379
0.046457
0.031433
0.033933
0.087849
0.091112
0.058362
0.039721
0.082491
0.112821
0.138629
0.161806
0.170683
0.131645
0.090961
0.031389
0.055585
0.103041
0.107209
0.09412
0.066967
0.066556
0.044409
0.059017
0.081399
0.089543
0.114056
0.109388
0.126147
0.104379
0.064261
0.058819
0.039443
0.031246
0.043828
0.071271
0.061218
0.088135
0.102911
0.079841
0.048552
0.055946
0.067078
0.100338
0.104421
0.102331
0.106
0.089918
0.110451
0.084277
0.072472
0.060159
0.070716
0.107614
0.107735
0.098086
0.085961
0.078399
0.062625
0.044562
0.040408
0.080627
0.099197
0.090769
0.086712
0.076629
0.079087
0.098323
0.071796
0.048447
0.065755
0.032511
0.027693
0.053925
0.013594
0.020131
0.036614
0.011301
0.042068
0.07811
0.107498
0.110825
0.078871
0.066619
0.098862
0.114527
0.101879
0.034574
0.067185
0.079418
0.067204
0.029683
0.019117
0.008859
0.052477
0.062709
0.092487
0.118131
0.109366
0.089008
0.075377
0.060306
0.074257
0.098441
0.136426
0.147403
0.149532
0.129159
0.118206
0.130441
0.137228
0.145299
0.143138
0.135449
0.117301
0.108629
0.116388
0.138479
0.125672
0.100607
0.109309
0.135888
0.139709
0.152248
0.165038
0.164781
0.18115
0.148002
0.159814
0.151312
0.163942
0.162399
0.160779
0.146212
0.116741
0.120009
0.094485
0.111573
0.131102
0.147117
0.149775
0.162455
0.180786
0.200071
0.177538
0.163404
0.165583
0.144478
0.149091
