0.114783
0.120982
0.113125
0.12644
0.118748
0.123317
0.125691
0.11783
0.123355
0.096703
0.067819
0.065611
0.078952
0.069963
0.105109
0.117373
0.108623
0.128875
0.14402
0.127883
0.068906
0.064813
0.074407
0.072356
0.113109
0.130025
0.140468
0.159356
0.146497
0.154639
0.162472
0.168529
0.147196
0.135723
0.13088
0.132284
0.135348
0.150243
0.16285
0.174712
0.188402
0.198137
0.200272
0.213467
0.211382
0.222619
0.202677
0.200604
0.193841
0.190386
0.186766
0.159264
0.170688
0.175236
0.165733
0.190822
0.195542
0.19992
0.198887
0.224241
0.216864
0.216497
0.224001
0.229533
0.236669
0.247767
0.251754
0.255682
0.232337
0.211836
0.19797
0.187361
0.179835
0.176281
0.171077
0.185079
0.197346
0.192346
0.20019
0.210705
0.222744
0.21716
0.217165
0.217255
0.182374
0.181503
0.200231
0.18543
0.153503
0.161184
0.165434
0.148957
0.122106
0.114969
0.110545
0.128446
0.143358
0.094202
0.09679
0.115673
0.119482
0.140704
0.149262
0.130701
0.109662
0.116928
0.135921
0.090176
0.044459
0.033159
0.028213
0.025634
0.023842
0.025698
0.039839
0.044277
0.024944
0.040226
0.044964
0.05108
0.027745
0.033233
0.051672
0.054986
0.034924
0.028215
0.014727
0.012417
0.030398
0.025878
0.026739
0.009712
0.00367
-0.01174
-0.006269
-0.012864
-0.00088
0.016355
-0.005939
0.002338
0.029711
0.02406
0.021542
0.045444
0.043464
0.049812
0.039105
0.027192
-0.005962
-0.017992
-0.015156
-0.048179
-0.062364
-0.052089
-0.039908
-0.02306
-0.022498
-0.027964
-0.042097
-0.053546
-0.032285
0.003315
0.01308
0.030562
0.034284
0.016291
0.011332
-0.031435
-0.033645
-0.056475
-0.03992
-0.044185
-0.038876
-0.02989
-0.032309
-0.040737
-0.043239
-0.025597
-0.02251
-0.011528
-0.003269
0.008639
0.017398
0.015369
0.012682
0.012507
0.028857
0.025477
0.00766
-0.031853
-0.066317
-0.062924
-0.053549
-0.052869
-0.053606
-0.034206
-0.026071
-0.018997
-0.025563
-0.011516
-0.012557
-0.026802
-0.041223
-0.022419
0.006188
0.014803
0.013049
-0.013525
-0.020194
-0.017361
-0.010886
-0.014165
-0.034729
-0.042376
-0.032924
-0.006575
-0.005746
0.002754
0.010015
-0.002577
0.012924
0.021446
0.023497
0.00958
0.019565
0.007823
0.014305
0.008314
0.018189
0.036592
0.009828
-0.019606
-0.011715
-0.010212
-0.020149
-0.026194
-0.015222
-0.012817
-0.01467
0.001508
0.023941
0.015057
0.015762
0.026663
0.050811
0.040547
0.0064
-0.031913
-0.040258
-0.050427
-0.029635
-0.016513
-0.010473
-0.015756
0.007477
-0.001581
0.005534
0.014971
0.029353
0.018176
0.017095
0.027155
0.039132
0.054438
0.046034
0.033842
0.027241
0.031363
0.028901
0.026132
0.007455
-0.003816
-0.000208
-0.002142
-0.02781
-0.025898
-0.018304
-0.024707
-0.023106
-0.027178
0.014326
0.018393
0.011626
0.020857
0.026478
0.019377
0.016027
0.01066
0.005636
0.006081
0.009471
0.016125
0.003856
-0.01849
-0.028392
-0.039594
-0.019438
-0.012777
0.001705
0.021667
0.024529
0.013807
0.026402
0.019146
0.012582
0.00161
-0.007179
-0.006418
-0.015466
-0.013576
-0.017543
-0.016616
-0.022386
-0.01428
-0.023039
-0.002998
-0.000334
0.002434
-0.000034
0.006043
-0.005745
-0.001542
0.001681
0.00288
0.000297
0.004474
0.00519
0.003032
-0.005664
-0.008997
0.001844
-0.00407
-0.004164
-0.032506
-0.025389
-0.019373
-0.015823
-0.016274
0.011397
0.021848
0.035337
0.044042
0.031279
0.023645
0.014746
0.019612
0.005613
-0.019615
-0.02796
-0.040309
-0.029405
-0.016122
-0.002789
-0.024656
-0.011711
-0.009033
-0.016039
-0.017732
-0.013353
-0.005468
0.010395
0.023911
0.03285
-0.000267
-0.00582
-0.017432
-0.022733
-0.011334
-0.029457
-0.043211
-0.033584
-0.027624
-0.033487
-0.02507
-0.037895
-0.040968
-0.036262
-0.003251
0.009079
0.031841
0.042805
0.029747
0.041121
0.053623
0.030551
0.003175
0.027656
0.00021
-0.044278
-0.039868
-0.030311
-0.017043
-0.015022
-0.025822
-0.018506
0.000993
-0.001656
-0.000641
-0.006793
-0.023824
-0.019675
-0.003306
0.026679
0.028592
0.030762
0.015553
0.003247
0.002345
0.01585
0.006985
-0.022649
-0.018395
-0.02103
-0.057597
-0.074622
-0.053799
-0.038427
-0.007245
0.02942
0.017506
0.008103
0.013356
-0.011635
-0.015934
0.002597
0.006958
-0.002673
-0.012972
-0.020001
-0.016771
-0.018711
-0.030334
-0.01288
-0.016508
-0.019071
-0.017912
-0.013174
-0.000757
0.010005
0.000206
0.014076
0.013909
0.013119
-0.000694
-0.004165
0.003698
-0.003055
-0.014195
-0.032823
-0.02841
-0.034278
-0.04337
-0.041137
-0.02881
-0.031303
-0.042607
-0.042788
-0.037039
-0.015661
-0.023378
0.006281
0.014522
0.019551
0.017342
0.021055
0.008681
0.004028
0.00149
-0.004101
-0.00732
-0.022851
-0.025199
-0.00805
-0.034284
-0.040289
-0.051102
-0.02148
-0.009221
0.012497
-0.008719
0.008436
0.021723
0.009613
0.009849
0.008312
-0.008469
-0.015741
-0.014807
-0.008859
-0.010369
-0.007244
-0.016376
-0.026083
-0.037177
-0.026509
-0.014262
-0.017459
-0.022819
-0.019167
-0.009939
0.006373
0.008137
-0.006099
-0.005645
-0.000909
-0.013904
-0.026539
-0.01753
-0.016162
-0.003624
-0.02357
-0.02334
-0.031438
-0.033617
-0.046192
-0.051607
-0.027237
0.014547
0.018185
-0.003561
-0.008158
0.029566
0.057155
0.057103
0.036708
-0.005375
-0.022039
-0.024861
-0.032375
-0.033977
-0.02319
-0.016153
-0.012942
-0.021322
-0.038218
-0.035586
-0.028394
-0.005275
0.013132
-0.008159
0.020107
0.0182
0.023393
0.007844
0.00066
-0.010499
-0.024472
-0.004203
-0.02817
-0.026403
-0.04498
-0.02746
-0.03817
-0.05125
-0.062357
-0.041064
-0.012734
-0.005653
0.013384
0.02319
0.036722
0.055263
0.05123
0.040374
0.037184
0.045082
0.044911
0.041208
0.046904
0.04911
0.031223
0.02147
0.019054
0.031035
0.039456
0.041296
0.046532
0.037353
0.03198
0.042003
0.050177
0.064197
0.0827
0.089336
0.077257
0.071062
0.068847
0.041635
0.064514
0.0792
0.063396
0.028225
0.035022
0.062971
0.049646
0.05445
0.066344
0.050522
0.053402
0.064639
0.087959
0.117701
0.121259
0.09449
0.063957
0.078198
0.077585
0.070982
0.085439
0.084178
0.064736
0.046679
0.027068
0.031411
0.036707
0.065703
0.04637
0.047495
0.059468
0.046289
0.05488
0.066388
0.074892
0.071319
0.067059
0.048952
0.018384
0.021373
0.028639
0.009023
0.002527
0.004624
0.020782
0.012899
-0.044728
-0.033152
0.007414
0.011847
0.0262
0.031655
0.010899
-0.017017
-0.009253
-0.001968
-0.010082
-0.017392
-0.014854
-0.024427
-0.056283
-0.069083
-0.054757
-0.082159
-0.048522
-0.042653
-0.049051
-0.049513
-0.045834
-0.038045
-0.027611
-0.033764
-0.029038
-0.030116
-0.011616
0.004291
-0.008378
-0.015818
-0.022103
-0.0343
-0.050547
-0.04973
-0.032365
-0.059835
-0.050134
-0.040478
-0.070971
-0.053365
-0.051541
-0.042651
-0.019002
-0.009905
-0.009908
-0.019926
-0.019236
0.002245
-0.003531
-0.026583
-0.013806
-0.024901
-0.036193
-0.03227
-0.051984
-0.094725
-0.076752
-0.059268
-0.070281
-0.07276
-0.050509
-0.039513
-0.035587
-0.033201
-0.031849
-0.060345
-0.060188
-0.06252
-0.050805
-0.048898
-0.047198
-0.050816
-0.079166
-0.056126
-0.07118
-0.060291
-0.046731
-0.051154
-0.026502
-0.000369
0.028264
0.050717
0.04182
0.084252
0.143721
0.166708
0.207343
0.25801
0.299819
0.340797
0.362726
0.371916
0.406113
0.457973
0.506968
0.557434
0.577772
0.61194
0.67904
0.711212
0.70949
0.716248
0.713262
0.736655
0.756279
0.715079
0.674916
0.637248
0.619345
0.589617
0.52446
0.446326
0.348882
0.323455
0.286676
0.26315
0.220493
0.182804
0.185665
0.173943
0.155584
0.132197
0.104526
0.075772
0.059291
0.036097
0.030649
0.012449
0.01599
0.007862
0.002322
-0.013179
-0.008899
-0.015061
-0.013701
-0.011972
-0.019841
-0.018946
-0.008439
0.005622
0.003628
0.006011
0.023244
0.026038
0.042504
0.066188
0.071825
0.070031
0.052088
0.052655
0.026636
0.033526
0.02256
0.012462
-0.004546
-0.025772
-0.01388
-0.023769
-0.020616
-0.005668
0.019992
0.032008
0.034993
0.021271
0.019987
0.041006
0.042075
0.045258
0.035283
0.023004
0.019531
0.038676
0.02047
0.030319
0.02613
0.002806
0.021975
-0.028518
-0.008773
0.022293
0.016692
0.007699
0.027814
0.036168
0.021468
0.017444
0.037035
0.034574
0.017167
-0.000304
-0.000136
0.007504
-0.010172
-0.016329
-0.017104
0.003587
0.025586
-0.002266
-0.005796
0.005122
0.030685
0.042928
0.035377
0.056411
0.047991
0.047247
0.043224
0.048035
0.038138
0.048046
0.038205
0.024086
0.015501
0.020024
0.017793
0.013588
0.012497
0.016186
0.015216
0.040648
0.030116
0.032806
0.038384
0.03849
0.046711
0.057893
0.044357
0.042792
0.047428
0.051248
0.059199
0.047718
0.032765
0.026011
0.009895
-0.005316
0.005038
0.007773
0.019102
0.019681
0.024942
0.020642
0.032407
0.047057
0.054292
0.063225
0.059351
0.069643
0.071072
0.052129
0.045411
0.036698
0.035066
0.056326
0.035673
0.028809
0.027501
0.05082
0.031295
0.03966
0.048313
0.051379
0.057931
0.058318
0.089725
0.085998
0.083692
0.082504
0.065744
0.054508
0.035482
0.035174
0.049166
0.046668
0.050144
0.052183
0.049686
0.041345
0.038834
0.046582
0.049747
0.061725
0.073286
0.066864
0.070455
0.087921
0.102649
0.10981
0.09207
0.077609
0.098344
0.086865
0.080152
0.088616
0.090883
0.079082
0.066597
0.067659
0.058635
0.075619
0.090517
0.057209
0.082627
0.093438
0.092391
0.112695
0.124501
0.12902
0.114053
0.096179
0.092588
0.081823
0.090394
0.103614
0.14773
0.149703
0.139508
0.130773
0.14499
0.149289
0.145541
0.145695
0.167036
0.153774
0.162219
0.184752
0.192154
0.201183
0.19576
0.185113
0.19602
0.190331
0.180389
0.166229
0.159116
0.14828
0.146463
0.148995
0.153932
0.167945
0.185278
0.195474
0.185498
0.22706
0.248777
0.254176
0.23099
0.229331
0.211666
0.190115
0.175729
0.182753
0.185743
0.191149
0.193562
0.185923
0.181736
0.164504
0.148341
0.161412
0.192964
0.20284
0.227316
0.237133
0.214658
0.200411
0.207408
0.176083
0.185783
0.194053
0.194151
0.198309
0.192461
0.178597
0.149321
0.147318
0.151047
0.139355
0.146666
0.159843
0.182009
0.146368
0.102332
0.126987
0.138978
0.117877
0.113002
0.118149
0.120959
0.124418
0.126247
0.115181
0.099191
0.077931
0.076812
0.074391
0.078843
0.075626
0.058265
0.042352
0.051069
0.055399
0.068451
0.069393
0.066475
0.061889
0.080911
0.085647
0.089272
0.053222
0.033166
0.025238
0.006902
0.007855
0.016996
0.017581
-0.011454
-0.017146
-0.010085
0.002112
-0.020077
-0.036335
-0.012985
0.014704
0.012693
0.014175
-0.002142
-0.014997
-0.009378
0.024761
0.012283
0.00743
-0.000476
-0.013595
-0.020059
-0.029692
-0.059313
-0.048328
-0.019866
-0.025831
-0.012228
-0.022337
-0.016815
-0.004891
-0.010524
-0.009902
-0.029344
-0.01624
-0.009527
-0.018965
-0.021048
-0.026061
-0.029126
-0.027202
-0.027328
-0.036614
-0.04369
-0.053565
-0.0397
-0.03655
-0.023898
-0.001128
0.006572
-0.015966
-0.003935
-0.005503
-0.020776
-0.038021
-0.027445
-0.019861
-0.023472
-0.017495
-0.0368
-0.04195
-0.024678
-0.016266
-0.030262
-0.040321
-0.052577
-0.050864
-0.044506
-0.020489
0.006713
-0.011845
-0.001395
-0.003943
0.004186
0.002671
-0.003942
0.001476
0.002791
-0.004703
0.002546
-0.025602
-0.042645
-0.043552
-0.040838
-0.037936
-0.044936
-0.0313
-0.017849
-0.018034
-0.012533
-0.009155
0.009651
0.004117
0.007872
0.00411
-0.001623
-0.012461
-0.007166
-0.005727
-0.019937
-0.015213
-0.019984
-0.032512
-0.035449
-0.049686
-0.033715
-0.001974
0.011163
-0.011716
0.01325
0.017413
0.01096
0.039232
0.01734
-0.009592
0.012357
0.034751
-0.008013
0.00738
0.002555
-0.020885
-0.025919
-0.017047
-0.028411
-0.040563
-0.047599
-0.057228
-0.037504
-0.022174
-0.00472
0.011619
0.00679
0.021444
0.04503
0.035446
0.033608
0.018488
0.01039
-0.006129
-0.020334
-0.002614
-0.003376
-0.024192
-0.021404
-0.028258
-0.003347
0.011309
0.007734
0.022368
-0.010521
-0.01
0.028758
0.024296
0.029322
0.027827
0.025089
0.019664
0.01235
0.012177
-0.018317
-0.010646
-0.002744
-0.010494
-0.029007
-0.047321
-0.031148
-0.012461
0.015872
0.034271
0.04617
0.038273
0.009117
0.001206
0.024202
0.010545
0.016299
0.003541
-0.004756
-0.027091
-0.024268
-0.032298
-0.026488
-0.037435
-0.017115
-0.034635
-0.025432
-0.009348
-0.002304
-0.003307
-0.005293
-0.010873
-0.017414
-0.017699
-0.010699
-0.011204
0.006326
0.008217
0.012718
0.01513
-0.001408
-0.025118
-0.060525
-0.024133
-0.02877
-0.02356
-0.011293
-0.026241
-0.054857
-0.029826
0.015906
0.018803
0.002955
0.018533
0.022561
0.019569
0.003066
-0.007739
-0.034531
-0.021044
-0.009794
-0.020853
-0.038036
-0.043671
-0.051622
-0.036174
-0.015244
-0.029021
-0.040322
-0.014787
-0.019493
-0.018265
0.00722
0.003874
-0.004096
-0.003296
0.012232
0.006501
0.007801
-0.009787
-0.02628
-0.030287
-0.031272
-0.034366
-0.035551
-0.032723
-0.018189
-0.040908
-0.032396
-0.032768
-0.042083
-0.020033
-0.013779
-0.013949
-0.011603
-0.00971
0.010364
0.033446
0.039521
0.012945
-0.007886
-0.018425
-0.020932
-0.041758
-0.047428
-0.015589
-0.012514
-0.040519
-0.025959
0.004928
0.002874
0.007998
0.013202
0.010169
0.033076
0.009808
-0.007776
-0.031372
-0.035382
-0.017461
-0.018385
-0.020035
-0.039271
-0.034922
-0.036502
-0.053669
-0.054552
-0.031383
-0.017672
-0.00543
-0.015423
-0.025061
-0.014165
-0.02769
-0.02112
0.015547
-0.000134
-0.022394
-0.025122
-0.014642
-0.001598
-0.010868
-0.02659
-0.045129
-0.047341
-0.046126
-0.03253
-0.053098
-0.042964
-0.037994
-0.024349
0.000219
0.001897
0.003433
0.008813
0.01224
-0.001757
-0.021137
-0.028807
-0.039925
-0.036019
-0.042069
-0.03828
-0.043078
-0.047079
-0.050942
-0.044666
-0.028539
-0.014182
-0.008202
-0.015777
-0.021628
-0.011721
0.006665
0.008798
0.017483
0.00757
-0.012754
-0.017993
-0.024317
-0.022613
-0.027042
-0.027384
-0.02967
-0.032381
-0.038176
-0.037564
-0.033418
-0.013927
-0.030027
-0.02393
-0.015974
0.009167
0.008295
0.009774
0.025626
0.023463
0.008614
0.008266
-0.002023
-0.014174
-0.017659
-0.017054
-0.031124
-0.038954
-0.029934
-0.020357
-0.010624
-0.007445
-0.024842
-0.055065
-0.057049
-0.033239
0.001024
0.017798
-0.006792
-0.020165
-0.027391
-0.016177
-0.008883
-0.000971
-0.039623
-0.045806
-0.002625
-0.006104
0.017004
-0.011131
-0.039582
-0.057646
-0.063165
-0.033646
-0.020845
-0.024954
-0.035932
-0.013884
-0.006321
-0.01907
-0.022989
-0.033223
-0.04801
-0.074169
-0.058793
-0.056946
-0.040595
-0.032719
-0.022101
-0.012295
-0.01976
-0.012059
0.010446
0.009647
-0.002296
0.004878
0.006466
0.021159
0.024026
-0.005756
-0.005519
-0.009322
-0.006291
0.006703
-0.009746
-0.017013
0.000426
-0.006885
-0.009692
0.007742
0.021054
0.021121
0.036044
0.041614
0.055211
0.038615
0.034871
0.028812
0.050121
0.044399
0.047282
0.038822
0.026701
0.031955
0.034896
0.018893
0.023007
0.010029
0.019454
0.029326
0.038767
0.043981
0.052521
0.068895
0.08096
0.070033
0.067829
0.086637
0.095056
0.07454
0.030814
0.022441
0.072439
0.08903
0.060112
0.032222
0.030677
0.030387
0.045145
0.052323
0.078161
0.094059
0.098247
0.093669
0.115367
0.132816
0.116671
0.103606
0.081462
0.059401
0.068009
0.049125
0.02791
0.027942
0.044135
0.036162
0.048743
0.032396
0.022877
-0.002736
-0.023226
0.006246
0.02601
0.034126
0.039366
0.035844
0.03246
0.03369
0.037152
0.026243
0.017325
-0.024301
-0.041476
-0.041107
-0.032814
-0.0354
-0.046488
-0.049488
-0.060835
-0.048501
-0.027306
-0.017254
-0.016295
-0.042598
-0.020791
-0.024836
-0.048259
-0.054875
-0.058142
-0.070311
-0.03518
-0.031844
-0.036836
-0.024988
-0.066945
-0.071033
-0.066182
-0.066788
-0.043284
-0.031889
-0.064767
-0.060288
-0.030356
-0.018574
-0.027141
-0.029704
-0.028199
-0.018475
-0.014987
-0.008532
-0.025285
-0.046955
-0.059479
-0.05139
-0.0597
-0.052215
-0.054216
-0.063828
-0.088187
-0.088731
-0.064147
-0.056706
-0.037309
-0.04525
-0.03061
-0.004423
-0.009584
0.007974
0.009761
-0.012596
-0.029543
-0.028789
-0.049062
-0.033699
-0.049714
-0.074793
-0.079576
-0.082311
-0.092526
-0.096403
-0.102048
-0.083057
-0.074534
-0.049422
-0.049491
-0.036613
-0.05128
-0.026876
-0.028667
-0.048921
-0.060536
-0.046946
-0.021648
-0.000479
-0.01085
-0.010251
0.0065
0.035444
0.077169
0.117232
0.156576
0.185608
0.244007
0.290286
0.328856
0.37743
0.404511
0.471642
0.526766
0.567211
0.601144
0.631251
0.663266
0.67582
0.684991
0.705929
0.705177
0.704688
0.693266
0.679966
0.65965
0.646456
0.623675
0.581857
0.510247
0.470741
0.390702
0.330871
0.304462
0.299909
0.268135
0.231771
0.202025
0.18616
0.145374
0.110872
0.078576
0.037363
-0.001659
-0.018943
-0.015434
-0.008818
-0.022248
-0.016446
0.005197
-0.009452
-0.025783
0.003415
-0.016408
-0.012921
0.004216
0.004525
-0.011016
-0.023278
-0.036107
-0.054024
-0.033261
-0.0257
-0.010471
-0.009921
-0.000325
0.008458
0.017382
0.02243
0.026364
0.026879
0.025364
0.040826
0.055504
0.018921
0.005382
0.017346
0.029208
0.044892
0.018237
-0.004554
0.013522
-0.009155
-0.03953
-0.051436
-0.037989
-0.003294
0.039773
0.040183
0.024192
0.051232
0.049006
0.065281
0.076613
0.04626
0.018851
0.016659
0.003078
-0.010974
-0.015115
-0.035961
-0.037205
-0.022885
-0.013385
-0.02001
0.010421
0.020864
0.02173
0.005314
0.017977
0.033198
0.041942
0.049158
0.051519
0.040206
0.03449
0.030582
0.011201
0.000041
-0.021385
-0.013509
0.003187
-0.011161
-0.013264
0.0045
0.012191
0.013575
0.022794
0.022243
0.013076
0.027888
0.033089
0.023271
0.026573
0.02819
0.011457
0.011485
0.023216
0.02687
0.013009
-0.009451
0.00203
0.002085
-0.014473
0.002601
0.012938
0.008435
0.026208
0.019289
0.024917
0.054496
0.064454
0.059988
0.053971
0.018018
0.019085
0.020063
0.039614
0.03778
0.007682
0.012364
0.029885
0.033747
0.042162
0.014179
0.011019
0.022245
0.00827
0.004384
0.026391
0.038084
0.040834
0.027938
0.063267
0.067504
0.046103
0.020895
-0.002536
0.015465
0.02189
0.008942
-0.012973
-0.009749
-0.013895
-0.011993
0.013636
0.031359
0.063325
0.073617
0.063694
0.059997
0.065315
0.05354
0.04855
0.060707
0.063798
0.063206
0.043417
0.043244
0.019603
0.023339
0.018442
0.021959
0.029348
0.027174
0.043863
0.050383
0.067214
0.079458
0.101866
0.120684
0.110921
0.111533
0.104909
0.09433
0.093022
0.09693
0.090499
0.076886
0.062829
0.084256
0.096667
0.06376
0.05017
0.062814
0.062275
0.078645
0.091006
0.098511
0.076872
0.09676
0.125021
0.150042
0.163472
0.139544
0.128043
0.122979
0.112254
0.088162
0.105711
0.098922
0.110305
0.113164
0.109777
0.1313
0.143301
0.1552
0.149466
0.135844
0.15828
0.191024
0.182939
0.185687
0.173298
0.159828
0.165381
0.187915
0.178264
0.16574
0.167888
0.180655
0.178078
0.171999
0.187855
0.202181
0.194822
0.190883
0.208747
0.219351
0.200108
0.229751
0.218947
0.195658
0.175435
0.187075
0.16366
0.154178
0.135929
0.142083
0.147948
0.142586
0.159713
0.169155
0.176759
0.178298
0.184424
0.168124
0.172117
0.16404
0.17208
0.179593
0.188944
0.184308
0.179656
0.1604
0.149063
0.149898
0.131162
0.111646
0.116135
0.084917
0.09742
0.099288
0.123932
0.133916
0.122055
0.096832
0.107374
0.09225
0.10177
0.11704
0.106232
0.108004
0.088201
0.057483
0.026198
0.039835
0.045932
0.044252
0.03512
0.035012
0.03563
0.023436
0.039374
0.030643
0.014486
0.013237
-0.004651
-0.007555
0.015069
0.04155
0.048042
0.054167
0.048005
0.029742
0.023167
0.008733
0.005656
-0.00687
-0.012974
-0.025707
-0.055037
-0.100782
-0.066828
-0.073588
-0.067907
-0.044669
-0.034161
-0.008873
0.000185
0.006861
-0.003177
-0.006685
-0.000919
-0.000655
-0.014778
-0.028594
-0.056506
-0.069387
-0.099838
-0.078698
-0.041709
-0.054112
-0.047224
-0.039546
-0.036934
-0.052194
-0.032284
-0.035051
-0.019737
-0.003935
0.006736
-0.049194
-0.034142
-0.044839
-0.051164
-0.068504
-0.066584
-0.073335
-0.067821
-0.073448
-0.058249
-0.07793
-0.081426
-0.066271
-0.033741
-0.01894
-0.020365
-0.038821
-0.023897
-0.014776
-0.02251
-0.041331
-0.046985
-0.02293
-0.044922
-0.047308
-0.053372
-0.068856
-0.073317
-0.063034
-0.058569
-0.06476
-0.061234
-0.054807
-0.037893
-0.024252
-0.016182
-0.008364
-0.024036
-0.037141
-0.064592
-0.060617
-0.0467
-0.029448
-0.036628
-0.059978
-0.079083
-0.054516
-0.052013
-0.056521
-0.050886
-0.049163
-0.045464
-0.025248
-0.024688
-0.035512
-0.008781
0.006803
-0.012688
-0.026964
-0.030933
-0.02745
-0.026303
-0.010407
-0.018163
-0.022773
-0.04077
-0.036507
-0.066537
-0.060497
-0.042095
-0.061018
-0.052568
-0.056376
-0.041431
-0.029877
-0.030943
-0.031331
-0.022367
-0.015377
-0.00852
0.003054
0.008713
-0.010324
-0.01474
-0.024927
-0.041098
-0.040619
-0.038616
-0.066503
-0.071748
-0.055046
-0.055351
-0.045688
-0.017437
-0.002523
-0.00652
-0.005683
-0.017716
-0.008169
-0.008033
-0.006709
-0.009974
-0.030999
-0.04137
-0.011201
-0.015415
-0.027339
-0.036906
-0.012508
-0.028387
-0.04365
-0.074349
-0.06239
-0.045447
-0.055803
-0.036013
-0.011195
0.000291
-0.012145
-0.023768
-0.006663
-0.011548
-0.04753
-0.04448
-0.022053
-0.019389
-0.015416
-0.051685
-0.066725
-0.062798
-0.058684
-0.052537
-0.039979
-0.040911
-0.054782
-0.032648
-0.011403
-0.018182
-0.021254
-0.015791
-0.016116
-0.010533
0.017842
0.000838
-0.014824
-0.015844
-0.028635
-0.040388
-0.038085
-0.031507
-0.028142
-0.024057
-0.030721
-0.039421
-0.031432
-0.029196
-0.047971
-0.040452
-0.046633
-0.050784
-0.023484
-0.004501
0.006524
-0.011311
-0.021971
-0.041667
-0.026126
-0.023346
-0.036883
-0.063864
-0.074527
-0.054427
-0.053795
-0.058899
-0.059116
-0.047447
-0.040406
-0.01606
-0.005994
0.000805
0.011573
-0.002847
-0.005564
-0.008396
-0.027549
-0.047381
-0.045296
-0.055374
-0.084089
-0.075382
-0.049975
-0.061979
-0.050622
-0.06344
-0.045479
-0.025193
-0.007735
-0.013084
-0.0335
-0.011773
-0.02153
-0.031713
-0.023533
-0.045271
-0.05994
-0.047753
-0.054296
-0.061696
-0.07139
-0.091375
-0.068714
-0.049187
-0.039095
-0.036052
-0.030836
-0.052141
-0.027445
-0.003779
-0.005793
-0.016306
-0.026018
-0.042327
-0.053707
-0.040143
-0.015375
-0.013392
-0.035907
-0.065392
-0.046604
-0.034636
-0.036391
-0.049297
-0.057208
-0.048932
-0.058208
-0.036887
-0.015459
-0.015062
-0.021028
0.021147
-0.011033
-0.021225
-0.020938
-0.026418
-0.056878
-0.055163
-0.044845
-0.066858
-0.092648
-0.071521
-0.080127
-0.084478
-0.042174
-0.035703
-0.00937
0.00986
-0.002029
-0.001903
-0.024348
-0.003468
-0.007832
-0.039438
-0.033378
-0.019591
-0.027445
-0.034456
-0.056297
-0.048492
-0.033442
-0.04285
-0.062599
-0.056569
-0.045521
-0.039785
-0.043687
-0.037454
-0.02025
-0.00132
-0.000111
-0.019272
-0.020613
-0.012596
-0.005665
0.002078
-0.004476
-0.023289
-0.030699
-0.035315
-0.029816
-0.05479
-0.070711
-0.073921
-0.069166
-0.075931
-0.087022
-0.035886
-0.004191
0.001476
-0.01626
-0.025854
-0.03059
-0.038834
-0.043838
-0.025737
-0.014822
-0.023044
-0.05956
-0.06078
-0.045755
-0.049562
-0.057747
-0.053241
-0.064605
-0.05631
-0.051255
-0.046386
-0.032134
-0.030522
-0.035089
-0.023168
-0.012983
-0.000002
-0.000963
-0.011909
-0.010414
-0.024029
-0.031507
-0.040727
-0.043595
-0.060071
-0.068864
-0.058039
-0.05892
-0.043037
-0.025402
-0.067674
-0.09265
-0.063335
-0.059533
-0.041012
-0.033969
-0.032971
-0.035632
-0.021007
-0.024582
-0.03273
-0.029545
-0.050635
-0.061998
-0.052795
-0.05691
-0.048187
-0.038971
-0.032356
-0.032955
-0.041441
-0.01185
-0.007669
-0.014401
0.005665
0.024129
0.010171
0.004553
-0.027026
-0.035477
-0.029234
-0.037216
-0.051753
-0.033272
-0.020509
-0.053948
-0.069219
-0.06839
-0.053836
-0.038969
-0.035805
-0.014902
-0.004181
-0.004572
0.012507
-0.00966
-0.038628
-0.045683
-0.055556
-0.059551
-0.068086
-0.072091
-0.075522
-0.067553
-0.031156
-0.040497
-0.024307
0.001332
0.010397
0.002905
-0.008645
0.00089
0.011267
0.033401
0.049057
0.048061
0.048136
0.018062
0.004007
0.01899
-0.001336
-0.016905
-0.014114
-0.003242
0.004754
0.003337
0.018509
0.014467
0.050115
0.04933
0.053068
0.040225
0.037782
0.028385
0.028802
0.042658
0.046037
0.044583
0.039504
0.0201
0.011155
-0.004208
-0.004678
0.001032
0.005213
-0.00567
0.046303
0.066785
0.042611
0.050852
0.071569
0.070547
0.070676
0.06145
0.044236
0.068422
0.061676
0.038523
0.020874
0.022368
0.020772
0.004588
-0.00302
-0.004966
0.010466
0.010923
-0.007865
0.000731
0.01701
0.023121
0.01435
0.014601
0.025233
0.022689
0.019414
0.004835
-0.01938
-0.037107
-0.04329
-0.043415
-0.05508
-0.058247
-0.03336
-0.039073
-0.06549
-0.072633
-0.072192
-0.072507
-0.06144
-0.069197
-0.055154
-0.034177
-0.05059
-0.030935
-0.013377
-0.020686
-0.047475
-0.05404
-0.088751
-0.051343
-0.061266
-0.084114
-0.081259
-0.058497
-0.06499
-0.075944
-0.080905
-0.05278
-0.068317
-0.055464
-0.068485
-0.058833
-0.037047
-0.027911
-0.034239
-0.040699
-0.025818
-0.043398
-0.0672
-0.076878
-0.078439
-0.082095
-0.092925
-0.085643
-0.07843
-0.090728
-0.087463
-0.087635
-0.078823
-0.067661
-0.057562
-0.031827
-0.025278
-0.027513
-0.02109
-0.026017
-0.043848
-0.065518
-0.085616
-0.092677
-0.091683
-0.082538
-0.081319
-0.079218
-0.076603
-0.065533
-0.071419
-0.101988
-0.094158
-0.082323
-0.092361
-0.080873
-0.087606
-0.083043
-0.082725
-0.083546
-0.072661
-0.052637
-0.042232
-0.061518
-0.037579
-0.025606
-0.007954
0.03246
0.033974
0.032791
0.05832
0.121562
0.180345
0.221465
0.25994
0.295596
0.336449
0.368903
0.409403
0.47297
0.515401
0.552366
0.589012
0.618959
0.641255
0.648158
0.643262
0.682397
0.667338
0.680504
0.700807
0.666131
0.652412
0.620584
0.600042
0.546107
0.498799
0.430224
0.376081
0.327498
0.277016
0.246496
0.190451
0.140204
0.147445
0.151
0.093148
0.035784
-0.002675
-0.015354
-0.039194
-0.049975
-0.0517
-0.061881
-0.053962
-0.045786
-0.021794
-0.013288
-0.00291
-0.004425
-0.007149
-0.013881
-0.011325
-0.016978
-0.017804
-0.016421
-0.020919
-0.019207
-0.015078
-0.010377
-0.006997
-0.000981
-0.029304
-0.00604
0.00027
0.018613
0.018171
0.000474
-0.006589
-0.00613
-0.004078
0.020741
0.024502
0.02001
-0.029617
-0.049628
-0.03618
-0.025645
-0.029001
-0.024431
-0.021862
-0.041877
-0.052964
-0.027122
-0.032816
-0.037455
-0.012878
0.003979
0.012536
0.023562
0.002912
-0.007948
-0.00826
-0.002342
0.001574
-0.009569
-0.037422
-0.065554
-0.051275
-0.034215
-0.022435
-0.035365
-0.039539
-0.027662
-0.015117
0.011674
0.020111
0.00425
-0.000123
0.019464
0.010855
0.043719
0.052086
-0.009989
-0.031201
-0.023714
-0.024366
-0.023546
-0.020374
-0.029593
-0.032702
-0.032648
-0.009351
0.008863
0.020814
0.004621
0.011165
0.012955
0.018231
0.010702
0.004931
0.004671
0.012753
0.005433
-0.011997
-0.014445
-0.018257
-0.01939
-0.023152
-0.024777
-0.020346
-0.0183
-0.02655
-0.007015
-0.006638
0.004104
0.040393
0.041306
0.024425
0.044862
0.02342
-0.008088
0.0208
0.020324
0.013557
-0.026623
-0.052141
-0.035036
-0.014391
-0.01299
-0.036273
-0.018771
0.005951
0.007411
0.011132
0.036719
0.06177
0.055424
0.039714
0.027056
0.026033
0.011592
0.001492
0.008709
0.001499
0.001329
-0.00636
-0.007152
-0.003135
-0.01037
0.013537
0.0031
0.007818
0.018864
0.029482
0.017622
0.023449
0.038909
0.044231
0.029275
0.013069
0.047407
0.03522
0.005207
0.01233
0.009272
0.013108
-0.000534
-0.015708
0.004525
-0.003627
0.011242
0.014016
0.014909
0.001064
0.038528
0.061068
0.101025
0.112334
0.109634
0.091011
0.093081
0.082574
0.057811
0.055082
0.050363
0.045879
0.058696
0.048635
0.050745
0.063004
0.086179
0.088136
0.09948
0.090864
0.094086
0.108105
0.108916
0.114943
0.115297
0.099801
0.116283
0.124762
0.11666
0.130723
0.113968
0.098695
0.128416
0.115144
0.107814
0.130089
0.130448
0.132843
0.150686
0.1533
0.143346
0.129273
0.156344
0.178829
0.18461
0.17122
0.167419
0.143861
0.120112
0.142749
0.158574
0.146724
0.137537
0.089099
0.111002
0.150076
0.132711
0.103668
0.121336
0.178822
0.202371
0.181302
0.194518
0.212383
0.203127
0.206659
0.203331
0.196942
0.190156
0.178214
0.172246
0.17195
0.190568
0.164851
0.157488
0.151205
0.133838
0.126809
0.142606
0.168273
0.189917
0.189381
0.159808
0.184939
0.177517
0.153993
0.139378
0.139267
0.141753
0.141133
0.126153
0.107035
0.090466
0.103705
0.094398
0.102524
0.113164
0.104067
0.103168
0.095956
0.114574
0.126148
0.117585
0.090797
0.089381
0.051471
0.018923
0.051464
0.047113
0.049949
0.045149
0.033123
0.036757
0.033161
0.030807
0.021706
0.007794
-0.006621
-0.024321
-0.009468
0.019155
0.031371
0.057017
0.032289
0.019133
0.016365
-0.008858
-0.016562
-0.026375
-0.025819
-0.035349
-0.018616
-0.02809
-0.040957
-0.058288
-0.045583
-0.058466
-0.042063
-0.02243
-0.012526
-0.020971
-0.015069
-0.003991
-0.004837
-0.005044
-0.003829
-0.007615
-0.022946
-0.035806
-0.016846
-0.06694
-0.057606
-0.041889
-0.030235
-0.036606
-0.048059
-0.039792
-0.028218
-0.020019
-0.039939
-0.05691
-0.042993
-0.036087
-0.041915
-0.037448
-0.027289
-0.041423
-0.025994
-0.048939
-0.076588
-0.065243
-0.062894
-0.061921
-0.086571
-0.084222
-0.093387
-0.076343
-0.055482
-0.032986
-0.023289
-0.018948
-0.021183
-0.02798
-0.013447
-0.015874
-0.016739
-0.01302
-0.0181
-0.043405
-0.056836
-0.058791
-0.057439
-0.074913
-0.061529
-0.060809
-0.050564
-0.061596
-0.052492
-0.023911
-0.025194
-0.010464
0.013277
-0.009222
-0.015754
-0.034855
-0.015021
-0.020139
-0.032063
-0.057366
-0.090319
-0.101397
-0.10627
-0.071498
-0.040848
-0.008976
-0.021945
-0.01953
0.001517
-0.010499
-0.019876
-0.009419
-0.010626
-0.016206
-0.00149
-0.009634
0.002286
-0.019599
-0.038177
-0.038066
-0.025857
-0.029058
-0.050829
-0.069478
-0.069147
-0.060795
-0.051243
-0.028404
-0.024389
-0.024604
-0.02921
-0.008582
-0.012912
-0.004428
0.011542
0.006075
-0.006992
-0.004606
-0.006197
-0.027917
-0.054304
-0.027551
0.015647
-0.009781
-0.023219
-0.017694
-0.007697
-0.014176
-0.013083
-0.013561
-0.015188
-0.023247
-0.001056
-0.003975
0.011105
0.003333
0.007824
0.00491
-0.023012
-0.032075
-0.022356
-0.031289
-0.060137
-0.056937
-0.056104
-0.044962
-0.014567
0.011881
-0.003796
-0.01679
-0.021111
-0.010286
0.004815
0.020221
0.009432
-0.008417
-0.0173
0.008564
-0.001065
-0.026981
-0.040186
-0.04539
-0.053144
-0.041241
-0.036927
-0.030904
-0.044347
-0.030102
-0.016678
-0.009405
0.013769
0.001707
-0.034321
-0.023079
-0.001221
-0.000944
-0.006639
0.012653
-0.001269
-0.027741
-0.030702
-0.043121
-0.060426
-0.059907
-0.056703
-0.04434
-0.027411
-0.030995
-0.042163
-0.037906
-0.034655
-0.030756
-0.038255
-0.018715
-0.00698
-0.015317
-0.018899
-0.020359
-0.022567
-0.023173
-0.023099
-0.04599
-0.061256
-0.053221
-0.061015
-0.063699
-0.037432
-0.027095
-0.009097
-0.016662
-0.025102
-0.03616
-0.013219
0.002419
0.011462
0.003724
-0.023674
-0.044663
-0.047768
-0.048051
-0.072924
-0.051498
-0.033837
-0.030186
-0.036973
-0.038686
-0.032287
-0.037825
-0.02708
-0.008432
0.001032
-0.002385
-0.010678
-0.018391
-0.013101
-0.002309
0.01587
-0.027685
-0.024485
-0.02066
-0.052135
-0.082386
-0.098477
-0.070495
-0.05233
-0.039565
-0.037057
-0.045798
-0.052164
-0.038003
-0.028618
-0.023615
-0.015606
-0.020597
-0.010624
-0.025124
-0.018924
-0.017782
-0.02596
-0.037902
-0.04605
-0.038318
-0.0381
-0.053411
-0.059075
-0.05169
-0.04471
-0.03483
-0.013563
-0.00577
-0.004327
-0.028119
-0.010167
0.000738
-0.006291
-0.023578
-0.021678
-0.011699
-0.016697
-0.01622
-0.023629
-0.056232
-0.079848
-0.069886
-0.055378
-0.04328
-0.044271
-0.026363
-0.013401
-0.010003
-0.026498
-0.041999
-0.017589
-0.011561
-0.012357
-0.026567
-0.017382
-0.011643
-0.005953
-0.012842
-0.034661
-0.069889
-0.073409
-0.069155
-0.076174
-0.078475
-0.07086
-0.045259
-0.037557
-0.036328
-0.044324
-0.023781
-0.00413
-0.017482
-0.003381
-0.033753
-0.03898
-0.019179
-0.001306
-0.034783
-0.075003
-0.0757
-0.069637
-0.088948
-0.072773
-0.060337
-0.06192
-0.051909
-0.064019
-0.050075
-0.026496
-0.015157
-0.004545
0.018793
0.022274
0.015385
0.019469
-0.006812
-0.011517
-0.01917
-0.036411
-0.038004
-0.04333
-0.060575
-0.068272
-0.063986
-0.054297
-0.045147
-0.045267
-0.040059
-0.04824
-0.024942
-0.003139
-0.002845
-0.019789
-0.039296
-0.036386
-0.053108
-0.026206
-0.033005
-0.037078
-0.04262
-0.054037
-0.063337
-0.045264
-0.049756
-0.049803
-0.030343
-0.024293
-0.051379
-0.032257
-0.034932
-0.032241
-0.02872
-0.022668
-0.01022
0.007011
0.002655
-0.025256
-0.043854
-0.059854
-0.053627
-0.06162
-0.065613
-0.050335
-0.04464
-0.042982
-0.034988
-0.02521
-0.015225
-0.005833
-0.006001
-0.006925
-0.007787
-0.022004
-0.023742
-0.025213
-0.035432
-0.028423
-0.027516
-0.035648
-0.048015
-0.064536
-0.070465
-0.05676
-0.046741
-0.037101
-0.033563
-0.035069
-0.018956
-0.016023
-0.010357
0.009084
-0.040121
-0.028904
-0.032743
-0.047793
-0.049416
-0.0304
-0.028458
-0.018756
-0.042643
-0.067557
-0.080228
-0.071589
-0.048525
-0.044299
-0.036452
-0.028373
0.016234
-0.000499
-0.018622
-0.020894
-0.001981
0.037076
0.035012
0.012794
0.017738
0.013008
0.004121
0.002959
0.00522
-0.00388
-0.000964
-0.01034
-0.004421
0.033014
0.048647
0.028827
0.038764
0.048267
0.062593
0.061871
0.062867
0.065943
0.061347
0.044318
0.053819
0.048772
0.049759
0.00151
0.004858
0.003148
-0.008029
-0.006864
0.003668
0.022283
0.031638
0.037805
0.049554
0.06574
0.059049
0.040843
0.071053
0.091513
0.08074
0.081804
0.069511
0.074131
0.067565
0.057278
0.036479
0.03721
0.037433
0.027307
0.034018
0.050377
0.046682
0.051747
0.05187
0.054479
0.057196
0.028916
0.003331
0.021488
0.042241
0.049935
0.045902
0.023574
-0.002581
-0.025494
-0.034807
-0.027612
-0.016677
-0.022467
-0.019221
-0.024639
-0.042305
-0.043438
-0.024873
-0.027831
-0.037339
-0.020188
-0.013105
0.007236
0.017011
-0.010875
-0.029007
-0.02358
-0.035491
-0.062006
-0.065031
-0.048345
-0.070923
-0.070003
-0.07029
-0.055453
-0.053155
-0.061743
-0.064717
-0.052041
-0.040507
-0.031695
-0.032119
-0.03332
-0.045014
-0.053343
-0.056426
-0.056506
-0.059961
-0.066787
-0.071738
-0.070167
-0.063356
-0.033949
-0.038799
-0.054759
-0.063046
-0.053198
-0.045887
-0.045119
-0.051654
-0.044197
-0.05971
-0.062028
-0.066876
-0.053042
-0.055526
-0.041572
-0.042675
-0.04887
-0.046957
-0.068411
-0.086131
-0.073683
-0.061372
-0.072173
-0.081962
-0.126611
-0.134262
-0.085294
-0.033208
-0.058016
-0.040991
-0.053324
-0.053109
-0.040548
-0.055847
-0.060607
-0.096611
-0.096532
-0.080949
-0.069611
-0.08793
-0.102486
-0.091864
-0.075034
-0.056054
-0.058053
-0.036412
-0.006238
-0.011994
-0.001934
0.022047
0.074661
0.11512
0.16799
0.17275
0.194312
0.223299
0.256371
0.29651
0.35786
0.374785
0.418003
0.470725
0.524947
0.571586
0.607107
0.62564
0.655389
0.692303
0.736669
0.750571
0.714099
0.712369
0.704644
0.658987
0.634747
0.610735
0.565363
0.491029
0.457266
0.370918
0.316601
0.29622
0.273795
0.259873
0.230357
0.216758
0.221383
0.192677
0.177508
0.123658
0.08713
0.053553
0.041109
0.022216
-0.019622
-0.048196
-0.05866
-0.052602
-0.044003
-0.047542
-0.046616
-0.039993
-0.027492
-0.028229
-0.031603
-0.023326
-0.001637
0.004334
-0.016791
0.013016
0.053586
0.044142
0.023226
0.014879
-0.024105
-0.005835
0.012096
0.011273
0.007063
-0.013821
-0.016206
-0.000892
0.001886
-0.011136
-0.014058
-0.015446
0.003207
0.014016
0.026523
0.023869
0.024762
0.019212
-0.012391
-0.019673
-0.026959
-0.014015
0.003375
0.011
-0.001903
-0.014781
-0.013763
-0.035527
-0.025824
-0.024907
-0.008587
0.00486
-0.00207
0.003016
0.007184
0.004793
0.006034
0.005137
-0.008662
-0.010856
-0.025661
-0.017041
-0.031355
-0.031114
-0.034087
-0.015349
0.002189
0.0139
0.011081
0.001242
0.010689
0.017231
0.017444
0.02397
0.028663
0.02277
0.02881
0.031606
0.034739
0.036798
-0.010802
-0.005903
-0.018276
-0.034923
-0.028605
-0.025032
-0.020132
-0.032428
-0.02814
-0.014336
0.008176
0.017841
0.032706
0.026214
0.010684
0.009719
0.024666
0.028415
0.033033
0.021493
0.016083
0.025852
0.029843
-0.000743
-0.03254
-0.018914
-0.014377
0.004433
-0.00473
-0.003776
0.003553
-0.017301
0.003801
0.022836
0.042488
0.055213
0.050736
0.046774
0.0406
0.057371
0.039459
0.026251
-0.000438
-0.006549
0.000736
-0.018526
-0.00808
-0.009138
0.00181
0.005052
0.020868
0.023323
0.038208
0.051744
0.052904
0.028384
0.041589
0.040058
0.020727
0.029303
0.031134
0.029196
0.002942
-0.019038
-0.003169
0.002604
0.017245
0.024383
0.032017
0.043998
0.053312
0.073773
0.076965
0.085375
0.093843
0.085564
0.09558
0.068582
0.043686
0.029304
0.024899
0.014591
0.04702
0.045573
0.050452
0.071997
0.083671
0.058623
0.045449
0.055719
0.091804
0.073274
0.094469
0.10107
0.075069
0.087377
0.105193
0.099256
0.097261
0.084278
0.080205
0.091299
0.103609
0.093608
0.078662
0.093473
0.122237
0.134255
0.136649
0.11329
0.102579
0.114695
0.135223
0.160925
0.146782
0.148042
0.13553
0.128295
0.119512
0.13075
0.141298
0.156535
0.131797
0.119537
0.101432
0.117555
0.152123
0.155176
0.158764
0.171006
0.192436
0.196258
0.215816
0.230992
0.207381
0.191567
0.204699
0.199444
0.201462
0.178952
0.177211
0.157839
0.142429
0.127755
0.144704
0.156648
0.187992
0.171287
0.167385
0.155951
0.182308
0.195267
0.21538
0.224951
0.219592
0.23058
0.20942
0.181748
0.154033
0.161663
0.162479
0.173851
0.198796
0.154787
0.134286
0.095137
0.136508
0.155904
0.155931
0.149952
0.163516
0.160333
0.146706
0.128559
0.118287
0.136589
0.136149
0.130071
0.129311
0.13141
0.152827
0.135611
0.125473
0.079859
0.055249
0.043403
0.050042
0.033554
0.053919
0.077397
0.076014
0.072863
0.06586
0.078556
0.07934
0.085583
0.072389
0.066671
0.052321
0.050519
0.02335
0.015271
0.007292
0.012654
0.001963
-0.00393
0.010366
0.011899
-0.015569
-0.009651
0.00145
0.003581
0.001516
-0.007995
-0.009837
0.023845
0.0128
0.003862
-0.013878
-0.014415
-0.014945
-0.031397
-0.051693
-0.042688
-0.037187
-0.039298
-0.036371
-0.043005
-0.038027
-0.022454
-0.046396
-0.047237
-0.027274
-0.02565
-0.001232
-0.012938
-0.018897
-0.018113
-0.012834
0.002373
-0.006839
-0.019504
-0.052064
-0.045463
-0.031246
-0.02098
-0.038119
-0.038769
-0.043003
-0.047736
-0.049001
-0.041504
-0.023291
-0.01417
-0.018675
-0.022389
-0.027751
-0.020413
-0.055452
-0.096259
-0.079552
-0.066177
-0.028876
-0.074128
-0.065111
-0.085574
-0.073517
-0.048838
-0.036995
-0.035145
-0.031835
-0.039395
-0.053621
-0.035904
-0.021414
-0.005666
-0.002704
0.00101
0.00354
-0.005958
-0.030149
-0.047895
-0.05687
-0.069615
-0.047989
-0.048358
-0.0453
-0.041452
-0.047537
-0.044889
-0.034704
-0.035321
-0.02272
-0.005731
0.011161
0.030329
0.01101
-0.007459
-0.01213
-0.019417
-0.045447
-0.031893
-0.037901
-0.044421
-0.046304
-0.045814
-0.052504
-0.051906
-0.034425
-0.05168
-0.050864
-0.031757
-0.019258
0.01976
0.016377
0.011933
0.005514
-0.002891
-0.004184
0.003206
-0.002475
-0.002539
-0.015239
-0.034312
-0.043125
-0.048973
-0.057097
-0.054488
-0.047906
-0.013133
0.008189
0.024168
0.017981
0.019333
-0.00325
-0.020925
0.001371
0.005357
0.022126
0.011659
-0.002466
-0.008886
-0.022625
-0.033719
-0.028117
-0.027311
-0.025058
-0.032242
-0.015295
-0.011071
-0.037278
-0.039039
-0.024529
-0.004422
0.024737
0.02227
0.003638
-0.001531
-0.009843
-0.011427
-0.013301
-0.034424
-0.027562
-0.050462
-0.032647
-0.025439
-0.03126
-0.019316
-0.013534
-0.01944
-0.024814
-0.006306
0.020359
0.01635
0.01984
0.033117
0.0154
-0.001977
0.00841
-0.004916
-0.021179
-0.01925
0.00419
-0.002363
-0.073026
-0.057191
-0.06006
-0.052004
-0.052421
-0.047093
-0.015357
0.00467
0.048542
0.028238
0.0072
0.002005
-0.000575
-0.001773
-0.016128
-0.014297
-0.023381
-0.037699
-0.036504
-0.031413
-0.059869
-0.050785
-0.042846
-0.039897
-0.033758
-0.022304
-0.008729
-0.006954
0.002134
-0.003253
0.005408
0.001172
-0.001666
0.002439
-0.008015
-0.012437
-0.015827
-0.01985
-0.032244
-0.041487
-0.034801
-0.043578
-0.042481
-0.035313
-0.033166
-0.017979
-0.022301
-0.018799
-0.011015
-0.013345
-0.005848
-0.000378
-0.002808
-0.002067
-0.008843
-0.017692
-0.026425
-0.035753
-0.046198
-0.057954
-0.052888
-0.049462
-0.043956
-0.039772
-0.034748
-0.029595
-0.011235
0.009357
0.001516
0.018892
0.020301
0.017256
0.012185
0.007012
-0.017015
-0.015235
-0.010543
-0.029339
-0.030928
-0.043798
-0.055131
-0.056587
-0.050277
-0.038889
-0.024598
-0.040323
-0.056263
-0.021628
-0.000169
-0.020439
-0.007242
0.004606
-0.00406
-0.020884
-0.018594
-0.015795
-0.05156
-0.029605
-0.021121
-0.062043
-0.101905
-0.102344
-0.07921
-0.045204
-0.019775
-0.018515
-0.011727
-0.010151
-0.003369
-0.016174
-0.004675
0.017746
0.025107
0.003348
-0.019082
-0.012032
-0.005387
-0.022592
-0.053984
-0.07115
-0.049798
-0.062632
-0.049314
-0.032549
-0.017917
-0.023138
-0.034629
-0.02917
-0.020819
-0.015049
-0.013824
-0.020813
-0.000994
0.003471
-0.011237
-0.01245
-0.021518
-0.005679
-0.024984
-0.049582
-0.038862
-0.030782
-0.046108
-0.028207
-0.022486
-0.038363
0.002297
-0.008556
-0.010183
-0.015467
-0.017696
-0.002872
-0.002381
-0.035554
-0.065675
-0.050815
-0.036523
-0.032871
-0.024072
-0.022544
-0.024577
-0.017632
-0.022173
-0.038657
-0.029983
-0.018922
-0.031919
-0.018916
-0.014148
0.008518
0.012089
0.004027
-0.009787
-0.012759
-0.016228
-0.015082
-0.030281
-0.024253
-0.026018
-0.019614
-0.028456
-0.050809
-0.055854
-0.043315
-0.030518
-0.028003
-0.029753
-0.017586
-0.028859
-0.047056
-0.029726
0.009649
0.016243
-0.0084
-0.017586
-0.024885
-0.038426
-0.037605
-0.027995
-0.002656
-0.017782
-0.035016
-0.036132
-0.034008
-0.036195
-0.034795
-0.010113
-0.007046
-0.0155
0.003569
0.007881
-0.001211
0.001356
0.008063
0.001593
-0.006763
0.002965
0.002708
-0.028604
-0.043868
-0.07495
-0.072869
-0.057253
-0.047355
-0.039107
-0.02899
-0.044513
-0.051986
-0.047384
-0.022406
-0.00202
-0.007318
0.003512
0.005824
0.000822
-0.020252
-0.026932
-0.028599
-0.031838
-0.045343
-0.050699
-0.018473
0.00612
0.00013
-0.023623
-0.047613
-0.002426
-0.006586
-0.010831
-0.011309
-0.02077
-0.011509
-0.018672
0.000483
-0.034385
-0.033267
-0.030979
-0.021551
-0.018079
-0.015228
-0.018112
-0.031399
-0.033134
-0.026425
-0.020614
0.011166
0.017233
0.024372
0.046443
0.043249
0.042567
0.054724
0.048234
0.059858
0.060892
0.015074
-0.000949
0.011918
0.014141
0.000253
0.001926
-0.006637
-0.00863
0.002125
0.019723
0.042086
0.054151
0.067204
0.055166
0.06306
0.066658
0.075047
0.070422
0.069816
0.051435
0.053893
0.037508
0.043761
0.04181
0.025418
0.016369
0.020128
0.029241
0.030852
0.054217
0.080121
0.096216
0.098563
0.095381
0.097912
0.097852
0.107178
0.111373
0.076356
0.089571
0.086479
0.042366
0.033346
0.029288
0.030793
0.029366
0.005237
-0.003209
0.008413
0.031877
0.025249
0.035364
0.036906
0.037063
0.050463
0.069963
0.044268
0.024545
0.003898
-0.005539
-0.00891
-0.022585
-0.039779
-0.031235
-0.025154
-0.027086
-0.025204
-0.02481
-0.020666
-0.018577
-0.017987
0.006956
0.005998
-0.001277
0.018582
0.025803
0.019232
0.016198
-0.00644
-0.020675
-0.014976
-0.006573
0.001568
-0.031548
-0.067026
-0.078601
-0.077817
-0.071783
-0.047799
-0.025098
-0.024561
-0.037417
-0.060673
-0.044313
-0.037109
-0.040932
-0.037288
-0.048902
-0.056716
-0.06185
-0.062186
-0.071868
-0.081543
-0.073066
-0.054466
-0.074567
-0.066947
-0.056059
-0.047268
-0.046785
-0.062996
-0.056623
-0.032072
-0.028541
-0.022452
-0.025249
-0.032368
-0.008632
0.002482
0.000483
-0.024099
-0.040491
-0.049967
-0.081805
-0.082284
-0.077848
-0.074281
-0.095757
-0.08023
-0.081748
-0.087535
-0.086603
-0.073621
-0.051679
-0.046034
-0.050961
-0.067503
-0.08792
-0.070291
-0.055323
-0.067223
-0.070907
-0.064451
-0.081001
-0.075921
-0.074479
-0.050459
-0.01195
0.00935
0.043071
0.052957
0.101243
0.155736
0.192766
0.214878
0.235334
0.27537
0.306071
0.352043
0.400395
0.421388
0.460372
0.520579
0.552921
0.581542
0.617907
0.648766
0.675095
0.691705
0.708557
0.705279
0.715448
0.723669
0.69048
0.678231
0.655182
0.584799
0.538123
0.491442
0.43691
0.354862
0.30323
0.274954
0.2417
0.238993
0.193852
0.180291
0.17084
0.158141
0.114791
0.074469
0.059364
0.03299
0.016022
0.013671
-0.012722
-0.036388
-0.015802
0.00228
0.008396
-0.038263
-0.067022
-0.059594
-0.058425
-0.057586
-0.064792
-0.066826
-0.041816
-0.016061
0.001017
-0.011315
-0.007364
0.013793
0.029497
0.020472
0.016962
0.022941
-0.003894
-0.006851
0.021906
0.021714
0.03125
0.026327
0.011115
-0.023143
-0.0193
-0.003742
0.004772
-0.001442
-0.015375
0.002491
0.0065
0.016241
0.009591
0.001132
0.011581
0.01315
0.017944
0.019712
0.033808
0.037816
0.026336
0.00437
0.01978
0.022085
-0.011831
-0.008734
-0.021431
0.003897
0.008974
0.007448
-0.003603
-0.004298
0.003773
0.019981
0.052866
0.039297
0.040339
0.007596
-0.023466
-0.034265
-0.029392
-0.033741
-0.01803
-0.020407
-0.015557
-0.012005
0.008521
0.01636
0.008633
0.014783
0.019218
0.038212
0.046207
0.034403
0.031917
0.022853
0.030407
0.030173
0.01546
0.00528
0.023703
0.014247
0.010244
0.015658
-0.013528
-0.027389
-0.018063
-0.00203
0.001394
0.005624
0.001063
0.010756
0.008091
-0.005835
0.020932
0.005095
0.010057
0.022927
0.048504
0.045349
0.003297
-0.009034
-0.0255
-0.052751
-0.057578
0.009279
0.00034
-0.010116
-0.027324
-0.011081
0.004309
0.028809
0.032927
0.032097
0.037994
0.064394
0.06206
0.053943
0.055125
0.035812
0.040461
0.018948
0.009957
0.024939
-0.009088
-0.021605
-0.002528
0.014172
0.031642
0.053672
0.04834
0.059508
0.056698
0.038714
0.035002
0.022574
0.019911
0.01763
0.036343
0.040903
0.031708
0.019472
0.017057
0.036817
0.02611
0.041095
0.048514
0.03906
0.055008
0.084225
0.08802
0.084539
0.064587
0.055578
0.082328
0.076972
0.059096
0.068951
0.062734
0.054629
0.043334
0.043993
0.063992
0.061722
0.046631
0.060976
0.065894
0.095861
0.071536
0.063304
0.081572
0.08964
0.079367
0.093509
0.097764
0.098143
0.087089
0.082725
0.096795
0.096194
0.111536
0.096866
0.083735
0.07808
0.092284
0.091834
0.121575
0.106552
0.101114
0.124473
0.116588
0.137944
0.136332
0.118372
0.121493
0.157436
0.188117
0.175184
0.170989
0.177739
0.187776
0.16215
0.152653
0.149515
0.13555
0.139394
0.159358
0.156374
0.163127
0.176873
0.184604
0.197285
0.213362
0.180503
0.18604
0.196126
0.195835
0.193523
0.197893
0.183711
0.174749
0.169984
0.161251
0.165749
0.156584
0.154501
0.1733
0.169026
0.164897
0.171587
0.159587
0.164291
0.162465
0.167725
0.176639
0.193982
0.193663
0.189125
0.158446
0.145069
0.153773
0.139488
0.122707
0.138156
0.114688
0.107221
0.114825
0.118902
0.119244
0.133999
0.129755
0.120472
0.109442
0.121172
0.108257
0.103529
0.093279
0.089045
0.094029
0.089555
0.088018
0.053354
0.023858
0.034602
0.047422
0.040531
0.04866
0.058154
0.045228
0.037763
0.019068
0.018773
0.034298
0.051617
0.040681
0.012784
0.007841
0.004438
-0.020833
-0.035241
-0.003032
0.004832
-0.006297
-0.021104
-0.037644
-0.03581
-0.015147
0.002885
-0.029342
-0.028741
-0.030791
-0.01653
-0.028109
-0.002002
-0.014164
0.005014
-0.018221
-0.025953
-0.023886
-0.034393
-0.017831
-0.02857
-0.067739
-0.069472
-0.051494
-0.034523
-0.042149
-0.049557
-0.061785
-0.049759
-0.044043
-0.01305
-0.008321
-0.018172
-0.036572
-0.031018
-0.025477
-0.037547
-0.060725
-0.059101
-0.0455
-0.066949
-0.072663
-0.087708
-0.09684
-0.091496
-0.066024
-0.051744
-0.042104
-0.038349
-0.03896
-0.052985
-0.034736
-0.038217
-0.038524
-0.037015
-0.042191
-0.05009
-0.04377
-0.074295
-0.084718
-0.093668
-0.08249
-0.073884
-0.072461
-0.059008
-0.047616
-0.039083
-0.036055
-0.040924
-0.049644
-0.030902
-0.036089
-0.032518
0.002556
0.008843
-0.022394
-0.014051
-0.034921
-0.04923
-0.068516
-0.06434
-0.080752
-0.091906
-0.104001
-0.092928
-0.065709
-0.058065
-0.037639
-0.026056
-0.053194
-0.050629
-0.020196
-0.024137
-0.010173
-0.015387
-0.03698
-0.02891
-0.029597
-0.043762
-0.027426
-0.049356
-0.060902
-0.055539
-0.049599
-0.050033
-0.028947
-0.027115
-0.01948
-0.014066
-0.00587
0.003534
0.001036
-0.003913
-0.002413
0.017111
0.002911
-0.007694
-0.024509
-0.051234
-0.062204
-0.045814
-0.026474
-0.032578
-0.046628
-0.064778
-0.053612
-0.026921
-0.024046
-0.036879
-0.055982
-0.041794
-0.017409
0.001988
-0.009235
-0.01518
0.024034
-0.008771
0.00454
0.003896
-0.016754
0.00007
-0.014785
-0.02231
-0.052802
-0.04617
-0.030936
-0.033439
-0.037165
-0.030179
-0.030596
-0.017854
-0.013035
-0.000085
0.017931
0.031045
0.008773
-0.013384
-0.028086
-0.01569
-0.022139
-0.029854
-0.032049
-0.054551
-0.057567
-0.048089
-0.048714
-0.024153
-0.034255
-0.022629
-0.033019
-0.039164
-0.033873
-0.026838
-0.021984
0.008481
0.029504
0.020723
0.004727
-0.011773
-0.037122
-0.054838
-0.038105
-0.024738
-0.021096
-0.036447
-0.030226
-0.016793
-0.029075
-0.016413
-0.007809
-0.014868
-0.011051
-0.007346
-0.022171
-0.022234
-0.027305
-0.028386
-0.017162
-0.048392
-0.058795
-0.046054
-0.056485
-0.048227
-0.051934
-0.067247
-0.041341
-0.036179
-0.058773
-0.042578
-0.028264
-0.007209
0.017195
-0.005069
-0.016654
-0.016168
-0.018089
0.000139
-0.009051
-0.026078
-0.024776
-0.03805
-0.032344
-0.030579
-0.048249
-0.053917
-0.0496
-0.036006
-0.026835
-0.033418
-0.026814
-0.039129
-0.030632
-0.021825
-0.009084
-0.028875
-0.01828
-0.02428
-0.025615
-0.034583
-0.035233
-0.02984
-0.046349
-0.037279
-0.039627
-0.057217
-0.048689
-0.055663
-0.072946
-0.058722
-0.040396
-0.021357
0.003617
-0.018788
-0.032039
-0.057516
-0.064495
-0.056534
-0.051184
-0.044312
-0.03762
-0.024018
-0.0523
-0.048041
-0.050645
-0.067447
-0.066708
-0.037468
-0.005523
0.008301
0.001941
-0.013116
0.005129
0.001419
0.022493
0.020066
0.019017
0.018252
0.02669
-0.029525
-0.032972
-0.049468
-0.06433
-0.057138
-0.05381
-0.049579
-0.072419
-0.059879
-0.052232
-0.054573
-0.034054
-0.013443
-0.009231
-0.038179
-0.050068
-0.034324
-0.026438
-0.023885
-0.023464
-0.032834
-0.032581
-0.046841
-0.039905
-0.06559
-0.088464
-0.080588
-0.070452
-0.042054
-0.039544
-0.032643
-0.028875
-0.027229
-0.034323
0.003601
-0.006993
-0.018765
-0.022189
-0.030207
-0.015012
-0.065765
-0.05732
-0.05309
-0.056152
-0.044735
-0.039138
-0.03224
-0.043836
-0.047992
-0.043838
-0.025968
-0.011779
-0.015149
-0.014665
-0.009609
-0.008003
-0.029778
-0.019311
-0.021739
-0.040122
-0.034978
-0.031491
-0.037593
-0.057016
-0.041544
-0.045627
-0.061596
-0.085719
-0.088591
-0.072658
-0.051738
-0.038981
-0.027071
-0.005193
-0.015749
-0.014476
-0.01883
-0.010737
-0.028878
-0.049561
-0.052637
-0.071316
-0.087189
-0.060428
-0.022421
-0.03666
-0.055906
-0.042449
-0.034526
-0.015678
-0.024557
-0.03336
-0.033087
-0.019243
-0.013523
-0.037278
-0.033052
-0.032801
-0.008415
-0.027401
-0.053317
-0.041511
-0.062319
-0.057907
-0.060802
-0.062171
-0.052623
-0.036809
-0.027923
-0.025995
-0.025144
-0.035662
-0.049586
-0.023794
0.008659
0.006521
-0.029847
-0.042783
-0.03568
-0.038454
-0.040492
-0.039297
-0.041706
-0.058254
-0.060232
-0.05281
-0.058042
-0.034963
-0.017273
-0.038209
-0.032772
-0.018135
-0.021001
-0.009449
-0.020534
-0.024253
-0.019355
-0.019449
-0.038432
-0.039816
-0.048629
-0.069067
-0.04557
-0.036909
-0.051893
-0.060872
-0.056325
-0.042344
-0.030182
-0.041899
-0.01578
-0.041814
-0.038242
-0.009508
-0.01231
-0.019155
-0.013253
-0.015579
0.001928
-0.013683
-0.062925
-0.086844
-0.108632
-0.098443
-0.071199
-0.054711
-0.041372
-0.06169
-0.070904
-0.058597
-0.062405
-0.056492
-0.022814
-0.021854
-0.015866
-0.001807
-0.01961
-0.026728
-0.035094
-0.035272
-0.030894
-0.035214
-0.037461
-0.064826
-0.100712
-0.084709
-0.073397
-0.077946
-0.080218
-0.054094
-0.022445
-0.026655
-0.023284
-0.044497
-0.011423
0.016938
-0.001821
-0.016278
-0.015583
-0.01718
-0.034827
-0.025289
-0.035164
-0.044771
-0.045464
-0.031728
-0.030157
-0.038308
-0.018941
-0.014488
0.001173
0.022604
0.026732
0.056344
0.054706
0.038564
0.047154
0.043602
0.013995
0.03517
0.024347
0.000323
0.000611
0.002156
-0.004832
0.011105
0.019611
0.034028
0.023299
0.011197
-0.001166
0.019439
0.013858
0.021014
0.051069
0.047848
0.040891
0.042213
0.019638
0.031333
0.027318
0.027572
0.024191
0.023977
0.03964
0.051162
0.057572
0.04649
0.034356
0.022536
0.049521
0.064581
0.064806
0.059522
0.050749
0.063434
0.059574
0.054475
0.02573
0.006163
0.016024
0.006976
0.010197
0.007589
-0.008376
0.000938
0.001109
-0.006446
0.000381
0.006809
0.014971
0.011039
0.010014
-0.000643
-0.014068
-0.032385
-0.043951
-0.01941
-0.031242
-0.044282
-0.02576
-0.028483
-0.049942
-0.068401
-0.070195
-0.06359
-0.06771
-0.079552
-0.085202
-0.060065
-0.048685
-0.039291
-0.045135
-0.066158
-0.05679
-0.020578
-0.000087
-0.019665
-0.047509
-0.05697
-0.074946
-0.058727
-0.054126
-0.066312
-0.045955
-0.041606
-0.04806
-0.071099
-0.061811
-0.051213
-0.063698
-0.061176
-0.040545
-0.051124
-0.040075
-0.033407
-0.026542
-0.026956
-0.038346
-0.015556
-0.086593
-0.087676
-0.083204
-0.094998
-0.078453
-0.079912
-0.095882
-0.097172
-0.084414
-0.067534
-0.056332
-0.066367
-0.067178
-0.060246
-0.037336
-0.015198
-0.04327
-0.066692
-0.042728
-0.049704
-0.058937
-0.052803
-0.064899
-0.082757
-0.086796
-0.090576
-0.083077
-0.082652
-0.085046
-0.092254
-0.112474
-0.086772
-0.068245
-0.048171
-0.051887
-0.042513
-0.053932
-0.053761
-0.029158
-0.022114
-0.0257
-0.025502
0.000373
0.031253
0.04467
0.075191
0.131022
0.140906
0.159084
0.206936
0.254494
0.325671
0.371697
0.395916
0.453884
0.494542
0.551443
0.59104
0.61166
0.639454
0.660545
0.672515
0.687294
0.700684
0.681926
0.670244
0.645625
0.624316
0.596537
0.582057
0.573721
0.526826
0.474235
0.409629
0.353045
0.328719
0.295649
0.278899
0.241616
0.224753
0.193327
0.143853
0.114996
0.082096
0.04434
0.023358
0.008652
-0.039548
-0.050875
-0.083259
-0.070674
-0.06266
-0.035269
-0.017178
-0.001262
-0.002286
-0.012967
-0.013234
-0.02375
-0.031523
0.000675
-0.011343
-0.025922
-0.018085
-0.014597
-0.024844
-0.029247
-0.01004
0.003819
-0.013071
-0.011411
0.008237
0.026253
0.037347
0.027646
0.033819
0.022145
0.017239
0.024868
0.018008
0.00743
-0.007097
-0.014121
-0.017266
-0.043418
-0.043035
-0.026183
-0.007815
0.001705
0.008302
0.002496
-0.023381
0.00319
0.011342
0.027224
0.010713
-0.010178
0.01046
0.013726
-0.007598
-0.02101
-0.025755
-0.027123
-0.02148
-0.023412
-0.00896
0.018322
0.016636
0.020884
0.009543
0.004654
-0.000841
-0.005688
0.010568
0.006238
0.005954
0.00499
0.006845
0.019235
0.021579
0.013391
-0.010158
-0.036589
-0.035612
-0.013527
0.002136
-0.028013
-0.013423
-0.001472
-0.016855
-0.007123
0.019156
0.002772
-0.009209
-0.026675
-0.014178
0.0242
0.006634
0.002449
-0.002399
-0.010239
-0.000065
-0.010146
-0.015018
-0.006016
-0.017774
-0.016765
0.009633
0.003874
0.008958
0.02089
0.040193
0.025757
0.025082
0.03423
-0.018498
-0.008033
0.011904
0.014724
0.00998
0.026511
0.037483
0.021841
-0.005004
-0.008359
-0.001965
0.009309
-0.000444
-0.001339
0.019007
0.02317
0.009028
0.031655
0.041366
0.033065
0.038005
0.037549
0.045611
0.031506
0.008774
0.024328
0.018591
-0.010558
-0.024348
-0.018074
-0.020909
-0.030569
-0.026663
0.006232
0.038054
0.056304
0.058883
0.057892
0.064012
0.055556
0.06183
0.064247
0.04921
0.029841
0.034159
0.022724
0.02199
0.015843
0.022299
0.014658
0.022311
0.037416
0.053299
0.051745
0.054387
0.04935
0.06505
0.085274
0.087269
0.09751
0.102862
0.093768
0.077855
0.063356
0.034038
0.07053
0.04389
0.021884
0.048069
0.031514
0.021419
0.033761
0.051003
0.063263
0.063975
0.05999
0.093415
0.092921
0.115987
0.11307
0.10028
0.087461
0.100123
0.101302
0.080357
0.091673
0.095279
0.110452
0.134284
0.130595
0.111159
0.108894
0.150429
0.145507
0.132331
0.129081
0.132807
0.138461
0.154563
0.183919
0.195498
0.204066
0.205896
0.199246
0.191609
0.17973
0.159462
0.155028
0.152808
0.145505
0.155269
0.149293
0.138739
0.147884
0.167499
0.164168
0.167544
0.187378
0.185026
0.200432
0.215075
0.187435
0.180147
0.186823
0.19523
0.191871
0.186405
0.17561
0.178635
0.182469
0.164267
0.165274
0.199278
0.199221
0.154117
0.159294
0.175628
0.170199
0.18207
0.183099
0.167506
0.169401
0.17201
0.147836
0.116424
0.128457
0.106436
0.081956
0.076881
0.086396
0.109889
0.109642
0.114469
0.113285
0.115916
0.080156
0.069184
0.072188
0.067178
0.087014
0.100606
0.070152
0.060902
0.061314
0.058486
0.057189
0.0415
0.031427
0.011372
0.005023
0.00865
0.031642
0.029234
0.03034
0.025486
0.009938
0.021242
0.006495
0.00422
0.022471
0.029726
0.041104
0.01716
-0.003773
-0.010477
-0.004033
-0.009917
-0.019851
-0.03887
-0.048161
-0.047191
-0.030931
-0.022419
-0.039911
-0.038747
-0.048227
-0.054171
-0.029571
-0.016771
-0.003948
0.003594
-0.008869
-0.011134
-0.029142
-0.049787
-0.053606
-0.058299
-0.05849
-0.042018
-0.050933
-0.044993
-0.050273
-0.024609
-0.006072
-0.042277
-0.08238
-0.038735
-0.03519
-0.036858
-0.02396
-0.027073
-0.021407
-0.027715
-0.068602
-0.091881
-0.090642
-0.081014
-0.105697
-0.09642
-0.113196
-0.086605
-0.062962
-0.088392
-0.065948
-0.045796
-0.052788
-0.047357
-0.043805
-0.04399
-0.055454
-0.05802
-0.039047
-0.041541
-0.033718
-0.040468
-0.047292
-0.055494
-0.060063
-0.067585
-0.077337
-0.070113
-0.046309
-0.035989
-0.047854
-0.045293
-0.046173
-0.039973
-0.028441
-0.024262
-0.022091
-0.02161
-0.018071
-0.02535
-0.047277
-0.078133
-0.059644
-0.0509
-0.040544
-0.05406
-0.053894
-0.065381
-0.082055
-0.09791
-0.045534
-0.024706
-0.043791
-0.035485
-0.055202
-0.031205
-0.003868
0.011804
0.005684
-0.002289
-0.020532
-0.068098
-0.049117
-0.03083
-0.037405
-0.046406
-0.057214
-0.060583
-0.068271
-0.054987
-0.031101
-0.026316
-0.014058
-0.002432
-0.008513
-0.012675
-0.007317
0.004886
-0.001222
-0.007394
-0.018566
-0.024717
-0.013185
-0.037348
-0.035859
-0.033092
-0.038198
-0.032294
-0.028493
-0.030274
-0.027029
-0.004844
-0.008272
-0.02503
-0.019296
-0.02173
-0.003426
0.010185
-0.018604
-0.040643
-0.032497
-0.048095
-0.115618
-0.066174
-0.053578
-0.065472
-0.056144
-0.041732
-0.018722
0.020271
0.003505
-0.003867
0.02096
0.001553
0.005566
-0.020793
-0.006872
0.024696
0.018696
0.015
-0.003775
-0.009702
-0.041198
-0.09219
-0.083965
-0.038931
-0.032249
-0.03454
-0.038369
-0.048448
-0.059108
-0.049863
-0.02413
-0.008118
-0.001102
-0.009593
-0.013517
-0.018764
-0.020344
-0.026798
-0.020567
-0.039845
-0.040298
-0.048829
-0.059084
-0.047255
-0.044845
-0.03507
-0.024019
-0.027469
-0.038861
-0.024937
-0.014595
-0.001904
0.006368
0.011224
0.017606
0.012826
-0.001884
-0.024284
-0.019027
-0.02342
-0.021777
-0.022471
-0.042282
-0.044735
-0.047377
-0.057672
-0.046426
-0.040527
-0.026229
-0.021652
-0.025873
-0.022169
-0.018715
-0.012865
-0.016094
-0.000195
-0.012925
-0.016093
-0.021869
-0.04122
-0.060577
-0.082247
-0.084626
-0.06291
-0.05788
-0.044091
-0.080059
-0.079475
-0.060395
-0.043004
-0.047463
-0.057825
-0.029446
-0.013372
-0.003042
-0.023823
-0.013964
-0.00078
-0.025727
-0.04501
-0.035928
-0.048359
-0.074363
-0.07025
-0.052186
-0.044286
-0.03716
-0.025798
-0.022044
-0.032461
-0.04542
-0.045732
-0.022069
-0.026162
-0.029279
-0.031306
-0.044694
-0.039344
-0.02891
-0.053884
-0.057925
-0.054399
-0.061787
-0.061379
-0.063157
-0.04998
-0.033465
-0.05318
-0.04887
-0.026013
-0.010837
-0.038165
-0.046135
-0.059411
-0.042446
-0.020575
-0.023064
-0.041684
-0.048097
-0.042513
-0.048545
-0.060284
-0.034427
-0.03772
-0.03646
-0.033502
-0.042724
-0.041386
-0.037182
-0.035523
-0.029236
-0.004089
0.005164
-0.0138
-0.030302
-0.019826
-0.019903
-0.021927
-0.020308
-0.017293
-0.022263
-0.022776
-0.010694
-0.020586
-0.038273
-0.075468
-0.090865
-0.068158
-0.064599
-0.038658
-0.029723
-0.036678
-0.040253
-0.041136
-0.037632
-0.047734
-0.042862
-0.057007
-0.066396
-0.044895
-0.03699
-0.036992
-0.055257
-0.072972
-0.07361
-0.051841
-0.057824
-0.075299
-0.052004
-0.045552
-0.023384
-0.037004
-0.027816
-0.024108
-0.028889
-0.016981
-0.040986
-0.037189
-0.01934
-0.036903
-0.031839
-0.040598
-0.047342
-0.064494
-0.040614
-0.04778
-0.049056
-0.039219
-0.030111
-0.018668
-0.030028
-0.035005
-0.014591
-0.011463
0.005999
0.005965
-0.015435
-0.02678
-0.031807
-0.034296
-0.034229
-0.068465
-0.068247
-0.06451
-0.059496
-0.05875
-0.057019
-0.070046
-0.058235
-0.05244
-0.040949
-0.022101
-0.010153
0.003347
0.001642
-0.007812
-0.018071
-0.039832
-0.048163
-0.062483
-0.042225
-0.032503
-0.040035
-0.064467
-0.068743
-0.059893
-0.08129
-0.074985
-0.048685
-0.035084
-0.027566
-0.019002
-0.012719
-0.012977
-0.018282
-0.016149
-0.004104
0.009074
0.005449
-0.036076
-0.056453
-0.083435
-0.051479
-0.043108
-0.040595
-0.046474
-0.044018
-0.046751
-0.031977
-0.02397
-0.007125
-0.007116
-0.021388
-0.028988
-0.04492
-0.035547
-0.007031
-0.012163
-0.031948
-0.042919
-0.04787
-0.037152
-0.040227
-0.052939
-0.076047
-0.065698
-0.050425
-0.017635
-0.022869
-0.033121
-0.055731
-0.036555
-0.019376
-0.009767
-0.005221
-0.014447
-0.010743
-0.022102
-0.003804
0.001872
-0.021111
-0.037409
-0.045182
-0.048095
-0.05672
-0.063069
-0.052428
-0.051154
-0.033967
-0.006824
-0.012038
-0.019276
-0.018303
-0.016303
-0.024732
-0.027318
-0.026664
-0.022385
-0.030987
-0.047988
-0.049173
-0.020463
-0.028699
-0.031813
-0.03558
-0.030708
-0.037335
-0.036604
-0.045442
-0.020305
-0.022099
0.007145
0.048454
0.052341
0.027341
0.028558
0.028939
0.023533
0.039504
0.029258
0.018707
0.017555
0.022433
0.00322
-0.019119
-0.045829
-0.047036
-0.019985
0.00263
0.033823
0.024421
0.025268
0.045399
0.070104
0.098904
0.083745
0.070283
0.054236
0.050942
0.044302
-0.001869
0.008704
0.017232
0.011569
0.011638
0.01682
0.021215
0.040372
0.050918
0.054259
0.055095
0.086491
0.08459
0.087051
0.094615
0.072237
0.081565
0.083307
0.072313
0.07667
0.073571
0.063801
0.050024
0.031541
0.037233
0.024507
0.018546
-0.013582
-0.016379
0.025207
0.056666
0.045912
0.060686
0.06108
0.049827
0.034
-0.007333
-0.013451
0.00022
0.000668
-0.017385
-0.005141
-0.011553
0.007821
0.015472
0.016029
0.001657
-0.024089
-0.046772
-0.02892
0.009626
0.004372
0.01202
0.025355
0.003644
-0.001656
-0.005054
-0.00426
-0.01239
-0.055909
-0.069166
-0.060466
-0.043418
-0.045144
-0.046958
-0.056149
-0.064032
-0.04843
-0.040761
-0.026903
-0.030605
-0.040586
-0.037799
-0.050928
-0.046979
-0.047793
-0.027556
-0.021793
-0.066547
-0.071155
-0.07584
-0.088882
-0.100302
-0.090709
-0.08798
-0.05695
-0.032879
-0.022715
-0.003241
0.002318
-0.022875
-0.009595
-0.033506
-0.023314
-0.027145
-0.01342
-0.007325
-0.005766
-0.031771
-0.061791
-0.058059
-0.070388
-0.064528
-0.044737
-0.05239
-0.065712
-0.057513
-0.047773
-0.062951
-0.053063
-0.041682
-0.041183
-0.028608
-0.023615
-0.022689
-0.027793
-0.044507
-0.053986
-0.072464
-0.068856
-0.076059
-0.081856
-0.065962
-0.081253
-0.07481
-0.063066
-0.027997
-0.007563
0.019103
0.028165
0.024325
0.068384
0.127534
0.180389
0.21789
0.237958
0.271784
0.312688
0.331646
0.382566
0.42534
0.475059
0.499476
0.538778
0.584186
0.627027
0.663656
0.704667
0.720879
0.743871
0.755627
0.748167
0.725321
0.723587
0.696947
0.67591
0.605683
0.571705
0.532872
0.464754
0.361749
0.315337
0.286302
0.271766
0.275002
0.274593
0.237176
0.212369
0.177557
0.135033
0.106472
0.067508
0.031332
0.046032
0.040315
0.015802
0.011641
0.003758
-0.006054
-0.02087
-0.038498
-0.029598
-0.025312
-0.025716
-0.01589
-0.017681
0.003952
0.038627
0.037599
0.038173
0.054001
0.057756
0.058445
0.086622
0.083216
0.047935
0.033798
0.021123
0.030527
0.049067
0.05171
0.031487
0.028912
0.007558
0.000086
-0.009275
-0.001666
0.037041
0.052623
0.045038
0.046837
0.042607
0.024773
0.034173
0.040222
0.064469
0.048747
0.052818
0.041773
0.032748
0.023983
0.021029
0.016244
0.034177
0.032162
0.017014
0.028114
0.026368
0.019702
0.024865
0.045679
0.086691
0.092911
0.079371
0.058822
0.04061
0.012973
0.016353
0.015704
0.033505
0.019904
0.030427
0.033586
0.045132
0.061912
0.029936
0.029608
0.034586
0.029013
0.039613
0.031619
0.031341
0.045226
0.066451
0.052029
0.058845
0.055632
0.065718
0.075351
0.060847
0.043317
0.041107
0.043362
0.038225
0.042494
0.02705
0.021581
0.04259
0.057262
0.06756
0.080748
0.07501
0.097172
0.106916
0.080875
0.084327
0.059053
0.060978
0.034054
0.02451
0.043695
0.043436
0.036525
0.041193
0.039143
0.04018
0.034543
0.054859
0.075201
0.071287
0.064168
0.069104
0.075285
0.07633
0.086687
0.084038
0.089533
0.088617
0.071873
0.057237
0.056077
0.071937
0.062264
0.060336
0.051689
0.048792
0.059093
0.061399
0.07912
0.111158
0.137704
0.130614
0.117567
0.114748
0.10076
0.081659
0.067927
0.056437
0.074028
0.068707
0.071099
0.067651
0.058224
0.06673
0.072202
0.086984
0.116383
0.100532
0.110389
0.123151
0.126854
0.147388
0.125018
0.110062
0.084856
0.104436
0.101864
0.121935
0.111987
0.076936
0.062632
0.071713
0.096284
0.096539
0.09927
0.133609
0.161784
0.17503
0.160522
0.147752
0.154716
0.166551
0.155741
0.171184
0.175339
0.141299
0.141756
0.150782
0.168942
0.162991
0.155108
0.151573
0.146195
0.154798
0.141975
0.146427
0.160125
0.188383
0.191082
0.197596
0.202333
0.21721
0.233265
0.241749
0.232103
0.226087
0.217351
0.205298
0.197945
0.202892
0.209689
0.189529
0.192476
0.204718
0.206122
0.205583
0.21139
0.21034
0.225031
0.242557
0.241584
0.255811
0.248756
0.238914
0.270867
0.255461
0.243726
0.235905
0.240361
0.247604
0.242504
0.252479
0.226602
0.242952
0.267552
0.217593
0.191963
0.222583
0.217833
0.237054
0.233804
0.257735
0.265731
0.26851
0.240467
0.229423
0.235991
0.226504
0.214042
0.220428
0.208351
0.190118
0.201375
0.208837
0.221091
0.227611
0.206566
0.192631
0.200145
0.19998
0.210741
0.229056
0.225694
0.216119
0.1861
0.165173
0.168782
0.155678
0.146234
0.133685
0.119287
0.107911
0.085664
0.101132
0.093693
0.097628
0.119958
0.138458
0.13618
0.12128
0.105645
0.118519
0.123959
0.126538
0.095341
0.080005
0.082839
0.092143
0.078632
0.073494
0.04556
0.046657
0.060996
0.07114
0.033817
0.024067
0.036586
0.054977
0.069218
0.053141
0.071698
0.10335
0.095965
0.077838
0.068858
0.074162
0.039606
0.024043
0.031901
0.005639
-0.001488
-0.00401
0.017453
0.019581
-0.008237
-0.006044
0.009412
0.021258
0.03863
0.042828
0.053913
0.041708
0.034583
0.023297
0.027227
0.02172
0.032669
0.029013
0.015109
0.016316
0.021407
0.003423
-0.015073
0.012434
0.015129
0.001389
0.001446
-0.000399
0.003674
0.000064
0.016164
0.035271
0.044887
0.043704
0.038443
0.02966
0.017758
-0.002401
0.016576
0.028555
0.024247
0.01157
0.020069
0.008321
0.007294
0.029272
0.011882
0.013873
0.004836
0.01506
0.039041
0.068526
0.067385
0.071198
0.077108
0.064264
0.03382
-0.014936
-0.020996
-0.024992
-0.012667
-0.000077
0.009354
-0.000365
0.016017
0.00145
0.009888
0.019331
0.029091
0.014595
0.021399
0.035611
0.047103
0.052337
0.051892
0.044038
0.038177
0.040099
0.039943
0.031802
0.027236
0.035152
0.028694
0.027345
0.009515
0.01257
0.016254
0.030577
0.033944
0.054825
0.062977
0.068749
0.058322
0.070858
0.059945
0.059783
0.05511
0.059654
0.032231
0.027335
0.034954
0.038576
0.028941
0.001503
0.022207
0.001686
0.019804
0.026266
0.039918
0.048083
0.0404
0.056363
0.061787
0.033845
0.025343
0.042558
0.050524
0.028918
0.046362
0.042605
0.009203
0.018906
0.02205
0.030795
0.039222
0.042366
0.034581
0.046621
0.030356
0.049714
0.060102
0.058472
0.086064
0.101977
0.099219
0.065515
0.046621
0.046299
0.030039
0.019012
0.016195
0.026512
0.024118
0.042261
0.03406
0.053202
0.078421
0.068748
0.05607
0.044749
0.051275
0.023403
0.046896
0.042715
0.056792
0.076235
0.059084
0.052209
0.077985
0.087654
0.048641
0.032368
0.014965
-0.007142
-0.000993
0.014598
0.023611
0.035925
0.046312
0.067924
0.073854
0.058071
0.047371
0.039531
0.062006
0.069046
0.049226
0.046141
0.02913
0.024588
0.024735
0.017036
0.00112
0.006222
0.023077
0.02362
0.028058
0.046573
0.044011
0.047797
0.065213
0.05799
0.072688
0.040381
0.037919
0.050584
0.030453
0.040696
0.030984
0.036937
0.030138
0.029628
0.021786
0.021338
0.018252
0.018353
0.048735
0.043541
0.044995
0.043136
0.046852
0.077635
0.096451
0.083128
0.062799
0.030291
0.028119
0.047397
0.060684
0.048766
0.037265
0.038403
0.032461
0.061411
0.048524
0.039738
0.035466
0.028018
0.023739
0.045827
0.044865
0.061904
0.050697
0.04003
0.030025
0.03985
0.042502
0.030734
0.005804
0.006916
-0.000975
0.007046
0.032712
0.064193
0.039007
0.014979
0.02251
0.02698
0.055614
0.0654
0.066414
0.051706
0.065369
0.05463
0.065994
0.070923
0.064437
0.050142
0.024662
0.03156
0.044394
0.029124
0.020927
-0.001826
-0.006676
0.003681
0.007686
0.023253
0.036484
0.052183
0.063346
0.062167
0.047697
0.025988
0.053569
0.044947
0.052298
0.06212
0.040619
0.044471
0.046745
0.036096
0.011019
0.005527
0.018423
0.024129
0.04004
0.048928
0.05271
0.036897
0.06237
0.064088
0.052369
0.047234
0.041273
0.060005
0.042514
0.055681
0.06796
0.065406
0.061119
0.043908
0.03771
0.034449
0.014623
0.020251
0.019625
0.040396
0.030071
0.039302
0.062025
0.053399
0.027004
0.053589
0.077277
0.070665
0.070029
0.052639
0.039386
0.050927
0.025466
0.012897
0.022711
0.017078
0.017047
0.030753
0.038813
0.045533
0.043493
0.063657
0.047919
0.046215
0.065197
0.055996
0.05836
0.060728
0.067711
0.087405
0.082874
0.051444
0.031525
0.027701
0.027979
0.0283
0.033819
0.037638
0.027519
0.047957
0.078488
0.082211
0.076968
0.050339
0.052346
0.090308
0.075533
0.057737
0.052068
0.039699
0.028965
0.022586
0.015797
0.033046
0.030951
0.018513
0.01517
0.019851
0.017037
0.03746
0.036335
0.050046
0.065415
0.056993
0.072701
0.06723
0.052732
0.054877
0.049311
0.046745
0.051771
0.051175
0.043403
0.032915
0.037663
0.028759
0.019677
0.013298
0.042294
0.05469
0.060591
0.063324
0.070437
0.075271
0.098387
0.091414
0.080125
0.075743
0.040012
0.041001
0.039206
0.029739
0.034723
0.014105
-0.004792
-0.005722
-0.015754
-0.023766
-0.002054
0.030715
0.07429
0.080281
0.087196
0.079458
0.102548
0.102505
0.070051
0.069915
0.053616
0.068648
0.067708
0.058536
0.064862
0.068096
0.057981
0.047244
0.031563
0.034523
0.064412
0.102593
0.092371
0.076184
0.07587
0.096522
0.123796
0.141087
0.143306
0.150202
0.135763
0.104698
0.111738
0.107093
0.121015
0.088549
0.048671
0.05875
0.084584
0.092662
0.092102
0.10233
0.130924
0.1616
0.160377
0.146493
0.138051
0.14724
0.142487
0.129881
0.127422
0.099539
0.085815
0.10043
0.127839
0.154844
0.13769
0.127647
0.105637
0.10952
0.123328
0.142908
0.171509
0.1638
0.165171
0.141831
0.132987
0.111646
0.126648
0.137613
0.128202
0.146454
0.136329
0.11711
0.121088
0.103693
0.09338
0.091319
0.089257
0.092521
0.096582
0.108344
0.128566
0.135879
0.138252
0.136962
0.127097
0.114314
0.105684
0.090492
0.093469
0.085362
0.066338
0.040093
0.058238
0.060047
0.062218
0.049785
0.051183
0.035158
0.011539
0.018864
0.055224
0.048484
0.028089
0.026866
0.030065
0.044487
0.052238
0.057417
0.038547
0.026728
0.025364
0.027602
0.045098
0.040454
0.031335
0.031561
0.023614
0.017832
0.048374
0.045227
0.042718
0.031417
0.043155
0.029635
0.028431
0.053358
0.064397
0.060511
0.060509
0.050993
0.036734
0.014409
0.006248
0.006902
0.007589
0.010254
0.007685
0.010722
0.010828
0.007367
0.030643
0.027188
0.043128
0.054585
0.044867
0.037007
0.054925
0.051782
0.034769
0.031733
0.039336
0.04602
0.046606
0.022712
0.004966
-0.005143
-0.010384
-0.016366
-0.008103
0.013952
0.028806
0.047316
0.01263
0.029746
0.038715
0.014322
0.031361
0.036117
0.014957
0.011101
0.018905
0.011098
0.02303
0.013007
0.024492
0.069197
0.120674
0.16215
0.189527
0.233619
0.260611
0.305458
0.351515
0.381354
0.415879
0.453905
0.492215
0.530229
0.577337
0.622862
0.650279
0.660867
0.706741
0.724379
0.731941
0.746071
0.781719
0.789086
0.779479
0.779921
0.748936
0.743291
0.696633
0.669668
0.631987
0.54897
0.462782
0.413884
0.391179
0.332798
0.32545
0.293011
0.276613
0.275845
0.233964
0.213623
0.193681
0.170902
0.106801
0.096004
0.079078
0.091344
0.106649
0.12059
0.116567
0.091233
0.054776
0.055598
0.058649
0.059628
0.079541
0.084215
0.078008
0.052615
0.054128
0.071346
0.075058
0.091002
0.096952
0.109938
0.107726
0.098319
0.119017
0.119408
0.11819
0.139864
0.112322
0.093292
0.083997
0.08231
0.086872
0.080929
0.081427
0.084388
0.065776
0.079281
0.068751
0.072591
0.079806
0.092386
0.106357
0.102851
0.099585
0.10121
0.1152
0.119008
0.11752
0.119213
0.10876
0.104133
0.087643
0.08762
0.065151
0.058625
0.073586
0.07047
0.077602
0.10704
0.10673
0.105467
0.097482
0.105239
0.088969
0.080907
0.126205
0.113262
0.074654
0.064907
0.079007
0.083872
0.091863
0.080008
0.094487
0.075682
0.037293
0.060812
0.066703
0.083839
0.090292
0.10611
0.114734
0.125651
0.131972
0.126381
0.123568
0.10507
0.108954
0.119115
0.122543
0.100322
0.078735
0.090879
0.083059
0.062121
0.047912
0.081668
0.086599
0.078634
0.084754
0.112516
0.1229
0.117273
0.137961
0.134046
0.116521
0.122509
0.092743
0.080493
0.104305
0.104295
0.116924
0.099936
0.074496
0.089
0.078654
0.068662
0.076314
0.087977
0.102874
0.113077
0.118375
0.138455
0.147389
0.148131
0.150084
0.15414
0.147941
0.13697
0.117676
0.092007
0.087997
0.086996
0.080775
0.10053
0.090873
0.100578
0.111968
0.103471
0.098647
0.120993
0.096419
0.102844
0.12258
0.138427
0.145119
0.145984
0.155762
0.139863
0.127268
0.110557
0.116758
0.100853
0.118382
0.126294
0.120806
0.123747
0.118753
0.125684
0.140839
0.13723
0.146533
0.144835
0.16301
0.174404
0.16689
0.175561
0.174694
0.162634
0.167895
0.164369
0.172868
0.160788
0.132826
0.126257
0.105377
0.108935
0.116872
0.148988
0.163139
0.178961
0.1798
0.208504
0.205358
0.204685
0.223004
0.224644
0.202471
0.202347
0.207372
0.201922
0.197622
0.179371
0.173563
0.196964
0.180357
0.211589
0.233302
0.234175
0.235869
0.233517
0.240749
0.248523
0.254937
0.265208
0.275775
0.26706
0.254854
0.235892
0.241819
0.247932
0.247076
0.240205
0.227798
0.245802
0.241939
0.241345
0.23751
0.234564
0.25914
0.277682
0.283444
0.29977
0.310348
0.301485
0.307873
0.317667
0.273932
0.25123
0.238666
0.239829
0.256876
0.259885
0.256277
0.250501
0.259204
0.261483
0.26073
0.266998
0.281675
0.276164
0.26505
0.279985
0.297462
0.280831
0.308948
0.302508
0.277524
0.274145
0.264212
0.247798
0.209963
0.212826
0.207683
0.214517
0.205404
0.195825
0.196825
0.207714
0.198085
0.208155
0.19818
0.195979
0.206866
0.218223
0.199178
0.186335
0.195427
0.19404
0.191271
0.164691
0.169701
0.172112
0.145751
0.124864
0.122673
0.127955
0.14217
0.15302
0.155647
0.143065
0.123229
0.139592
0.149147
0.133578
0.145827
0.14098
0.128155
0.13655
0.135727
0.119105
0.107494
0.04967
0.034902
0.046728
0.059938
0.029728
0.045068
0.074835
0.06648
0.094569
0.096939
0.098525
0.101626
0.077218
0.061699
0.062207
0.075645
0.085248
0.104936
0.088127
0.071766
0.027297
0.036814
0.043985
0.052343
0.049398
0.048136
0.031715
0.033845
0.048205
0.048548
0.063374
0.081934
0.080002
0.081644
0.07016
0.077014
0.066769
0.056667
0.040952
0.038946
0.046861
0.04905
0.037767
0.015949
0.012648
0.020998
0.031149
0.037466
0.081962
0.078759
0.069626
0.083444
0.06767
0.082349
0.08692
0.073998
0.075261
0.069605
0.059683
0.047029
0.035101
0.029412
0.026303
0.04824
0.059116
0.063687
0.034328
0.05684
0.054854
0.052352
0.038365
0.048822
0.062406
0.070394
0.09231
0.046712
0.072561
0.081667
0.059028
0.034295
0.024332
0.025016
0.024458
0.030107
0.036227
0.054358
0.074618
0.092351
0.076721
0.069667
0.100068
0.095832
0.070924
0.088839
0.089618
0.100703
0.100209
0.096607
0.089773
0.066588
0.075583
0.070012
0.038265
0.0399
0.063898
0.073859
0.067308
0.080348
0.091806
0.074768
0.082954
0.083913
0.059622
0.03918
0.067155
0.069717
0.092259
0.097101
0.107914
0.110455
0.073302
0.059313
0.065493
0.055299
0.062063
0.09692
0.107911
0.091236
0.084027
0.055444
0.059826
0.080112
0.082794
0.125432
0.119451
0.115263
0.100254
0.093554
0.109105
0.083099
0.059368
0.057029
0.055267
0.049743
0.057759
0.060941
0.069219
0.076593
0.089303
0.088924
0.111519
0.130065
0.124112
0.113273
0.116126
0.107206
0.100469
0.09838
0.078298
0.063646
0.038291
0.034332
0.064896
0.079753
0.071264
0.095544
0.109196
0.101124
0.098124
0.099385
0.098869
0.113038
0.124986
0.11663
0.093797
0.047625
0.080482
0.094301
0.0843
0.077077
0.082645
0.098462
0.107012
0.07993
0.072724
0.084204
0.089456
0.081246
0.076174
0.0812
0.068689
0.092617
0.107136
0.088094
0.094375
0.093173
0.091456
0.071562
0.080719
0.107774
0.103586
0.088058
0.096186
0.039789
0.03815
0.044454
0.057539
0.055736
0.066649
0.089083
0.097421
0.110816
0.09041
0.071151
0.083518
0.083623
0.055945
0.070742
0.068179
0.047757
0.046668
0.056303
0.057222
0.049899
0.038742
0.04765
0.067862
0.075407
0.075005
0.080253
0.103384
0.107679
0.115119
0.104493
0.101805
0.099116
0.097799
0.094683
0.089142
0.060603
0.062563
0.053941
0.068671
0.054842
0.054412
0.046833
0.05649
0.04947
0.065971
0.092435
0.093609
0.125367
0.112477
0.087875
0.076014
0.087318
0.073281
0.078635
0.084641
0.080551
0.062585
0.055949
0.049912
0.029541
0.052022
0.068549
0.059307
0.073194
0.087575
0.082467
0.114103
0.100349
0.088641
0.098749
0.105804
0.102691
0.093964
0.083142
0.069582
0.067047
0.059887
0.040974
0.046115
0.046314
0.056625
0.057314
0.050806
0.058511
0.067548
0.077774
0.064135
0.11224
0.135449
0.122032
0.086596
0.082469
0.088969
0.091695
0.08667
0.098668
0.098576
0.097764
0.056092
0.051299
0.051767
0.059255
0.065503
0.086212
0.096639
0.09119
0.083257
0.07599
0.084661
0.06932
0.081395
0.076737
0.064139
0.069143
0.063829
0.067137
0.071154
0.042241
0.037089
0.043376
0.032273
0.0432
0.040953
0.052038
0.062717
0.073285
0.089575
0.090634
0.088393
0.088335
0.093446
0.09439
0.087034
0.086359
0.107619
0.089908
0.052551
0.037119
0.048955
0.047104
0.065812
0.045887
0.025599
0.041523
0.066461
0.077376
0.098737
0.083641
0.088019
0.078053
0.075152
0.075802
0.072424
0.081069
0.080481
0.077262
0.066267
0.052919
0.061515
0.055274
0.052225
0.059252
0.054386
0.060785
0.044011
0.074786
0.098514
0.093914
0.102254
0.098423
0.085517
0.064164
0.079754
0.08328
0.047295
0.050486
0.064835
0.081585
0.081378
0.070332
0.070336
0.070504
0.085893
0.074284
0.073755
0.078512
0.086166
0.074868
0.10746
0.113745
0.111472
0.053037
0.046769
0.053211
0.056385
0.071059
0.073656
0.084983
0.110493
0.060216
0.058447
0.07365
0.058727
0.068684
0.100003
0.106376
0.116787
0.118732
0.110724
0.104151
0.074095
0.062233
0.066294
0.061586
0.036332
0.028623
0.037072
0.03441
0.041855
0.045647
0.0432
0.058977
0.069652
0.074761
0.081122
0.077238
0.094319
0.09892
0.097417
0.108618
0.114732
0.088098
0.065714
0.048176
0.01809
0.041394
0.038308
0.026845
0.050528
0.049515
0.067981
0.064429
0.041247
0.037227
0.05639
0.082731
0.10913
0.100438
0.102344
0.096511
0.094926
0.106763
0.110594
0.116797
0.099142
0.085355
0.081708
0.098667
0.09078
0.114442
0.121791
0.136973
0.150457
0.141612
0.151185
0.149035
0.145569
0.138393
0.149887
0.149677
0.161915
0.161826
0.149503
0.144143
0.118151
0.097766
0.100974
0.115768
0.1258
0.127159
0.128357
0.126636
0.128393
0.159392
0.167001
0.164243
0.181668
0.170706
0.167986
0.152194
0.152377
0.15794
0.154364
0.15134
0.146616
0.14422
0.143258
0.151973
0.162016
0.135805
0.133267
0.144107
0.166395
0.161867
0.133056
0.133599
0.151253
0.152455
0.172455
0.177637
0.151645
0.150323
0.14023
0.113938
0.14776
0.14336
0.098992
0.079207
0.084302
0.095623
0.07941
0.084485
0.079417
0.056177
0.081533
0.106058
0.125465
0.133018
0.118229
0.106292
0.103652
0.092668
0.092272
0.062932
0.056231
0.048625
0.056169
0.054589
0.054949
0.058933
0.029648
0.039105
0.041705
0.037541
0.046499
0.064751
0.071976
0.077653
0.087094
0.077054
0.06009
0.061969
0.049289
0.063422
0.061075
0.052668
0.034418
0.035839
0.045626
0.033543
0.037504
0.038068
0.038334
0.054337
0.051577
0.054345
0.067338
0.065005
0.058207
0.060323
0.050698
0.059542
0.081871
0.094752
0.088074
0.058456
0.032634
0.014232
-0.001421
0.01687
0.027733
0.041716
0.054886
0.035961
0.046002
0.054174
0.037955
0.045581
0.064946
0.081421
0.086859
0.07709
0.064722
0.002789
0.013929
0.006442
-0.008146
-0.004605
0.010555
-0.00107
0.002649
0.020748
0.017222
0.04655
0.065861
0.093667
0.113357
0.105072
0.111712
0.111948
0.1328
0.168967
0.177331
0.209124
0.24742
0.25677
0.282468
0.328162
0.34904
0.381977
0.437352
0.47067
0.504501
0.559736
0.608319
0.684623
0.739862
0.7624
0.805325
0.827752
0.856536
0.861498
0.861511
0.855021
0.808271
0.77752
0.742281
0.713345
0.655033
0.625828
0.580031
0.526815
0.467974
0.419864
0.409535
0.396787
0.361232
0.35317
0.310158
0.280351
0.261489
0.195498
0.146885
0.117302
0.072452
0.051103
0.060549
0.05333
0.047594
0.04482
0.022216
0.027762
0.052239
0.051748
0.059978
0.066492
0.09683
0.122607
0.135167
0.132559
0.123938
0.142669
0.116156
0.108671
0.126214
0.119728
0.093197
0.116384
0.108349
0.086332
0.080742
0.08459
0.098838
0.128088
0.136213
0.121127
0.122246
0.144252
0.140116
0.128736
0.131039
0.13516
0.130478
0.120616
0.118753
0.098828
0.075003
0.090548
0.073177
0.072136
0.082435
0.102508
0.09802
0.126904
0.126912
0.136993
0.129157
0.132172
0.134886
0.14036
0.132074
0.139913
0.122444
0.116139
0.126049
0.094014
0.081025
0.078912
0.103163
0.097761
0.10695
0.103212
0.09676
0.092762
0.097203
0.10064
0.151292
0.13978
0.08775
0.053762
0.108747
0.128646
0.135167
0.116655
0.119702
0.131221
0.133344
0.130776
0.117307
0.1162
0.10885
0.092225
0.092894
0.098785
0.106903
0.117526
0.129889
0.130156
0.13397
0.133476
0.118887
0.116621
0.139091
0.14216
0.147871
0.134449
0.132762
0.114016
0.118026
0.123061
0.11279
0.124389
0.128029
0.140007
0.140856
0.13351
0.164728
0.179601
0.16641
0.151167
0.135154
0.134717
0.096863
0.076327
0.090796
0.114003
0.097017
0.093151
0.100393
0.114846
0.119298
0.109551
0.111246
0.13981
0.131534
0.144865
0.134166
0.148428
0.146837
0.160295
0.177401
0.152043
0.152374
0.115517
0.144043
0.13952
0.124203
0.135575
0.12218
0.138944
0.133005
0.143426
0.150771
0.158526
0.161558
0.167932
0.169918
0.179978
0.184518
0.18697
0.184969
0.181999
0.17104
0.173128
0.174018
0.167061
0.179682
0.166445
0.185429
0.178186
0.164362
0.168544
0.158956
0.176521
0.171859
0.171016
0.186158
0.182044
0.193571
0.202292
0.196257
0.189462
0.169943
0.176395
0.145128
0.152706
0.167746
0.196475
0.191413
0.182823
0.181027
0.191186
0.186369
0.209377
0.245485
0.273332
0.282679
0.266723
0.249188
0.25443
0.272163
0.284438
0.273889
0.256686
0.247878
0.246854
0.26635
0.260878
0.249554
0.239519
0.243225
0.236405
0.25332
0.254403
0.261626
0.277708
0.297721
0.299197
0.294487
0.297884
0.321116
0.31677
0.29979
0.277272
0.276207
0.277765
0.277232
0.27899
0.26785
0.269293
0.277378
0.281543
0.295484
0.306776
0.323091
0.334709
0.32768
0.327208
0.340685
0.311795
0.299433
0.316796
0.301391
0.286926
0.310949
0.295456
0.277322
0.26525
0.236832
0.247852
0.276537
0.265518
0.274286
0.290813
0.276192
0.240081
0.276789
0.305162
0.305456
0.276092
0.248376
0.254603
0.248937
0.249162
0.232462
0.224285
0.202985
0.202629
0.201445
0.184808
0.19239
0.185401
0.189208
0.205997
0.204931
0.198672
0.203354
0.206565
0.205166
0.205144
0.190009
0.177818
0.174999
0.160739
0.158626
0.140839
0.125997
0.113394
0.094765
0.089129
0.112606
0.117813
0.113776
0.114714
0.116688
0.128105
0.135314
0.127238
0.123415
0.137737
0.10918
0.118997
0.117226
0.083309
0.08199
0.064282
0.037883
0.061572
0.06044
0.049038
0.065574
0.107138
0.098504
0.116168
0.110552
0.072021
0.066637
0.093791
0.101576
0.095891
0.051465
0.051448
0.10156
0.079741
0.050581
0.063885
0.067174
0.053236
0.048332
0.034283
0.05123
0.063227
0.045086
0.050619
0.066885
0.090901
0.088321
0.097217
0.096991
0.086379
0.0538
0.064845
0.050344
0.045113
0.042066
0.045258
0.039691
0.05382
0.044762
0.026867
0.036765
0.058356
0.051208
0.066792
0.080921
0.092144
0.11775
0.117634
0.107035
0.085232
0.067831
0.07407
0.066705
0.054326
0.046835
0.049655
0.052454
0.060124
0.04694
0.065142
0.078959
0.08528
0.081271
0.092617
0.09694
0.106723
0.108784
0.094489
0.086444
0.078548
0.085524
0.085749
0.077728
0.080977
0.064528
0.040098
0.049993
0.069857
0.071718
0.066955
0.06785
0.071038
0.081514
0.051419
0.011748
0.010169
0.069648
0.110805
0.107252
0.132024
0.129889
0.102209
0.089187
0.075176
0.072211
0.062377
0.052504
0.069532
0.077035
0.078168
0.07936
0.093825
0.089264
0.080634
0.092771
0.102677
0.116031
0.114454
0.109318
0.100306
0.096534
0.092081
0.087701
0.075743
0.083275
0.060282
0.072822
0.081206
0.079758
0.062957
0.077457
0.084133
0.086734
0.091446
0.103516
0.112164
0.130825
0.103684
0.107019
0.114085
0.137498
0.130954
0.10632
0.106373
0.085371
0.050326
0.044391
0.057227
0.082105
0.075773
0.096218
0.112481
0.119759
0.114997
0.101603
0.078442
0.085678
0.10015
0.127761
0.117467
0.097883
0.088665
0.088479
0.076185
0.077934
0.067806
0.067386
0.062103
0.063623
0.067257
0.067888
0.076839
0.092456
0.085253
0.088546
0.096786
0.103429
0.106615
0.094169
0.102347
0.098287
0.092397
0.09355
0.104967
0.094453
0.078661
0.072709
0.070989
0.082806
0.079906
0.076765
0.074045
0.077588
0.081748
0.067885
0.056818
0.116773
0.119266
0.09364
0.092604
0.048464
0.027686
0.038282
0.019068
0.037734
0.060507
0.050428
0.056097
0.064986
0.086052
0.086219
0.076113
0.071404
0.073498
0.082503
0.103299
0.10714
0.112191
0.1093
0.112618
0.117129
0.104159
0.096798
0.083801
0.06297
0.066618
0.050018
0.051379
0.04309
0.030084
0.042319
0.054437
0.071871
0.080184
0.07869
0.075723
0.077716
0.086175
0.083089
0.101958
0.110496
0.097153
0.105297
0.094678
0.070768
0.053978
0.036813
0.050044
0.055035
0.059105
0.052037
0.056335
0.064634
0.0724
0.075927
0.092456
0.088504
0.080009
0.087277
0.100231
0.102634
0.092298
0.093684
0.088754
0.080374
0.062578
0.043669
0.022988
0.029545
0.04775
0.060968
0.075778
0.077936
0.077155
0.080596
0.076071
0.093188
0.107186
0.104965
0.089419
0.083643
0.072774
0.064868
0.069694
0.041383
0.052461
0.067767
0.061594
0.057689
0.029624
0.02321
0.02797
0.027498
0.066041
0.089941
0.109204
0.117549
0.102058
0.070349
0.076343
0.084703
0.074542
0.073818
0.058652
0.066953
0.07061
0.038596
0.026876
0.01994
0.040494
0.053989
0.061379
0.075566
0.091743
0.079747
0.093471
0.091835
0.091835
0.081567
0.074056
0.096345
0.099042
0.083403
0.084387
0.048624
0.018931
0.013883
-0.004908
0.002821
0.031302
0.049712
0.070956
0.058069
0.0591
0.073005
0.062059
0.089444
0.080589
0.079174
0.091156
0.101344
0.070031
0.061224
0.069851
0.059098
0.015057
0.022096
0.030796
0.054619
0.063242
0.074021
0.068051
0.06435
0.065129
0.079597
0.077225
0.073763
0.076905
0.084324
0.07467
0.087758
0.096963
0.085456
0.056844
0.045716
0.026603
0.020255
0.036326
0.043088
0.053399
0.067708
0.078213
0.058296
0.054374
0.087755
0.100351
0.099883
0.097882
0.087966
0.098897
0.102086
0.086708
0.073712
0.060759
0.06896
0.058752
0.054572
0.056476
0.048669
0.048881
0.048221
0.034836
0.024569
0.0365
0.048996
0.065304
0.095225
0.083419
0.07941
0.095532
0.089214
0.057272
0.050325
0.047515
0.056289
0.06516
0.074837
0.065937
0.062321
0.04811
0.057279
0.057279
0.060995
0.086562
0.090637
0.083726
0.065268
0.083005
0.087556
0.083472
0.054265
0.059936
0.093454
0.085608
0.073957
0.052956
0.024005
0.019294
0.039696
0.058462
0.055285
0.044133
0.064514
0.068053
0.063261
0.051376
0.063833
0.082131
0.087548
0.093767
0.095822
0.084851
0.085538
0.083908
0.078742
0.080452
0.074389
0.07978
0.078074
0.081178
0.104302
0.115003
0.120946
0.122895
0.12177
0.125302
0.136217
0.141791
0.152507
0.150836
0.147793
0.111216
0.079693
0.050651
0.052369
0.07381
0.102271
0.117439
0.122954
0.131063
0.133228
0.119982
0.109021
0.150403
0.149806
0.134616
0.134567
0.159698
0.175159
0.163037
0.159222
0.140695
0.130428
0.153992
0.143141
0.139307
0.140733
0.13925
0.133421
0.145801
0.151029
0.148642
0.146905
0.158499
0.173669
0.17961
0.181355
0.184516
0.171701
0.145327
0.136404
0.138786
0.136616
0.131804
0.1136
0.104703
0.073221
0.083879
0.079978
0.074711
0.096173
0.090131
0.07864
0.075156
0.09363
0.098371
0.092952
0.106363
0.076907
0.093041
0.074565
0.07796
0.078086
0.075099
0.047953
0.016086
0.002469
0.001228
0.067173
0.053066
0.021819
0.010295
0.024088
0.023803
0.05653
0.066164
0.08217
0.09247
0.09851
0.069477
0.06157
0.055997
0.043263
0.031279
0.0399
0.02734
0.019664
0.005489
0.005432
0.00325
0.025585
0.03336
0.026039
0.020537
0.025536
0.050422
0.077097
0.088166
0.088859
0.07044
0.05386
0.052094
0.063812
0.056299
0.048247
0.045316
0.034826
0.025981
0.034835
0.021823
0.021644
0.02944
0.041206
0.051759
0.06002
0.066672
0.052145
0.054357
0.057347
0.03924
0.050525
0.042796
0.034322
0.015306
0.010449
0.002184
-0.002888
-0.042066
-0.05531
-0.05463
-0.010579
-0.000817
0.003627
0.01601
0.043933
0.048341
0.052952
0.08232
0.07755
0.07156
0.085943
0.111095
0.133359
0.138765
0.154565
0.191773
0.24065
0.276696
0.312339
0.346938
0.38732
0.443568
0.496355
0.535371
0.59104
0.629879
0.693452
0.710948
0.760599
0.776887
0.807123
0.803322
0.843049
0.833642
0.802785
0.779124
0.746931
0.711781
0.682748
0.667849
0.606325
0.589819
0.521482
0.435643
0.414476
0.40534
0.386002
0.345975
0.309988
0.280729
0.25778
0.239337
0.19789
0.157502
0.13832
0.111124
0.069006
0.049184
0.03106
-0.00115
0.006699
0.024133
0.033253
0.079749
0.104172
0.081985
0.070453
0.103799
0.118716
0.102464
0.076386
0.080118
0.076445
0.074891
0.076283
0.0793
0.085603
0.080933
0.096226
0.109427
0.090985
0.086828
0.082486
0.090567
0.118039
0.124101
0.12363
0.110082
0.109077
0.091268
0.09528
0.09778
0.096968
0.09775
0.057019
0.055973
0.057598
0.072233
0.063161
0.061098
0.04409
0.049868
0.053434
0.070145
0.101116
0.116041
0.109291
0.116186
0.110982
0.108916
0.101123
0.098315
0.081676
0.071068
0.050329
0.065268
0.074424
0.06987
0.067129
0.069933
0.090139
0.093102
0.115443
0.122839
0.133117
0.128894
0.10841
0.107523
0.115427
0.125388
0.111561
0.091171
0.095378
0.084128
0.09899
0.102963
0.111088
0.080397
0.050226
0.052351
0.085107
0.117147
0.131309
0.105058
0.09665
0.113987
0.135031
0.126181
0.122581
0.135387
0.087509
0.069639
0.069813
0.089343
0.082336
0.089547
0.102994
0.082242
0.075234
0.076068
0.075778
0.063261
0.081451
0.076291
0.091019
0.125675
0.117615
0.120644
0.135661
0.137823
0.139516
0.110623
0.074927
0.071669
0.08549
0.086601
0.072385
0.060465
0.061368
0.057659
0.064868
0.097074
0.129548
0.127955
0.135274
0.136122
0.125165
0.118571
0.128919
0.12271
0.10519
0.111156
0.108023
0.101231
0.091162
0.100297
0.0769
0.057678
0.055806
0.086501
0.120718
0.130056
0.113321
0.129539
0.120242
0.133032
0.144138
0.142746
0.130663
0.116863
0.111226
0.123606
0.122877
0.140298
0.137343
0.123503
0.108783
0.118641
0.127364
0.125335
0.126565
0.134827
0.139947
0.154218
0.179626
0.203715
0.18516
0.183733
0.170592
0.158728
0.165712
0.180094
0.158484
0.142479
0.140674
0.14001
0.171996
0.179233
0.171209
0.188632
0.200233
0.194893
0.193164
0.174324
0.200413
0.229049
0.211722
0.19329
0.183456
0.19542
0.193089
0.183563
0.192803
0.180804
0.158594
0.16206
0.179677
0.178418
0.175613
0.205534
0.223976
0.239805
0.230596
0.226957
0.244417
0.25926
0.265394
0.295939
0.289012
0.266293
0.250678
0.239498
0.250452
0.264367
0.244498
0.232451
0.252276
0.269929
0.250683
0.248313
0.267697
0.267177
0.280422
0.28412
0.280284
0.292871
0.273938
0.26905
0.252302
0.265243
0.290105
0.285992
0.270441
0.286023
0.233776
0.234525
0.239418
0.206661
0.232171
0.240594
0.241414
0.233
0.245089
0.254881
0.254663
0.261077
0.238126
0.236996
0.243256
0.217701
0.220598
0.227852
0.218995
0.215939
0.208486
0.175105
0.167413
0.193986
0.215557
0.202782
0.186114
0.180979
0.187993
0.187682
0.170904
0.164655
0.175449
0.18726
0.182278
0.173578
0.160606
0.130974
0.108768
0.127405
0.1183
0.100653
0.103445
0.061282
0.064912
0.083888
0.089943
0.083412
0.099439
0.069968
0.081132
0.054864
0.07042
0.068507
0.094037
0.114978
0.094034
0.071306
0.040185
0.040242
0.04703
0.046238
0.050583
0.067312
0.070589
0.057629
0.051286
0.05756
0.048275
0.060809
0.0735
0.086053
0.090501
0.066768
0.060717
0.06761
0.051489
0.048654
0.058354
0.039766
0.021093
0.023355
0.006225
0.001451
0.014957
0.046595
0.059304
0.029781
0.031329
0.034273
0.063917
0.063895
0.055257
0.056232
0.032452
0.035234
0.046266
0.025003
0.018468
0.021254
0.021939
0.013234
-0.011487
-0.025763
-0.04329
-0.016989
0.015055
0.033203
0.060959
0.055307
0.066754
0.077554
0.09319
0.090925
0.077147
0.089089
0.072161
0.044495
0.058537
0.059002
0.02317
0.013912
0.03386
0.035318
0.051227
0.044382
0.039689
0.019906
0.016718
0.020143
0.049687
0.061588
0.067973
0.091238
0.094511
0.065824
0.068612
0.052731
0.061211
0.019731
0.008004
0.002007
0.008676
0.00315
0.008928
0.036378
0.043706
0.052295
0.046035
0.041032
0.071619
0.092289
0.070632
0.074553
0.082807
0.090134
0.035967
0.028103
0.026872
0.029346
0.023888
0.027665
0.020084
0.035838
0.065445
0.056931
0.060876
0.051027
0.069809
0.073498
0.072086
0.073319
0.074378
0.083947
0.081264
0.096399
0.094849
0.093272
0.070465
0.064102
0.057148
0.054888
0.055152
0.04817
0.045962
0.050604
0.057167
0.065275
0.046496
0.046213
0.063129
0.088067
0.074213
0.063838
0.063565
0.051426
0.067302
0.068824
0.045741
0.047685
0.071351
0.047772
0.020311
0.015986
0.037956
0.061329
0.068458
0.084982
0.090147
0.08369
0.075653
0.083561
0.076282
0.105949
0.122691
0.100981
0.091724
0.077479
0.061049
0.058774
0.067627
0.070479
0.043319
0.047525
0.030472
0.051811
0.084386
0.064856
0.052807
0.067534
0.069429
0.078434
0.094669
0.076557
0.082292
0.076463
0.056911
0.066918
0.053789
0.045062
0.016579
-0.000527
0.001438
0.011472
0.032807
0.038905
0.048831
0.050894
0.066387
0.071878
0.078179
0.078549
0.081674
0.105136
0.080233
0.065536
0.061467
0.06903
0.045713
0.03274
0.032439
0.037704
0.01939
0.031836
0.036259
0.038416
0.046536
0.036377
0.041853
0.059437
0.077402
0.088834
0.078102
0.067542
0.059535
0.050921
0.049725
0.030047
0.019339
0.026791
0.028882
0.013719
0.0017
0.007207
0.016197
0.012005
0.082412
0.079177
0.088535
0.084431
0.085061
0.112591
0.122076
0.081729
0.077173
0.053214
0.031701
0.037208
0.020153
0.022003
0.037421
0.01996
0.017753
0.036464
0.038811
0.005061
0.008174
0.038404
0.054874
0.066532
0.08874
0.081777
0.073757
0.082463
0.061391
0.057042
0.059165
0.043523
0.043393
0.055672
0.055606
0.05059
0.025128
0.020685
0.017184
0.0407
0.054181
0.036107
0.031818
0.053427
0.055981
0.094541
0.065231
0.078146
0.081656
0.056176
0.064903
0.063072
0.068709
0.059695
0.029541
0.023832
0.024971
0.006226
0.016742
0.040644
0.034105
0.022873
0.042289
0.038466
0.039949
0.063339
0.07516
0.081167
0.080559
0.064296
0.050125
0.039361
0.057704
0.038304
0.009799
0.001034
-0.013212
-0.005412
0.012012
0.029698
0.031598
0.00288
0.033218
0.046549
0.053303
0.049959
0.05235
0.057597
0.077771
0.077403
0.041845
0.047045
0.056066
0.042549
0.011048
0.010038
0.033697
0.041886
0.036067
0.021099
0.024602
0.054186
0.070579
0.070299
0.066334
0.06742
0.064961
0.076122
0.071556
0.05988
0.050406
0.06636
0.045574
0.051747
0.054113
0.037042
0.037129
0.032249
0.031621
0.021999
0.017908
0.021078
0.021655
0.043979
0.064833
0.059244
0.069391
0.072476
0.078377
0.071989
0.075475
0.074377
0.062618
0.02801
0.009701
0.025254
0.025831
0.031325
0.031418
0.043304
0.053228
0.067425
0.064
0.051347
0.040944
0.050225
0.05941
0.084228
0.085538
0.091489
0.080248
0.061518
0.051407
0.05386
0.043378
0.018566
0.018667
0.029463
0.041933
0.032205
0.040126
0.055235
0.053446
0.068399
0.082649
0.064424
0.038788
0.026455
0.017515
0.024793
0.052094
0.056297
0.05383
0.046159
0.053119
0.038497
0.026365
0.033682
0.046219
0.054991
0.079073
0.079391
0.10318
0.106191
0.091591
0.105284
0.133681
0.115809
0.089593
0.093433
0.100901
0.117216
0.119314
0.113679
0.096289
0.098991
0.095768
0.089511
0.091635
0.103106
0.105223
0.104287
0.136178
0.149494
0.14581
0.148073
0.131705
0.151051
0.141064
0.139661
0.134903
0.104193
0.082063
0.119789
0.113111
0.114495
0.112258
0.103169
0.108586
0.129141
0.134816
0.148288
0.147141
0.149371
0.138
0.132462
0.138136
0.141501
0.134795
0.124391
0.139669
0.147526
0.132793
0.117926
0.092306
0.084445
0.086976
0.085684
0.109677
0.104581
0.114383
0.131981
0.131223
0.125337
0.090661
0.072099
0.09643
0.122943
0.104266
0.071716
0.053125
0.063639
0.064942
0.055527
0.040276
0.036521
0.05073
0.046342
0.05276
0.04609
0.036282
0.048796
0.052035
0.056094
0.075547
0.062934
0.061668
0.081091
0.074779
0.058877
0.055449
0.063392
0.052915
0.022063
0.014693
0.038554
0.012314
0.006959
0.011312
-0.000868
0.002807
0.015596
0.03516
0.039498
0.053331
0.055548
0.079608
0.070638
0.048748
0.064238
0.051485
0.001823
0.004266
-0.001957
-0.006062
-0.010191
0.000954
-0.007263
0.019028
0.034847
0.030527
0.033194
0.046939
0.06636
0.067072
0.073391
0.041779
0.035842
0.02322
0.020655
0.051276
0.053438
0.046785
0.030054
0.020207
0.009137
0.000109
0.01364
0.01206
0.002733
-0.005127
-0.001548
-0.001801
-0.006763
0.011273
0.000055
0.003781
0.008363
0.003863
-0.000498
-0.017603
0.0157
0.024307
0.02699
0.026021
0.045667
0.059427
0.074286
0.116303
0.148903
0.185595
0.238768
0.272085
0.298789
0.35404
0.394409
0.402516
0.471996
0.500076
0.541966
0.572366
0.625378
0.657181
0.688879
0.728795
0.751698
0.781908
0.810293
0.839201
0.810482
0.800141
0.765576
0.741848
0.741587
0.695119
0.659411
0.626975
0.55473
0.439085
0.378417
0.350533
0.330329
0.31018
0.274399
0.249875
0.227505
0.20456
0.178368
0.145607
0.125781
0.117319
0.106286
0.094486
0.073232
0.086613
0.084409
0.089901
0.086924
0.072737
0.061021
0.041533
0.022434
0.038262
0.056281
0.056318
0.070172
0.077434
0.08037
0.080004
0.09719
0.092476
0.057564
0.060545
0.092506
0.11773
0.115282
0.123501
0.122014
0.106174
0.084818
0.074197
0.073235
0.06121
0.062969
0.061404
0.046927
0.057828
0.068174
0.041752
0.067666
0.066828
0.09217
0.084867
0.119965
0.126415
0.128938
0.109741
0.111423
0.105524
0.090443
0.066237
0.057536
0.070622
0.045257
0.078845
0.067626
0.07382
0.07598
0.072225
0.042358
0.053045
0.0862
0.106405
0.130165
0.124308
0.108659
0.125873
0.129643
0.130245
0.113428
0.104977
0.10199
0.0916
0.087171
0.077265
0.075309
0.069895
0.074702
0.067051
0.075681
0.094827
0.108935
0.095933
0.113969
0.127347
0.122852
0.118765
0.100317
0.083822
0.085591
0.086139
0.081627
0.067811
0.05171
0.070266
0.077183
0.080404
0.072666
0.076703
0.054541
0.056364
0.084622
0.110501
0.117454
0.126431
0.135114
0.145327
0.181514
0.14829
0.138692
0.122332
0.105045
0.110832
0.110795
0.103264
0.081974
0.062334
0.078489
0.08727
0.090893
0.075232
0.067119
0.068852
0.095811
0.102899
0.106273
0.113876
0.11049
0.10553
0.123779
0.128122
0.113395
0.086701
0.095444
0.086304
0.081262
0.08515
0.093628
0.092437
0.102345
0.117317
0.127009
0.142344
0.164051
0.124031
0.079746
0.116158
0.131032
0.120496
0.120942
0.109687
0.12469
0.130093
0.128482
0.130358
0.121987
0.111425
0.112505
0.113205
0.091627
0.090817
0.093576
0.105394
0.104978
0.133366
0.15508
0.169019
0.184263
0.179902
0.164756
0.169763
0.14043
0.139473
0.140032
0.121982
0.118101
0.132857
0.140165
0.151021
0.169001
0.179132
0.173659
0.186971
0.17813
0.195849
0.203675
0.204967
0.210305
0.224218
0.232877
0.227778
0.186832
0.204714
0.181052
0.154737
0.194362
0.200336
0.208822
0.213734
0.22571
0.230375
0.227151
0.225962
0.238599
0.237547
0.235061
0.252267
0.260915
0.262865
0.242147
0.235011
0.217504
0.242884
0.245316
0.235591
0.237038
0.220576
0.230407
0.260858
0.260604
0.250812
0.253472
0.289439
0.296976
0.306877
0.288101
0.280458
0.271415
0.279134
0.263765
0.256912
0.271502
0.284298
0.270351
0.247393
0.227713
0.245512
0.247228
0.220999
0.224803
0.220711
0.21556
0.259171
0.260209
0.258276
0.215943
0.243479
0.236478
0.247685
0.254135
0.259643
0.247448
0.275101
0.244442
0.19899
0.181173
0.18783
0.198137
0.188213
0.176849
0.20481
0.205422
0.203987
0.218124
0.215586
0.201336
0.200456
0.212897
0.200949
0.19401
0.179292
0.15243
0.157332
0.164061
0.130599
0.110159
0.09659
0.070231
0.093185
0.106482
0.110175
0.09744
0.127489
0.116134
0.109031
0.111533
0.102532
0.107462
0.099873
0.066269
0.065721
0.078083
0.07267
0.054155
0.042182
0.054996
0.055045
0.055162
0.068294
0.069296
0.062726
0.069209
0.056261
0.077828
0.091493
0.078313
0.051568
0.079033
0.08305
0.05824
0.048488
0.040451
0.016281
0.035588
0.032209
0.007538
0.015041
0.016106
0.023556
0.021458
0.029008
0.032875
0.045506
0.059989
0.072155
0.055956
0.056934
0.070978
0.050543
0.050601
0.024885
0.02307
0.021882
0.031758
0.041083
0.029409
0.031923
0.034107
0.039381
0.034217
0.028308
0.03515
0.046866
0.019601
0.048234
0.057922
0.077049
0.103007
0.071844
0.051776
0.040584
0.045096
0.038002
0.029529
0.007265
0.012723
0.006617
0.007945
0.023613
0.014928
0.027737
0.044536
0.06039
0.070907
0.076524
0.037716
0.030286
0.052966
0.059885
0.071602
0.078026
0.061247
0.028578
0.020979
0.004521
0.026119
0.034041
-0.007048
-0.007118
0.000066
0.038673
0.071197
0.060084
0.05949
0.076643
0.086396
0.083901
0.058621
0.036536
0.043447
0.044644
0.044269
0.040221
0.035447
0.035561
0.010689
0.008539
0.022304
0.021455
0.038753
0.037421
0.046259
0.075461
0.11101
0.100241
0.079713
0.08036
0.081962
0.075401
0.075811
0.079457
0.053584
0.050871
0.046455
0.064187
0.052299
0.042322
0.001362
0.032968
0.048887
0.044712
0.059903
0.071923
0.098513
0.09271
0.066283
0.071992
0.069432
0.064009
0.086836
0.085359
0.064195
0.074851
0.047011
0.060199
0.063175
0.049466
0.010686
0.016275
0.022676
0.02882
0.063176
0.054689
0.060479
0.082639
0.071503
0.057923
0.06222
0.064629
0.059441
0.05785
0.052732
0.051915
0.040896
0.049253
0.031262
0.023595
0.025783
0.048143
0.053196
0.055628
0.049531
0.050085
0.05915
0.084293
0.084744
0.083102
0.071174
0.082628
0.078579
0.079698
0.077376
0.020891
-0.017573
0.001958
0.009995
0.006955
0.019197
0.020454
0.030975
0.032237
0.027057
0.046204
0.065068
0.077303
0.1008
0.099712
0.075836
0.049034
0.050592
0.05009
0.034046
0.026236
0.041486
0.032082
0.026173
0.024293
0.029589
0.048045
0.048837
0.042893
0.050087
0.061048
0.059434
0.064594
0.063733
0.079079
0.08087
0.076057
0.077223
0.039705
0.023068
0.037531
0.026379
0.009993
0.014611
0.009519
0.006212
0.017304
0.023491
0.03596
0.05153
0.039825
0.045056
0.048894
0.043832
0.054594
0.053462
0.066219
0.060235
0.051336
0.019236
0.015399
0.035571
0.021297
0.014841
0.002516
-0.00092
0.008099
0.018364
0.018142
0.046472
0.054125
0.05778
0.070849
0.045584
0.015126
0.041046
0.042646
0.063426
0.036732
0.04607
0.037778
0.032868
0.016157
-0.003484
0.002451
0.005882
0.011887
0.012923
0.000559
0.040074
0.055265
0.05525
0.040994
0.061456
0.067676
0.054521
0.053608
0.041738
0.030323
0.021302
-0.004182
0.002987
-0.000506
0.004308
0.017203
0.014509
0.012241
-0.00074
0.003212
0.017025
0.028432
0.032769
0.046185
0.053577
0.072239
0.074037
0.053041
0.022819
0.033199
0.007954
0.004882
0.048104
0.043941
0.017793
0.004257
0.010971
0.026575
0.042052
0.038028
0.035723
0.037333
0.046716
0.058845
0.068962
0.056179
0.049104
0.051776
0.046988
0.032008
0.024146
0.027281
0.017735
0.011316
0.000904
0.00703
0.00457
-0.001181
0.028617
0.037765
0.047385
0.053918
0.031067
0.035429
0.050202
0.055026
0.077544
0.07546
0.058605
0.036455
0.010595
0.013969
0.008797
0.005198
0.021008
0.00577
0.005165
-0.000601
0.002173
0.018081
0.015202
0.033199
0.04351
0.043945
0.050032
0.045725
0.035082
0.04265
0.020023
0.009298
0.013581
0.013989
-0.003702
-0.018445
-0.026425
-0.021959
-0.021179
-0.01008
0.008227
0.01585
0.017255
0.029436
0.026937
0.04422
0.041406
0.025657
0.029578
0.036916
0.052493
0.055157
0.037758
0.010087
-0.010588
-0.008734
-0.00531
0.011611
0.030435
0.004924
0.012197
0.029034
0.041316
0.051851
0.043011
0.039
0.021859
0.015103
0.005845
0.006897
0.026947
0.005072
-0.002502
0.034753
0.035421
0.045633
0.022605
0.01741
0.009151
0.032808
0.06337
0.050338
0.042166
0.078806
0.100608
0.098646
0.109497
0.109825
0.104408
0.095026
0.087894
0.085044
0.08467
0.079471
0.059649
0.063041
0.069474
0.069352
0.082573
0.088404
0.085633
0.079097
0.101249
0.119689
0.10742
0.104796
0.113818
0.115579
0.115525
0.105267
0.104756
0.105248
0.07393
0.071222
0.063578
0.055867
0.060808
0.086228
0.083532
0.106206
0.101659
0.109694
0.121313
0.127762
0.127664
0.115596
0.118196
0.11157
0.107115
0.122825
0.123592
0.103962
0.085863
0.069917
0.051374
0.053393
0.059466
0.063916
0.077293
0.083294
0.066205
0.05523
0.053932
0.064434
0.059883
0.077713
0.092676
0.088185
0.0713
0.081137
0.077786
0.013779
0.011539
0.012261
0.004777
-0.000908
0.001675
0.004744
-0.005251
0.018854
0.013978
-0.005893
-0.039764
-0.058382
-0.017816
0.014247
0.059529
0.044554
0.014536
0.030651
0.012169
0.011485
0.002529
0.014702
0.000534
-0.00582
-0.009825
-0.01093
0.008806
0.012523
0.001524
-0.022925
-0.018915
0.013441
0.032707
0.024212
0.016449
0.026421
0.007457
0.013747
0.032288
0.034457
-0.004279
-0.014135
-0.033248
-0.013012
-0.018244
-0.032788
-0.031901
-0.016088
-0.002169
0.006441
0.010704
0.005012
0.011668
0.008191
0.017921
0.015435
0.00008
-0.002973
-0.029004
-0.025436
-0.019003
-0.018961
-0.054666
-0.045182
-0.057665
-0.053199
-0.054686
-0.036946
-0.019073
-0.039057
-0.040445
-0.008294
-0.013568
0.000122
-0.001117
-0.02029
-0.018618
-0.025495
-0.033115
-0.034388
-0.033695
-0.017449
0.006817
0.033619
0.061813
0.066178
0.066485
0.092371
0.13403
0.183241
0.19685
0.201247
0.23908
0.327562
0.386082
0.439535
0.462544
0.510991
0.562485
0.607109
0.632659
0.631643
0.659682
0.697594
0.731612
0.750385
0.760592
0.764236
0.751329
0.719574
0.689832
0.676717
0.646751
0.631466
0.554203
0.492107
0.429292
0.366278
0.324931
0.291229
0.259909
0.231782
0.202031
0.183527
0.162167
0.121111
0.077095
0.067298
0.041714
0.024942
0.024697
0.015467
0.026402
0.029032
0.032108
0.041746
0.010113
-0.031331
0.008603
0.007407
0.011421
0.014351
-0.00352
-0.01078
0.021544
0.03345
0.021577
0.003494
0.036627
0.048942
0.048907
0.052053
0.055647
0.06222
0.069959
0.063127
0.024938
0.031292
0.04848
0.064978
0.048439
0.039795
0.028326
0.019771
-0.000914
-0.005682
0.018666
0.04299
0.039127
0.04781
0.051975
0.05578
0.06572
0.080467
0.075516
0.079374
0.074797
0.059059
0.037775
0.026247
0.020061
0.019199
0.029438
0.030578
0.038173
0.037598
0.02885
0.00363
0.015483
0.052771
0.057777
0.033511
0.033076
0.039653
0.0279
0.026476
0.039667
0.027207
0.015426
0.030691
0.035934
0.030008
0.003366
0.010635
0.013073
0.022048
0.024752
0.024929
0.033922
0.048678
0.042414
0.054347
0.056478
0.056909
0.048522
0.045128
0.057887
0.056552
0.062783
0.044379
0.034173
0.010794
0.021869
0.031988
0.035449
0.026684
0.030723
0.030924
0.030194
0.03572
0.040984
0.045533
0.062049
0.072076
0.068108
0.069984
0.060722
0.029681
0.011615
0.004822
0.028481
0.030728
0.025497
0.036116
0.056792
0.05338
0.040241
0.034105
0.028847
0.023016
0.044665
0.048957
0.064961
0.076221
0.077901
0.103975
0.091763
0.071746
0.066862
0.044153
0.029033
0.041594
0.068943
0.032714
-0.007381
0.007089
0.050917
0.049083
0.046289
0.06122
0.047918
0.081861
0.089712
0.086108
0.092452
0.086387
0.078651
0.075754
0.083114
0.076879
0.060403
0.02675
0.03457
0.037316
0.041733
0.045908
0.054806
0.057691
0.078107
0.089969
0.089576
0.102369
0.116151
0.118149
0.095303
0.096343
0.098487
0.08903
0.078609
0.068139
0.071504
0.064131
0.074436
0.067187
0.074128
0.081106
0.09229
0.097445
0.111605
0.124132
0.103515
0.122053
0.131686
0.142681
0.150308
0.148929
0.148566
0.157112
0.157939
0.135362
0.133355
0.131931
0.132943
0.143278
0.133781
0.137391
0.145599
0.147173
0.160463
0.181552
0.188829
0.213104
0.23299
0.218747
0.199256
0.202877
0.191802
0.198512
0.200838
0.190103
0.177382
0.193739
0.179536
0.167169
0.165512
0.184976
0.164034
0.175954
0.184776
0.193491
0.189613
0.188387
0.20796
0.198296
0.198106
0.219883
0.219381
0.228858
0.232753
0.231305
0.224341
0.190306
0.178151
0.175292
0.187803
0.185267
0.192338
0.202454
0.208442
0.244261
0.253233
0.244991
0.220637
0.207096
0.203374
0.173307
0.148037
0.166923
0.188305
0.189291
0.173254
0.154589
0.135289
0.128557
0.123763
0.123374
0.122356
0.138472
0.128502
0.145034
0.138122
0.140405
0.139014
0.136838
0.141669
0.154934
0.149382
0.155325
0.103043
0.073563
0.06912
0.050598
0.046238
0.035048
0.037693
0.044994
0.064375
0.071756
0.072713
0.097852
0.062902
0.028929
0.036538
0.058437
0.062949
0.06553
0.05363
0.060172
0.04958
0.041127
0.015404
0.01062
0.0011
0.004589
0.01334
0.019296
0.007587
0.009653
0.002315
0.004794
-0.000988
-0.007892
0.006161
-0.004464
-0.012502
-0.004216
0.000479
0.005786
-0.003636
-0.010252
-0.028778
-0.041292
-0.038289
-0.037381
-0.055383
-0.084964
-0.049841
-0.03075
-0.024468
-0.015191
-0.012293
-0.022999
-0.029056
-0.021029
-0.000576
0.018176
0.013112
0.000781
0.016513
0.011098
-0.004907
-0.021236
-0.063332
-0.075847
-0.053073
-0.051428
-0.066375
-0.060547
-0.026277
-0.028764
-0.031472
-0.025043
-0.014323
0.0026
0.005078
-0.015495
-0.019925
-0.026553
-0.030466
-0.036732
-0.03347
-0.035242
-0.024339
-0.0241
-0.029466
-0.033864
-0.031485
-0.030366
-0.025907
-0.018178
-0.00955
-0.00035
0.000314
0.015216
0.021211
0.027377
0.011678
-0.013685
-0.017076
-0.03361
-0.023792
-0.042202
-0.088059
-0.091497
-0.060005
-0.047974
-0.027944
-0.049941
-0.031208
0.00455
0.030829
0.013657
0.017103
0.026002
-0.001935
-0.004188
0.008725
0.016018
0.031556
0.031764
0.029662
0.010602
-0.030336
-0.040621
-0.019907
-0.017363
-0.000401
0.009352
0.017906
0.02463
0.010484
0.014712
0.026779
0.023247
0.020636
0.0327
0.031877
0.030101
0.018426
0.0101
0.01627
0.000224
-0.005451
-0.003212
0.004161
-0.014638
-0.025759
-0.019658
-0.005561
0.018841
0.044772
0.041287
0.025727
0.004389
-0.0192
-0.021623
-0.008249
-0.001899
0.007049
-0.012612
0.030024
0.014484
-0.012553
-0.034624
-0.049879
-0.020116
-0.004449
-0.029253
-0.032164
-0.000257
0.017456
0.023909
0.058747
0.034317
-0.005761
0.014576
0.018559
0.001994
0.025842
0.033587
0.039025
0.020269
-0.012464
-0.030805
-0.034771
-0.012484
0.010471
0.014654
0.008878
0.019733
0.034311
0.030119
0.03737
0.033311
0.028062
0.014343
0.016509
0.00425
0.001021
-0.013598
-0.028472
-0.034147
-0.04895
-0.041739
-0.024352
-0.020259
-0.01035
0.00761
0.002032
0.002477
0.014741
0.023433
0.032777
0.026563
0.035065
0.027336
0.027074
0.027342
0.033414
0.03246
0.018942
0.011802
0.003914
-0.005512
-0.035079
-0.040267
-0.017257
-0.011225
0.005785
0.006723
0.008312
0.012
0.04791
0.054192
0.016172
0.027992
0.00984
0.006952
0.005903
-0.008747
-0.013072
-0.01033
-0.021456
-0.060839
-0.062027
-0.058833
-0.065116
-0.038053
-0.029708
-0.002106
0.000291
0.015221
0.025177
0.013463
0.012285
0.006996
-0.002102
0.008418
0.003616
-0.000578
-0.011873
-0.019854
-0.027751
-0.01877
-0.001392
0.00748
-0.021247
-0.004454
0.006765
0.001729
0.011682
0.017974
0.02685
0.019888
0.012139
0.026374
0.037485
0.019264
-0.011099
0.00523
0.013499
-0.0106
-0.033328
-0.021635
-0.007874
-0.040637
-0.039329
-0.029839
-0.024972
-0.024574
0.001983
0.025974
0.034748
0.024152
0.030428
0.017004
0.013974
0.005637
0.000028
-0.004129
-0.01702
-0.013203
-0.007356
-0.0053
-0.007032
-0.014163
-0.030334
-0.025397
-0.011204
-0.012939
-0.009336
-0.000865
0.006301
0.019462
0.01043
0.025957
0.018012
-0.006923
-0.009208
-0.005247
-0.022238
-0.036984
-0.042509
-0.054346
-0.067163
-0.047596
-0.035109
-0.007276
-0.014492
0.010589
0.008632
0.020874
0.044991
0.060317
0.026026
-0.010147
-0.018843
-0.00114
-0.008717
-0.005958
-0.011306
0.008416
-0.006829
-0.006806
-0.016453
-0.020439
0.003845
0.011907
-0.001649
0.013486
0.034304
0.030056
0.036305
0.010348
0.009242
-0.00941
-0.021181
-0.00479
0.005406
-0.007921
-0.010125
-0.028211
-0.043506
-0.041847
-0.032751
-0.024616
-0.036915
-0.022682
0.00331
0.013846
0.019726
0.0223
0.01446
0.004561
-0.001213
0.01347
0.013683
-0.008295
-0.008683
0.001303
0.003716
0.002019
-0.021664
-0.032734
-0.015997
-0.007057
0.001428
0.003275
0.00643
0.015129
0.001302
0.030899
0.041239
0.039826
0.036823
0.015034
0.007319
0.00754
0.02505
0.030996
0.020382
-0.008163
-0.019347
-0.037252
-0.031658
-0.030432
-0.011107
-0.022201
-0.04003
-0.018979
0.001364
0.011355
0.02195
0.023844
0.021163
0.02414
0.025113
0.015284
0.014052
-0.000053
-0.036703
-0.063075
-0.036027
-0.072395
-0.065168
-0.05885
-0.056839
-0.015665
-0.011059
-0.011065
0.001092
0.018042
0.028503
