-0.087544
-0.075543
-0.062097
-0.074445
-0.050362
-0.041494
-0.060509
-0.066141
-0.084176
-0.057506
-0.039018
-0.028966
-0.012598
0.002338
0.010295
0.056868
0.072634
0.08918
0.102764
0.130778
0.164236
0.187071
0.234846
0.262522
0.297694
0.311554
0.360432
0.39947
0.44469
0.458607
0.457347
0.470966
0.483278
0.486084
0.492613
0.474988
0.419429
0.442307
0.436787
0.402157
0.411813
0.398958
0.320736
0.296793
0.280028
0.247376
0.232841
0.244876
0.234042
0.232979
0.229824
0.166938
0.107989
0.138777
0.123082
0.05068
0.030979
0.034086
0.007364
0.005251
0.013658
0.010593
0.009278
0.023301
0.015365
0.021635
0.015058
0.017431
0.027192
0.037019
0.035058
0.019311
0.022771
0.001164
-0.014881
-0.03612
-0.000283
0.012667
-0.014003
-0.019522
0.001123
0.008688
-0.008418
0.004097
0.004454
0.004655
-0.021615
-0.046005
-0.083205
-0.059713
0.004064
-0.015884
-0.00753
-0.015177
-0.008603
-0.046363
-0.03902
-0.032363
0.002641
0.024331
0.022632
0.003008
-0.001253
0.003412
0.02903
0.032555
0.012038
0.019515
0.032823
0.02939
0.003909
-0.002183
-0.047854
-0.057862
-0.029365
-0.01921
-0.002609
-0.014365
0.00286
0.023476
0.024793
0.023869
0.024734
-0.013546
0.0008
0.008939
-0.024178
-0.02583
-0.036037
-0.053863
-0.055609
-0.051833
-0.055803
-0.045205
-0.03072
-0.00657
-0.013491
-0.021381
-0.002913
0.00623
-0.007462
-0.029689
0.01273
0.026414
0.000742
0.02993
-0.00157
0.005249
-0.001813
-0.007446
0.005094
-0.00849
-0.026622
-0.040997
-0.039981
-0.032641
0.001794
-0.00822
-0.016741
-0.018059
-0.023998
-0.015576
-0.012692
-0.028332
-0.01201
-0.016557
-0.030879
-0.003886
-0.009426
-0.020598
-0.025607
-0.018067
-0.026119
-0.010063
0.002615
-0.007293
-0.012299
-0.003014
0.00017
0.014177
0.014441
-0.002072
-0.000302
-0.020506
-0.013156
-0.02471
-0.021244
-0.004829
-0.008933
-0.017355
-0.018991
-0.028559
-0.012154
0.011831
-0.00846
-0.01955
-0.003118
-0.004463
-0.003119
-0.006413
0.009776
-0.00615
-0.001873
0.012289
-0.000334
0.001349
-0.005453
-0.032641
-0.025904
-0.015143
-0.016816
0.019317
0.009221
0.013389
0.021885
0.015179
-0.003535
0.001985
0.018223
0.02941
0.007048
0.004235
0.026917
0.029465
0.04105
0.041419
0.016572
0.012054
-0.010092
0.00707
-0.003059
0.002933
0.006791
0.015616
0.012583
0.016008
0.012611
0.016563
0.023528
0.018881
0.02268
0.018409
0.042011
0.080293
0.041326
0.046791
0.05265
0.052365
0.054104
0.057674
0.068793
0.089959
0.092942
0.070685
0.070856
0.089026
0.135705
0.042255
0.053588
0.036433
0.015097
0.014325
0.053826
0.074983
0.056027
0.032466
0.066929
0.088818
0.096401
0.093127
0.095503
0.088514
0.102522
0.115735
0.117239
0.118684
0.098895
0.071487
0.067177
0.075748
0.083068
0.087408
0.093765
0.096738
0.096573
0.082566
0.082653
0.089335
0.096
0.082227
0.070122
0.072129
0.078155
0.07863
0.10355
0.085404
0.084623
0.078977
0.084331
0.094207
0.092779
0.078571
0.051817
0.074391
0.069089
0.08951
0.070045
0.032332
0.054716
0.044838
0.029271
0.031075
0.038803
0.046856
0.043079
0.036648
0.026672
0.077372
0.064242
0.05825
0.074044
0.06305
0.03425
0.019452
0.038143
0.031602
-0.003381
0.004029
0.02092
0.025437
0.019147
-0.001103
-0.026769
-0.005825
0.046969
-0.000607
-0.016649
-0.028844
-0.039778
-0.014799
0.008274
-0.011865
-0.003083
-0.014286
-0.030052
-0.027886
-0.029155
-0.021427
-0.011702
-0.016034
-0.042523
-0.06422
-0.062094
-0.050948
-0.022986
-0.031489
-0.013751
-0.034121
0.003735
0.006831
-0.039538
-0.04342
0.003599
-0.017919
-0.014697
-0.002747
-0.062255
-0.021937
-0.029828
-0.006559
-0.010027
-0.069439
-0.082996
-0.07124
-0.057009
-0.037332
-0.048945
-0.066163
-0.045032
-0.029187
-0.031564
-0.045607
-0.037077
-0.049074
-0.01888
-0.053375
-0.078263
-0.067388
-0.043425
-0.064813
-0.086832
-0.084352
-0.091548
-0.077111
-0.066657
-0.068561
-0.066285
-0.039133
-0.053159
-0.054069
-0.062461
-0.07404
-0.066803
-0.064178
-0.068628
-0.036502
-0.005107
-0.025436
-0.033904
-0.037941
-0.055256
-0.032779
-0.033844
-0.049925
-0.070149
-0.053607
-0.05592
-0.023019
-0.00913
-0.056358
-0.083862
-0.080215
-0.060924
-0.030934
-0.040127
-0.050302
-0.033636
-0.020284
-0.039491
-0.049995
-0.061153
-0.082459
-0.074648
-0.048894
-0.01048
-0.017254
-0.017251
-0.019909
-0.028274
-0.011726
-0.019227
-0.022625
-0.004209
0.008397
-0.023341
-0.037879
-0.029484
-0.039978
-0.037057
-0.032034
-0.017557
-0.017427
-0.020021
-0.02945
-0.04583
-0.062088
-0.036483
-0.019189
-0.04169
-0.053368
-0.040964
-0.065126
-0.077885
-0.038013
0.004187
0.006617
0.002466
-0.017776
-0.002
-0.015774
-0.041041
-0.037936
-0.039541
-0.049948
-0.050609
-0.063202
-0.046927
-0.047678
-0.060151
-0.028756
-0.029459
-0.029856
-0.032503
-0.01189
0.009244
0.044991
0.025144
0.001285
0.008686
0.018071
0.016833
-0.009058
-0.022485
-0.023518
-0.054112
-0.034465
-0.038814
-0.04689
-0.033382
-0.024577
-0.048383
-0.045761
-0.069368
-0.009475
-0.009214
-0.013296
-0.028399
-0.0282
-0.033627
-0.047865
-0.047709
-0.045192
-0.038566
-0.041586
-0.076605
-0.050238
-0.046857
-0.048374
-0.033537
-0.030587
0.00119
0.002587
0.012621
-0.019494
-0.031786
-0.032057
-0.039682
-0.032386
-0.034603
-0.031903
-0.017445
-0.048165
-0.028376
-0.008817
-0.051696
-0.039369
-0.050951
-0.037794
-0.015842
-0.035667
-0.050945
-0.039953
-0.025649
-0.025864
-0.025513
-0.026129
-0.021695
-0.013188
-0.048574
-0.016316
-0.032602
-0.061574
-0.060282
-0.01847
-0.010485
-0.024485
-0.052632
-0.051228
-0.041802
-0.035742
-0.023621
-0.03495
-0.045502
-0.041166
-0.027939
-0.033176
-0.047998
-0.081354
-0.097483
-0.061364
-0.04536
-0.051247
-0.05399
-0.039369
-0.040147
-0.060984
-0.084374
-0.044534
-0.03763
-0.031918
-0.020779
-0.016497
-0.038344
-0.01095
-0.030766
-0.032989
-0.030784
-0.03757
-0.024978
-0.036245
-0.024422
-0.019557
-0.043174
-0.052704
-0.060573
-0.048262
-0.074611
-0.078048
-0.066286
-0.055615
-0.051308
-0.053852
-0.051665
-0.045818
-0.040209
-0.050085
-0.062801
-0.051808
-0.059544
-0.055051
-0.04775
-0.057219
-0.073941
-0.088256
-0.085504
-0.06587
-0.054157
-0.047744
-0.025228
-0.024413
-0.01375
-0.025189
-0.04598
-0.008943
-0.013071
-0.042205
-0.0576
-0.038086
-0.035498
-0.035581
-0.029209
-0.030598
-0.040496
-0.056054
-0.0553
-0.060477
-0.042726
-0.045496
-0.04412
-0.039368
-0.047515
-0.048187
-0.036035
-0.050181
-0.036184
-0.051579
-0.100908
-0.08325
-0.051197
-0.065396
-0.051993
-0.042968
-0.039177
-0.039743
-0.03899
-0.043515
-0.049611
-0.048822
-0.040121
-0.038471
-0.023528
-0.047706
-0.056807
-0.0335
-0.028214
-0.045426
-0.02031
-0.027818
-0.057158
-0.045942
-0.055179
-0.067961
-0.048945
-0.054054
-0.079802
-0.064755
-0.069069
-0.085042
-0.061335
-0.0602
-0.06861
-0.075581
-0.08522
-0.089746
-0.094621
-0.084707
-0.070508
-0.069038
-0.090271
-0.039843
0.002678
0.005845
0.002928
-0.001804
-0.024918
-0.010734
-0.023884
-0.074514
-0.06994
-0.063877
-0.06298
-0.073245
-0.101719
-0.073817
-0.058181
-0.077053
-0.073443
-0.066105
-0.072869
-0.061483
-0.04908
-0.045182
-0.055478
-0.052795
-0.050384
-0.050511
-0.064277
-0.047622
-0.029874
-0.016825
-0.035783
-0.046369
-0.048225
-0.045719
-0.047904
-0.024142
-0.02057
-0.043164
-0.03742
-0.022312
-0.034412
-0.055117
-0.039716
-0.027664
-0.025925
-0.010124
-0.008606
-0.000866
-0.01057
-0.016114
-0.020812
-0.010166
-0.007282
0.004451
0.011828
0.007133
-0.019601
-0.015073
-0.011318
-0.024564
-0.053492
-0.053178
-0.05948
-0.043609
-0.039157
-0.000638
0.000741
0.006402
0.008647
-0.013397
-0.003781
0.019329
0.002884
-0.027263
0.004469
0.012502
0.016125
0.01172
-0.005127
0.009589
0.016586
0.013559
-0.011934
-0.008898
-0.003401
-0.004841
0.009108
0.009137
-0.019546
-0.053709
0.000874
0.002366
0.008854
-0.029062
-0.043879
-0.021455
-0.017702
-0.01815
-0.005763
-0.001946
0.012583
0.014822
-0.000086
-0.012909
-0.024272
-0.033821
-0.05572
-0.070594
-0.078699
-0.067336
-0.041668
-0.034559
-0.033947
-0.030513
-0.02629
-0.048234
-0.052072
-0.053524
-0.06707
-0.070225
-0.063129
-0.070099
-0.084298
-0.083329
-0.082984
-0.063668
-0.087205
-0.137874
-0.07295
-0.060814
-0.057985
-0.065102
-0.067587
-0.063565
-0.066475
-0.066873
-0.060511
-0.058667
-0.046674
-0.048231
-0.064885
-0.094293
-0.103863
-0.085876
-0.066218
-0.071703
-0.096446
-0.075214
-0.06805
-0.095625
-0.099717
-0.107655
-0.102679
-0.114701
-0.114353
-0.127272
-0.116523
-0.108473
-0.114286
-0.105748
-0.108287
-0.085131
-0.046581
-0.060952
-0.046654
-0.040237
-0.040389
-0.060072
-0.07217
-0.045261
-0.078412
-0.074927
-0.068689
-0.069447
-0.072177
-0.060788
-0.051941
-0.075892
-0.086401
-0.092622
-0.106584
-0.125578
-0.150284
-0.146066
-0.113349
-0.074103
-0.090749
-0.123193
-0.114151
-0.08464
-0.095347
-0.095428
-0.067784
-0.062337
-0.05419
-0.039162
0.002546
0.004245
-0.004535
0.007718
0.060412
0.090029
0.112019
0.137638
0.156937
0.173975
0.21234
0.268101
0.317379
0.357317
0.394452
0.43303
0.47127
0.489466
0.466431
0.48887
0.487514
0.469205
0.482115
0.498832
0.459462
0.454224
0.414914
0.396744
0.377051
0.300643
0.256754
0.277052
0.255317
0.232174
0.232616
0.239672
0.226179
0.224257
0.209584
0.165888
0.142492
0.119228
0.1036
0.081328
0.078597
0.066408
0.033721
0.028734
0.003548
-0.00361
-0.027299
-0.021429
-0.001199
-0.012753
-0.005758
-0.023841
-0.023714
-0.022738
0.001153
0.009424
0.013372
0.002252
-0.006026
-0.015868
-0.032729
-0.038751
-0.035656
-0.036328
-0.0141
-0.021103
-0.023808
-0.001511
0.013936
0.005031
0.004313
-0.02159
-0.027063
-0.038043
-0.059828
-0.080988
-0.068544
-0.096362
-0.080031
-0.064817
-0.080164
-0.061812
-0.044526
-0.062208
-0.053279
-0.033216
-0.056089
-0.070059
-0.061598
-0.064401
-0.044337
-0.043099
-0.060719
-0.063984
-0.043277
-0.044686
-0.056836
-0.0583
-0.056019
-0.060178
-0.071582
-0.093519
-0.067267
-0.046513
-0.030711
-0.023714
-0.022008
-0.043909
-0.033059
-0.039793
-0.025137
-0.041097
-0.051837
-0.033821
-0.008659
0.008003
-0.014673
-0.052716
-0.028283
0.017843
-0.000175
-0.048161
-0.016577
-0.051611
-0.051074
-0.076125
-0.053019
-0.050971
-0.04556
-0.035743
-0.039685
-0.038177
-0.038358
-0.021982
-0.033721
0.002626
-0.003121
-0.023607
-0.010964
-0.016609
-0.053046
-0.042392
-0.052137
-0.028412
-0.01455
-0.015956
-0.033474
-0.028438
-0.033095
-0.038672
-0.015612
-0.021527
-0.039401
-0.047654
-0.050231
-0.021822
-0.060825
-0.049726
-0.035283
-0.058178
-0.067295
-0.059063
-0.055414
-0.023716
-0.015549
-0.022455
-0.026115
-0.024473
-0.025052
-0.028104
-0.025415
-0.034292
-0.027489
-0.036722
-0.056417
-0.059435
-0.061604
-0.067839
-0.062986
-0.066606
-0.069183
-0.033985
0.00017
0.025851
0.030783
0.004443
-0.006475
-0.012851
-0.023354
-0.016407
-0.015192
-0.007418
-0.009881
-0.000684
0.002264
-0.033093
-0.030318
-0.023812
-0.046071
-0.028865
-0.001382
-0.011796
-0.015868
-0.006097
-0.004431
-0.0002
-0.025049
-0.023062
-0.05227
-0.021611
-0.01017
-0.014029
-0.018034
-0.009513
-0.014654
-0.015418
-0.010904
-0.020111
0.002738
-0.006004
-0.007695
0.00161
-0.005319
0.005483
0.000293
-0.033837
-0.031433
-0.021229
0.000455
0.030323
0.030331
0.027644
0.046023
0.057364
0.044733
0.031815
0.022531
0.001803
0.04071
0.055811
0.067588
0.042146
0.037058
0.027878
0.04362
0.061442
0.023042
0.059692
0.056107
0.058424
0.059307
0.020565
0.017022
0.044347
0.027773
0.036614
0.023232
0.019241
0.04505
0.016291
-0.013711
0.035971
0.060884
0.033193
0.058939
0.101542
0.082673
0.084169
0.088204
0.071804
0.070057
0.066438
0.05513
0.068477
0.082281
0.073427
0.05746
0.073556
0.087908
0.092969
0.087765
0.068121
0.048468
0.053306
0.055141
0.063171
0.059358
0.042244
0.020878
0.05035
0.038002
0.01035
0.007934
0.008046
0.020939
0.002963
0.002795
0.03199
0.029237
0.014646
-0.001182
-0.006947
-0.010342
-0.016301
0.010319
0.011614
0.016472
-0.002824
0.000237
0.005416
0.003661
0.005306
0.002015
-0.005727
-0.010854
-0.010556
-0.030872
-0.035622
-0.026482
-0.044997
-0.038019
-0.048423
-0.067576
-0.075601
-0.058213
-0.030033
-0.007662
-0.002719
-0.02635
-0.015589
-0.015927
-0.037664
-0.044969
-0.053244
-0.046359
-0.064763
-0.040125
-0.050343
-0.056692
-0.050963
-0.057337
-0.056627
-0.060749
-0.057923
-0.033178
-0.015544
-0.022082
-0.020836
-0.042396
-0.061919
-0.039096
-0.031489
-0.056745
-0.054761
-0.05113
-0.067464
-0.062662
-0.05031
-0.049744
-0.088057
-0.087339
-0.079993
-0.104446
-0.062086
-0.063024
-0.090978
-0.072854
-0.057571
-0.062465
-0.081791
-0.071335
-0.073827
-0.096994
-0.084176
-0.08159
-0.10556
-0.077733
-0.061925
-0.076649
-0.078752
-0.059071
-0.040537
-0.025774
-0.077086
-0.088571
-0.066539
-0.067836
-0.060206
-0.070259
-0.077361
-0.063248
-0.036223
-0.057653
-0.065059
-0.047724
-0.055053
-0.053134
-0.050636
-0.062909
-0.074506
-0.072183
-0.095382
-0.099999
-0.078481
-0.06662
-0.070667
-0.056075
-0.062763
-0.076686
-0.044919
-0.03633
-0.042859
-0.043482
-0.051491
-0.054833
-0.058966
-0.069376
-0.061069
-0.052293
-0.05582
-0.043046
-0.03381
-0.014102
-0.026933
-0.049219
-0.045729
-0.054973
-0.070593
-0.074563
-0.068789
-0.067622
-0.064542
-0.054896
-0.064441
-0.058884
-0.042038
-0.046017
-0.051663
-0.047685
-0.063288
-0.043598
-0.053019
-0.042257
-0.033968
-0.034398
-0.037628
-0.057492
-0.069769
-0.077417
-0.048551
-0.056691
-0.075796
-0.071927
-0.043355
-0.038614
-0.024666
-0.045223
-0.0162
-0.009502
-0.035895
-0.05374
-0.066345
-0.069713
-0.060389
-0.035786
-0.03552
-0.055328
-0.052351
-0.015635
-0.028949
-0.032866
-0.043483
-0.038392
-0.048919
-0.050245
-0.05978
-0.056891
-0.057037
-0.05259
-0.067999
-0.036482
-0.058874
-0.086186
-0.071337
-0.023513
-0.009902
-0.073124
-0.057657
-0.047308
-0.059539
-0.043101
-0.014413
-0.009102
0.004574
-0.026355
-0.023661
-0.013429
-0.055098
-0.057979
-0.099523
-0.09319
-0.06852
-0.061754
-0.083841
-0.075751
-0.07726
-0.060996
-0.072427
-0.086808
-0.069455
-0.075219
-0.08086
-0.087566
-0.085719
-0.06375
-0.062198
-0.04621
-0.02556
-0.01874
-0.043304
-0.054913
-0.049419
-0.038231
-0.02778
-0.040108
-0.043165
-0.045242
-0.040814
-0.033527
-0.038756
-0.048962
-0.042502
-0.069741
-0.059028
-0.054498
-0.054856
-0.068079
-0.068761
-0.077454
-0.077007
-0.07159
-0.098373
-0.093863
-0.114561
-0.099184
-0.072137
-0.044601
-0.03372
-0.014717
-0.034078
-0.034662
-0.039032
-0.037538
-0.05354
-0.057406
-0.044146
-0.038352
-0.061445
-0.0634
-0.073652
-0.078789
-0.067871
-0.072695
-0.079105
-0.073098
-0.084249
-0.066032
-0.071422
-0.057692
-0.093866
-0.113322
-0.075989
-0.040852
-0.072324
-0.074305
-0.081417
-0.067277
-0.055975
-0.044757
-0.052279
-0.039366
-0.024986
-0.034364
-0.066372
-0.057952
-0.066696
-0.072348
-0.071528
-0.055569
-0.046779
-0.071047
-0.058087
-0.04709
-0.06362
-0.053133
-0.04269
-0.05423
-0.079221
-0.087493
-0.077607
-0.058931
-0.048941
-0.032953
-0.067249
-0.054912
-0.058405
-0.076456
-0.083248
-0.057688
-0.049988
-0.068113
-0.076763
-0.056083
-0.053877
-0.046473
-0.052959
-0.072201
-0.059284
-0.052841
-0.066658
-0.05645
-0.051817
-0.050582
-0.050435
-0.073345
-0.099643
-0.061515
-0.06795
-0.087748
-0.044439
-0.046064
-0.022296
-0.016289
-0.042616
-0.070715
-0.030074
0.001288
-0.015185
-0.047777
-0.068628
-0.082121
-0.083777
-0.074827
-0.080467
-0.103473
-0.095655
-0.085935
-0.061725
-0.055615
-0.051882
-0.072164
-0.060581
-0.062178
-0.07391
-0.05974
-0.075288
-0.076425
-0.078359
-0.077729
-0.059607
-0.036166
-0.066813
-0.069047
-0.060453
-0.070668
-0.10645
-0.095978
-0.083327
-0.090991
-0.093236
-0.099642
-0.102071
-0.078415
-0.057941
-0.069421
-0.071294
-0.050877
-0.047558
-0.05741
-0.054308
-0.078779
-0.087108
-0.06898
-0.079465
-0.07176
-0.058447
-0.059706
-0.037793
-0.041197
-0.093153
-0.069428
-0.085758
-0.087828
-0.071823
-0.092531
-0.083891
-0.095223
-0.064926
-0.081649
-0.092588
-0.083482
-0.071876
-0.071278
-0.099983
-0.078968
-0.034568
-0.044984
-0.028263
-0.05161
-0.053334
-0.061085
-0.049417
-0.00174
-0.010659
-0.049542
-0.045733
-0.034055
-0.045765
-0.027209
-0.022855
-0.029559
-0.013982
-0.009085
0.005874
0.006609
-0.000263
-0.019389
-0.008338
-0.007352
0.000331
-0.006379
0.009191
-0.014743
-0.022842
-0.023708
-0.042267
-0.061401
-0.021879
-0.037173
-0.042276
-0.03535
-0.0479
-0.024823
-0.007237
0.006635
0.000356
-0.024409
-0.010154
0.000059
-0.001366
0.001074
-0.01996
-0.006698
0.011983
0.031297
0.0093
-0.006975
0.00069
0.014597
0.016643
0.024177
0.00596
-0.017092
-0.000258
0.014887
-0.006394
-0.031491
-0.029414
-0.024014
-0.028169
-0.048996
-0.059079
-0.102665
-0.061213
-0.052697
-0.075431
-0.104266
-0.056343
-0.039607
-0.02172
-0.016227
-0.012009
-0.010148
-0.026096
-0.061014
-0.097931
-0.099022
-0.096287
-0.07009
-0.054939
-0.066064
-0.068018
-0.074415
-0.083516
-0.076797
-0.05833
-0.038013
-0.038626
-0.057581
-0.079797
-0.088769
-0.077885
-0.089915
-0.065334
-0.028634
-0.08889
-0.083966
-0.078516
-0.063657
-0.037606
-0.049645
-0.070324
-0.098844
-0.091422
-0.072273
-0.082672
-0.112066
-0.104272
-0.10766
-0.078434
-0.062503
-0.078166
-0.105319
-0.07928
-0.093908
-0.112813
-0.105867
-0.08759
-0.090717
-0.088429
-0.064494
-0.073379
-0.097429
-0.09334
-0.103159
-0.113427
-0.112866
-0.080198
-0.102055
-0.095891
-0.092059
-0.085596
-0.091948
-0.095735
-0.091699
-0.076873
-0.075604
-0.069804
-0.085801
-0.076787
-0.104217
-0.106646
-0.069915
-0.056168
-0.090625
-0.095406
-0.109146
-0.105188
-0.124151
-0.101861
-0.149835
-0.140282
-0.114601
-0.10778
-0.108189
-0.113053
-0.095327
-0.065142
-0.054261
-0.057675
-0.050377
-0.033283
-0.035962
-0.044507
-0.019702
0.012526
0.034509
0.079752
0.103601
0.123371
0.147198
0.223398
0.260017
0.271561
0.307579
0.34285
0.368241
0.389006
0.434038
0.467737
0.480179
0.499632
0.500999
0.481984
0.485842
0.457907
0.42166
0.420709
0.392196
0.358784
0.370368
0.332007
0.295839
0.261282
0.203399
0.19413
0.253492
0.218282
0.225887
0.207839
0.179297
0.154891
0.127763
0.119779
0.082134
0.059156
0.040119
0.012497
0.005267
-0.003147
-0.014819
-0.021214
-0.029949
-0.037125
-0.038552
-0.039456
-0.044192
-0.066137
-0.057717
-0.064138
-0.0288
-0.026738
-0.037681
-0.039329
-0.030903
-0.00663
-0.028222
-0.042058
-0.023795
-0.033733
-0.029359
-0.027027
-0.015543
-0.01606
-0.033129
-0.038274
-0.038055
-0.021563
-0.025069
-0.026383
-0.006144
-0.042841
-0.041437
-0.073324
-0.083044
-0.085128
-0.083479
-0.065109
-0.074962
-0.114561
-0.116931
-0.075619
-0.06563
-0.065109
-0.046886
-0.024771
-0.024621
-0.043318
-0.046978
-0.056368
-0.044763
-0.056111
-0.055959
-0.071361
-0.056336
-0.063542
-0.020347
-0.00634
-0.013254
-0.023892
-0.048595
-0.051003
-0.028427
-0.056139
-0.083046
-0.049505
-0.053036
-0.036715
-0.060952
-0.073649
-0.047201
-0.042676
-0.05208
-0.053264
-0.048595
-0.039046
-0.064721
-0.066449
-0.081789
-0.06929
-0.082644
-0.034562
-0.010882
0.000227
-0.047987
-0.071745
-0.047007
-0.043849
-0.066951
-0.051275
-0.037119
-0.033129
-0.049302
-0.054175
-0.057056
-0.077723
-0.06883
-0.070343
-0.039558
-0.036589
-0.031968
-0.035145
-0.033909
-0.044003
-0.046195
-0.030661
-0.014718
-0.005612
0.000188
-0.012451
-0.028926
-0.017064
-0.021293
-0.042096
-0.009547
-0.031466
-0.026255
-0.033757
-0.000544
0.001731
-0.035338
-0.061847
-0.071925
-0.066249
-0.073537
-0.065276
-0.052149
-0.042591
-0.045999
-0.034178
-0.021838
-0.038359
-0.032406
-0.0305
-0.056432
-0.036428
-0.02826
-0.083656
-0.078009
-0.046875
-0.059005
-0.049375
-0.039988
-0.049729
-0.043568
-0.032257
-0.051184
-0.075864
-0.055087
-0.038338
-0.028631
-0.035893
-0.032511
-0.035426
-0.056171
-0.059103
-0.024228
-0.040346
-0.061503
-0.009371
0.017949
-0.000346
0.022127
0.007084
0.032399
0.008357
0.009839
0.008388
-0.022981
-0.030827
-0.024118
-0.013364
-0.012766
-0.025453
-0.017893
-0.012475
0.00644
0.006042
0.004566
0.001539
0.004442
-0.017145
-0.034087
-0.021056
0.001863
0.024395
0.026257
0.006265
0.03734
0.070485
0.059809
0.022173
-0.001024
0.026709
0.039661
0.030101
0.013154
0.024902
0.042562
0.039399
0.010533
0.029394
0.050604
0.042167
0.0426
0.065701
0.037228
0.027902
0.053769
0.028513
0.052176
0.04942
0.05231
0.046989
0.0412
0.059468
0.093487
0.069982
0.052464
0.082513
0.067003
0.081867
0.070746
0.077512
0.071069
0.06832
0.071834
0.080259
0.073736
0.072288
0.073496
0.095918
0.08866
0.083451
0.066162
0.048178
0.041001
0.044416
0.080995
0.066734
0.07307
0.080081
0.054476
0.054973
0.051789
0.022966
0.032668
0.040545
0.056842
0.047259
0.034599
0.038663
0.026855
0.017067
0.003219
-0.023947
-0.014363
0.01562
0.007269
0.009213
0.010068
-0.021563
-0.016527
-0.011371
0.002548
0.01134
0.014291
-0.000043
-0.043333
-0.037161
-0.033869
-0.017254
-0.000096
-0.002366
-0.010443
-0.028812
-0.005505
-0.017023
-0.044876
-0.051056
-0.054038
-0.04721
-0.048294
-0.04707
-0.0624
-0.070069
-0.063518
-0.046001
-0.04966
-0.07509
-0.049159
-0.026624
-0.032391
-0.052704
-0.050758
-0.058852
-0.064321
-0.071886
-0.077457
-0.054416
-0.090883
-0.0664
-0.05722
-0.049337
-0.051283
-0.088794
-0.103632
-0.077349
-0.070738
-0.058932
-0.055565
-0.067125
-0.069638
-0.063904
-0.079078
-0.084536
-0.073945
-0.08167
-0.080738
-0.065814
-0.063675
-0.069447
-0.071164
-0.0733
-0.072655
-0.088556
-0.091268
-0.072066
-0.081073
-0.076671
-0.069848
-0.056911
-0.067096
-0.074579
-0.058783
-0.063025
-0.098668
-0.11259
-0.106875
-0.115001
-0.130884
-0.087575
-0.059195
-0.072481
-0.050291
-0.01026
-0.042003
-0.058776
-0.048183
-0.070708
-0.080387
-0.086377
-0.066605
-0.06549
-0.073292
-0.099823
-0.099306
-0.089003
-0.112511
-0.064319
-0.048426
-0.02956
-0.023378
-0.051349
-0.064682
-0.049493
-0.066233
-0.040397
-0.062672
-0.072367
-0.046243
-0.048316
-0.070314
-0.040355
-0.068848
-0.094098
-0.088778
-0.065214
-0.114798
-0.102285
-0.073009
-0.050876
-0.042474
-0.059603
-0.069399
-0.054416
-0.030287
-0.030077
-0.029788
-0.070893
-0.045292
-0.045907
-0.022489
-0.027952
-0.048057
-0.064794
-0.040947
-0.02981
-0.062081
-0.076893
-0.071671
-0.049837
-0.075739
-0.065746
-0.045451
-0.037733
-0.042007
-0.040948
-0.038675
-0.059413
-0.056334
-0.031158
-0.050434
-0.08079
-0.074599
-0.027746
-0.060007
-0.064347
-0.042357
-0.061751
-0.080005
-0.059773
-0.072058
-0.060089
-0.048865
-0.044608
-0.039442
-0.018116
-0.023358
-0.023437
-0.016008
-0.040911
-0.036241
-0.03092
-0.034691
-0.052796
-0.057851
-0.054156
-0.044294
-0.067436
-0.074093
-0.047862
-0.034253
-0.040457
-0.056425
-0.044291
-0.04421
-0.062633
-0.053293
-0.069686
-0.081539
-0.077922
-0.042476
-0.073617
-0.072207
-0.091651
-0.068332
-0.073488
-0.062315
-0.060869
-0.057329
-0.030537
-0.045538
-0.059315
-0.039268
-0.017515
-0.017223
-0.043696
-0.061174
-0.06085
-0.03921
-0.009833
-0.008922
-0.032174
-0.058788
-0.083862
-0.06643
-0.064751
-0.092846
-0.074761
-0.038796
-0.028148
-0.042168
-0.006019
-0.03538
-0.07143
-0.053034
-0.062629
-0.062473
-0.052015
-0.044644
-0.054648
-0.044688
-0.033184
-0.03925
-0.051592
-0.060243
-0.058287
-0.077045
-0.079251
-0.056222
-0.033955
-0.066494
-0.048069
-0.056057
-0.035045
-0.046192
-0.056201
-0.052117
-0.047211
-0.055853
-0.055353
-0.032498
-0.029085
-0.059157
-0.089079
-0.058723
-0.044199
-0.040442
-0.05317
-0.08432
-0.094304
-0.066327
-0.047782
-0.043073
-0.063915
-0.077533
-0.066623
-0.058524
-0.059116
-0.05507
-0.061208
-0.094359
-0.050087
-0.041192
-0.036945
-0.025817
-0.033795
-0.061313
-0.065823
-0.050874
-0.050673
-0.041308
-0.072181
-0.086965
-0.088986
-0.063859
-0.056097
-0.078525
-0.070517
-0.06298
-0.071971
-0.069088
-0.075498
-0.080548
-0.0786
-0.074327
-0.063434
-0.072144
-0.065216
-0.08339
-0.065487
-0.065189
-0.085
-0.047502
-0.032758
-0.035693
-0.100915
-0.058375
-0.050449
-0.072945
-0.065682
-0.058297
-0.0355
-0.065667
-0.056821
-0.052737
-0.049137
-0.040159
-0.047563
-0.047529
-0.050398
-0.058811
-0.064672
-0.087985
-0.107227
-0.050713
-0.061712
-0.060607
-0.052561
-0.034851
-0.046568
-0.052115
-0.048642
-0.050394
-0.049011
-0.055177
-0.055428
-0.051746
-0.061124
-0.049263
-0.050358
-0.056223
-0.062847
-0.039913
-0.029294
-0.031063
-0.06559
-0.032645
-0.052417
-0.043493
-0.042186
-0.045342
-0.060964
-0.066264
-0.063046
-0.066073
-0.076881
-0.071714
-0.070049
-0.075156
-0.075956
-0.049413
-0.050862
-0.042757
-0.043436
-0.052635
-0.07011
-0.091143
-0.099774
-0.068372
-0.086813
-0.08587
-0.083908
-0.076288
-0.079331
-0.112356
-0.07075
-0.064737
-0.089038
-0.076185
-0.061789
-0.036002
-0.053357
-0.025834
-0.058012
-0.067113
-0.069097
-0.082052
-0.054425
-0.043201
-0.082502
-0.060865
-0.039165
-0.079474
-0.063543
-0.04166
-0.038838
-0.042481
-0.040542
-0.057058
-0.043079
-0.039094
-0.056398
-0.054276
-0.050593
-0.04653
-0.028957
-0.055372
-0.087531
-0.079736
-0.059865
-0.070959
-0.082573
-0.065449
-0.073851
-0.085759
-0.112365
-0.135631
-0.101269
-0.087814
-0.083918
-0.072141
-0.076641
-0.043873
-0.036161
-0.028546
-0.019977
-0.021807
0.012153
0.034814
0.024075
-0.016766
-0.026856
-0.004119
-0.012205
-0.018659
-0.015011
-0.011086
-0.01799
-0.011624
-0.012394
-0.023271
-0.014013
-0.023707
-0.035934
-0.048009
-0.04794
-0.041026
-0.044354
-0.030459
-0.015245
-0.000097
0.010413
0.006652
0.03011
0.009903
0.013936
0.013222
0.014681
0.005803
0.005899
0.00574
-0.01408
-0.015395
-0.002807
0.016998
0.025547
0.000479
0.024587
0.02282
0.000606
-0.013163
-0.032523
-0.003221
0.010106
-0.062872
-0.092581
-0.015536
-0.002937
-0.028789
-0.043589
-0.044981
-0.046415
-0.0537
-0.030805
-0.027691
-0.052391
-0.036133
0.007458
-0.001728
-0.017264
-0.043988
-0.038375
-0.034396
-0.023571
-0.027038
-0.078508
-0.075247
-0.095732
-0.098706
-0.062433
-0.057852
-0.062811
-0.057836
-0.064291
-0.05353
-0.058653
-0.073415
-0.075022
-0.078553
-0.076738
-0.070304
-0.068564
-0.071318
-0.036715
-0.042915
-0.06597
-0.091803
-0.089297
-0.068024
-0.132937
-0.08465
-0.068251
-0.072442
-0.067708
-0.055745
-0.073464
-0.101505
-0.085436
-0.04795
-0.055667
-0.06672
-0.057457
-0.082939
-0.077423
-0.080783
-0.088677
-0.093979
-0.094008
-0.093325
-0.108883
-0.106621
-0.081308
-0.071259
-0.064853
-0.063826
-0.058611
-0.098385
-0.073524
-0.05281
-0.08643
-0.10272
-0.092651
-0.030133
-0.015832
-0.059056
-0.07963
-0.077221
-0.084121
-0.075803
-0.074338
-0.06565
-0.077304
-0.104417
-0.112341
-0.08805
-0.104449
-0.102047
-0.088531
-0.077773
-0.073438
-0.096163
-0.112953
-0.111885
-0.124603
-0.111115
-0.096736
-0.098006
-0.113301
-0.087213
-0.072775
-0.053176
-0.036153
-0.023795
-0.035326
-0.039896
0.002432
0.032229
0.078934
0.104227
0.106485
0.138268
0.170164
0.183849
0.216874
0.239531
0.271224
0.340219
0.386073
0.416164
0.458734
0.483698
0.490243
0.511398
0.496682
0.496048
0.454804
0.410332
0.397111
0.389592
0.394831
0.370437
0.35572
0.326046
0.251383
0.206391
0.188827
0.157603
0.171257
0.191625
0.183958
0.17764
0.159985
0.146956
0.123032
0.093262
0.071523
0.06145
0.071565
0.044349
0.021531
-0.003927
-0.000887
-0.009582
0.012888
-0.001275
0.007383
0.003966
-0.019976
-0.008859
-0.008955
-0.005191
-0.001979
-0.038535
-0.019897
0.010012
0.002403
-0.022863
-0.014546
-0.026159
-0.021964
-0.02556
-0.027344
-0.049617
-0.049516
-0.043565
-0.036198
-0.044445
-0.04905
-0.032132
-0.055937
-0.063649
-0.041796
-0.011907
-0.023948
-0.000358
0.004856
-0.037126
-0.02338
-0.032255
-0.042302
-0.030426
-0.059659
-0.05763
-0.026296
-0.041555
-0.051712
-0.048528
-0.034977
-0.045515
-0.025955
-0.023858
-0.007911
-0.011822
-0.033041
-0.040181
-0.03058
-0.019871
-0.013129
-0.074801
-0.079282
-0.055872
-0.049159
-0.090693
-0.066416
-0.031733
-0.06321
-0.052915
-0.055295
-0.036733
-0.031773
-0.031342
-0.029227
-0.021904
0.000296
-0.021916
-0.03285
-0.058915
-0.065935
-0.030336
-0.040565
-0.053961
-0.049508
-0.061097
-0.076529
-0.050094
-0.037052
-0.069807
-0.072929
-0.072695
-0.055254
-0.036198
-0.017195
-0.015976
-0.023705
-0.024269
-0.009391
-0.012872
-0.026473
-0.021513
-0.004132
-0.006638
-0.038088
-0.071481
-0.06005
-0.059154
-0.076737
-0.078312
-0.05709
-0.048712
-0.045495
-0.036233
-0.028578
-0.031405
0.006067
0.017805
0.015199
-0.004346
-0.018711
-0.039164
-0.005168
-0.01016
-0.016107
-0.027547
-0.025645
0.001072
0.002362
-0.002819
0.008867
0.00051
-0.065261
-0.065599
-0.002237
-0.022704
-0.000475
-0.009035
-0.005701
-0.021677
-0.022733
-0.020624
-0.020498
-0.052492
-0.063399
-0.04005
0.002721
0.02114
0.024464
0.011014
-0.015356
0.005333
-0.013386
-0.020922
-0.041903
-0.028564
-0.017859
-0.026787
-0.016201
-0.04221
-0.027856
-0.023652
-0.030926
-0.032538
-0.009778
-0.00942
-0.032802
-0.00251
-0.012708
-0.011478
0.008637
-0.003373
-0.014098
-0.00686
0.026608
-0.023797
-0.006078
0.001232
-0.002332
-0.008016
0.000123
0.000305
0.006447
0.010942
-0.00465
-0.007632
0.008492
-0.007532
-0.006991
-0.016437
-0.034842
0.031564
0.064813
0.052899
0.05557
0.060574
0.050707
0.064199
0.059053
0.056059
0.049099
0.063922
0.077305
0.07085
0.059113
0.067559
0.062136
0.052433
0.062671
0.058736
0.0556
0.04941
0.042407
0.061929
0.065277
0.046058
0.059237
0.069023
0.057962
0.044044
0.056811
0.073669
0.071453
0.077118
0.067553
0.069528
0.063541
0.079696
0.089013
0.09617
0.094967
0.08617
0.092718
0.107128
0.111899
0.108487
0.093864
0.07525
0.062861
0.06988
0.054672
0.078822
0.064526
0.067947
0.049176
0.05364
0.04902
0.067588
0.061743
0.04999
0.037514
0.061008
0.055269
0.057933
0.038933
0.020178
0.03286
0.050519
0.049123
0.028893
0.044816
0.061075
0.061627
0.065829
0.038348
0.001486
0.026671
0.057651
0.022622
0.027722
0.010834
-0.016114
-0.019543
-0.011925
0.001164
-0.014899
-0.017994
-0.020716
-0.032156
-0.021915
-0.012946
0.002479
-0.0238
-0.028368
-0.015262
-0.020016
-0.017438
0.006562
-0.019049
-0.059464
-0.05248
-0.049855
-0.057318
-0.075824
-0.042831
-0.04731
-0.035663
-0.030528
-0.014011
-0.033026
-0.040423
-0.021095
-0.013837
-0.032771
-0.070092
-0.038039
-0.049554
-0.069796
-0.05936
-0.028642
-0.082573
-0.084979
-0.059907
-0.058246
-0.042064
-0.042579
-0.053946
-0.034799
-0.041305
-0.055612
-0.068821
-0.074992
-0.05478
-0.051846
-0.062029
-0.060987
-0.067614
-0.072158
-0.059265
-0.073985
-0.067087
-0.068089
-0.063334
-0.053616
-0.067064
-0.074919
-0.038403
-0.070426
-0.070776
-0.060145
-0.028853
-0.019806
-0.109233
-0.067682
-0.049144
-0.045677
-0.061114
-0.075323
-0.07602
-0.063832
-0.017055
-0.044875
-0.034043
-0.058061
-0.064852
-0.042751
-0.028088
-0.044926
-0.043159
-0.04478
-0.015225
-0.019721
-0.04078
-0.076613
-0.066669
-0.064741
-0.057544
-0.057971
-0.067344
-0.074726
-0.065015
-0.063234
-0.059802
-0.062326
-0.061355
-0.044861
-0.045702
-0.046964
-0.028647
-0.049204
-0.06524
-0.048749
-0.037172
-0.042605
-0.045031
-0.04766
-0.075972
-0.054668
-0.052841
-0.055742
-0.043764
-0.036698
-0.056902
-0.0152
-0.023101
-0.033306
-0.018118
-0.006846
-0.019605
-0.045017
-0.028911
-0.044125
-0.046757
-0.034442
-0.040806
-0.052194
-0.02701
-0.039542
-0.044948
-0.039804
-0.036162
-0.025993
-0.032183
-0.018822
-0.021034
-0.02724
-0.016949
-0.045984
-0.037947
-0.047969
-0.016065
-0.036964
-0.032065
-0.017449
-0.006797
-0.021252
-0.016678
-0.026557
-0.026063
-0.011454
-0.016066
-0.027728
-0.044428
-0.050311
-0.028995
-0.035267
-0.026565
-0.02111
-0.03986
-0.021422
-0.022066
-0.044501
-0.034057
-0.021394
0.000468
-0.013417
-0.006433
-0.031097
-0.021282
-0.035913
-0.018931
-0.005339
-0.006672
-0.008993
-0.017955
-0.034809
-0.034474
-0.042426
-0.036571
-0.032284
-0.03053
-0.020231
-0.01317
-0.01878
-0.026007
-0.014704
-0.006672
-0.001035
-0.038967
-0.046739
-0.040985
0.001184
-0.001455
-0.023645
-0.051533
-0.058753
-0.07422
-0.08264
-0.052714
-0.040649
-0.051274
-0.037989
-0.015024
-0.052257
-0.044047
-0.018712
-0.023401
-0.028903
-0.033854
-0.010122
-0.020082
-0.031083
-0.024224
-0.001638
-0.000055
-0.007298
-0.02381
-0.017245
-0.018471
-0.069935
-0.058521
-0.006054
-0.048691
-0.045507
-0.060796
-0.058333
-0.065944
-0.070651
-0.052886
-0.027285
-0.003789
-0.005664
0.012151
0.000925
-0.007815
-0.049452
-0.062866
-0.037827
-0.028763
-0.038191
-0.036328
-0.020905
-0.010819
-0.019965
-0.030795
-0.038609
-0.035659
-0.061605
-0.062364
-0.056841
-0.048312
-0.055059
-0.031368
-0.030092
-0.010498
-0.012005
-0.023136
-0.023912
-0.014769
-0.012857
-0.03089
-0.030626
-0.042203
-0.026868
-0.028714
-0.035582
-0.050764
-0.054264
-0.03926
-0.017019
-0.030228
-0.03746
-0.028631
-0.048551
-0.041258
-0.023592
-0.04963
-0.020254
-0.020431
-0.042789
-0.045992
-0.061988
-0.064755
-0.050064
-0.042493
-0.046418
-0.064052
-0.040953
-0.021041
-0.018807
-0.043825
-0.048085
-0.038133
-0.033981
-0.021206
-0.014129
-0.0159
-0.024392
-0.025361
0.003005
-0.034517
-0.027858
-0.039326
-0.013809
-0.0305
-0.041102
-0.039635
-0.058933
-0.069543
-0.067033
-0.04208
-0.051681
-0.069288
-0.085171
-0.058103
-0.03226
-0.01968
0.012202
0.033666
0.011647
-0.003131
-0.01003
-0.004894
-0.021024
-0.076212
-0.105481
-0.074956
-0.062682
-0.051373
-0.063969
-0.078281
-0.095221
-0.053366
-0.038869
-0.030792
-0.031689
-0.023503
-0.0418
-0.034516
-0.046726
-0.057724
-0.070081
-0.028096
-0.031372
-0.019304
0.00921
-0.001952
-0.027641
-0.04572
-0.042527
-0.046152
-0.041451
-0.035703
-0.051378
-0.051073
-0.036819
-0.037983
-0.042081
-0.044191
-0.036394
-0.030916
-0.027459
-0.026925
-0.031444
-0.070281
-0.043103
-0.031617
-0.077068
-0.064765
-0.020832
0.011929
-0.028314
-0.025023
-0.024556
-0.00811
-0.014955
-0.023068
-0.02956
-0.025713
-0.02083
-0.055708
-0.03038
-0.008954
-0.019528
-0.024562
-0.04775
-0.047996
-0.023954
-0.014502
-0.021218
-0.031214
-0.04522
-0.022673
-0.012931
-0.009931
-0.010859
-0.046184
-0.014288
-0.00227
0.00365
0.014976
0.023652
0.032487
0.014953
0.024873
0.01978
0.017857
0.036929
0.000227
0.007852
0.011347
0.027051
0.062885
0.028879
-0.001641
-0.016032
0.018441
0.024529
0.029031
0.022615
0.037704
0.031859
0.00021
0.017567
0.018319
0.004568
0.019823
0.007585
-0.018647
-0.034768
-0.015877
0.016697
0.009565
0.017374
0.016564
0.024865
0.012301
-0.024446
0.026432
0.038296
-0.041653
0.006122
0.022236
0.013981
0.019328
0.002209
-0.008152
-0.033339
-0.00926
-0.005165
-0.01068
-0.0113
-0.016362
-0.008206
-0.001207
0.016268
-0.028894
-0.044829
-0.038704
-0.025189
-0.02921
-0.035096
-0.047506
-0.046688
-0.033359
-0.038067
-0.022692
-0.021822
-0.030695
-0.028804
-0.027314
-0.039821
-0.030268
-0.024541
-0.023092
-0.028838
-0.058528
-0.034199
-0.025738
-0.042775
-0.04418
-0.038596
-0.043703
-0.057929
-0.062412
-0.065483
-0.078845
-0.051126
-0.073555
-0.090694
-0.085869
-0.07176
-0.051285
-0.045148
-0.04735
-0.058302
-0.067735
-0.068545
-0.043183
-0.067691
-0.07414
-0.052798
-0.053034
-0.043574
-0.035079
-0.045295
-0.047422
-0.08581
-0.071241
-0.047513
-0.051156
-0.055717
-0.043073
-0.041105
-0.045738
-0.046513
-0.048027
-0.029841
-0.041753
-0.048495
-0.030896
-0.031826
-0.042171
-0.037451
-0.023973
-0.029963
-0.037871
-0.06644
-0.086443
-0.084352
-0.091439
-0.080775
-0.084393
-0.099358
-0.083144
-0.082028
-0.091622
-0.089622
-0.089841
-0.137798
-0.141171
-0.100903
-0.105508
-0.097093
-0.061478
-0.057894
-0.062681
-0.012367
-0.016731
-0.022633
0.016176
0.041164
0.07868
0.102273
0.106638
0.122898
0.158406
0.213201
0.233344
0.271999
0.305682
0.353922
0.381086
0.39209
0.43853
0.461299
0.484869
0.482939
0.471043
0.498387
0.521956
0.534709
0.528835
0.498846
0.496782
0.467232
0.443539
0.413155
0.389939
0.323767
0.250042
0.274267
0.275937
0.234113
0.171334
0.221229
0.219034
0.216438
0.200148
0.164166
0.146464
0.123917
0.10579
0.095354
0.097863
0.078378
0.06226
0.043941
0.015351
0.030113
0.044006
0.041342
0.032073
0.011127
-0.017571
-0.006804
-0.013342
-0.03094
-0.012204
-0.013789
0.00547
0.021808
-0.00124
-0.044735
-0.062977
-0.052787
-0.002926
0.001153
-0.024784
-0.033339
-0.017729
-0.016958
-0.034042
-0.031586
-0.016456
-0.028843
-0.03517
-0.034008
-0.021449
-0.002331
-0.000452
0.033257
0.000557
-0.034504
-0.027824
-0.021476
-0.028725
-0.029761
-0.023307
-0.023376
-0.015164
-0.00498
-0.013935
-0.010488
-0.000166
-0.002974
-0.015351
-0.020654
-0.026099
-0.02309
-0.02073
-0.010119
-0.007956
-0.061495
-0.032791
-0.025453
-0.033131
-0.04498
-0.053099
-0.023334
-0.004477
-0.007269
-0.01582
0.004121
-0.050192
-0.049573
-0.009759
-0.024564
-0.020214
-0.01827
0.002925
-0.013621
-0.037997
-0.002265
-0.010689
0.007079
0.008223
-0.032011
-0.019246
-0.024065
-0.025525
-0.032956
-0.024539
-0.028222
-0.020292
-0.030154
-0.027509
-0.042537
-0.032031
-0.023102
-0.022733
-0.032183
-0.011803
-0.008711
-0.005864
0.010541
0.020499
-0.017117
-0.005562
-0.020379
-0.020801
-0.026753
-0.004479
0.001992
0.012385
-0.005873
-0.014808
-0.025343
0.000413
-0.003459
-0.009121
-0.02882
-0.025107
-0.030264
-0.032581
-0.029265
-0.023374
-0.014256
-0.02613
-0.06112
-0.068953
-0.017235
-0.006435
-0.008683
-0.003051
0.001234
0.006527
-0.006142
-0.00341
0.002402
0.006627
-0.000923
0.005682
0.001863
-0.009126
-0.000876
-0.000356
-0.038391
-0.005352
-0.00779
-0.022046
-0.009212
-0.001347
0.004691
-0.012061
0.007236
0.025494
0.005279
0.001766
-0.014913
-0.013208
-0.013898
0.007729
-0.011531
-0.011702
0.014974
0.037839
0.015696
0.018063
0.004177
-0.001077
0.013001
0.020097
0.012443
0.022221
0.015519
0.007619
-0.003305
-0.003766
0.003985
0.007505
0.022785
0.01792
0.022421
0.028545
0.02265
0.039312
0.034704
0.037315
0.054819
0.053264
0.036785
0.030589
0.035672
0.04805
0.056282
0.080364
0.056909
0.035581
0.053843
0.065389
0.055391
0.038245
0.05064
0.053723
0.050638
0.035299
0.053051
0.056664
0.062373
0.038519
0.039207
0.032127
0.058851
0.050532
0.042549
0.046235
0.024593
0.043325
0.073649
0.079862
0.082349
0.088015
0.085706
0.097949
0.071203
0.092309
0.106862
0.072784
0.09848
0.09934
0.098821
0.081708
0.083556
0.07905
0.080164
0.098944
0.097201
0.093552
0.075468
0.07721
0.075965
0.068918
0.067733
0.089964
0.078296
0.077251
0.088619
0.068347
0.051523
0.056501
0.070429
0.063416
0.044496
0.020667
0.053471
0.046511
0.050101
0.04285
0.048015
0.073998
0.068507
0.070568
0.058975
0.038941
0.017839
0.013393
0.049987
0.07184
0.081743
0.030436
0.010719
0.010978
0.005105
-0.000372
0.014353
-0.020608
-0.024585
0.018077
0.006846
-0.000236
0.021077
0.014276
0.013288
0.035671
-0.039558
-0.044998
-0.022691
-0.048579
-0.035408
-0.035152
-0.033928
-0.03904
-0.02485
-0.039268
-0.011307
-0.013777
-0.024962
-0.019719
-0.035865
-0.043759
-0.028773
-0.032784
-0.029468
0.001281
-0.032615
-0.021131
-0.038603
-0.041637
-0.043436
-0.040879
-0.031273
-0.038129
-0.055569
-0.030568
-0.030682
-0.043565
-0.055679
-0.024324
-0.025317
-0.036497
-0.060943
-0.046658
-0.0236
-0.029708
-0.058358
-0.061342
-0.060082
-0.03516
-0.046291
-0.040782
-0.051637
-0.057569
-0.090818
-0.08279
-0.072004
-0.087174
-0.107046
-0.10228
-0.112483
-0.065375
-0.076535
-0.074527
-0.06541
-0.053645
-0.023711
-0.031326
-0.06223
-0.053034
-0.034371
-0.024892
-0.017539
-0.02311
-0.015828
-0.018348
-0.024702
-0.044809
-0.061509
-0.039161
-0.033149
-0.029203
-0.021647
-0.028752
-0.060954
-0.034823
-0.036318
-0.056213
-0.04091
-0.027107
-0.027352
-0.044933
-0.039933
-0.039687
-0.036525
-0.033793
-0.05737
-0.057571
-0.055831
-0.051319
-0.053586
-0.040812
-0.033754
-0.00611
-0.002132
-0.030213
-0.016859
-0.027506
-0.03153
-0.019433
-0.014463
0.015719
0.012123
-0.008016
-0.036867
-0.056066
-0.045996
-0.048371
-0.055396
-0.019122
-0.02854
-0.035182
-0.027419
-0.030011
-0.033381
-0.028102
-0.039317
-0.041489
-0.036366
-0.036787
-0.035233
-0.042069
-0.053579
-0.051543
-0.052009
-0.059862
-0.022292
-0.01705
-0.017322
-0.017836
-0.03301
-0.054811
-0.034033
-0.037883
-0.036238
-0.057608
-0.040695
0.001849
-0.004882
-0.028197
-0.044061
-0.035253
-0.028654
-0.014177
-0.036474
-0.042551
0.004099
-0.022174
-0.058513
-0.082133
-0.04621
-0.031902
-0.021708
-0.037286
-0.014544
0.000585
-0.018875
-0.023479
-0.019132
-0.058945
-0.056042
-0.02221
-0.074994
-0.078311
-0.060888
-0.068076
-0.040415
-0.032676
-0.020899
-0.024155
-0.022213
-0.018096
-0.010827
-0.02166
-0.018912
-0.029361
-0.029923
-0.02606
-0.051095
-0.044262
-0.041377
-0.042027
-0.043229
-0.04019
-0.030258
-0.027871
-0.032248
-0.037619
-0.031393
-0.00837
-0.020353
-0.038516
-0.034124
-0.044242
-0.036106
-0.050848
-0.040199
-0.025112
-0.054324
-0.047981
-0.033982
-0.049155
-0.082494
-0.095214
-0.08639
-0.110586
-0.084408
-0.062582
-0.064741
-0.045128
-0.022029
-0.011076
-0.006193
-0.025113
-0.015099
-0.033965
-0.025037
-0.046474
-0.025982
-0.039887
-0.050788
-0.040528
-0.035513
-0.054782
-0.055164
-0.064181
-0.059356
-0.045003
-0.045662
-0.035727
-0.013985
-0.027681
-0.03908
-0.031433
-0.039741
-0.05563
-0.033481
-0.043092
-0.058345
-0.025332
-0.029821
-0.049496
-0.040997
-0.039186
-0.060164
-0.05863
-0.063305
-0.050723
-0.049169
-0.065612
-0.041664
-0.028749
-0.021288
-0.020601
-0.021362
-0.031895
-0.03711
-0.057072
-0.033632
-0.0523
-0.067483
-0.038044
-0.044942
-0.075176
-0.065467
-0.084124
-0.089766
-0.089467
-0.064559
-0.038894
-0.022085
-0.040591
-0.022862
-0.045626
-0.036733
-0.046156
-0.052119
-0.045731
-0.032209
-0.023854
-0.054016
-0.061718
-0.060402
-0.064232
-0.050634
-0.053926
-0.063162
-0.057894
-0.061495
-0.058538
-0.06007
-0.060736
-0.055562
-0.041105
-0.037326
-0.061244
-0.054456
-0.038486
-0.046307
-0.04171
-0.057633
-0.05146
-0.045719
-0.052358
-0.049598
-0.049496
-0.045154
-0.068448
-0.063778
-0.070599
-0.06731
-0.047162
-0.028291
-0.027411
-0.050309
-0.022391
-0.051071
-0.056543
-0.056592
-0.039684
-0.065707
-0.075075
-0.05068
-0.058172
-0.067646
-0.035904
-0.059948
-0.092066
-0.07672
-0.063544
-0.042543
-0.027691
-0.044566
-0.053091
-0.055606
-0.049712
-0.009125
0.007269
-0.028954
-0.059075
-0.040844
-0.031871
-0.018365
-0.034875
-0.056527
-0.061455
-0.070556
-0.066988
-0.053434
-0.05684
-0.044511
-0.020134
-0.033228
-0.044906
-0.051924
-0.041034
-0.029639
-0.043199
-0.067829
-0.057781
-0.030786
-0.021376
-0.056469
-0.082507
-0.061399
-0.084224
-0.058285
-0.027175
-0.051418
-0.031252
-0.003637
-0.0138
-0.039507
-0.046152
-0.049399
-0.043578
-0.042833
-0.049173
-0.040054
-0.032458
-0.035138
-0.045801
-0.051034
-0.026251
-0.038327
-0.058917
-0.065882
-0.077562
-0.054971
-0.052333
-0.035007
-0.040585
-0.018051
-0.02478
-0.00977
0.020166
0.001521
-0.010779
-0.011392
0.005333
0.011037
0.011368
0.018671
-0.007613
-0.010662
-0.008232
-0.014503
-0.027303
-0.024606
-0.009092
-0.001466
0.009895
-0.001503
-0.014256
0.009253
0.004542
0.027457
0.025612
0.022122
0.010064
-0.008607
-0.006111
-0.017088
-0.003168
-0.008972
-0.010647
-0.004399
-0.001599
0.005422
-0.004431
-0.00397
0.009037
0.007159
-0.001439
-0.007418
-0.012473
-0.021679
0.012547
0.032595
0.026659
0.037745
0.041404
-0.041327
-0.062409
-0.010288
-0.040934
-0.047217
0.005326
-0.025557
-0.02555
-0.013217
-0.050588
-0.046379
-0.02429
0.003726
-0.020617
-0.043634
-0.05074
-0.041039
-0.053317
-0.059815
-0.0553
-0.037634
-0.042542
-0.053436
-0.056775
-0.05482
-0.059005
-0.056873
-0.04572
-0.050201
-0.056977
-0.056781
-0.052212
-0.052184
-0.057022
-0.056023
-0.052825
-0.060022
-0.075512
-0.068147
-0.046499
-0.070817
-0.078973
-0.097555
-0.095666
-0.066415
-0.065533
-0.056253
-0.086634
-0.046942
-0.069664
-0.085251
-0.078026
-0.0864
-0.080966
-0.082139
-0.077181
-0.076624
-0.088551
-0.062384
-0.05136
-0.073123
-0.085225
-0.088284
-0.093722
-0.073361
-0.081788
-0.085927
-0.10415
-0.107079
-0.111053
-0.097482
-0.078495
-0.078637
-0.064883
-0.056745
-0.061461
-0.054633
-0.066559
-0.082922
-0.101058
-0.091381
-0.082141
-0.083227
-0.084111
-0.061088
-0.063723
-0.088628
-0.108738
-0.118451
-0.113285
-0.088855
-0.090132
-0.105169
-0.113761
-0.114389
-0.124917
-0.106388
-0.101225
-0.091579
-0.066578
-0.073483
-0.074718
-0.060975
-0.034203
-0.003256
0.011729
0.039144
0.079767
0.07002
0.102551
0.153781
0.181022
0.228087
0.248683
0.284572
0.309931
0.371902
0.377596
0.40866
0.458232
0.499568
0.511841
0.534551
0.511956
0.479086
0.489757
0.472891
0.449579
0.405314
0.338799
0.378288
0.34137
0.319136
0.2811
0.222042
0.23008
0.216131
0.235848
0.22814
0.186696
0.17403
0.155785
0.152044
0.121171
0.09552
0.067616
0.057217
0.057758
0.027794
0.036812
0.040725
0.017157
0.017153
0.019513
0.003304
0.008457
0.003887
-0.032666
-0.042924
-0.041646
-0.041624
-0.049822
-0.033614
-0.03734
-0.035241
-0.034054
-0.032076
-0.025665
-0.039414
-0.040515
-0.013938
-0.024385
-0.022139
-0.007453
-0.007019
-0.007018
-0.0361
-0.046114
-0.030809
-0.059209
-0.048539
-0.039485
-0.037275
-0.047928
-0.071043
-0.066724
-0.073443
-0.046298
-0.037654
-0.046142
-0.063949
-0.054823
-0.039523
-0.039791
-0.062917
-0.045345
-0.035309
-0.037938
-0.042628
-0.047169
-0.043376
-0.061617
-0.061948
-0.058713
-0.069493
-0.066189
-0.045957
-0.038013
-0.044919
-0.026842
-0.026341
-0.018618
-0.016759
-0.014989
-0.027751
-0.027983
-0.032165
-0.037001
-0.055007
-0.050625
-0.026971
-0.058345
-0.031197
-0.032093
-0.028733
-0.040086
-0.049671
-0.052134
-0.039692
-0.041723
-0.040452
-0.038876
-0.038835
-0.048945
-0.064492
-0.076214
-0.04983
-0.048148
-0.053526
-0.066199
-0.063265
-0.059599
-0.040271
-0.060626
-0.078883
-0.09154
-0.083234
-0.044518
-0.036895
-0.026963
-0.034416
-0.049269
-0.043675
-0.042695
-0.042222
-0.045336
-0.044807
-0.051809
-0.052683
-0.039281
-0.013624
-0.03911
-0.019758
-0.043816
-0.071008
-0.030497
-0.023353
-0.018529
-0.012033
-0.02794
-0.022078
-0.039756
-0.05414
-0.034907
-0.044275
-0.046554
-0.001418
0.017832
-0.028834
-0.051244
-0.063631
-0.061078
-0.048887
-0.02468
-0.033742
-0.047115
-0.070768
-0.053571
-0.02296
-0.03562
-0.022732
-0.032358
-0.024657
-0.044086
-0.021246
-0.011341
-0.035322
-0.020908
-0.008159
-0.027217
-0.024856
-0.026707
-0.028029
-0.029582
-0.026711
-0.018293
-0.013083
-0.013861
-0.05999
-0.042802
-0.026861
-0.021372
-0.020106
-0.026639
-0.015272
-0.004406
0.012988
-0.010949
-0.020369
0.001755
-0.001261
-0.019909
-0.011417
-0.007562
-0.010735
0.000639
-0.009692
-0.011673
0.005042
0.018715
0.036222
0.055937
0.042995
0.037466
0.03207
-0.023892
-0.006164
-0.02677
-0.001337
0.009355
0.011795
0.006231
0.012764
0.041639
0.034116
0.006596
-0.013696
0.006782
0.023343
0.03076
0.037347
0.037486
0.059676
0.056184
0.024499
0.032639
0.031717
0.027879
0.022086
0.026266
0.032611
0.035053
0.032331
0.015474
0.023667
0.054201
0.070743
0.054763
0.06406
0.054824
0.055348
0.067395
0.069064
0.04834
0.03259
0.050812
0.047891
0.066492
0.071509
0.074991
0.061397
0.052362
0.035778
0.052016
0.056947
0.052595
0.059933
0.070303
0.067369
0.070111
0.053956
0.074864
0.087724
0.069056
0.06866
0.052152
0.047541
0.016907
-0.005235
0.032604
0.018593
0.025485
0.042784
0.036901
0.006834
-0.024112
-0.018938
0.003602
0.002215
0.015106
0.017711
0.000721
0.002969
0.008006
-0.004201
0.001365
-0.004897
-0.002098
-0.00944
0.001192
-0.015338
-0.041737
-0.025947
-0.019908
-0.041783
-0.051652
-0.045828
-0.032681
-0.037493
-0.041892
-0.052509
-0.039595
-0.036218
-0.042906
-0.040819
-0.0358
-0.054773
-0.044084
-0.029532
-0.021907
-0.056236
-0.080934
-0.098417
-0.088078
-0.075192
-0.061905
-0.063819
-0.055873
-0.072253
-0.106913
-0.088183
-0.049842
-0.021049
-0.050702
-0.06091
-0.052821
-0.052595
-0.059706
-0.084521
-0.075269
-0.065019
-0.06213
-0.063117
-0.046958
-0.059697
-0.039364
-0.057194
-0.072454
-0.049011
-0.081707
-0.112099
-0.088053
-0.079201
-0.077806
-0.074564
-0.03122
-0.062001
-0.086551
-0.08555
-0.075416
-0.089699
-0.107146
-0.087085
-0.05909
-0.042072
-0.066739
-0.079185
-0.091068
-0.099218
-0.084576
-0.060671
-0.043174
-0.052029
-0.064467
-0.074067
-0.071651
-0.077119
-0.067492
-0.07358
-0.085205
-0.092104
-0.075651
-0.109651
-0.091765
-0.067015
-0.060532
-0.072033
-0.066022
-0.067578
-0.066847
-0.073298
-0.086457
-0.073432
-0.051388
-0.087943
-0.113697
-0.090866
-0.083229
-0.087987
-0.089549
-0.109137
-0.099973
-0.084728
-0.063301
-0.047432
-0.031612
-0.027044
-0.030792
-0.021896
-0.040998
-0.037915
-0.040535
-0.055209
-0.066111
-0.062865
-0.054574
-0.041935
-0.068211
-0.065633
-0.064437
-0.06265
-0.044102
-0.047324
-0.062251
-0.073387
-0.065475
-0.060594
-0.067956
-0.071194
-0.052382
-0.049979
-0.056295
-0.049955
-0.058039
-0.066048
-0.051999
-0.056931
-0.062798
-0.080821
-0.075597
-0.06984
-0.059689
-0.07304
-0.123644
-0.107656
-0.068749
-0.064901
-0.045044
-0.029713
-0.03456
-0.007663
-0.016234
-0.015513
-0.027366
-0.051976
-0.059866
-0.052299
-0.048198
-0.054185
-0.048803
-0.036209
-0.025171
-0.015212
-0.049066
-0.015499
-0.022208
-0.025824
-0.036327
-0.043679
-0.079198
-0.054448
-0.0699
-0.060912
-0.057333
-0.042283
-0.036345
-0.044865
-0.052193
-0.044458
-0.054374
-0.061429
-0.06574
-0.041426
-0.058346
-0.058738
-0.064252
-0.052663
-0.063709
-0.05708
-0.042583
-0.039051
-0.043954
-0.042949
-0.052262
-0.045822
-0.046365
-0.056947
-0.059469
-0.064138
-0.082769
-0.085863
-0.064931
-0.072279
-0.100352
-0.053759
-0.014397
-0.020512
-0.034593
-0.0326
-0.03669
-0.05987
-0.05872
-0.061571
-0.051861
-0.054067
-0.053682
-0.038048
-0.058546
-0.068653
-0.073238
-0.068045
-0.054625
-0.057472
-0.079648
-0.111991
-0.104629
-0.084687
-0.076713
-0.067754
-0.060421
-0.075199
-0.071799
-0.11743
-0.112797
-0.068193
-0.057219
-0.029698
-0.030236
-0.033315
-0.05464
-0.087261
-0.074088
-0.047376
-0.036155
-0.05212
-0.060801
-0.044391
-0.054386
-0.048466
-0.081578
-0.061278
-0.047251
-0.056085
-0.032912
-0.034402
-0.066495
-0.062184
-0.078355
-0.068468
-0.058033
-0.037647
-0.071539
-0.052071
-0.082812
-0.082865
-0.070529
-0.094685
-0.100537
-0.079773
-0.062447
-0.056114
-0.061567
-0.044575
-0.031954
-0.039221
-0.042126
-0.045753
-0.065916
-0.079844
-0.079029
-0.071161
-0.093224
-0.050131
-0.071346
-0.065687
-0.072248
-0.063531
-0.058192
-0.059938
-0.070278
-0.069665
-0.070369
-0.085858
-0.078809
-0.0618
-0.061338
-0.082508
-0.089073
-0.080411
-0.077573
-0.081616
-0.072485
-0.081875
-0.117908
-0.078668
-0.074954
-0.06663
-0.072304
-0.047769
-0.042974
-0.040821
-0.044259
-0.039004
-0.030376
-0.040215
-0.050812
-0.076613
-0.050782
-0.069467
-0.086156
-0.064003
-0.097655
-0.116056
-0.109787
-0.096481
-0.052402
-0.027269
-0.050845
-0.091314
-0.110631
-0.09032
-0.078216
-0.076455
-0.092198
-0.125582
-0.086763
-0.096504
-0.127347
-0.107171
-0.112759
-0.125377
-0.096976
-0.043064
-0.03806
-0.043296
-0.04881
-0.059265
-0.056188
-0.070062
-0.073625
-0.076666
-0.079651
-0.067848
-0.067852
-0.092802
-0.077741
-0.070338
-0.080422
-0.071502
-0.074503
-0.084278
-0.062362
-0.055565
-0.049073
-0.092274
-0.094952
-0.086182
-0.088768
-0.092199
-0.085691
-0.069507
-0.07986
-0.098585
-0.089672
-0.085405
-0.043754
-0.027395
-0.036892
-0.059506
-0.083736
-0.079999
-0.035063
-0.019171
-0.065442
-0.079522
-0.061238
-0.052941
-0.073941
-0.079954
-0.074286
-0.080184
-0.073114
-0.084819
-0.079733
-0.079926
-0.070031
-0.074989
-0.097287
-0.116076
-0.069249
-0.07981
-0.079216
-0.058931
-0.063098
-0.072318
-0.076234
-0.084283
-0.074586
-0.067867
-0.082626
-0.083769
-0.077961
-0.064967
-0.048142
-0.047191
-0.02213
-0.046631
-0.091415
-0.087874
-0.098604
-0.07585
-0.039414
-0.04108
-0.052616
-0.069965
-0.066031
-0.058628
-0.065144
-0.037255
-0.041545
-0.051317
-0.062016
-0.042143
-0.058278
-0.070126
-0.037809
-0.041523
-0.05236
-0.053717
-0.028999
-0.017333
-0.010862
-0.022068
-0.015585
-0.024922
-0.016674
-0.018219
-0.000918
-0.023716
-0.042813
-0.037567
-0.032773
-0.029837
-0.019666
-0.037256
-0.020812
-0.012417
-0.020406
-0.010435
-0.003832
-0.0198
-0.03762
-0.030123
-0.011722
-0.004584
-0.00803
0.002047
-0.014401
-0.019079
-0.012591
-0.014105
-0.032212
0.002054
-0.008121
-0.050248
-0.064136
-0.045818
-0.060696
-0.069289
-0.064451
-0.051777
-0.053726
-0.040506
-0.058179
-0.090325
-0.073128
-0.074803
-0.045467
-0.06596
-0.064835
-0.050084
-0.064184
-0.075312
-0.092967
-0.068122
-0.089153
-0.082635
-0.092802
-0.106925
-0.089488
-0.100517
-0.098369
-0.112601
-0.119595
-0.105552
-0.090537
-0.098557
-0.087486
-0.0795
-0.082675
-0.082498
-0.085128
-0.087283
-0.096789
-0.123664
-0.095492
-0.078091
-0.060742
-0.08844
-0.127656
-0.119295
-0.071201
-0.106648
-0.097927
-0.0815
-0.076243
-0.097001
-0.115123
-0.083997
-0.067511
-0.087194
-0.105782
-0.113808
-0.117589
-0.134032
-0.16143
-0.169732
-0.166024
-0.161748
-0.152282
-0.146806
-0.128122
-0.07133
-0.040626
-0.044932
-0.051056
-0.056718
-0.057943
-0.064741
-0.063095
-0.064737
-0.050597
-0.078861
-0.076559
-0.0837
-0.107245
-0.111431
-0.104893
-0.079368
-0.11222
-0.101416
-0.124131
-0.118262
-0.157894
-0.163612
-0.144284
-0.128139
-0.125193
-0.140974
-0.115262
-0.119502
-0.106884
-0.064477
-0.106797
-0.085258
-0.070244
-0.047033
-0.018085
0.010744
0.009052
0.036414
0.044608
0.05903
0.066862
0.094435
0.123819
0.164978
0.224416
0.233832
0.254512
0.271346
0.339847
0.371513
0.407541
0.431422
0.432171
0.441126
0.438758
0.45121
0.45875
0.444936
0.404825
0.395722
0.348792
0.339928
0.326278
0.302277
0.256673
0.222193
0.188589
0.187046
0.201691
0.197934
0.17699
0.191853
0.178583
0.16149
0.144942
0.13357
0.100252
0.047998
-0.023344
-0.009696
0.006474
-0.023249
-0.027083
-0.021318
-0.047869
-0.027764
-0.041531
-0.05213
-0.052106
-0.021076
-0.001678
-0.028479
-0.029807
-0.039581
-0.07376
-0.080051
-0.073293
-0.052267
-0.049224
-0.066206
-0.049699
-0.020968
-0.010429
0.001654
-0.006756
-0.043958
-0.046114
-0.067433
-0.053887
-0.051478
-0.054342
-0.059732
-0.070266
-0.081078
-0.07251
-0.056452
-0.052962
-0.067618
-0.062307
-0.082478
-0.07337
-0.062934
-0.059743
-0.054571
-0.047437
-0.041734
-0.03739
-0.055825
-0.047469
-0.042818
-0.055672
-0.074809
-0.074734
-0.068128
-0.063379
-0.065307
-0.083258
-0.063333
-0.059757
-0.066363
-0.056833
-0.049231
-0.068036
-0.073755
-0.056833
-0.047938
-0.061542
-0.072544
-0.075814
-0.086639
-0.071823
-0.060018
-0.064722
-0.105874
-0.079046
-0.067466
-0.067991
-0.074271
-0.090477
-0.070313
-0.048893
-0.051264
-0.054947
-0.056803
-0.05347
-0.056159
-0.040358
-0.085194
-0.073254
-0.049898
-0.035652
-0.040177
-0.058143
-0.0613
-0.051645
-0.041509
-0.020322
-0.044597
-0.055231
-0.092794
-0.053703
-0.051861
-0.067598
-0.080901
-0.075127
-0.052803
-0.054328
-0.050634
-0.061588
-0.060784
-0.075547
-0.088255
-0.090599
-0.076756
-0.092678
-0.081901
-0.057901
-0.036983
-0.030919
-0.02837
-0.033486
-0.053319
-0.053826
-0.052908
-0.046359
-0.063664
-0.059083
-0.080216
-0.029272
-0.062416
-0.056492
-0.047264
-0.040526
-0.042743
-0.04254
-0.052504
-0.07042
-0.060012
-0.019898
-0.018399
-0.03552
-0.041545
-0.043085
-0.052114
-0.041328
-0.029763
-0.039658
-0.029173
-0.052343
-0.067045
-0.048841
-0.05876
-0.0268
-0.035925
-0.054043
-0.056252
-0.056452
-0.021211
-0.037791
-0.014867
-0.020546
-0.034795
-0.047438
-0.0394
-0.015491
-0.038181
-0.033426
-0.027226
-0.03827
-0.048657
-0.059085
-0.05379
-0.027181
-0.022257
-0.026541
-0.03299
-0.039504
-0.044868
-0.042759
-0.060841
-0.035787
-0.033371
-0.025974
-0.036816
-0.022231
-0.011455
0.00745
-0.000327
0.009771
0.005334
0.005912
0.021088
0.032331
0.016428
0.00993
0.017335
0.001029
0.013395
0.025482
0.027981
0.030491
0.010652
0.035473
0.012734
-0.012945
0.003008
0.028062
0.019406
0.021443
0.027439
0.015669
0.02967
0.049784
0.071171
0.063112
0.020215
0.011581
0.049471
0.06059
0.045762
0.033042
0.006809
0.033934
0.033134
0.022183
0.02161
0.035523
0.04201
0.047097
0.090599
0.08411
0.070551
0.069868
0.066402
0.059637
0.062291
0.053464
0.052544
0.030996
0.02477
0.04478
0.039414
0.02987
0.041955
0.044918
0.04331
0.045626
0.038056
0.030049
0.050041
0.019153
-0.022727
-0.024258
0.003861
0.054601
0.012422
-0.045072
-0.004677
-0.015927
-0.038005
-0.027021
-0.01078
0.029292
0.043517
0.030913
0.015726
0.009177
-0.011443
-0.000887
-0.008635
-0.021118
-0.018312
-0.008415
-0.035194
-0.047481
-0.055644
-0.064956
-0.058006
-0.061945
-0.066706
-0.04744
-0.055464
-0.058525
-0.046063
-0.070245
-0.100999
-0.084642
-0.075
-0.080788
-0.07803
-0.065575
-0.062387
-0.077533
-0.073962
-0.088315
-0.09692
-0.091487
-0.099715
-0.103646
-0.147904
-0.141215
-0.090924
-0.070987
-0.062959
-0.100538
-0.079456
-0.085326
-0.10063
-0.083351
-0.073672
-0.088218
-0.114573
-0.081218
-0.069022
-0.071002
-0.095594
-0.10084
-0.086872
-0.092533
-0.087033
-0.081164
-0.065415
-0.059227
-0.074616
-0.062169
-0.083403
-0.080625
-0.066579
-0.051102
-0.063428
-0.067328
-0.065679
-0.071182
-0.05975
-0.092056
-0.099007
-0.098699
-0.1006
-0.097386
-0.098113
-0.080657
-0.062296
-0.073013
-0.076768
-0.067043
-0.077472
-0.095303
-0.072503
-0.07062
-0.093261
-0.088832
-0.08813
-0.080805
-0.093267
-0.104176
-0.101988
-0.096539
-0.100612
-0.102541
-0.102407
-0.094918
-0.084591
-0.094802
-0.096062
-0.107621
-0.081161
-0.088306
-0.072972
-0.081729
-0.082266
-0.078747
-0.08901
-0.080806
-0.074652
-0.093314
-0.087914
-0.083661
-0.087114
-0.08325
-0.084659
-0.070297
-0.058014
-0.035077
-0.048139
-0.058059
-0.07056
-0.075254
-0.078476
-0.065322
-0.063334
-0.053872
-0.058968
-0.060947
-0.102392
-0.088387
-0.083057
-0.074886
-0.086692
-0.096689
-0.094093
-0.09482
-0.088102
-0.074381
-0.070721
-0.066636
-0.057477
-0.076524
-0.083583
-0.080117
-0.074481
-0.071875
-0.083898
-0.085512
-0.075227
-0.079664
-0.075089
-0.105033
-0.126526
-0.079897
-0.085132
-0.053816
-0.023259
-0.025012
-0.025913
-0.039813
-0.040887
-0.044888
-0.035945
-0.088075
-0.088393
-0.045214
-0.045662
-0.038839
-0.06241
-0.08289
-0.080465
-0.064445
-0.064249
-0.089923
-0.079423
-0.080356
-0.065505
-0.056469
-0.051952
-0.063803
-0.064278
-0.08418
-0.06666
-0.06329
-0.054138
-0.079053
-0.061544
-0.054641
-0.070829
-0.065152
-0.048813
-0.047765
-0.045314
-0.039834
-0.056926
-0.04397
-0.054815
-0.057237
-0.042619
-0.053995
-0.044511
-0.045367
-0.071592
-0.104591
-0.128009
-0.095603
-0.11003
-0.101252
-0.084682
-0.073227
-0.078259
-0.069542
-0.07275
-0.073146
-0.059693
-0.050022
-0.047756
-0.078789
-0.056603
-0.05814
-0.073686
-0.085679
-0.080425
-0.032922
-0.101849
-0.093762
-0.058512
-0.075958
-0.103015
-0.073044
-0.074173
-0.067352
-0.073301
-0.096843
-0.072081
-0.054147
-0.057823
-0.071509
-0.061117
-0.078579
-0.095548
-0.101057
-0.080278
-0.092257
-0.089721
-0.109609
-0.09394
-0.10314
-0.086098
-0.070945
-0.066375
-0.06142
-0.073427
-0.071731
-0.072156
-0.083606
-0.078247
-0.087844
-0.0845
-0.095105
-0.101831
-0.086346
-0.060602
-0.075492
-0.072659
-0.062327
-0.066378
-0.075116
-0.065136
-0.070948
-0.055091
-0.065805
-0.070535
-0.066993
-0.063353
-0.090319
-0.097407
-0.079648
-0.05673
-0.09542
-0.091458
-0.065115
-0.064792
-0.066671
-0.086576
-0.089971
-0.096588
-0.08973
-0.085318
-0.097693
-0.094286
-0.076994
-0.078742
-0.078353
-0.09472
-0.086126
-0.074864
-0.04072
-0.043972
-0.044821
-0.059647
-0.06449
-0.067453
-0.066042
-0.060948
-0.07744
-0.063711
-0.052224
-0.076159
-0.06423
-0.062059
-0.09486
-0.092268
-0.089888
-0.097467
-0.080514
-0.082659
-0.088516
-0.095686
-0.087666
-0.08778
-0.105938
-0.106822
-0.080403
-0.080519
-0.080245
-0.089696
-0.101081
-0.080905
-0.078623
-0.081178
-0.100794
-0.05555
-0.082748
-0.067033
-0.066152
-0.064111
-0.083293
-0.071891
-0.05261
-0.079232
-0.124007
-0.084593
-0.056698
-0.042946
-0.053229
-0.06646
-0.068301
-0.057195
-0.092448
-0.103307
-0.104498
-0.107929
-0.092778
-0.083764
-0.075133
-0.063578
-0.050836
-0.056314
-0.065537
-0.070526
-0.061648
-0.072215
-0.063758
-0.092552
-0.101919
-0.093273
-0.081707
-0.076376
-0.072339
-0.085911
-0.086843
-0.089766
-0.095553
-0.117685
-0.101137
-0.090176
-0.093353
-0.101827
-0.109491
-0.114668
-0.090533
-0.082494
-0.092933
-0.119
-0.108814
-0.116008
-0.09691
-0.108907
-0.102733
-0.10509
-0.109337
-0.108602
-0.083231
-0.065112
-0.056973
-0.066771
-0.063152
-0.065898
-0.071797
-0.060817
-0.055662
-0.069175
-0.07701
-0.058025
-0.065442
-0.085401
-0.12398
-0.09771
-0.090382
-0.096688
-0.133612
-0.12811
-0.107721
-0.095568
-0.054572
-0.037111
-0.04329
-0.049648
-0.05404
-0.053927
-0.07203
-0.059251
-0.039938
-0.031441
-0.022413
-0.03591
-0.049586
-0.045844
-0.031195
-0.034807
-0.044035
-0.045867
-0.047398
-0.052153
-0.062841
-0.057087
-0.048664
-0.043458
-0.047448
-0.046126
-0.045111
-0.012855
-0.018865
-0.034403
-0.005254
-0.030676
-0.054891
-0.052643
-0.036584
-0.005325
-0.048003
-0.026662
-0.028177
-0.016321
-0.011844
-0.023892
0.004916
0.005972
-0.033961
-0.013481
-0.017732
-0.020118
-0.022529
-0.015806
-0.029584
-0.028314
-0.015404
-0.025577
-0.034943
-0.028206
-0.04359
-0.04389
-0.04197
-0.058755
-0.059922
-0.069477
-0.064234
-0.06199
-0.066355
-0.074674
-0.074666
-0.06919
-0.07133
-0.070409
-0.075615
-0.075866
-0.063674
-0.105233
-0.088255
-0.090365
-0.09917
-0.099612
-0.102835
-0.104206
-0.054859
-0.044226
-0.048478
-0.058408
-0.057576
-0.064323
-0.074781
-0.075567
-0.07901
-0.112098
-0.121865
-0.102274
-0.127816
-0.099877
-0.102244
-0.09079
-0.115578
-0.097964
-0.102928
-0.11402
-0.125643
-0.109016
-0.104643
-0.119734
-0.114851
-0.118101
-0.125695
-0.109377
-0.112178
-0.11041
-0.148196
-0.143898
-0.109336
-0.107414
-0.110304
-0.080565
-0.099806
-0.096376
-0.098276
-0.091002
-0.102103
-0.111273
-0.103533
-0.112853
-0.126256
-0.128514
-0.093292
-0.111465
-0.118393
-0.080794
-0.064676
-0.076939
-0.100392
-0.10698
-0.124888
-0.113219
-0.122534
-0.144238
-0.153382
-0.116313
-0.112938
-0.112807
-0.115613
-0.118541
-0.099571
-0.110949
-0.120162
-0.119007
-0.118117
-0.139021
-0.139273
-0.144099
-0.147846
-0.124172
-0.12701
-0.12256
-0.118732
-0.111686
-0.105402
-0.066465
-0.059524
-0.044949
-0.060754
-0.041835
-0.052556
-0.06639
-0.016456
0.033779
0.074816
0.070249
0.076088
0.086262
0.121874
0.180384
0.193857
0.229987
0.283536
0.342792
0.373725
0.405758
0.426849
0.445533
0.48561
0.449003
0.445052
0.47331
0.480088
0.447518
0.414972
0.397874
0.357656
0.346626
0.312872
0.284712
0.212407
0.187529
0.188876
0.164458
0.181135
0.160583
0.200778
0.200068
0.16078
0.156705
0.138982
0.072388
0.058199
0.022757
0.011808
-0.00761
-0.027131
-0.021768
-0.014525
-0.0292
-0.037607
-0.046731
-0.05301
-0.058502
-0.047652
-0.029569
-0.028215
-0.027915
-0.031886
-0.045548
-0.059537
-0.046383
-0.049961
-0.052359
-0.069113
-0.073597
-0.08761
-0.121355
-0.107121
-0.09689
-0.113311
-0.126164
-0.081918
-0.082298
-0.080554
-0.067635
-0.070711
-0.084292
-0.086945
-0.09789
-0.062421
-0.041835
-0.042524
-0.051629
-0.039239
-0.036545
-0.051529
-0.065707
-0.071568
-0.089779
-0.095522
-0.088626
-0.073026
-0.079436
-0.081949
-0.073391
-0.065977
-0.073507
-0.074997
-0.081574
-0.085772
-0.082743
-0.097247
-0.106425
-0.103771
-0.116836
-0.108822
-0.119185
-0.13252
-0.120372
-0.077337
-0.050841
-0.040896
-0.044954
-0.042443
-0.068594
-0.082488
-0.06471
-0.080165
-0.091496
-0.093684
-0.085454
-0.073109
-0.074822
-0.080958
-0.079156
-0.07923
-0.085925
-0.093082
-0.108746
-0.091427
-0.092934
-0.103867
-0.097436
-0.095079
-0.073028
-0.063855
-0.065034
-0.086614
-0.077843
-0.06103
-0.05982
-0.084836
-0.079264
-0.058822
-0.075338
-0.088159
-0.084083
-0.078462
-0.068888
-0.066689
-0.059303
-0.074714
-0.064495
-0.067522
-0.067638
-0.069833
-0.06908
-0.055729
-0.062708
-0.051375
-0.076356
-0.066572
-0.066513
-0.069696
-0.058417
-0.066915
-0.087138
-0.100543
-0.093541
-0.08014
-0.085954
-0.06628
-0.075888
-0.085277
-0.087279
-0.108627
-0.103511
-0.097929
-0.081226
-0.095321
-0.058006
-0.045653
-0.040731
-0.063447
-0.092595
-0.07657
-0.06475
-0.074058
-0.079334
-0.082345
-0.084788
-0.077831
-0.057737
-0.034592
-0.051913
-0.060062
-0.056846
-0.026987
-0.06396
-0.040471
-0.069787
-0.05889
-0.046629
-0.058877
-0.070938
-0.056168
-0.042819
-0.03714
-0.042732
-0.061486
-0.066451
-0.084307
-0.066203
-0.070654
-0.058702
-0.085837
-0.085268
-0.069074
-0.05015
-0.078477
-0.082328
-0.05733
-0.008024
0.022351
-0.007647
-0.027871
-0.025622
-0.021098
-0.017983
-0.00838
-0.005307
-0.01742
0.000159
-0.018312
-0.029291
0.019733
0.042325
0.031727
-0.001392
-0.03144
-0.027112
0.002527
0.008569
0.011633
0.010832
-0.002485
-0.009638
-0.013571
-0.003954
-0.01367
-0.020532
-0.014561
0.022468
0.018678
0.022676
0.02729
0.025619
0.036082
0.023675
0.026891
0.034636
0.023999
0.014444
0.003539
-0.010985
0.015925
0.016629
0.030781
0.031033
0.0233
0.031545
0.013343
0.019784
0.0187
0.002894
0.018593
0.007304
-0.005209
-0.005154
0.021504
0.0239
0.03064
0.019127
0.022428
0.022634
0.021723
0.004114
0.009547
-0.004826
0.012287
-0.00382
-0.030647
-0.024691
-0.02261
-0.020027
-0.000689
0.005638
0.02282
0.020531
0.001475
0.000641
-0.004486
-0.004408
-0.014167
-0.040802
-0.054625
-0.015033
-0.032419
-0.039868
-0.029015
-0.06514
-0.081869
-0.05355
-0.023047
-0.030106
-0.037351
-0.035797
-0.023454
-0.067328
-0.061401
-0.077202
-0.082424
-0.049204
-0.068128
-0.07456
-0.085421
-0.066763
-0.08508
-0.107018
-0.081632
-0.074558
-0.059086
-0.068735
-0.066465
-0.064518
-0.050656
-0.057559
-0.084464
-0.081755
-0.109413
-0.117188
-0.092017
-0.078067
-0.090392
-0.091975
-0.098179
-0.121212
-0.107478
-0.082331
-0.089332
-0.103156
-0.104336
-0.114573
-0.119046
-0.111391
-0.095917
-0.068798
-0.077305
-0.101869
-0.137491
-0.113998
-0.111727
-0.099132
-0.108137
-0.099937
-0.096094
-0.101805
-0.100218
-0.100979
-0.103231
-0.092
-0.09322
-0.146864
-0.130788
-0.110935
-0.094625
-0.081846
-0.091929
-0.099788
-0.096386
-0.10662
-0.085476
-0.087973
-0.112451
-0.117399
-0.138084
-0.167567
-0.140654
-0.119442
-0.114997
-0.10498
-0.093526
-0.081325
-0.098019
-0.098327
-0.094162
-0.097731
-0.112807
-0.125572
-0.119173
-0.113645
-0.111998
-0.110767
-0.135995
-0.128692
-0.132636
-0.116278
-0.115299
-0.120053
-0.124872
-0.132126
-0.136563
-0.138462
-0.103132
-0.081387
-0.066786
-0.046363
-0.076889
-0.083986
-0.090022
-0.111849
-0.096552
-0.118338
-0.07329
-0.051169
-0.065772
-0.068983
-0.087038
-0.09952
-0.094144
-0.086685
-0.095451
-0.092361
-0.09086
-0.077175
-0.094464
-0.09267
-0.095389
-0.085077
-0.109733
-0.100766
-0.095129
-0.114003
-0.121665
-0.111409
-0.081555
-0.067186
-0.060341
-0.090091
-0.077901
-0.09663
-0.088087
-0.081184
-0.068914
-0.065653
-0.069694
-0.059249
-0.062117
-0.095198
-0.078852
-0.047537
-0.045099
-0.053565
-0.073995
-0.089651
-0.094808
-0.11145
-0.105782
-0.098755
-0.081365
-0.076118
-0.08233
-0.079293
-0.096391
-0.098825
-0.108714
-0.126711
-0.130029
-0.131205
-0.123448
-0.119082
-0.10685
-0.073975
-0.047921
-0.068578
-0.056928
-0.092811
-0.084537
-0.05533
-0.068161
-0.088863
-0.071753
-0.074906
-0.105143
-0.082066
-0.084536
-0.088348
-0.107427
-0.098302
-0.097952
-0.098649
-0.085608
-0.089906
-0.075193
-0.079141
-0.092458
-0.100873
-0.078542
-0.083048
-0.111952
-0.094286
-0.105283
-0.101565
-0.109107
-0.109246
-0.105942
-0.107527
-0.100125
-0.0881
-0.09006
-0.075838
-0.093073
-0.085606
-0.074858
-0.084107
-0.087774
-0.083589
-0.094475
-0.066682
-0.076771
-0.089535
-0.118397
-0.128594
-0.106962
-0.107265
-0.128614
-0.110244
-0.105465
-0.113919
-0.092996
-0.069172
-0.080361
-0.082955
-0.094031
-0.099059
-0.097434
-0.076173
-0.072181
-0.087162
-0.068359
-0.085714
-0.104655
-0.096684
-0.104984
-0.099531
-0.086005
-0.07979
-0.062371
-0.109842
-0.090596
-0.097697
-0.108886
-0.087236
-0.089679
-0.080867
-0.099726
-0.082961
-0.083898
-0.081622
-0.088414
-0.100168
-0.132242
-0.128928
-0.132844
-0.120174
-0.085673
-0.083308
-0.097478
-0.082792
-0.100391
-0.082966
-0.086645
-0.117577
-0.078435
-0.074882
-0.103505
-0.104724
-0.092974
-0.093355
-0.092924
-0.098014
-0.10321
-0.083852
-0.055735
-0.040996
-0.068482
-0.079573
-0.087533
-0.096651
-0.099803
-0.105712
-0.119405
-0.134806
-0.120839
-0.126453
-0.134673
-0.124311
-0.098622
-0.128647
-0.128746
-0.115585
-0.083863
-0.076333
-0.106249
-0.09672
-0.095733
-0.095947
-0.090508
-0.078226
-0.07582
-0.069081
-0.086103
-0.103786
-0.092543
-0.093943
-0.10517
-0.119987
-0.113756
-0.112142
-0.091247
-0.080888
-0.102947
-0.112912
-0.123485
-0.112837
-0.104303
-0.085785
-0.089739
-0.106468
-0.100342
-0.083305
-0.085733
-0.08689
-0.095354
-0.099383
-0.098561
-0.117321
-0.114088
-0.125128
-0.119939
-0.124897
-0.129718
-0.134132
-0.11114
-0.099728
-0.10708
-0.09229
-0.084976
-0.090974
-0.086227
-0.094132
-0.090611
-0.090907
-0.109395
-0.107011
-0.104301
-0.102199
-0.112814
-0.118189
-0.109651
-0.097895
-0.111382
-0.097552
-0.0976
-0.070048
-0.08893
-0.1096
-0.112953
-0.108414
-0.094997
-0.084732
-0.088552
-0.102624
-0.083961
-0.080965
-0.085027
-0.093911
-0.095641
-0.081163
-0.065059
-0.070641
-0.090465
-0.083742
-0.085298
-0.106095
-0.066769
-0.08048
-0.131905
-0.124742
-0.118636
-0.111099
-0.093621
-0.112829
-0.136359
-0.142228
-0.13961
-0.140888
-0.136579
-0.118828
-0.097392
-0.084613
-0.065508
-0.061802
-0.058948
-0.07345
-0.079514
-0.082169
-0.090253
-0.127428
-0.123164
-0.122374
-0.096017
-0.100485
-0.11649
-0.097405
-0.089554
-0.100643
-0.098406
-0.102648
-0.111779
-0.103273
-0.103534
-0.115374
-0.142666
-0.116678
-0.092401
-0.116093
-0.125075
-0.101184
-0.079641
-0.080357
-0.096416
-0.117652
-0.106538
-0.109208
-0.121243
-0.125271
-0.107969
-0.09358
-0.090929
-0.096721
-0.107395
-0.101664
-0.09394
-0.12622
-0.130056
-0.094627
-0.086401
-0.110496
-0.111787
-0.105091
-0.099023
-0.091974
-0.10249
-0.096216
-0.110378
-0.080086
-0.096095
-0.118047
-0.104044
-0.092812
-0.123657
-0.100548
-0.096034
-0.10239
-0.092943
-0.083107
-0.085812
-0.086549
-0.066363
-0.066817
-0.067993
-0.069892
-0.069743
-0.0613
-0.06179
-0.041243
-0.044394
-0.041538
-0.044693
-0.052376
-0.055358
-0.066673
-0.075392
-0.055333
-0.045775
-0.048788
-0.049211
-0.059541
-0.059437
-0.057867
-0.050157
-0.056453
-0.070158
-0.059197
-0.072447
-0.123512
-0.063687
-0.066493
-0.101804
-0.10396
-0.065055
-0.061266
-0.042759
-0.018124
-0.03484
-0.024202
-0.029827
-0.050664
-0.030455
-0.001867
-0.010806
-0.032917
-0.045264
-0.058151
-0.053721
-0.038709
-0.034148
-0.02041
-0.075593
-0.067494
-0.064868
-0.08105
-0.097487
-0.087779
-0.080754
-0.096362
-0.080755
-0.090894
-0.100623
-0.100502
-0.095969
-0.112036
-0.132875
-0.092967
-0.096884
-0.089894
-0.071907
-0.074231
-0.087053
-0.094346
-0.099881
-0.083836
-0.065715
-0.08036
-0.091479
-0.101177
-0.090191
-0.112364
-0.075407
-0.065852
-0.090118
-0.086942
-0.085989
-0.093751
-0.10831
-0.122471
-0.121492
-0.150063
-0.130206
-0.124434
-0.124056
-0.109736
-0.113688
-0.121711
-0.138663
-0.135573
-0.128492
-0.136739
-0.128358
-0.129777
-0.149819
-0.140502
-0.11468
-0.094708
-0.094168
-0.082518
-0.12135
-0.079357
-0.092098
-0.117622
-0.106964
-0.099682
-0.121749
-0.145264
-0.132001
-0.126218
-0.118104
-0.119241
-0.099329
-0.09479
-0.092042
-0.089241
-0.083384
-0.077273
-0.106392
-0.129491
-0.122383
-0.13504
-0.140453
-0.121494
-0.101481
-0.09922
-0.107197
-0.11468
-0.112039
-0.109875
-0.118841
-0.134889
-0.125069
-0.118789
-0.161956
-0.152564
-0.158113
-0.156973
-0.178549
-0.152245
-0.148489
-0.174909
-0.148943
-0.138363
-0.11671
-0.092845
-0.099284
-0.082068
-0.05431
-0.051069
-0.029829
0.006481
0.036272
0.082298
0.117029
0.140799
0.148327
0.166946
0.17885
0.219586
0.252728
0.301529
0.331662
0.383797
0.423153
0.420725
0.42844
0.449935
0.442067
0.444276
0.439011
0.421301
0.384441
0.336138
0.31245
0.312403
0.297439
0.253936
0.17502
0.174253
0.170122
0.17553
0.176109
0.181263
0.175016
0.14217
0.147419
0.124513
0.09784
0.061012
0.024868
0.033485
0.001772
-0.009983
-0.021305
-0.002656
-0.007272
-0.037663
-0.025473
-0.021018
-0.02382
-0.017918
-0.032686
-0.056559
-0.076427
-0.050646
-0.047567
-0.065268
-0.059292
-0.060793
-0.052297
-0.065131
-0.064175
-0.062754
-0.066346
-0.087154
-0.07248
-0.067813
-0.038881
-0.045543
-0.0543
-0.04946
-0.05875
-0.080816
-0.092499
-0.087319
-0.086376
-0.075107
-0.0523
-0.067364
-0.041788
-0.051471
-0.066737
-0.063886
-0.066722
-0.109856
-0.097205
-0.076624
-0.087961
-0.105831
-0.074227
-0.07908
-0.058795
-0.097337
-0.108198
-0.109972
-0.1041
-0.088359
-0.077789
-0.080034
-0.076372
-0.061488
-0.070443
-0.050913
-0.043431
-0.042204
-0.06717
-0.11029
-0.096552
-0.095465
-0.103509
-0.096497
-0.080444
-0.06417
-0.073455
-0.064617
-0.0608
-0.072195
-0.076243
-0.073135
-0.084757
-0.103625
-0.103886
-0.075729
-0.100781
-0.099704
-0.087978
-0.117272
-0.091945
-0.089505
-0.113103
-0.118818
-0.149611
-0.129557
-0.095136
-0.074624
-0.074135
-0.045685
-0.053409
-0.027271
-0.010515
-0.032945
-0.029892
-0.037209
-0.057274
-0.095327
-0.089025
-0.082011
-0.084161
-0.094092
-0.088568
-0.070239
-0.061694
-0.077283
-0.074814
-0.078219
-0.056727
-0.076412
-0.089393
-0.077272
-0.047799
-0.064287
-0.057105
-0.055806
-0.063456
-0.056872
-0.079292
-0.077642
-0.050358
-0.063999
-0.054442
-0.065701
-0.074763
-0.059808
-0.058473
-0.075234
-0.079099
-0.064135
-0.059487
-0.072997
-0.045929
-0.039943
-0.031074
-0.063329
-0.048068
-0.054631
-0.037676
-0.046008
-0.064123
-0.046909
-0.059099
-0.068683
-0.061549
-0.051743
-0.042238
-0.051761
-0.055175
-0.054693
-0.074625
-0.058125
-0.037347
-0.033025
-0.057873
-0.065455
-0.048078
-0.03583
-0.031473
-0.055732
-0.042704
-0.049928
-0.064882
-0.065901
-0.053119
-0.037767
-0.037389
-0.038512
-0.043396
-0.02712
-0.044231
-0.038161
-0.039159
-0.058681
-0.039477
-0.039095
-0.048356
-0.04701
-0.060333
-0.044225
-0.038851
-0.040838
-0.039111
-0.022175
-0.036288
-0.019779
-0.01721
-0.008016
-0.003363
0.016035
0.002039
0.003438
-0.049864
0.006605
0.015511
-0.010454
0.004919
0.008709
-0.007694
0.017544
0.027515
0.020499
0.03259
0.036596
0.030571
0.017334
-0.016603
-0.000974
0.018122
-0.002224
-0.014915
-0.025822
-0.01454
0.000273
0.027046
0.025805
0.039979
0.05536
0.0411
0.039396
0.024796
0.037952
0.035081
0.027982
0.043319
0.051053
0.053141
0.049463
0.05101
0.058954
0.054431
0.056114
0.052762
0.059454
0.043853
0.041449
0.056366
0.040393
0.023227
0.024319
-0.003597
0.031231
-0.006392
0.016871
0.023307
0.006709
0.024696
0.003729
-0.001622
0.033803
0.021301
0.031391
0.018458
0.015128
0.026264
0.016929
-0.022018
-0.043662
-0.03438
-0.005396
-0.011138
-0.055452
-0.080938
-0.07666
-0.081699
-0.071618
-0.030684
-0.036973
-0.055368
-0.055926
-0.046139
-0.048331
-0.049771
-0.025598
-0.017992
-0.031406
-0.046965
-0.062687
-0.07065
-0.092206
-0.085972
-0.089649
-0.088617
-0.092935
-0.087683
-0.097911
-0.110799
-0.107135
-0.066287
-0.06098
-0.075162
-0.062694
-0.066744
-0.068769
-0.079072
-0.086693
-0.081455
-0.080872
-0.068151
-0.068996
-0.062571
-0.09023
-0.118707
-0.1372
-0.129562
-0.120365
-0.124813
-0.120168
-0.134367
-0.140036
-0.144676
-0.119751
-0.098425
-0.099445
-0.111669
-0.109558
-0.080761
-0.083042
-0.108656
-0.119313
-0.143009
-0.108769
-0.11565
-0.113778
-0.108166
-0.105167
-0.114315
-0.107608
-0.096645
-0.110059
-0.123698
-0.109793
-0.094325
-0.080086
-0.083714
-0.088245
-0.087593
-0.100836
-0.103134
-0.094118
-0.09939
-0.096157
-0.104685
-0.099792
-0.119008
-0.106374
-0.096486
-0.131994
-0.110961
-0.106807
-0.10095
-0.112097
-0.132138
-0.098224
-0.104557
-0.088357
-0.084113
-0.095364
-0.096798
-0.098577
-0.093565
-0.109424
-0.118519
-0.09199
-0.083692
-0.102867
-0.118057
-0.123971
-0.107246
-0.10105
-0.110461
-0.0972
-0.092869
-0.098107
-0.088042
-0.101286
-0.098893
-0.092134
-0.065875
-0.070106
-0.05426
-0.059182
-0.060953
-0.09529
-0.084619
-0.09006
-0.090339
-0.084542
-0.083078
-0.059772
-0.066049
-0.081665
-0.079853
-0.065805
-0.072571
-0.070391
-0.090373
-0.087754
-0.095614
-0.121073
-0.088939
-0.091588
-0.103969
-0.126479
-0.150261
-0.075237
-0.059448
-0.067634
-0.076129
-0.077838
-0.067956
-0.074718
-0.072382
-0.082344
-0.071877
-0.075433
-0.087012
-0.07664
-0.061959
-0.080982
-0.107849
-0.124059
-0.12484
-0.133008
-0.131916
-0.124129
-0.088266
-0.066427
-0.059881
-0.034326
-0.050429
-0.068908
-0.058983
-0.061211
-0.041534
-0.06641
-0.061077
-0.068679
-0.069431
-0.090396
-0.090729
-0.079379
-0.087999
-0.062738
-0.057271
-0.05984
-0.081457
-0.08429
-0.069896
-0.086743
-0.097093
-0.081702
-0.085919
-0.099412
-0.083418
-0.107433
-0.117168
-0.100773
-0.11684
-0.117623
-0.123694
-0.098382
-0.091744
-0.12374
-0.103911
-0.096226
-0.092218
-0.090769
-0.087507
-0.071046
-0.078097
-0.069929
-0.080216
-0.081718
-0.074899
-0.100037
-0.097949
-0.084071
-0.086251
-0.090362
-0.081622
-0.106427
-0.107882
-0.091602
-0.098863
-0.075327
-0.089045
-0.103186
-0.09105
-0.084502
-0.089983
-0.099375
-0.08814
-0.110229
-0.093685
-0.08456
-0.077717
-0.066954
-0.088057
-0.113401
-0.099836
-0.101573
-0.090685
-0.087951
-0.109157
-0.095042
-0.085644
-0.083975
-0.089581
-0.104324
-0.073209
-0.044903
-0.078869
-0.105523
-0.112848
-0.110117
-0.094776
-0.098397
-0.112715
-0.095408
-0.072173
-0.072842
-0.090245
-0.084816
-0.090032
-0.087761
-0.130109
-0.162903
-0.13419
-0.12871
-0.124349
-0.090227
-0.066847
-0.11488
-0.126777
-0.107587
-0.113785
-0.098129
-0.095724
-0.103029
-0.096321
-0.097076
-0.09074
-0.101623
-0.098748
-0.082151
-0.085882
-0.086911
-0.097407
-0.092358
-0.082422
-0.098402
-0.100212
-0.107647
-0.117133
-0.10146
-0.086895
-0.089576
-0.077985
-0.093846
-0.12253
-0.088095
-0.083975
-0.116458
-0.114977
-0.087638
-0.103873
-0.107051
-0.10323
-0.0966
-0.112662
-0.140936
-0.118548
-0.152009
-0.130523
-0.084106
-0.103169
-0.112772
-0.092586
-0.095592
-0.119815
-0.111608
-0.104199
-0.117874
-0.094831
-0.109481
-0.113962
-0.103827
-0.098395
-0.084694
-0.081796
-0.085438
-0.09355
-0.101287
-0.112806
-0.122413
-0.116374
-0.122047
-0.120328
-0.105708
-0.079283
-0.063882
-0.073018
-0.056559
-0.079847
-0.067746
-0.116753
-0.08502
-0.072939
-0.087727
-0.083928
-0.062759
-0.084566
-0.101236
-0.123888
-0.140505
-0.133114
-0.107699
-0.110488
-0.100372
-0.113998
-0.131107
-0.126698
-0.107485
-0.090726
-0.100673
-0.10178
-0.105506
-0.097162
-0.094085
-0.108499
-0.110258
-0.098325
-0.109581
-0.116401
-0.112772
-0.110075
-0.105844
-0.111906
-0.120884
-0.108664
-0.083183
-0.043519
-0.068744
-0.104955
-0.104432
-0.097039
-0.095966
-0.098516
-0.08974
-0.087887
-0.088134
-0.083659
-0.107913
-0.115772
-0.095768
-0.106243
-0.08667
-0.080429
-0.100912
-0.086308
-0.106749
-0.088975
-0.100246
-0.132766
-0.123883
-0.123993
-0.130339
-0.124669
-0.116154
-0.07719
-0.069428
-0.063164
-0.076912
-0.068853
-0.076589
-0.085642
-0.076387
-0.109819
-0.10623
-0.131718
-0.127284
-0.152217
-0.106842
-0.105122
-0.097538
-0.115345
-0.099788
-0.078684
-0.073648
-0.074215
-0.092928
-0.084183
-0.092938
-0.096527
-0.078649
-0.084432
-0.104097
-0.104821
-0.116584
-0.098712
-0.080035
-0.085799
-0.079612
-0.092996
-0.066232
-0.059961
-0.118845
-0.109799
-0.097958
-0.082391
-0.088977
-0.091529
-0.085108
-0.076012
-0.08388
-0.063714
-0.094203
-0.091734
-0.095146
-0.102511
-0.091624
-0.095153
-0.103255
-0.104835
-0.123133
-0.108648
-0.121823
-0.104396
-0.099652
-0.092935
-0.088405
-0.104777
-0.085818
-0.08102
-0.103552
-0.115865
-0.120852
-0.10158
-0.107951
-0.135017
-0.126783
-0.13697
-0.096611
-0.126531
-0.124165
-0.075554
-0.081241
-0.078632
-0.091406
-0.070009
-0.04547
-0.057516
-0.049462
-0.066386
-0.079839
-0.076832
-0.097202
-0.076898
-0.064938
-0.064003
-0.071633
-0.089593
-0.054408
-0.033807
-0.04291
-0.044081
-0.047081
-0.038304
-0.049988
-0.044956
-0.016933
-0.021105
-0.054994
-0.018708
-0.00896
-0.056799
-0.044471
-0.062437
-0.061819
-0.074274
-0.065881
-0.046928
-0.069665
-0.050166
-0.019269
-0.045837
-0.046349
-0.039926
-0.029483
-0.027445
-0.045702
-0.04606
-0.058701
-0.048173
-0.060302
-0.066736
-0.06925
-0.042482
-0.044506
-0.085407
-0.049066
-0.039563
-0.025127
-0.031266
-0.029789
-0.026208
-0.028049
-0.028351
-0.026899
-0.038847
-0.028945
-0.01189
-0.050921
-0.083653
-0.073231
-0.070813
-0.082414
-0.082373
-0.06527
-0.056307
-0.038399
-0.044554
-0.143866
-0.114838
-0.109028
-0.119013
-0.115901
-0.106662
-0.116903
-0.100564
-0.072452
-0.080877
-0.094011
-0.089075
-0.085452
-0.053205
-0.078196
-0.079295
-0.060864
-0.081545
-0.082121
-0.067474
-0.10809
-0.100998
-0.122358
-0.089314
-0.089906
-0.078534
-0.080086
-0.089373
-0.069991
-0.0886
-0.088748
-0.060224
-0.064529
-0.105522
-0.125687
-0.136011
-0.141235
-0.125993
-0.094979
-0.103268
-0.10482
-0.094763
-0.104725
-0.099667
-0.101153
-0.1053
-0.127892
-0.148916
-0.106054
-0.090366
-0.11752
-0.137972
-0.095055
-0.110354
-0.105917
-0.135169
-0.124892
-0.127892
-0.123519
-0.117498
-0.107003
-0.097656
-0.104628
-0.12574
-0.126471
-0.095445
-0.10362
-0.105147
-0.100842
-0.13821
-0.129515
-0.122337
-0.125935
-0.096703
-0.111125
-0.158571
-0.146809
-0.132232
-0.169807
-0.180766
-0.187777
-0.173094
-0.190168
-0.16035
-0.178377
-0.124961
-0.091786
-0.098921
-0.084605
-0.063
-0.104051
-0.110969
-0.094269
-0.093679
-0.061291
-0.028258
0.001283
0.025094
0.029941
0.08947
0.098954
0.144028
0.180119
0.187389
0.228718
0.294491
0.325784
0.363318
0.388896
0.452124
0.463036
0.460181
0.474404
0.491595
0.464921
0.444827
0.408705
0.398371
0.369877
0.378312
0.384457
0.356002
0.337672
0.311576
0.26799
0.239269
0.226016
0.199942
0.193003
0.168301
0.133153
0.124025
0.119772
0.099941
0.081436
0.05564
0.004337
-0.005461
-0.009652
-0.047533
-0.043946
-0.038755
-0.062765
-0.076038
-0.039132
-0.024379
-0.03384
-0.076514
-0.057066
-0.052938
-0.065373
-0.073475
-0.056977
-0.058299
-0.06349
-0.058864
-0.072194
-0.082923
-0.107186
-0.103057
-0.094339
-0.024348
-0.00147
-0.075778
-0.049403
-0.030419
-0.050813
-0.045456
-0.028394
-0.060549
-0.095289
-0.074293
-0.059663
-0.069846
-0.089248
-0.077738
-0.081172
-0.08679
-0.088321
-0.088664
-0.089879
-0.080759
-0.052747
-0.053643
-0.062027
-0.07351
-0.070335
-0.083882
-0.082936
-0.068256
-0.06365
-0.074308
-0.063377
-0.0839
-0.079371
-0.084568
-0.10304
-0.075922
-0.079599
-0.076207
-0.075819
-0.07497
-0.05634
-0.051224
-0.054585
-0.04476
-0.029731
-0.029747
-0.026768
-0.058096
-0.045367
-0.065437
-0.093045
-0.107173
-0.058967
-0.042748
-0.087859
-0.087172
-0.076981
-0.074833
-0.061274
-0.071133
-0.053172
-0.062361
-0.04356
-0.031869
-0.033984
-0.030261
-0.023265
-0.042361
-0.035108
-0.043052
-0.034379
-0.042046
-0.038953
-0.044515
-0.076846
-0.059326
-0.06548
-0.049582
-0.051558
-0.089479
-0.06414
-0.055969
-0.050736
-0.038515
-0.057242
-0.070136
-0.091703
-0.065992
-0.052218
-0.069693
-0.070502
-0.062234
-0.052301
-0.051709
-0.041551
-0.058243
-0.054332
-0.092206
-0.093382
-0.047587
-0.037713
-0.048202
-0.055361
-0.050458
-0.040442
-0.058558
-0.066333
-0.054785
-0.062834
-0.067594
-0.061223
-0.055762
-0.065324
-0.073597
-0.074979
-0.055246
-0.058177
-0.053471
-0.049064
-0.068904
-0.075013
-0.06313
-0.058607
-0.04885
-0.059885
-0.025874
-0.017773
-0.026993
-0.04504
-0.037293
-0.034076
-0.024835
-0.02681
-0.025326
-0.024897
-0.020042
-0.058498
-0.067041
-0.027841
-0.015722
-0.016384
-0.020792
-0.007443
-0.045143
-0.018504
-0.024351
-0.003862
-0.0056
-0.01314
-0.026746
-0.02698
-0.046473
-0.055801
-0.029416
-0.012686
-0.003981
-0.003169
0.011198
-0.025766
-0.017049
0.005491
0.002145
0.007379
0.030021
0.034927
0.009787
0.008816
0.01584
0.023403
0.029405
0.027042
0.0448
0.029148
0.030981
0.027865
0.033208
0.052468
0.035455
0.02056
-0.0024
0.019652
0.057409
0.047936
0.046769
0.054228
0.062532
0.033689
0.033733
0.031316
0.056234
0.07218
0.086766
0.089795
0.0784
0.07507
0.072187
0.080692
0.072093
0.055218
0.056131
0.050777
0.08702
0.039405
0.027037
0.045528
0.074829
0.062669
0.065986
0.092801
0.063426
0.070823
0.05867
0.058974
0.077598
0.050533
0.034285
0.063399
0.08194
0.089794
0.081203
0.067482
0.067845
0.032518
0.03145
0.076964
0.076793
0.048731
0.066355
0.069311
0.049584
0.038772
0.026886
0.018279
0.009664
0.023619
-0.004184
-0.028373
0.015522
0.027576
-0.006703
0.024798
0.046156
0.024042
0.018637
0.026149
0.017829
-0.011643
-0.001243
-0.006877
-0.026489
-0.038187
-0.043739
-0.042582
-0.046386
-0.038759
-0.030547
-0.031867
-0.024767
-0.024658
-0.053641
-0.054635
-0.040662
-0.026517
-0.008047
-0.013029
-0.0232
-0.040982
-0.039479
-0.034068
-0.034946
-0.07571
-0.076947
-0.068571
-0.054227
-0.072651
-0.093432
-0.149292
-0.09757
-0.067602
-0.070676
-0.057544
-0.064477
-0.04759
-0.051263
-0.066591
-0.06582
-0.048427
-0.079244
-0.075244
-0.080055
-0.092795
-0.094811
-0.076088
-0.075008
-0.068262
-0.076757
-0.086352
-0.072096
-0.085362
-0.072862
-0.062832
-0.066259
-0.085216
-0.074346
-0.093531
-0.10451
-0.091154
-0.086141
-0.091596
-0.086706
-0.091913
-0.106693
-0.131213
-0.135015
-0.111101
-0.102605
-0.097053
-0.085016
-0.054436
-0.048853
-0.059308
-0.072739
-0.078875
-0.089583
-0.104171
-0.114844
-0.097908
-0.085354
-0.064185
-0.056706
-0.063092
-0.056575
-0.060103
-0.066159
-0.079709
-0.111259
-0.092228
-0.056961
-0.063858
-0.103861
-0.090187
-0.072861
-0.084836
-0.097945
-0.074082
-0.071587
-0.060652
-0.062995
-0.05928
-0.041484
-0.066202
-0.057527
-0.053312
-0.056422
-0.048375
-0.059754
-0.057571
-0.068581
-0.085169
-0.077506
-0.045836
-0.033228
-0.040133
-0.068966
-0.051229
-0.067006
-0.053546
-0.040767
-0.072608
-0.059799
-0.055204
-0.056667
-0.075135
-0.075684
-0.060768
-0.069989
-0.071677
-0.074577
-0.040415
-0.05133
-0.064908
-0.053952
-0.023115
-0.030703
-0.069222
-0.072626
-0.063579
-0.053195
-0.042182
-0.044482
-0.047327
-0.057071
-0.042042
-0.046871
-0.056452
-0.064001
-0.073507
-0.090349
-0.117497
-0.068972
-0.057948
-0.051622
-0.077594
-0.074487
-0.084679
-0.08247
-0.066543
-0.056976
-0.060028
-0.051381
-0.025489
-0.039251
0.00495
0.000976
-0.020991
-0.051855
-0.054725
-0.046885
-0.047259
-0.04533
-0.060172
-0.07035
-0.075843
-0.052156
-0.081377
-0.06527
-0.052735
-0.052086
-0.063835
-0.101893
-0.079804
-0.048295
-0.032484
-0.028525
-0.035722
-0.060363
-0.042381
-0.032955
-0.056619
-0.064159
-0.069382
-0.064162
-0.060825
-0.048257
-0.053704
-0.059451
-0.06402
-0.058038
-0.031252
-0.057683
-0.041775
-0.059452
-0.063463
-0.06233
-0.090136
-0.084319
-0.083106
-0.029942
-0.022877
-0.055049
-0.053296
-0.055316
-0.06339
-0.058699
-0.076155
-0.085239
-0.070889
-0.058526
-0.08198
-0.087429
-0.082838
-0.101418
-0.080534
-0.087232
-0.064294
-0.083098
-0.058991
-0.048023
-0.029567
-0.027877
-0.021934
-0.000486
-0.046376
-0.099611
-0.10537
-0.064664
-0.001367
-0.032103
-0.054477
-0.046336
-0.071266
-0.078931
-0.087324
-0.094603
-0.071483
-0.052574
-0.083424
-0.090726
-0.035958
-0.047143
-0.038098
-0.026209
-0.026713
-0.033742
-0.03747
-0.080169
-0.07445
-0.068474
-0.057982
-0.04657
-0.048675
-0.057636
-0.054885
-0.07442
-0.093219
-0.09176
-0.068367
-0.096445
-0.091009
-0.058261
-0.034611
-0.052087
-0.04758
-0.069677
-0.072164
-0.093673
-0.040536
-0.035307
-0.0772
-0.06792
-0.075543
-0.087264
-0.077292
-0.069373
-0.063835
-0.062399
-0.058553
-0.050921
-0.041215
-0.06129
-0.054145
-0.045465
-0.030525
-0.046089
-0.098342
-0.067959
-0.026545
-0.066365
-0.061766
-0.078214
-0.081285
-0.069656
-0.06031
-0.08095
-0.050669
-0.082168
-0.048278
-0.030999
-0.060882
-0.059479
-0.048147
-0.068962
-0.097244
-0.065323
-0.065036
-0.074448
-0.088239
-0.09651
-0.106357
-0.105879
-0.104899
-0.093285
-0.070916
-0.056812
-0.040686
-0.03258
-0.018934
-0.043908
-0.070562
-0.080316
-0.051184
-0.058613
-0.064324
-0.05618
-0.051401
-0.045428
-0.038935
-0.066421
-0.10523
-0.11088
-0.102199
-0.098994
-0.097859
-0.074194
-0.053756
-0.023884
-0.031139
-0.030415
-0.033023
-0.048468
-0.060737
-0.049581
-0.051783
-0.053191
-0.066209
-0.038096
-0.065235
-0.067137
-0.05684
-0.04641
-0.050728
-0.060774
-0.057729
-0.058295
-0.055988
-0.060939
-0.067371
-0.083444
-0.080965
-0.07058
-0.06681
-0.065194
-0.073044
-0.077699
-0.059866
-0.039607
-0.05704
-0.060077
-0.056773
-0.075336
-0.053869
-0.068176
-0.084844
-0.081465
-0.080215
-0.052551
-0.036951
-0.068764
-0.045936
-0.044639
-0.068053
-0.065914
-0.07498
-0.075299
-0.08107
-0.069038
-0.063915
-0.07377
-0.084244
-0.066487
-0.073417
-0.068421
-0.057866
-0.079981
-0.078902
-0.06352
-0.059032
-0.003697
-0.006306
-0.029487
-0.039065
-0.087859
-0.073979
-0.040332
-0.04735
-0.061198
-0.041233
-0.051371
-0.050003
-0.032494
-0.022841
-0.037855
-0.044431
-0.050649
-0.05698
-0.07256
-0.080994
-0.065459
-0.063471
-0.056519
-0.060577
-0.04291
-0.039143
-0.061535
-0.051099
-0.057783
-0.043788
-0.047255
-0.047209
-0.063991
-0.050258
-0.056621
-0.035135
-0.017842
-0.016543
-0.034177
-0.025513
-0.03144
-0.042968
-0.02314
-0.021196
-0.038776
-0.065828
-0.020769
-0.014787
-0.017586
-0.008008
-0.017891
-0.028151
-0.033515
-0.010654
-0.011191
-0.009877
-0.015041
-0.003775
-0.010353
-0.011347
0.003522
0.0125
0.001135
-0.006645
0.017306
0.020711
0.032569
0.000881
-0.002828
-0.011745
-0.029746
-0.005234
-0.017564
-0.048546
-0.04907
-0.045307
-0.028199
-0.030696
-0.054624
-0.008128
-0.008696
0.00072
-0.006077
-0.021809
-0.007395
-0.02727
-0.034001
-0.059315
-0.056962
-0.029967
-0.035324
-0.032884
-0.035651
-0.043521
-0.052267
-0.092191
-0.128153
-0.102
-0.093961
-0.061086
-0.03532
-0.057682
-0.063626
-0.060403
-0.09049
-0.07451
-0.040264
-0.068852
-0.063917
-0.034672
-0.035537
-0.061399
-0.075104
-0.07488
-0.053635
-0.063653
-0.088829
-0.095754
-0.083741
-0.076775
-0.067773
-0.087684
-0.10681
-0.077472
-0.101674
-0.089159
-0.064066
-0.083079
-0.065314
-0.062219
-0.063576
-0.061088
-0.053562
-0.064018
-0.077145
-0.084909
-0.081206
-0.060112
-0.02947
-0.040585
-0.074799
-0.09738
-0.118266
-0.106361
-0.101318
-0.083351
-0.078871
-0.084396
-0.082234
-0.079346
-0.074386
-0.079071
-0.069711
-0.088466
-0.080817
-0.072377
-0.093869
-0.085638
-0.093422
-0.095297
-0.119152
-0.134316
-0.120674
-0.102558
-0.102931
-0.104292
-0.108392
-0.121119
-0.11963
-0.10501
-0.1106
-0.126246
-0.107908
-0.125276
-0.113665
-0.095306
-0.089094
-0.082116
-0.055416
-0.041133
-0.051101
-0.069885
-0.041827
-0.013217
-0.008575
0.057497
0.082366
0.111479
0.116508
0.153596
0.181028
0.181314
0.201645
0.234247
0.255777
0.299212
0.3363
0.35459
0.381262
0.423942
0.446671
0.476794
0.449907
0.453605
0.473045
0.424724
0.408603
0.425727
0.403766
0.367743
0.344868
0.313461
0.267415
0.225366
0.226235
0.230979
0.211665
0.207797
0.19994
0.174128
0.155933
0.176473
0.156301
0.138442
0.089955
0.059455
0.067277
0.072571
0.045944
0.032508
0.011737
0.002641
0.023981
0.001404
-0.005233
-0.002353
-0.004893
-0.016772
-0.039505
-0.024827
0.015816
-0.004265
-0.008639
-0.000471
-0.015458
-0.028685
0.004193
0.010952
0.008013
-0.014779
-0.02388
-0.031899
-0.027392
-0.043687
-0.062528
-0.049954
-0.048434
-0.040581
-0.043556
-0.040593
-0.036102
-0.044378
-0.045246
-0.051588
-0.052562
-0.046047
-0.044609
-0.028352
-0.048685
-0.064214
-0.059833
-0.064121
-0.078399
-0.075472
-0.06734
-0.065596
-0.065784
-0.089515
-0.099138
-0.051879
-0.029643
-0.079849
-0.084352
-0.066735
-0.058329
-0.011751
0.01442
-0.007629
-0.031458
-0.016487
-0.005994
0.001425
-0.002209
-0.000613
-0.010767
-0.047425
-0.042473
-0.055878
-0.060631
-0.04473
-0.026724
-0.034857
-0.048416
-0.057144
-0.052762
-0.06926
-0.067437
-0.03077
-0.043727
-0.04312
-0.036507
-0.05381
-0.055802
-0.054281
-0.044486
-0.052738
-0.044271
-0.101111
-0.056985
-0.071865
-0.081102
-0.045591
-0.00784
-0.023048
-0.051659
-0.042446
-0.034805
-0.028093
-0.013897
-0.009358
-0.044203
-0.03461
-0.02647
-0.05039
-0.062764
-0.065068
-0.037473
-0.045254
-0.037856
-0.064893
-0.03724
-0.040261
-0.054606
-0.041842
-0.037287
-0.020694
-0.029011
-0.029799
-0.029751
-0.033623
-0.060018
-0.066275
-0.053201
-0.043646
-0.042772
-0.084259
-0.05285
-0.047893
-0.050345
-0.059807
-0.048323
-0.04455
-0.035539
-0.03657
-0.004662
0.002957
-0.006145
-0.011459
-0.012198
-0.028735
-0.022306
0.002579
-0.016413
-0.01489
-0.015915
-0.033008
-0.021029
-0.031406
-0.037685
-0.033945
-0.022933
-0.020203
-0.036044
-0.040777
-0.051155
-0.005638
0.002988
-0.010255
-0.011864
-0.020545
-0.049546
-0.038511
-0.037856
-0.038928
-0.035735
-0.040605
-0.02247
-0.021168
-0.048602
-0.05594
-0.040942
-0.03262
-0.039825
-0.004055
-0.012992
-0.008578
-0.01035
-0.011681
-0.008474
-0.03049
-0.028482
-0.008199
-0.016941
-0.024011
0.007339
-0.012603
-0.001994
0.018161
0.016182
0.019375
0.013644
-0.013843
0.013897
0.033598
0.007762
0.020663
0.019557
0.021729
0.02925
0.014098
0.025045
0.060595
0.068973
0.056506
0.040582
0.010774
0.017514
0.005428
0.010172
0.037666
0.033725
0.035845
0.002786
-0.002298
0.014227
0.034527
0.065277
0.035189
0.014751
0.024211
0.05354
0.052665
0.058363
0.064937
0.072482
0.0609
0.039516
0.030611
0.033293
0.041481
0.062446
0.06287
0.082304
0.085963
0.070734
0.066189
0.061498
0.051056
0.03743
0.041815
0.042298
0.035888
0.040243
0.047564
0.052799
0.060197
0.07416
0.027892
0.043305
0.03934
0.033263
0.026032
0.024701
0.031164
0.009873
0.024934
0.038853
0.039237
0.031089
0.009399
0.017021
0.022512
-0.003529
-0.013162
-0.019243
0.005474
0.016131
0.006725
-0.000578
-0.003838
0.030979
0.022019
-0.001742
-0.009579
-0.029822
-0.016492
0.001212
-0.00244
-0.021772
-0.001728
-0.012351
-0.035163
-0.040235
-0.041397
-0.029641
-0.008447
-0.024884
-0.018883
-0.020203
-0.01029
-0.024808
-0.043847
-0.078068
-0.047838
-0.052344
-0.069842
-0.056902
-0.086587
-0.080119
-0.084471
-0.084756
-0.061325
-0.04826
-0.04499
-0.040052
-0.03292
-0.042025
-0.07081
-0.053682
-0.051068
-0.077683
-0.059663
-0.046255
-0.06296
-0.083763
-0.069097
-0.060523
-0.064193
-0.076048
-0.076054
-0.079745
-0.08734
-0.111885
-0.092322
-0.059886
-0.038177
-0.026455
-0.039776
-0.050333
-0.061774
-0.050319
-0.048145
-0.071545
-0.047038
-0.071547
-0.071502
-0.06488
-0.067842
-0.047636
-0.042377
-0.074027
-0.025117
-0.042752
-0.039994
-0.058471
-0.050739
-0.052144
-0.068229
-0.06965
-0.054311
-0.046128
-0.059049
-0.055619
-0.038755
-0.028961
-0.019815
-0.032262
-0.052841
-0.064118
-0.04331
-0.06553
-0.054448
-0.045172
-0.044625
-0.025441
-0.037216
-0.032092
-0.037744
-0.042465
-0.091069
-0.07673
-0.038317
-0.016408
-0.013632
-0.047926
-0.034251
-0.049448
-0.0531
-0.046782
-0.051592
-0.051758
-0.04062
-0.06356
-0.065521
-0.048601
-0.056894
-0.057365
-0.069563
-0.0312
-0.024039
-0.062008
-0.084148
-0.065307
-0.060645
-0.095334
-0.078373
-0.058179
-0.052168
-0.088089
-0.087597
-0.060607
-0.027769
-0.008787
-0.027556
-0.025617
-0.013394
-0.032332
-0.058891
-0.028573
-0.041936
-0.049464
-0.027289
-0.009051
-0.022367
-0.027896
-0.040136
-0.029683
-0.026134
-0.023685
-0.049141
-0.048386
-0.06089
-0.083221
-0.091565
-0.06066
-0.051089
-0.039251
-0.039604
-0.050195
-0.026334
-0.010221
-0.046372
-0.047045
-0.019574
-0.039186
-0.028585
-0.035755
-0.045843
-0.044516
-0.021882
-0.027777
-0.037966
-0.05867
-0.061787
-0.075467
-0.077625
-0.040385
-0.044675
-0.049414
-0.03587
-0.042509
-0.016841
-0.03828
-0.052682
-0.049313
-0.016798
-0.013133
-0.048652
-0.041497
-0.044997
-0.055265
-0.061319
-0.065407
-0.047706
-0.056094
-0.045936
-0.055767
-0.052668
-0.067264
-0.065584
-0.06873
-0.073732
-0.078579
-0.097036
-0.086403
-0.057681
-0.037857
-0.045246
-0.070259
-0.084783
-0.114935
-0.044795
-0.043754
-0.033376
-0.049983
-0.025554
-0.034733
-0.048489
-0.055967
-0.053365
-0.052527
-0.037712
-0.032096
-0.034015
-0.045042
-0.043539
-0.046297
-0.052259
-0.058477
-0.06497
-0.093294
-0.08363
-0.088259
-0.071
-0.050742
-0.073506
-0.086207
-0.098428
-0.108069
-0.054313
-0.05659
-0.07919
-0.072047
-0.033064
-0.039963
-0.039691
-0.047037
-0.04351
-0.047464
-0.045315
-0.0322
-0.027093
-0.059371
-0.059929
-0.078932
-0.101008
-0.078941
-0.049691
-0.0495
-0.030835
-0.035428
-0.060694
-0.084876
-0.081344
-0.081738
-0.090022
-0.091351
-0.07435
-0.074231
-0.069605
-0.060271
-0.055073
-0.087939
-0.067745
-0.05683
-0.049187
-0.04716
-0.039774
-0.040116
-0.036389
-0.052794
-0.048306
-0.063193
-0.098328
-0.062501
-0.089671
-0.091414
-0.077117
-0.089293
-0.104633
-0.095045
-0.073452
-0.068878
-0.045153
-0.072618
-0.043524
-0.042603
-0.04999
-0.09247
-0.099698
-0.079183
-0.056536
-0.098705
-0.085519
-0.093153
-0.091833
-0.103124
-0.069108
-0.054662
-0.070092
-0.075121
-0.089524
-0.084044
-0.065565
-0.084868
-0.084532
-0.074869
-0.082032
-0.091121
-0.0952
-0.078562
-0.07591
-0.06105
-0.098496
-0.082565
-0.05024
-0.04246
-0.039751
-0.031557
-0.04729
-0.060256
-0.055412
-0.084517
-0.059608
-0.054577
-0.053952
-0.043463
-0.058193
-0.038335
-0.022993
-0.045634
-0.066636
-0.058322
-0.03119
-0.049343
-0.062209
-0.06413
-0.072471
-0.099506
-0.091281
-0.092418
-0.094722
-0.09274
-0.08865
-0.102385
-0.111261
-0.110392
-0.112278
-0.073767
-0.040187
-0.054247
-0.05761
-0.059592
-0.03886
-0.036405
-0.041734
-0.069439
-0.067998
-0.049461
-0.058601
-0.068322
-0.063472
-0.074391
-0.07515
-0.065891
-0.061233
-0.066504
-0.074335
-0.071658
-0.077521
-0.07037
-0.071498
-0.067658
-0.053654
-0.048033
-0.05609
-0.051558
-0.04547
-0.06863
-0.090444
-0.080385
-0.087426
-0.09626
-0.090511
-0.082177
-0.077528
-0.065496
-0.072179
-0.056259
-0.053241
-0.071475
-0.044684
-0.054989
-0.067874
-0.055295
-0.065124
-0.059142
-0.044941
-0.053286
-0.076889
-0.090754
-0.09147
-0.097882
-0.086806
-0.096167
-0.079039
-0.058985
-0.085106
-0.056219
-0.052049
-0.054218
-0.068482
-0.06421
-0.088558
-0.06986
-0.050546
-0.021321
-0.03947
-0.047921
-0.044192
-0.027951
-0.011138
0.00675
0.005326
0.031007
0.038946
-0.006267
-0.022552
-0.01228
-0.016171
-0.026885
-0.018083
-0.012154
-0.036976
-0.032458
-0.051476
-0.013862
-0.022538
-0.052238
-0.034913
-0.021316
-0.019564
-0.02455
0.001351
-0.002581
-0.030372
-0.059988
-0.060667
-0.035728
-0.009978
-0.021578
-0.019148
-0.010247
-0.017336
-0.014116
-0.011444
0.001073
-0.011952
0.002171
-0.011808
-0.015756
-0.011768
-0.022378
-0.033529
-0.040568
-0.037416
-0.027807
-0.034391
-0.033294
-0.040998
-0.030662
-0.06099
-0.0711
-0.094918
-0.062863
-0.062466
-0.076683
-0.064363
-0.060281
-0.059212
-0.083422
-0.071176
-0.052901
-0.048369
-0.057405
-0.059842
-0.056023
-0.045998
-0.068905
-0.071874
-0.05947
-0.075416
-0.071047
-0.06201
-0.050709
-0.069118
-0.088921
-0.088008
-0.077762
-0.054943
-0.045143
-0.056081
-0.086667
-0.097313
-0.0828
-0.095006
-0.116097
-0.108239
-0.092245
-0.141189
-0.125328
-0.096239
-0.117809
-0.13215
-0.103269
-0.074971
-0.090587
-0.084233
-0.071597
-0.077773
-0.079143
-0.086167
-0.073385
-0.074589
-0.088724
-0.067178
-0.064646
-0.072446
-0.085652
-0.105106
-0.0922
-0.062993
-0.068701
-0.083818
-0.065699
-0.085355
-0.10227
-0.097561
-0.090236
-0.08145
-0.102098
-0.113576
-0.114312
-0.124472
-0.096234
-0.080406
-0.085439
-0.106772
-0.095967
-0.100924
-0.104579
-0.079634
-0.080546
-0.108504
-0.094403
-0.091998
-0.112149
-0.122561
-0.140839
-0.138277
-0.125664
-0.152727
-0.14836
-0.154447
-0.170733
-0.140346
-0.112753
-0.084474
-0.090299
-0.092773
-0.077068
-0.047172
-0.020911
-0.01799
-0.01253
0.039433
0.031461
0.064014
0.109338
0.14835
0.165833
0.201874
0.225388
0.246389
0.278968
0.327221
0.3722
0.412614
0.438407
0.442301
0.468214
0.501898
0.493632
0.472481
0.419731
0.395042
0.393328
0.379928
0.342119
0.322617
0.311359
0.268839
0.213834
0.178438
0.189581
0.21538
0.198642
0.184936
0.162079
0.149442
0.125989
0.109627
0.111296
0.079932
0.045249
0.033932
0.015791
0.024731
-0.000493
-0.006843
-0.003063
-0.008377
-0.016424
-0.011326
-0.034079
-0.058363
-0.044578
-0.036423
-0.037882
-0.03671
-0.052754
-0.037321
-0.024331
-0.047602
-0.037689
-0.012686
-0.019262
-0.027244
-0.046324
-0.039697
-0.070603
-0.066726
-0.060223
-0.079921
-0.115444
-0.109765
-0.090845
-0.074816
-0.071294
-0.062199
-0.04679
-0.039874
-0.040792
-0.046638
-0.031083
-0.02409
-0.034013
-0.047665
-0.039021
-0.035025
-0.065691
-0.061358
-0.052413
-0.044455
-0.050478
-0.075681
-0.08263
-0.088275
-0.081587
-0.084149
-0.079695
-0.068574
-0.059443
-0.057955
-0.049616
-0.03311
-0.04593
-0.080138
-0.089384
-0.068568
-0.053169
-0.053448
-0.062402
-0.054395
-0.065378
-0.056782
-0.06081
-0.055821
-0.057134
-0.05266
-0.057141
-0.048593
-0.028513
-0.032911
-0.032619
-0.041347
-0.086614
-0.078042
-0.048642
-0.076389
-0.067778
-0.076962
-0.075646
-0.068936
-0.065676
-0.053977
-0.066982
-0.086727
-0.081574
-0.071691
-0.03469
-0.036764
-0.047464
-0.048672
-0.050877
-0.051876
-0.039809
-0.037695
-0.042158
-0.052944
-0.046116
-0.049735
-0.087246
-0.088416
-0.088282
-0.093464
-0.092146
-0.0973
-0.096256
-0.088298
-0.082269
-0.065085
-0.05524
-0.032262
-0.043928
0.017435
-0.002663
-0.014422
-0.037243
-0.033355
-0.034406
-0.035136
-0.020337
-0.033992
-0.046191
-0.039978
-0.045095
-0.0399
-0.027842
-0.032475
-0.065157
-0.051128
-0.062466
-0.068567
-0.062065
-0.026252
-0.028468
-0.046685
-0.039044
-0.043106
-0.082796
-0.063222
-0.04999
-0.066663
-0.069229
-0.072283
-0.049404
-0.060347
-0.070439
-0.041373
-0.036614
-0.063455
-0.057475
-0.051216
-0.046797
-0.047385
-0.046089
-0.036031
-0.010872
-0.011187
-0.012092
-0.009371
-0.00891
-0.01714
-0.029825
-0.061131
-0.065889
-0.014382
-0.023431
-0.040105
-0.037125
-0.013414
-0.00308
-0.000041
-0.004448
-0.015058
-0.01075
-0.009505
-0.009046
-0.008449
-0.021841
-0.014559
-0.019182
-0.031857
-0.007905
0.00991
0.017908
0.016798
0.002647
-0.028109
-0.003779
-0.004214
0.026641
0.034851
0.023257
0.019864
0.021711
0.011326
-0.003641
-0.006172
-0.020432
-0.014241
0.009502
0.017182
0.060362
0.039613
0.064676
0.065281
0.055342
0.047253
0.044112
0.068528
0.060072
0.037468
0.055419
0.062187
0.0804
0.068462
0.060052
0.067316
0.067947
0.067897
0.05812
0.0494
0.045036
0.045469
0.061267
0.055303
0.024747
0.048054
0.051903
0.010158
0.034364
0.048809
0.040682
0.025354
0.021925
0.014944
0.049701
0.01634
0.035613
0.040689
0.020631
0.022356
0.036717
0.075263
0.047924
0.015032
0.037782
0.051958
0.040931
0.031109
0.021873
0.034195
-0.003688
0.004874
-0.02779
0.004814
0.018759
0.008589
-0.011383
0.001713
0.009478
-0.002756
0.001899
-0.020526
-0.025198
-0.002079
-0.001493
-0.003938
-0.016579
-0.038891
-0.012797
-0.026002
-0.02478
-0.019155
-0.023231
-0.026667
-0.034473
-0.038952
-0.049038
-0.048905
-0.076035
-0.088662
-0.074761
-0.083185
-0.088108
-0.066789
-0.040413
-0.066766
-0.095571
-0.093772
-0.076595
-0.06027
-0.05261
-0.071497
-0.080646
-0.076784
-0.089911
-0.068305
-0.079274
-0.06404
-0.092392
-0.132017
-0.12438
-0.111186
-0.069308
-0.066775
-0.083418
-0.074898
-0.091431
-0.096861
-0.08594
-0.082715
-0.074711
-0.065718
-0.066156
-0.079541
-0.080247
-0.081408
-0.078635
-0.066338
-0.079886
-0.087402
-0.110812
-0.147615
-0.13429
-0.115665
-0.103299
-0.091746
-0.091495
-0.086688
-0.091823
-0.114559
-0.098263
-0.085965
-0.102949
-0.099444
-0.08017
-0.078673
-0.083326
-0.074698
-0.070949
-0.073139
-0.063364
-0.059009
-0.052072
-0.047725
-0.057968
-0.058257
-0.043523
-0.074136
-0.10464
-0.057737
-0.05232
-0.084008
-0.100735
-0.107072
-0.103107
-0.105981
-0.107282
-0.072723
-0.064768
-0.07765
-0.071752
-0.078329
-0.063763
-0.087302
-0.089026
-0.050447
-0.035393
-0.090385
-0.092104
-0.067656
-0.078387
-0.084596
-0.087845
-0.07352
-0.081376
-0.078763
-0.079765
-0.061496
-0.064757
-0.073389
-0.086604
-0.072352
-0.066562
-0.054976
-0.046513
-0.016417
-0.007834
-0.031606
-0.027818
-0.022677
-0.083756
-0.085777
-0.097261
-0.084446
-0.093559
-0.069368
-0.081936
-0.061348
-0.077281
-0.086073
-0.082485
-0.086555
-0.094359
-0.093684
-0.082766
-0.067174
-0.057343
-0.055383
-0.051591
-0.049812
-0.073489
-0.103245
-0.088523
-0.043493
-0.037058
-0.032951
-0.072675
-0.087554
-0.082048
-0.087397
-0.070249
-0.058612
-0.060896
-0.055358
-0.052441
-0.073682
-0.096094
-0.064277
-0.047256
-0.060939
-0.054679
-0.057039
-0.048936
-0.072177
-0.055095
-0.04024
-0.093287
-0.083215
-0.077759
-0.084748
-0.063591
-0.078086
-0.080635
-0.063493
-0.045311
-0.047706
-0.055993
-0.085227
-0.113548
-0.111473
-0.064203
-0.026316
-0.037891
-0.035056
-0.041204
-0.061699
-0.060813
-0.080039
-0.054367
-0.065688
-0.085717
-0.054144
-0.048717
-0.031529
-0.111375
-0.088497
-0.041834
-0.022184
-0.030303
-0.058329
-0.075298
-0.069248
-0.081762
-0.061918
-0.053683
-0.078101
-0.060747
-0.072877
-0.063974
-0.048867
-0.040114
-0.051512
-0.051656
-0.073796
-0.097004
-0.088782
-0.073188
-0.086778
-0.07734
-0.080595
-0.089167
-0.07518
-0.045672
-0.06369
-0.095896
-0.099007
-0.105887
-0.107693
-0.115629
-0.091809
-0.086803
-0.063394
-0.127324
-0.117166
-0.085353
-0.066523
-0.094283
-0.075721
-0.032585
-0.041786
-0.052855
-0.058918
-0.064118
-0.050722
-0.08452
-0.067008
-0.103555
-0.102886
-0.078217
-0.088054
-0.085048
-0.051242
-0.050597
-0.078096
-0.0774
-0.073193
-0.059288
-0.056478
-0.04851
-0.074996
-0.082795
-0.08693
-0.109909
-0.087514
-0.077463
-0.078935
-0.064346
-0.062361
-0.089961
-0.09948
-0.112962
-0.102067
-0.067202
-0.065006
-0.069381
-0.069672
-0.082659
-0.055889
-0.074266
-0.078828
-0.077947
-0.096014
-0.086981
-0.088929
-0.081251
-0.054319
-0.062206
-0.065862
-0.072789
-0.07477
-0.068861
-0.061027
-0.083183
-0.099691
-0.089417
-0.079794
-0.08082
-0.097803
-0.118998
-0.117553
-0.099702
-0.098334
-0.10247
-0.076347
-0.041523
-0.020546
-0.040601
-0.040361
-0.034232
-0.041458
-0.036351
-0.019941
-0.006391
-0.01432
-0.011703
-0.023985
-0.058129
-0.060699
-0.117831
-0.116839
-0.107267
-0.087365
-0.086325
-0.083137
-0.076817
-0.074003
-0.063769
-0.090532
-0.076439
-0.078189
-0.067525
-0.08105
-0.077629
-0.07126
-0.077164
-0.05805
-0.070719
-0.090491
-0.063182
-0.063073
-0.034966
-0.04334
-0.05932
-0.053978
-0.079801
-0.094776
-0.104728
-0.108877
-0.110145
-0.095645
-0.09514
-0.09626
-0.112367
-0.102163
-0.101433
-0.075203
-0.078017
-0.070057
-0.06409
-0.074905
-0.050817
-0.055691
-0.076856
-0.093076
-0.082324
-0.07723
-0.086609
-0.074762
-0.103334
-0.084281
-0.097334
-0.095392
-0.088978
-0.07143
-0.073915
-0.05163
-0.093115
-0.080307
-0.059808
-0.083543
-0.095549
-0.062564
-0.098132
-0.106154
-0.104751
-0.090479
-0.068414
-0.070013
-0.072828
-0.038754
-0.027953
-0.074983
-0.0697
-0.039636
-0.062281
-0.093673
-0.07323
-0.055153
-0.075076
-0.078026
-0.069413
-0.074575
-0.06497
-0.064203
-0.082178
-0.059569
-0.05204
-0.052268
-0.054739
-0.066046
-0.076784
-0.071159
-0.058202
-0.044091
-0.091749
-0.079886
-0.038107
-0.071908
-0.044315
-0.01355
-0.023899
-0.000319
-0.00064
-0.004929
-0.018791
-0.016691
-0.020656
-0.035515
-0.029188
-0.01766
-0.01931
-0.021843
-0.030584
-0.021047
0.000594
-0.013504
-0.014736
-0.015442
-0.011741
-0.014214
-0.0386
-0.005076
-0.031057
-0.02192
-0.034975
-0.044244
-0.035747
-0.038088
-0.070692
-0.067193
-0.048911
-0.046914
-0.040466
-0.013329
0.000148
0.031694
0.047763
0.072368
0.069226
0.037534
0.000551
-0.023969
-0.038727
-0.064781
-0.031708
-0.000749
-0.01551
-0.02768
-0.026651
-0.030259
-0.056322
-0.062912
-0.051917
-0.037149
-0.049904
-0.073204
-0.07502
-0.064443
-0.047661
-0.048441
-0.051956
-0.054795
-0.069011
-0.083124
-0.082322
-0.080379
-0.067001
-0.065203
-0.078623
-0.096288
-0.089756
-0.086707
-0.089501
-0.076759
-0.0775
-0.071375
-0.079045
-0.086472
-0.080376
-0.073446
-0.111546
-0.099566
-0.109209
-0.105498
-0.080533
-0.088074
-0.09112
-0.091308
-0.07672
-0.121772
-0.108343
-0.097444
-0.116331
-0.105552
-0.089155
-0.107574
-0.113288
-0.096386
-0.092586
-0.100175
-0.090962
-0.083293
-0.082745
-0.078758
-0.06841
-0.079146
-0.075818
-0.064708
-0.075387
-0.113156
-0.106357
-0.083839
-0.102706
-0.097302
-0.094465
-0.110447
-0.108954
-0.133215
-0.090184
-0.064341
-0.074179
-0.0843
-0.106161
-0.125763
-0.114994
-0.087173
-0.095395
-0.090897
-0.082206
-0.089974
-0.124339
-0.098775
-0.099026
-0.105944
-0.118765
-0.12218
-0.1402
-0.115007
-0.10244
-0.087835
-0.086632
-0.07589
-0.075435
-0.122627
-0.114052
-0.098635
-0.086073
-0.065798
-0.086646
-0.08236
-0.048363
-0.051036
-0.041775
0.021134
0.032722
0.060699
0.063463
0.089946
0.161193
0.200793
0.223486
0.275389
0.289983
0.308117
0.340386
0.38231
0.430272
0.456714
0.481167
0.470915
0.453211
0.453181
0.400305
0.378554
0.36201
0.335825
0.292509
0.286372
0.272973
0.221759
0.178034
0.187219
0.191773
0.183397
0.161365
0.146983
0.156709
0.150938
0.176631
0.138643
0.103963
0.073952
0.077329
0.062444
0.052947
0.0322
-0.000322
-0.009242
-0.006589
0.001299
-0.002853
0.003271
-0.000792
-0.027294
-0.039374
-0.055039
-0.056037
-0.070573
-0.059136
-0.064567
-0.06984
-0.059998
-0.052873
-0.029723
-0.035578
-0.019367
-0.00544
-0.030398
-0.010996
-0.004839
-0.020985
-0.03683
-0.036547
-0.05134
-0.074069
-0.088334
-0.109522
-0.095214
-0.04748
-0.064911
-0.062187
-0.045521
-0.039076
-0.06197
-0.081801
-0.105832
-0.080626
-0.065255
-0.058971
-0.055214
-0.058517
-0.042788
-0.071111
-0.044583
-0.028505
-0.04599
-0.043753
-0.039674
-0.044295
-0.054305
-0.055929
-0.050561
-0.04696
-0.055944
-0.045869
-0.066589
-0.042683
-0.06665
-0.069816
-0.061303
-0.04994
-0.052991
-0.043959
-0.047856
-0.098571
-0.067458
-0.038965
-0.08577
-0.084754
-0.066179
-0.071381
-0.054566
-0.039082
-0.060149
-0.104859
-0.095045
-0.047758
-0.041911
-0.049512
-0.05255
-0.049124
-0.022856
-0.012602
-0.019878
-0.042334
-0.019923
-0.034741
-0.062201
-0.06082
-0.071412
-0.053639
-0.032475
-0.042763
-0.064945
-0.034398
-0.052119
-0.074955
-0.087845
-0.072514
-0.034867
-0.021254
-0.027287
-0.022497
-0.066554
-0.087078
-0.041296
-0.050308
-0.074754
-0.084231
-0.091474
-0.068463
-0.031638
-0.026086
-0.040126
-0.044284
-0.048173
-0.041441
-0.029183
-0.042011
-0.057658
-0.040494
-0.032205
-0.031613
-0.035037
-0.054574
-0.07098
-0.068292
-0.076529
-0.09878
-0.074834
-0.06502
-0.063367
-0.065769
-0.050059
-0.043952
-0.062824
-0.070062
-0.048299
-0.058337
-0.030508
-0.052394
-0.090372
-0.043485
-0.023522
-0.02767
-0.016291
-0.011724
-0.006938
-0.020207
-0.025489
-0.058632
-0.065463
-0.02611
-0.041128
-0.038944
-0.044607
-0.017389
-0.011402
-0.012241
-0.020518
-0.017995
-0.02018
-0.02024
-0.018773
-0.035891
-0.03259
-0.027598
-0.051619
-0.033062
-0.033707
-0.040153
-0.020227
-0.019148
-0.050265
-0.054976
-0.023562
-0.028258
-0.033409
-0.008204
-0.000823
0.018093
0.02397
-0.02372
-0.061076
-0.050295
-0.021024
-0.016865
-0.011094
-0.03396
0.007973
0.020604
0.022288
0.053387
0.016017
-0.005472
0.003872
0.018849
0.033905
0.030602
0.028064
0.016632
0.020345
0.027919
0.04891
0.042691
0.051468
0.045328
0.042632
0.039073
0.055741
0.04739
0.075273
0.074341
0.063268
0.039868
0.010195
0.041784
0.066508
0.036464
0.049212
0.059064
0.065472
0.027957
0.035892
0.023773
0.026095
0.031228
0.03358
0.036252
0.017131
0.028747
0.025696
0.042868
0.024185
0.022365
0.007969
0.02103
0.062879
0.077979
0.065883
0.034397
0.052394
0.041121
0.023501
0.026596
0.016321
0.026365
0.01199
0.01323
-0.004471
-0.033096
-0.003883
0.005119
-0.020651
-0.027538
-0.042912
-0.034525
-0.002361
-0.011666
-0.006387
0.005643
0.009465
-0.005811
-0.015146
-0.014503
-0.01011
-0.028253
-0.037787
-0.031271
-0.041073
-0.043663
-0.0234
-0.041894
-0.044644
-0.045685
-0.039653
-0.022748
-0.024116
-0.026735
-0.031127
-0.034297
-0.029386
-0.039343
-0.034096
-0.057294
-0.061473
-0.065438
-0.07826
-0.06618
-0.077601
-0.091619
-0.075621
-0.082578
-0.130321
-0.098853
-0.069045
-0.082957
-0.057875
-0.046601
-0.073706
-0.049054
-0.069912
-0.063216
-0.081318
-0.105378
-0.090329
-0.10707
-0.115287
-0.11658
-0.081128
-0.080571
-0.074797
-0.035285
-0.058483
-0.075986
-0.078614
-0.087112
-0.069074
-0.067919
-0.078489
-0.076304
-0.066734
-0.066346
-0.078795
-0.096121
-0.089514
-0.089161
-0.094392
-0.093231
-0.072934
-0.042962
-0.08573
-0.16313
-0.145323
-0.074893
-0.092643
-0.100154
-0.08823
-0.094894
-0.065381
-0.05633
-0.081374
-0.084221
-0.065508
-0.100117
-0.086572
-0.07635
-0.080036
-0.08567
-0.061548
-0.066145
-0.087364
-0.102007
-0.099647
-0.083817
-0.074833
-0.091584
-0.087672
-0.059104
-0.0568
