-0.028093
-0.041145
-0.048003
-0.058805
-0.054061
-0.023528
-0.034343
-0.025887
-0.006008
0.017586
0.022899
0.048114
0.068634
0.097686
0.122331
0.162926
0.207061
0.238424
0.266899
0.312299
0.34723
0.38383
0.420592
0.466911
0.502966
0.550043
0.59832
0.626346
0.644693
0.69543
0.741343
0.770651
0.794111
0.776435
0.774616
0.75381
0.751007
0.701856
0.690925
0.672913
0.632394
0.545739
0.489779
0.422689
0.386755
0.333055
0.274857
0.235946
0.225409
0.218706
0.196572
0.164135
0.132655
0.099215
0.071136
0.038546
0.018014
0.032951
0.020858
0.008209
0.014764
0.014639
-0.00082
-0.006051
0.01544
0.015593
0.027776
0.027406
0.040149
0.036023
0.026226
-0.000853
-0.018953
0.014391
0.043623
0.069601
0.083456
0.08408
0.071836
0.056369
0.053169
0.048208
0.050185
0.058308
0.041459
0.053059
0.057198
0.046235
0.048378
0.05882
0.059879
0.044088
0.015859
0.002972
0.019146
0.048397
0.035917
0.047812
0.067404
0.065503
0.073306
0.071485
0.069206
0.063802
0.068155
0.062393
0.040272
0.023513
0.030654
0.04023
0.050299
0.062912
0.058044
0.051388
0.069541
0.089057
0.105267
0.076836
0.059756
0.058367
0.027359
0.039703
0.053082
0.047214
0.047653
0.052216
0.053541
0.051693
0.053439
0.047601
0.051825
0.038393
0.050907
0.041971
0.070545
0.069923
0.066026
0.058898
0.074862
0.078745
0.068977
0.084136
0.076564
0.074924
0.080958
0.076914
0.06548
0.014764
0.011134
0.013963
0.041131
0.037081
0.05106
0.031623
0.040403
0.066654
0.102888
0.102309
0.099754
0.067363
0.042232
0.037595
0.052665
0.065918
0.060734
0.066096
0.059245
0.038805
0.049841
0.062848
0.059461
0.066421
0.105354
0.08601
0.080289
0.083233
0.076382
0.074331
0.097237
0.104172
0.092711
0.079426
0.056498
0.047797
0.02979
0.022551
0.036455
0.057177
0.06406
0.059902
0.054383
0.074806
0.123432
0.090445
0.085737
0.133717
0.101187
0.074809
0.085561
0.087032
0.077929
0.086636
0.084793
0.073416
0.069093
0.085948
0.074564
0.064966
0.046525
0.069165
0.074009
0.075238
0.083975
0.103775
0.129279
0.123956
0.124259
0.128468
0.135912
0.135372
0.121823
0.131662
0.142568
0.14351
0.130821
0.109079
0.104578
0.108253
0.085686
0.099065
0.098977
0.130213
0.148317
0.175094
0.144879
0.130266
0.109221
0.101323
0.127948
0.144663
0.148734
0.155881
0.156838
0.148685
0.140561
0.126084
0.145293
0.173629
0.182117
0.168788
0.157277
0.179675
0.204344
0.188774
0.212549
0.222525
0.227276
0.233014
0.242626
0.235251
0.21601
0.214555
0.224563
0.211724
0.203238
0.218872
0.211809
0.207334
0.224406
0.221386
0.230497
0.248316
0.240263
0.250985
0.223119
0.216011
0.200061
0.195197
0.208561
0.242381
0.250742
0.258293
0.253184
0.259751
0.248994
0.222908
0.227894
0.221337
0.22114
0.219911
0.227763
0.232756
0.227711
0.229103
0.237305
0.227728
0.226524
0.234053
0.215949
0.205624
0.219224
0.212559
0.212624
0.212227
0.199221
0.184593
0.187586
0.17242
0.17544
0.193709
0.202085
0.190928
0.187457
0.18216
0.189475
0.201951
0.20121
0.168175
0.135283
0.128144
0.130961
0.124223
0.103132
0.088965
0.094358
0.069233
0.05255
0.035804
0.059902
0.081378
0.086404
0.09944
0.102159
0.100603
0.109131
0.085839
0.114495
0.12637
0.084962
0.084602
0.103403
0.083017
0.063972
0.053779
0.02557
-0.002823
0.025273
0.028238
0.037483
0.008078
0.013885
0.019993
0.001068
0.014863
0.031394
0.0272
0.036148
0.054225
0.023
0.020044
0.002226
0.009923
0.001754
-0.000451
-0.018985
0.001945
-0.000584
0.011653
-0.005539
-0.016912
0.010191
0.03247
0.038326
0.044427
0.036909
0.041024
0.047567
-0.004457
0.014463
0.023217
0.014256
-0.001272
0.011037
-0.013254
-0.01691
-0.029737
-0.045674
-0.035467
0.018973
0.032904
0.017745
0.009693
0.01983
0.019119
0.021724
0.020408
0.010332
0.012774
0.009481
-0.003088
0.018694
-0.007303
-0.013323
-0.028185
-0.015993
-0.036086
-0.034803
-0.010253
-0.017625
-0.019298
-0.021497
-0.001592
0.002813
0.017043
0.00076
0.018812
0.028431
0.018824
0.017786
0.037955
0.022526
-0.028957
-0.071841
-0.071909
-0.053969
-0.054428
-0.025977
-0.002604
-0.013418
-0.00069
0.010331
0.023018
0.025011
0.023393
0.04259
0.035327
0.036742
0.042584
0.045348
0.034675
0.036606
0.0383
0.010948
-0.014171
-0.010686
-0.021286
-0.038038
0.000865
0.005828
0.007598
0.020729
0.024447
0.040326
0.037497
0.039922
0.041953
0.032655
0.036326
0.024969
0.019058
0.023192
0.004222
0.006017
0.002382
-0.001189
0.02352
0.034625
0.00712
0.008147
0.031317
0.03687
0.04244
0.046124
0.051027
0.064807
0.048634
0.044978
0.023253
0.0242
0.01226
0.025248
0.024798
0.016991
0.011486
0.00786
0.022642
0.024601
0.023567
0.01088
0.031245
0.028724
0.015944
0.018745
0.019248
0.031803
0.01186
0.010325
0.024987
0.031283
0.04191
0.056405
0.037196
0.021526
0.00273
-0.010168
0.000483
0.00419
0.015706
0.003294
-0.007109
-0.001824
0.023214
0.026325
0.037388
0.047493
0.053883
0.067049
0.055269
0.039143
0.007289
0.013669
0.00143
0.022821
0.004141
0.014406
0.041839
-0.000994
-0.033109
-0.023908
0.006471
-0.003702
0.008437
0.027217
0.051076
0.041835
0.031735
0.047974
0.039498
0.037909
0.027219
0.013172
0.026143
0.028918
0.014867
0.01203
-0.020016
-0.016673
0.009138
0.015134
-0.005251
-0.014335
0.018076
0.036764
0.050108
0.04377
0.035382
0.047663
0.048054
0.040323
0.030772
0.006722
-0.027594
-0.015615
-0.009466
0.019795
0.029898
0.02622
0.014411
0.006157
-0.002681
0.013362
0.025606
0.029932
0.043925
0.039526
0.03423
0.025165
0.014605
0.001898
-0.009059
-0.013283
-0.009249
-0.013391
0.002989
-0.019157
-0.043514
-0.031839
-0.01718
-0.00713
0.009103
0.026387
0.012135
0.023637
0.036225
0.033189
0.03572
0.046293
0.03782
0.025043
0.008141
0.000036
-0.021739
-0.001397
-0.022697
-0.038618
-0.02726
-0.022144
-0.017351
-0.034088
-0.028716
-0.032083
-0.010441
0.022071
0.038698
0.05295
0.040934
0.020629
0.019066
0.017528
0.001969
-0.003104
0.018752
0.026171
0.007176
0.002027
0.013866
-0.004112
-0.007204
-0.001943
0.005579
0.020991
0.016101
0.037103
0.033205
0.012397
0.018477
0.003406
-0.002006
0.009052
0.004379
-0.002857
-0.014333
-0.019386
-0.015463
-0.036497
-0.04968
-0.039857
-0.051879
-0.025356
-0.008844
0.010182
0.032362
0.008847
-0.016516
0.001077
0.034509
0.045463
0.029865
0.000051
0.00398
0.012354
0.009551
-0.027462
-0.032071
-0.01115
0.007058
-0.013986
-0.036178
-0.014997
-0.012638
-0.008029
0.000152
-0.009115
0.005305
0.010363
-0.01712
0.008513
0.006329
0.002907
-0.011053
-0.019507
-0.003615
-0.010069
-0.015076
-0.042528
-0.028091
-0.000459
-0.02237
-0.018126
-0.021037
-0.004983
0.020615
0.046607
0.044599
0.033759
0.040745
0.044325
0.038803
0.0262
0.01486
-0.008875
-0.020042
-0.019698
-0.027613
-0.021778
-0.02362
-0.042654
-0.056088
-0.033609
-0.004447
-0.021415
-0.02931
-0.017815
0.010957
0.0222
-0.012792
-0.027817
-0.000259
0.012113
0.007743
0.011501
0.009565
0.026968
0.007008
-0.00715
-0.010075
0.010917
0.008725
0.017324
0.0026
-0.008868
0.017461
0.040616
0.053238
0.061014
0.080374
0.076815
0.064618
0.029575
0.034628
0.048282
0.049397
0.04919
0.031319
-0.00732
0.00396
0.027162
0.041689
0.020786
0.030272
0.043662
0.045687
0.041213
0.058871
0.096062
0.100424
0.0939
0.119961
0.112533
0.084975
0.078235
0.083878
0.083903
0.03636
0.008405
0.026465
0.047175
0.068777
0.059431
0.06855
0.087549
0.079998
0.078031
0.086538
0.098761
0.085602
0.099331
0.109631
0.109232
0.083032
0.067442
0.043696
0.051766
0.046265
0.042818
0.041472
0.029512
0.038583
0.044567
0.045146
0.068761
0.068477
0.076095
0.062352
0.068768
0.052878
0.057722
0.045714
0.051257
0.044057
0.017491
0.008004
-0.008805
-0.019591
-0.038168
-0.045007
-0.029433
-0.010765
0.003941
-0.010311
0.005017
0.002947
-0.017804
0.0035
0.015068
0.007311
0.009716
0.016729
0.015273
-0.006749
-0.011235
-0.031528
-0.032093
-0.049674
-0.054329
-0.072119
-0.068338
-0.076572
-0.02314
-0.031393
-0.052307
-0.050771
-0.044776
-0.010094
-0.038025
-0.018225
-0.003892
0.005532
0.009752
0.003777
-0.026609
-0.044991
-0.041394
-0.03598
-0.039044
-0.034111
-0.037195
-0.045475
-0.055125
-0.044142
-0.042835
-0.03344
-0.010062
-0.008127
-0.020919
-0.012978
0.02105
0.022005
-0.000841
-0.022312
-0.03298
-0.057123
-0.06854
-0.052477
-0.041569
-0.054707
-0.073902
-0.085319
-0.040221
-0.033917
-0.056189
-0.071592
-0.065647
-0.05759
-0.054711
-0.072907
-0.073266
-0.052748
-0.028341
-0.027197
-0.053303
-0.067819
-0.05351
-0.033256
-0.009857
0.00252
0.036011
0.043065
0.068535
0.145618
0.183605
0.200566
0.223187
0.272916
0.307099
0.351659
0.384022
0.434415
0.475982
0.513585
0.547618
0.577071
0.610931
0.647874
0.686605
0.702368
0.717451
0.710587
0.715571
0.688643
0.657376
0.655742
0.619718
0.582522
0.547564
0.51195
0.424363
0.360723
0.329358
0.294515
0.252775
0.247388
0.225651
0.183322
0.151476
0.132688
0.087581
0.031686
0.015585
0.001065
-0.007996
-0.022647
0.006229
0.002521
-0.001446
0.006157
0.007171
0.005704
-0.009242
-0.015503
-0.032736
-0.032417
-0.044765
-0.037301
-0.020265
0.005797
0.001611
-0.013617
-0.003109
-0.006439
0.01535
0.025787
0.036455
0.056584
0.064058
0.058855
0.051272
0.054887
0.037384
0.030041
0.034263
0.024645
0.019396
-0.002339
0.000901
-0.009873
0.017195
0.026963
0.020619
0.002196
0.000416
0.01791
0.026339
0.01629
0.020926
0.044525
0.027405
0.030952
0.011933
0.007903
0.014583
0.032684
0.006725
-0.023401
-0.016154
-0.028266
-0.023086
-0.001774
0.006002
0.01426
0.023466
0.020283
0.024552
0.048144
0.02848
0.023757
0.030955
0.041164
0.054029
0.055597
0.031021
0.015316
0.014992
0.02667
0.036611
-0.00231
-0.007795
0.013498
0.020097
0.002593
0.024474
0.03182
0.061658
0.051338
0.050784
0.042413
0.038721
0.043325
0.032081
0.014685
0.036949
0.063941
0.024804
0.001831
-0.005828
0.018253
0.031811
0.027221
0.031144
0.042489
0.02633
0.013038
0.014345
0.039711
0.053937
0.072288
0.070749
0.054787
0.047731
0.044286
0.066574
0.037525
-0.008168
0.022228
0.034559
0.040972
0.034892
0.030262
0.03302
0.042947
0.04601
0.047684
0.044874
0.060596
0.064198
0.067602
0.06333
0.067201
0.056381
0.069559
0.067472
0.046372
0.059252
0.052055
0.016469
0.022031
0.018639
0.013664
0.0436
0.061105
0.017363
0.028617
0.06428
0.092052
0.096317
0.089279
0.063825
0.05995
0.088922
0.095128
0.086239
0.067454
0.04337
0.017863
0.021583
0.033343
0.04531
0.044476
0.058417
0.070749
0.078682
0.073649
0.067417
0.080339
0.082576
0.094377
0.097657
0.107112
0.094825
0.107867
0.115292
0.10836
0.104432
0.081493
0.095191
0.112267
0.144109
0.09287
0.067867
0.106277
0.10642
0.086816
0.09006
0.115182
0.148823
0.148458
0.137347
0.17962
0.186391
0.143098
0.167017
0.179752
0.176472
0.167765
0.131123
0.114003
0.104628
0.123471
0.153466
0.162814
0.172176
0.180219
0.183171
0.187701
0.197381
0.213491
0.219167
0.215309
0.207464
0.201932
0.169732
0.153142
0.156919
0.161149
0.17003
0.168629
0.180116
0.195953
0.198212
0.197528
0.200217
0.2082
0.199258
0.230576
0.241965
0.233114
0.220581
0.219792
0.207605
0.196401
0.186592
0.178798
0.194576
0.191428
0.192933
0.215795
0.233152
0.228201
0.19892
0.20602
0.199631
0.212548
0.213916
0.2177
0.201843
0.210122
0.199071
0.181923
0.170088
0.164286
0.15223
0.138098
0.146371
0.136651
0.136777
0.130641
0.143741
0.136144
0.123015
0.119661
0.105312
0.124888
0.110902
0.10539
0.107604
0.107519
0.116747
0.113831
0.108298
0.095944
0.078375
0.046491
0.022767
0.036537
0.033271
0.033059
0.038923
0.047911
0.044881
0.041099
0.05596
0.048747
0.061838
0.041151
0.030004
0.021293
0.044428
0.045269
0.023835
0.022274
0.010437
-0.012127
-0.021141
-0.011039
0.00754
0.001134
-0.020464
-0.034036
-0.040922
-0.003263
0.01608
0.016175
0.041762
0.021941
0.021008
0.031034
0.01798
0.02628
0.018758
0.014724
-0.000492
-0.013806
0.001334
-0.007138
-0.053853
-0.031583
-0.027626
-0.019911
-0.029827
-0.047403
-0.039756
-0.032718
-0.02053
-0.007826
0.003097
0.009874
-0.023809
-0.02055
-0.020201
-0.016362
-0.015488
-0.007817
-0.030018
-0.040533
-0.052692
-0.04578
-0.037416
-0.026216
-0.029654
-0.055373
-0.046523
-0.004656
-0.012504
-0.015933
-0.008617
-0.007241
0.04614
0.051444
0.012378
-0.026214
-0.023673
-0.031611
-0.01373
-0.00059
-0.02445
-0.066779
-0.04619
-0.055585
-0.006111
0.009483
-0.003533
-0.005505
-0.013112
-0.018856
-0.027221
-0.011726
-0.005224
-0.001571
-0.003006
-0.007079
-0.004321
-0.027646
-0.028738
-0.006577
-0.000675
-0.006754
-0.022955
-0.030427
-0.029041
-0.024505
-0.013983
0.006739
0.020099
0.012294
0.021624
0.01441
0.00024
0.002526
0.011651
-0.001966
-0.002441
0.000079
-0.008799
0.001153
0.003949
-0.003398
-0.06082
-0.049751
-0.028014
-0.006281
-0.007554
-0.000268
0.009291
0.034816
0.005992
-0.006237
-0.020856
-0.013605
-0.002097
0.012215
0.015768
0.005743
-0.012816
-0.012189
-0.003874
-0.007568
-0.011785
-0.015238
-0.003807
-0.006285
0.004396
0.014513
0.026933
0.028415
0.029929
0.033394
0.026922
0.023781
0.024625
0.008711
-0.006723
-0.010057
-0.002255
0.007508
0.00779
0.002407
0.012379
0.024783
0.004925
-0.024709
-0.038071
-0.01682
0.019017
0.041765
0.011989
0.009769
0.023154
0.012831
0.006792
0.009287
-0.033813
-0.024171
-0.00323
0.001111
-0.011479
-0.022951
-0.024024
-0.022006
-0.003234
0.013408
0.006069
0.003464
0.017414
0.005912
0.021406
0.01977
0.006633
0.011069
0.007777
0.00067
0.000542
-0.004055
-0.009154
-0.011213
-0.008999
-0.013008
-0.004926
0.008235
0.012873
0.002675
0.024816
0.035828
0.03669
0.052417
0.043701
0.014197
0.007416
-0.002123
0.006123
-0.01819
-0.032487
-0.028991
-0.015897
-0.012673
-0.028681
-0.063173
-0.087113
-0.063245
-0.02131
0.001282
-0.006505
-0.001542
0.020007
0.037225
0.024358
0.014711
0.004676
-0.012301
-0.039107
-0.021536
-0.009199
-0.027779
-0.038428
-0.036194
-0.035491
-0.052067
-0.031791
-0.020567
-0.028253
-0.025643
-0.029151
0.001655
0.040394
0.057357
0.039585
-0.001086
0.005754
0.000335
0.002426
0.008191
-0.018497
-0.027559
-0.03276
-0.013513
-0.010817
-0.007698
-0.021548
-0.025637
-0.026982
0.017351
0.021576
0.01093
0.025462
0.01144
-0.003021
-0.009262
-0.015112
-0.027092
-0.050268
-0.03223
-0.016096
-0.01998
-0.044174
-0.04408
-0.032453
-0.013588
-0.002091
-0.010341
-0.01048
-0.005338
-0.004919
0.027745
0.038612
0.012544
0.004188
0.002299
-0.037137
-0.04998
-0.045763
-0.018413
-0.020289
-0.02403
-0.026547
-0.012141
-0.040286
-0.022421
-0.027884
-0.023767
-0.028453
-0.019263
0.002287
0.079719
0.085567
0.05674
0.02385
0.006547
0.012014
0.009388
-0.019188
-0.031915
-0.025696
-0.030286
-0.054329
-0.068532
-0.044643
-0.029175
-0.01574
-0.021086
-0.019758
-0.004368
-0.000884
0.020637
0.020391
0.017717
0.006376
0.011048
0.006262
-0.007899
-0.014109
-0.032905
-0.048053
-0.04148
-0.037905
-0.039795
-0.040385
-0.035796
-0.027902
-0.055282
-0.02959
0.020943
0.02013
-0.004365
-0.018723
-0.00671
-0.018394
-0.015508
-0.022907
-0.008911
-0.007972
-0.00252
0.000179
-0.024411
-0.045813
-0.032075
-0.030497
-0.012407
-0.012358
-0.019154
-0.010086
-0.01481
-0.001579
-0.017507
-0.029245
-0.000749
-0.010633
-0.014603
0.001982
0.003135
-0.015551
-0.010155
0.001656
-0.040258
-0.059568
-0.038708
-0.06678
-0.076671
-0.043603
-0.022066
-0.004269
0.028202
0.037288
0.024185
-0.028715
-0.026947
0.008266
0.0269
0.019087
0.003367
-0.022674
-0.016362
-0.032212
-0.036091
-0.024883
-0.025548
-0.009367
0.007011
0.016528
0.036367
0.034416
0.018798
0.011353
0.028512
0.059163
0.088825
0.106694
0.105615
0.089497
0.073304
0.070293
0.053466
0.035437
0.03968
0.02134
0.007091
0.005899
0.028179
0.045493
0.060222
0.061873
0.064458
0.039869
0.047522
0.065244
0.087469
0.08084
0.054512
0.055826
0.063345
0.061119
0.051473
0.068819
0.070166
0.073344
0.06761
0.07113
0.054771
0.024442
0.045148
0.043727
0.048793
0.076534
0.092871
0.082104
0.098354
0.096429
0.077632
0.049437
0.046638
0.056175
0.025144
0.011815
-0.002859
0.016378
0.032293
0.051958
0.032993
0.010967
-0.005353
0.002332
0.041813
0.04406
0.046109
0.058284
0.067833
0.056047
0.028702
0.024339
0.03342
0.007798
-0.015335
-0.046502
-0.042378
-0.041785
-0.009358
-0.01201
-0.016624
-0.024814
0.001275
-0.00178
-0.01654
-0.013498
-0.011535
-0.012141
-0.006296
-0.024298
-0.029026
-0.010747
-0.020447
-0.022094
-0.022049
-0.043634
-0.055482
-0.058442
-0.057275
-0.055663
-0.030526
-0.03812
-0.047816
-0.024431
-0.009858
-0.005392
0.009674
-0.005475
-0.014718
-0.020841
-0.010822
-0.029443
-0.029078
-0.031245
-0.033068
-0.037863
-0.062563
-0.05274
-0.055109
-0.054209
-0.041617
-0.058488
-0.066636
-0.075889
-0.086505
-0.002459
0.021954
-0.025826
-0.024038
-0.037786
-0.057902
-0.01859
-0.034119
-0.075491
-0.076683
-0.076224
-0.060062
-0.06717
-0.093382
-0.076403
-0.080206
-0.078024
-0.0622
-0.06461
-0.098457
-0.078696
-0.075495
-0.068226
-0.072668
-0.058821
-0.040513
-0.050043
-0.049423
-0.044146
-0.027673
-0.013331
0.014916
0.021535
0.020308
0.044546
0.096772
0.150403
0.192847
0.230187
0.263615
0.31987
0.38059
0.422674
0.453962
0.506403
0.535798
0.592752
0.635274
0.68043
0.679398
0.691329
0.693155
0.699231
0.708974
0.717801
0.698749
0.668218
0.656493
0.625993
0.624651
0.597885
0.530525
0.451403
0.38629
0.350978
0.305653
0.284877
0.24083
0.213927
0.163713
0.123962
0.082654
0.058674
0.050011
-0.005305
-0.045866
-0.073944
-0.060876
-0.022333
-0.036291
-0.042486
-0.041241
-0.033344
-0.033723
-0.033156
-0.032977
-0.013768
-0.008529
0.015683
0.018509
0.008337
0.011378
0.018785
0.014461
-0.000507
-0.004481
0.008308
0.035048
0.038621
0.040722
0.043761
0.04023
0.018635
0.020884
0.0127
0.022151
0.003332
-0.029564
-0.047836
-0.011981
-0.011306
-0.014445
-0.002334
-0.001943
-0.002086
-0.019843
-0.026832
0.007856
0.011325
-0.00229
0.005025
0.009822
0.008404
0.016912
0.012955
0.010896
0.015903
0.006795
0.010839
0.022768
0.01091
-0.006882
-0.01184
-0.007582
-0.030819
-0.000307
0.022059
0.046196
0.039284
0.008656
-0.007117
-0.028654
0.015124
0.029577
0.005015
0.010205
0.012873
0.014494
0.040056
0.041778
0.026002
0.014972
0.00305
-0.026924
-0.010246
-0.015295
-0.014392
-0.007337
-0.014558
-0.007955
0.015857
0.026464
0.03235
0.0391
0.045027
0.054549
0.021865
-0.0086
-0.008691
-0.030793
-0.009312
0.001437
0.004808
-0.019764
-0.021038
-0.004884
0.032229
0.029494
0.004664
0.013797
0.03279
0.067027
0.073898
0.055806
0.046644
0.04644
0.012735
0.004667
0.021977
0.020081
-0.013299
-0.004662
0.004846
0.013138
0.042902
0.021625
0.016174
0.034916
0.057104
0.059031
0.051745
0.032933
0.039783
0.070976
0.06501
0.055948
0.043357
0.04872
0.040322
0.049524
0.054586
0.048633
0.041084
0.041627
0.042633
0.03674
0.039407
-0.000784
-0.016627
-0.022355
0.022713
0.053474
0.056286
0.053649
0.060053
0.049189
0.042497
0.030953
0.026882
0.015582
0.014952
0.045521
0.052647
0.057565
0.050183
0.052393
0.034025
0.047413
0.065492
0.060295
0.057372
0.086743
0.092321
0.097798
0.099064
0.102815
0.103048
0.094063
0.091127
0.09694
0.09774
0.102085
0.093074
0.068147
0.05099
0.052957
0.084058
0.100396
0.127017
0.144047
0.143332
0.118283
0.110993
0.128477
0.105792
0.104784
0.12933
0.108638
0.123038
0.158182
0.16217
0.128923
0.109667
0.138791
0.153692
0.139793
0.14455
0.147508
0.180436
0.169217
0.155173
0.185039
0.183261
0.179416
0.175834
0.179601
0.176528
0.205856
0.201379
0.185421
0.17627
0.169821
0.160918
0.163908
0.177207
0.182786
0.190579
0.195654
0.233668
0.241042
0.23971
0.212007
0.217867
0.213691
0.203716
0.187787
0.187469
0.192321
0.212337
0.232451
0.227251
0.179045
0.151577
0.165119
0.190763
0.196067
0.197069
0.175276
0.165505
0.174227
0.202659
0.215816
0.224521
0.201429
0.211481
0.200057
0.1601
0.146017
0.141578
0.119426
0.11886
0.113433
0.103017
0.116524
0.121591
0.110016
0.100857
0.090853
0.095532
0.08921
0.117843
0.1183
0.108143
0.100157
0.077878
0.079192
0.080961
0.086333
0.071182
0.050247
0.051992
0.038141
0.01637
0.032525
0.048813
0.055251
0.050954
0.030709
0.028149
0.020834
0.010983
0.005079
0.020458
0.030591
0.038746
0.028858
0.03597
0.023933
0.021959
0.026394
0.017046
0.004487
-0.025707
-0.03282
-0.013721
-0.002709
-0.029581
-0.011362
0.011361
0.005348
0.009721
-0.020655
-0.009115
0.006572
-0.011893
-0.02818
-0.036594
-0.034291
-0.045169
-0.050808
-0.05024
-0.041047
-0.067901
-0.05932
-0.058018
-0.040373
-0.029376
-0.027628
-0.032267
-0.021163
-0.031857
-0.037953
-0.047738
-0.048725
-0.026117
-0.018044
-0.021246
-0.042036
-0.047397
-0.05176
-0.058174
-0.058045
-0.077174
-0.079742
-0.050814
-0.059478
-0.061779
-0.034346
-0.026079
-0.024343
0.02426
0.01244
0.009439
-0.003577
-0.025667
-0.029795
-0.02306
-0.035967
-0.054482
-0.034246
-0.041778
-0.045078
-0.054839
-0.062175
-0.055629
-0.044765
-0.033379
-0.025299
-0.012423
0.003691
0.007752
-0.01555
-0.024658
-0.005312
0.017329
0.005921
0.004782
0.023991
0.038573
0.003252
-0.034558
-0.030532
-0.015331
-0.013184
-0.037102
-0.061662
-0.055149
-0.046757
-0.043471
-0.026078
-0.037398
-0.043459
-0.027155
0.015061
0.008489
-0.021203
-0.058104
-0.038751
-0.034957
-0.047292
-0.057856
-0.041703
-0.022505
-0.02367
-0.026733
-0.011755
0.00261
-0.008215
-0.004012
0.011172
0.020051
-0.005916
-0.008393
0.015286
0.018497
0.010882
0.003515
-0.002836
0.000697
0.010406
-0.006866
-0.010365
-0.025536
-0.032791
-0.025195
-0.014596
-0.009324
0.014433
0.036415
0.038683
0.050843
0.005376
-0.00004
-0.006274
0.010274
0.000348
-0.033077
-0.052807
-0.022748
-0.027118
-0.012921
-0.02
-0.035238
-0.054918
-0.050124
-0.034636
-0.017263
0.023574
0.031975
0.00826
0.019215
0.033651
0.013465
0.019233
0.041672
0.011206
0.007502
0.033149
0.01006
-0.007903
-0.013368
-0.022418
-0.039194
-0.03389
-0.033268
-0.009561
0.004482
0.035392
0.031351
0.021002
0.018038
0.014056
0.03557
0.031088
0.013742
-0.006629
-0.011467
-0.04071
-0.021742
-0.021589
-0.034706
-0.037164
-0.038447
-0.034095
-0.025964
-0.009766
-0.019368
-0.006805
0.013701
0.035042
0.058712
0.044689
0.021993
0.041196
0.001302
-0.01702
-0.012063
-0.018713
-0.0387
-0.039486
-0.056435
-0.061305
-0.046101
-0.02791
-0.021466
-0.016483
-0.006979
0.009266
-0.001232
-0.009728
-0.021207
0.012116
0.030226
0.01714
-0.022392
-0.020682
-0.016985
-0.013121
-0.030816
-0.028623
-0.042221
-0.042555
-0.023908
-0.026411
-0.03771
-0.031393
-0.024594
0.00383
-0.017183
-0.036799
-0.032106
-0.023724
-0.001621
0.004048
0.030873
0.026314
-0.010237
0.00308
-0.002514
-0.021345
-0.026397
-0.012635
-0.010343
-0.031488
-0.029196
-0.02187
-0.001483
0.004763
-0.007912
0.000568
-0.005116
0.013355
0.015455
-0.002739
0.004348
-0.010657
-0.006172
0.00974
-0.018069
-0.051436
-0.070471
-0.055658
-0.021595
-0.03792
-0.030765
-0.018173
0.005264
0.016107
0.009212
0.008934
0.000952
-0.012991
0.013541
0.021486
0.00335
-0.009822
-0.006229
0.000384
0.008364
-0.008631
-0.015055
-0.02246
-0.033865
-0.027859
-0.023818
-0.039571
-0.030445
-0.011313
-0.019498
0.010199
0.025446
0.014675
0.001055
0.008236
0.003757
0.005973
-0.010522
-0.017501
-0.023561
-0.031395
-0.047301
-0.049604
-0.035275
-0.049467
-0.0326
-0.044683
-0.052153
-0.025778
0.012533
0.027429
0.022386
0.012968
0.013447
-0.002116
-0.010786
-0.027327
-0.018085
-0.004432
-0.001568
0.000429
-0.030663
-0.03862
-0.027741
-0.023108
-0.011029
-0.02237
-0.030289
-0.010684
-0.018937
-0.01413
-0.02644
0.005111
0.017946
-0.004606
-0.019016
-0.038455
-0.03455
-0.03645
-0.038625
-0.034717
-0.014879
-0.004864
-0.016054
-0.012779
-0.020823
-0.020407
-0.031365
-0.019291
-0.000608
-0.00387
0
0.011229
0.014653
-0.000171
0.004141
0.010179
0.006122
-0.021156
-0.02683
-0.017091
-0.020215
-0.023932
-0.023556
-0.031837
-0.019177
-0.010809
-0.019531
-0.004154
-0.006471
0.001277
-0.007833
-0.008744
-0.006565
-0.020347
-0.02236
-0.038497
-0.032791
-0.005551
-0.007181
-0.034906
-0.04875
-0.034676
-0.033001
-0.023288
-0.017481
0.000705
0.008992
-0.002071
0.009289
0.019084
-0.006669
-0.012904
0.013276
0.03195
0.031326
0.012837
0.015949
0.0225
0.019864
-0.042004
-0.062831
-0.032181
-0.001844
0.019719
0.017422
0.045225
0.086461
0.073071
0.07067
0.073183
0.081175
0.090906
0.08376
0.059379
0.058149
0.039562
0.042253
0.065864
0.051742
0.034843
0.030548
0.045171
0.06123
0.054751
0.058119
0.047176
0.073445
0.073356
0.101917
0.087475
0.082876
0.05322
0.052987
0.073472
0.067405
0.067965
0.093141
0.08216
0.042202
0.05353
0.040261
0.036492
0.070536
0.089661
0.063839
0.054644
0.037254
0.042385
0.049638
0.08426
0.09759
0.11364
0.082203
0.065222
0.050583
0.036959
0.026883
0.022617
0.000443
0.010165
0.024459
0.02766
0.030879
0.017713
0.019907
0.03153
0.061061
0.035807
0.016334
0.021461
0.024195
0.030013
0.018763
-0.004673
0.003966
-0.010466
-0.033966
-0.063985
-0.06033
-0.032229
-0.010701
-0.019168
-0.029527
-0.040137
-0.038657
-0.03174
-0.027897
-0.030408
0.003436
0.021628
0.023082
0.016003
0.012235
0.018633
-0.012737
-0.025972
-0.024907
-0.027861
-0.056469
-0.066282
-0.044158
-0.045858
-0.042212
-0.02972
-0.039788
-0.039748
-0.037805
-0.032358
-0.025296
-0.018165
-0.034281
-0.019235
0.006393
0.004969
-0.024428
-0.021915
-0.027162
-0.057349
-0.039775
-0.049836
-0.069973
-0.074077
-0.088142
-0.079104
-0.059173
-0.024308
-0.018821
-0.032934
-0.045766
-0.035714
-0.033399
-0.008057
-0.010099
-0.014527
-0.006071
-0.029289
-0.052178
-0.058234
-0.057941
-0.058173
-0.06987
-0.079553
-0.087926
-0.08531
-0.076306
-0.08635
-0.092795
-0.07121
-0.038528
-0.026693
-0.027687
-0.022341
-0.005722
-0.007304
0.008419
0.020304
0.028593
0.070117
0.123158
0.136651
0.142652
0.18086
0.218763
0.282733
0.358371
0.438515
0.501027
0.551692
0.597003
0.634105
0.643244
0.672936
0.703596
0.750477
0.752098
0.776033
0.754366
0.741667
0.721345
0.658599
0.64136
0.612421
0.556373
0.512526
0.483104
0.405121
0.349788
0.301823
0.273432
0.279891
0.27066
0.216207
0.200053
0.154022
0.125129
0.108759
0.065024
0.030813
-0.024792
-0.03537
-0.037112
-0.060544
-0.04847
-0.037593
-0.020818
-0.030799
-0.026236
0.002874
0.006938
-0.000167
-0.016369
-0.021664
-0.003973
0.022257
0.032494
0.032614
0.024658
0.022975
0.021226
0.022464
-0.000744
-0.00472
-0.010177
-0.016121
-0.028308
-0.00848
0.027702
0.020809
0.040635
0.043863
0.056429
0.046141
0.018975
0.02368
0.020936
0.026739
0.031929
0.033067
0.022194
0.03121
0.030294
-0.032855
-0.04026
-0.013249
0.006578
0.006307
0.002601
0.001511
0.016715
0.024941
0.031255
0.035214
0.03436
0.0338
0.027263
0.041304
0.038085
0.025531
0.012499
-0.006033
-0.008069
-0.01181
0.004745
0.004185
-0.00022
0.019649
0.014836
-0.017615
0.006852
0.024542
0.042782
0.037834
0.040846
0.039671
0.043804
0.039636
0.021302
-0.003927
0.005297
0.038752
0.041319
0.039023
0.02362
0.017826
0.032133
0.018338
0.024234
0.022165
0.051477
0.08632
0.060604
0.036882
0.036896
0.048077
0.033742
0.018459
0.00495
-0.000017
0.012746
0.014127
0.006907
0.003129
-0.003223
0.015428
-0.008734
-0.025099
-0.012041
0.004157
0.010617
0.015692
0.018006
0.035463
0.053432
0.032711
0.040702
0.058992
0.057533
0.029662
0.01246
-0.001558
0.015421
0.005431
-0.010191
0.008672
0.029711
0.053673
0.066904
0.052414
0.081908
0.093031
0.089991
0.066013
0.053266
0.048127
0.041925
0.045031
0.050673
0.046296
0.049897
0.044968
0.030757
0.017032
0.023956
0.026086
0.035304
0.051985
0.056706
0.054605
0.071716
0.093556
0.104011
0.099207
0.072714
0.073187
0.082198
0.088789
0.087665
0.075792
0.056512
0.055197
0.054349
0.075388
0.074533
0.070152
0.083311
0.074369
0.096823
0.12623
0.14286
0.124133
0.104014
0.070684
0.065934
0.096414
0.117978
0.110567
0.089075
0.054962
0.043178
0.039641
0.06509
0.088211
0.113586
0.120923
0.130648
0.134697
0.156571
0.162528
0.147726
0.159816
0.162647
0.174984
0.188727
0.181489
0.177259
0.172977
0.180701
0.189665
0.176656
0.174797
0.174985
0.170101
0.164115
0.16725
0.168507
0.179315
0.193384
0.19081
0.215665
0.204748
0.226144
0.231762
0.197118
0.190036
0.194489
0.183164
0.212857
0.22379
0.186958
0.154359
0.181823
0.190916
0.200578
0.203948
0.191721
0.19723
0.200845
0.195717
0.2039
0.208573
0.221593
0.228048
0.239039
0.234969
0.226472
0.221087
0.21979
0.212247
0.215908
0.196282
0.181531
0.173305
0.193308
0.192443
0.188378
0.196716
0.183746
0.186956
0.184667
0.184164
0.192954
0.168321
0.15562
0.158147
0.129729
0.140446
0.132925
0.109283
0.107332
0.125352
0.124013
0.11804
0.106193
0.082816
0.080386
0.089056
0.111951
0.128399
0.124411
0.093281
0.086581
0.088236
0.094866
0.078238
0.073083
0.061911
0.046289
0.039598
0.046052
0.048787
0.038797
0.01715
0.039592
0.018853
0.028078
0.054425
0.065312
0.0624
0.061409
0.058255
0.049794
0.024337
0.021449
0.007403
0.004882
0.018612
0.02178
0.025018
-0.018753
-0.02915
-0.032635
-0.039332
-0.015709
-0.010624
0.002529
-0.0254
-0.00905
0.037907
0.026188
0.009271
0.00218
0.003543
-0.010924
-0.024533
0.012846
0.003099
-0.017098
-0.023494
-0.015328
-0.020478
-0.020828
-0.019615
-0.013681
-0.035022
-0.039069
-0.035945
-0.019897
0.010229
0.022643
0.012713
-0.011078
-0.015007
-0.020706
-0.036558
-0.029201
-0.042105
-0.022102
0.003339
0.011818
0.001741
-0.048504
-0.057826
-0.04837
-0.042766
-0.046934
-0.034978
-0.038663
-0.020231
0.00745
0.014169
0.009046
0.004321
-0.004656
-0.012239
-0.006053
-0.005225
-0.002011
-0.022063
-0.048928
-0.04338
-0.032925
-0.022035
-0.011999
-0.001905
-0.008431
-0.017523
-0.000694
0.01782
0.034877
0.015765
0.003466
-0.002738
0.031386
0.030135
-0.005416
-0.021278
-0.033415
-0.025436
-0.02252
-0.042599
-0.01618
-0.024554
-0.040907
-0.035978
-0.006629
0.022119
0.011456
0.007214
0.010032
0.021066
0.036712
0.013223
0.014062
0.028917
0.028913
0.007458
0.00434
-0.00948
-0.020499
-0.017325
-0.014728
-0.031957
-0.034203
-0.012157
0.010299
0.021297
0.027804
0.034181
0.036679
0.019525
0.000567
0.023525
0.04074
0.024305
0.014433
0.025439
-0.00558
-0.015801
-0.01181
-0.012901
0.002712
-0.009243
-0.00393
0.01241
0.026956
0.037379
0.027514
0.042395
0.062523
0.06583
0.061822
0.060295
0.050645
0.03717
0.022965
-0.007719
-0.00153
0.008309
-0.002252
-0.009234
-0.0033
0.01805
0.023682
0.017767
0.017723
0.028014
0.026566
0.031603
0.042089
0.050715
0.055391
0.069894
0.063415
0.024895
0.019662
0.01479
-0.006658
-0.005336
0.005816
0.01549
0.019211
0.019207
0.01387
0.00721
0.019748
0.044946
0.04412
0.041585
0.067512
0.098913
0.043368
0.018675
0.003142
0.001952
0.002302
0.009231
0.019804
0.011953
0.024304
-0.005258
-0.015019
-0.002676
0.006764
0.006642
0.005604
0.000139
0.018789
0.041424
0.037701
0.033063
0.018005
0.026452
0.046862
0.081749
0.064967
0.040929
0.00407
0.005411
-0.025272
-0.046864
-0.030685
-0.025969
-0.005287
-0.00182
0.005938
0.013376
0.02425
0.027426
0.026751
0.032432
0.04301
0.06393
0.052823
0.030907
0.017834
-0.001501
-0.002839
-0.001215
0.012244
-0.002275
-0.005961
-0.000482
0.010773
0.00683
0.021807
0.02476
-0.00199
0.007829
0.017113
0.018164
0.015087
0.008183
-0.007026
-0.004284
0.00028
0.007696
0.008005
0.008852
-0.002444
-0.010615
-0.017725
-0.011741
0.006778
0.012823
0.013964
0.030128
0.028866
0.03206
0.045421
0.023841
0.008636
0.048227
0.024494
0.032126
0.021683
-0.000338
-0.020802
-0.019608
-0.028345
-0.01539
-0.014591
0.002095
0
0.009389
0.019136
0.013375
0.036511
0.044201
0.045944
0.048219
0.023977
0.019067
0.012159
-0.01539
-0.022021
-0.002175
0.003199
-0.002426
0.00895
-0.027728
-0.027849
-0.033293
0.005023
0.030793
0.047128
0.039431
0.055263
0.023368
0.044436
0.048513
0.03663
0.024049
0.019288
0.001061
-0.00925
0.009389
0.026544
0.028709
0.017381
0.019321
0.012324
0.02092
0.01984
-0.000849
-0.003447
0.004152
-0.02025
-0.021445
0.005407
0.022841
0.034795
0.020084
0.02648
0.031831
0.005451
0.003116
-0.002228
-0.003332
-0.01739
-0.007098
-0.01012
-0.001093
0.00486
-0.010147
0.012481
0.021533
-0.003392
-0.001268
0.03188
0.048279
0.036877
0.031051
0.011262
-0.003053
-0.002235
-0.011321
-0.011887
-0.029622
-0.011348
-0.007302
0.016579
0.005325
0.005607
-0.007228
-0.000046
0.025443
0.030604
0.016998
0.023575
0.040164
0.041564
0.042775
0.033786
0.005466
0.014585
0.015247
0.016614
-0.008338
-0.014509
-0.026582
-0.004942
0.003667
0.005472
0.017068
0.047754
0.038796
0.045167
0.0364
0.035275
0.038177
0.046197
0.040094
0.046796
0.047077
0.036481
0.03709
0.048656
0.052403
0.050619
0.043145
0.053811
0.041593
0.045388
0.052351
0.052407
0.070229
0.08293
0.064575
0.078861
0.095688
0.109046
0.081986
0.083082
0.069715
0.064469
0.071839
0.079297
0.087217
0.100402
0.088311
0.103956
0.096183
0.116115
0.119062
0.091931
0.073793
0.086784
0.098719
0.101097
0.100973
0.102469
0.081498
0.08253
0.091853
0.08469
0.104638
0.078856
0.086206
0.096699
0.078846
0.078924
0.079002
0.087563
0.095697
0.091373
0.090377
0.111071
0.117394
0.108166
0.127971
0.118538
0.084594
0.061561
0.056159
0.04614
0.058631
0.05153
0.031711
0.035345
0.039189
0.029514
-0.002589
-0.000358
0.01564
0.032066
0.038922
0.044317
0.048275
0.029999
0.033016
0.058134
0.059296
0.025754
0.016312
-0.001342
0.002777
-0.018746
-0.004012
-0.003779
-0.004535
0.003279
0.001399
-0.003559
-0.009621
-0.007671
-0.039337
-0.032016
-0.026321
-0.011179
0.01297
0.000967
-0.013987
-0.013667
-0.015061
-0.016457
-0.013248
-0.03996
-0.03912
-0.032569
-0.042414
-0.021219
0.004886
-0.006067
-0.006734
0.009414
0.007457
0.010378
0.016278
0.008262
0.010708
0.019531
0.022195
0.017256
-0.005978
0.000734
-0.007472
-0.021835
-0.03217
-0.024992
-0.03042
-0.034304
-0.010091
0.003932
-0.000644
0.018805
-0.002203
-0.020103
0.00174
0.022552
0.017623
0.007847
-0.008027
-0.009759
-0.02304
-0.04003
-0.069145
-0.081596
-0.042111
-0.042826
-0.019499
-0.032405
-0.05502
-0.047539
-0.045302
0.000079
0.018329
0.021713
0.063292
0.088899
0.111713
0.138783
0.165742
0.179676
0.223981
0.250364
0.261596
0.298141
0.361817
0.405933
0.453454
0.506595
0.547397
0.579804
0.587718
0.615584
0.672323
0.694437
0.725666
0.769681
0.758857
0.779014
0.778327
0.702802
0.679188
0.633739
0.611296
0.576897
0.523337
0.415934
0.340201
0.293192
0.289526
0.25956
0.256536
0.245658
0.244024
0.237974
0.213982
0.159276
0.089045
0.052082
0.023027
0.031215
0.014134
-0.007402
-0.016878
-0.033231
-0.017921
-0.000727
0.003019
-0.01093
-0.026432
-0.018137
0.008445
0.012694
0.033983
0.029817
0.052085
0.073708
0.064673
0.058454
0.049218
0.043336
0.048048
0.033455
0.04304
0.039701
0.039418
0.040212
0.030382
0.018408
0.039424
0.05249
0.059972
0.065679
0.071505
0.049169
0.053109
0.04819
0.050289
0.0622
0.060747
0.076536
0.087251
0.059199
0.057286
0.007953
0.004432
0.008734
-0.001917
-0.014553
0.047841
0.050401
-0.001609
-0.02174
0.000831
0.020977
0.041904
0.053187
0.083141
0.091516
0.083221
0.052907
0.03762
0.036926
0.032634
0.048779
0.037379
0.028852
0.035368
0.037551
0.030614
0.038024
0.049141
0.060553
0.061464
0.078273
0.086074
0.081908
0.066303
0.045229
0.037547
0.052966
0.070846
0.076813
0.066061
0.050941
0.024414
0.026448
0.031959
0.033257
0.025764
0.031965
0.023982
0.03721
0.059876
0.049635
0.057603
0.053541
0.060831
0.050198
0.057394
0.033374
0.063006
0.086855
0.119985
0.094419
0.074109
0.064677
0.053061
0.056211
0.063974
0.066215
0.068146
0.087589
0.112253
0.118204
0.103773
0.10102
0.073923
0.072607
0.091067
0.091732
0.074575
0.075206
0.046829
0.029202
0.024919
0.034221
0.049696
0.059225
0.049921
0.064097
0.072067
0.078921
0.084083
0.091393
0.0912
0.080743
0.089431
0.089748
0.068923
0.043008
0.051056
0.077932
0.071528
0.068736
0.068395
0.080899
0.076968
0.046354
0.049033
0.05252
0.044084
0.073124
0.092844
0.090916
0.12015
0.118501
0.101644
0.117337
0.150957
0.155294
0.13138
0.1153
0.098024
0.086758
0.083225
0.086171
0.0942
0.095443
0.086453
0.097439
0.128786
0.13197
0.129263
0.102786
0.118595
0.15844
0.146419
0.141147
0.150573
0.169341
0.176731
0.170957
0.150356
0.134396
0.135143
0.133894
0.120034
0.138079
0.155402
0.155601
0.174373
0.195192
0.202692
0.2042
0.207337
0.208741
0.196269
0.177092
0.180362
0.193825
0.19916
0.213953
0.20359
0.20023
0.192171
0.196209
0.189055
0.171146
0.173917
0.20936
0.228879
0.228177
0.240934
0.264129
0.26342
0.262
0.247044
0.241339
0.229083
0.240625
0.237258
0.229049
0.24679
0.229208
0.233998
0.225709
0.227786
0.202934
0.198658
0.209519
0.237777
0.25636
0.247988
0.262537
0.261095
0.25286
0.242174
0.24123
0.238538
0.225433
0.186142
0.191663
0.184961
0.17871
0.200715
0.200776
0.20313
0.170099
0.171475
0.179471
0.182828
0.174013
0.175329
0.184624
0.189139
0.185769
0.182914
0.176302
0.166855
0.148305
0.134746
0.108834
0.095473
0.101802
0.088372
0.097968
0.119276
0.107302
0.082892
0.082724
0.098801
0.094099
0.079764
0.098128
0.108237
0.103348
0.09271
0.100748
0.093143
0.081826
0.061606
0.069483
0.050856
0.018529
0.002142
0.008157
0.03
0.034929
0.036821
0.040104
0.05568
0.072135
0.078065
0.075873
0.063321
0.038375
0.030092
0.039487
0.035575
0.032544
0.038788
0.015682
-0.022362
-0.028192
-0.031392
-0.028666
-0.047107
-0.032695
0.010751
0.020138
0.022084
0.045431
0.026484
0.008811
0.017962
0.029858
0.032499
0.058967
0.054883
0.023808
0.008513
-0.007205
-0.013325
-0.012342
-0.026399
-0.013312
-0.004334
0.010777
0.004648
-0.010113
0.03815
0.035274
0.019577
0.021511
0.048181
0.037246
0.041443
0.026117
-0.00147
-0.003508
-0.019604
-0.026707
-0.039439
-0.023051
-0.007586
-0.019281
-0.027426
-0.003858
-0.0203
-0.029284
0.002406
0.019899
0.005776
0.01238
0.022128
0.014255
0.037537
0.018564
-0.00934
0.009094
0.01551
0.015559
0.009294
0.014378
0.005461
-0.010862
-0.006894
-0.021813
-0.032953
-0.019322
-0.000144
-0.003601
0.008728
0.039473
0.044537
0.072324
0.051981
0.005359
0.005848
0.024962
0.026554
0.027786
0.008811
-0.034148
-0.030895
-0.020595
0.008432
-0.029905
-0.039201
-0.001405
0.032405
0.059776
0.05468
0.04302
0.072916
0.072624
0.063363
0.052321
0.062453
0.037905
0.035681
0.055629
0.02518
0.017531
-0.004937
-0.020904
-0.016109
0.008839
0.026049
0.023453
0.040311
0.050949
0.039889
0.041651
0.040073
0.028514
0.038237
0.035314
0.02248
0.0156
0.00273
0.038487
0.031388
0.028788
0.00189
-0.002258
0.004637
0.037461
0.038367
0.017538
0.029511
0.013908
0.00642
0.009447
0.01086
0.048766
0.060315
0.047142
0.067533
0.069563
0.030842
-0.005797
0.00582
0.004834
-0.002869
0.007428
0.01124
0.022157
0.028623
0.032105
0.0226
0.019192
0.028102
0.051125
0.059869
0.06511
0.051555
0.035073
0.022342
0.025727
0.014754
0.020246
0.008474
0.001413
-0.000528
0.004634
-0.008902
-0.005996
0.009661
0.032576
0.026471
0.005812
0.006861
0.014337
0.034148
0.024787
0.005875
0.003756
-0.016196
-0.025969
0.006846
0.027725
0.032854
0.03166
0.003048
-0.017872
-0.030463
-0.00521
0.02309
0.049329
0.036042
0.012967
0.0432
0.039323
0.032092
0.056991
0.06273
0.039655
0.028426
0.031087
0.020277
0.030227
0.026806
0.018925
-0.007728
-0.007947
-0.002976
-0.003718
0.003567
-0.007288
-0.007565
-0.008544
0.003378
0.021456
0.047348
0.066349
0.03511
0.015944
0.01431
0.020022
0.00633
0.014379
0.007972
0.007367
-0.010436
-0.040321
-0.058567
-0.041958
-0.051046
-0.028953
0.015014
0.023416
0.035384
0.046307
0.044061
0.041362
0.026326
0.016205
-0.00225
0.00307
0.010784
-0.007706
-0.032908
-0.035186
-0.005945
0.022053
0.030205
0.012024
-0.013424
-0.014242
-0.004253
0.018924
0.022588
0.039874
0.019342
0.029279
0.018225
0.025529
0.045086
0.033975
0.001555
0.002763
0.000977
-0.015775
-0.019717
-0.009224
-0.012552
-0.014561
-0.014905
-0.019984
-0.025975
-0.031015
-0.031965
-0.066852
-0.011873
0.036378
0.014294
0.005729
0.007537
0.017376
0.02191
0.000521
0.017034
0.01658
-0.003293
-0.018902
-0.008182
-0.001057
0.002699
-0.007428
0.015136
0.019909
0.028972
0.033297
0.03756
0.023002
0.016164
0.023699
0.006829
-0.008405
-0.000527
0.004268
0.008969
0.011562
0.005974
-0.006856
-0.015431
-0.03386
-0.019678
0.007785
0.00774
0.022409
0.039531
0.031323
0.034803
0.036141
0.030278
0.023029
-0.013776
-0.007324
0.007206
-0.018084
-0.012863
-0.008068
-0.037335
0.005696
-0.03098
-0.053341
-0.030991
-0.011248
-0.001468
0.007543
0.026081
0.046695
0.034039
0.01014
-0.021847
-0.001681
-0.010554
0.011332
0.013056
-0.002186
-0.031531
-0.030047
-0.028788
-0.016321
0.003073
-0.003765
-0.026505
-0.021965
-0.004188
0.007909
-0.002031
0.002995
0.024802
0.037744
0.04368
0.018407
0.008596
0.002
-0.011227
-0.02697
-0.026704
-0.019165
0.001415
0.000127
-0.000245
-0.013935
-0.01948
-0.000211
0.00764
0.012493
0.033607
0.026441
0.045484
0.063253
0.040625
0.035015
0.048898
0.060838
0.052652
0.043037
0.048459
0.050259
0.042104
0.023575
0.02471
0.029104
0.045379
0.074419
0.08143
0.09268
0.100153
0.10791
0.064723
0.04626
0.058664
0.06547
0.066929
0.081385
0.093469
0.090336
0.065187
0.063935
0.063275
0.069487
0.071678
0.07679
0.081189
0.066886
0.074727
0.079348
0.084037
0.072123
0.100425
0.112352
0.113905
0.097714
0.080548
0.068584
0.079128
0.069864
0.064721
0.051642
0.054219
0.046443
0.034247
0.039822
0.053525
0.057136
0.057264
0.070366
0.077993
0.08635
0.070354
0.037789
0.019942
0.063559
0.059206
0.050716
0.052423
0.040777
0.03009
0.004706
0.003644
-0.008729
0.006915
0.011916
-0.003299
-0.002258
-0.005392
0.003629
0.01024
0.009677
0.027557
0.00556
-0.015498
-0.019123
-0.014642
-0.019683
-0.022594
-0.031585
-0.032452
-0.037332
-0.00823
0.011968
-0.016376
-0.047637
-0.041243
-0.058833
-0.060019
-0.014481
0.020409
0.006915
-0.03637
-0.027297
-0.028014
-0.042227
-0.03161
-0.043794
-0.03482
-0.045863
-0.059407
-0.060181
-0.060833
-0.04935
-0.033128
-0.033158
-0.02565
-0.01585
-0.017957
-0.029325
-0.00773
-0.006317
0.004886
0.004206
-0.025453
-0.036484
-0.038046
-0.029459
-0.027324
-0.043377
-0.066869
-0.05954
-0.036352
-0.025082
-0.040848
-0.060666
-0.058697
-0.032013
-0.010998
-0.019748
-0.024709
-0.034392
-0.081512
-0.073926
-0.071371
-0.087105
-0.085572
-0.08393
-0.088805
-0.06042
-0.067798
-0.075914
-0.068152
-0.035041
-0.03553
-0.033412
-0.008789
0.046009
0.080856
0.1257
0.150588
0.177218
0.185827
0.182271
0.253038
0.30795
0.348566
0.383983
0.418811
0.455971
0.474573
0.531919
0.574455
0.613221
0.676846
0.701278
0.720965
0.790766
0.779172
0.762518
0.731427
0.703292
0.672081
0.638369
0.574995
0.572009
0.531859
0.441089
0.362513
0.306289
0.277044
0.250735
0.228109
0.213566
0.186195
0.160695
0.115807
0.098181
0.092253
0.067623
0.041112
0.030179
0.001827
-0.02545
-0.037304
-0.062008
-0.078788
-0.07384
-0.062383
-0.053289
-0.03497
-0.052768
-0.065778
-0.039564
-0.023807
0.000703
0.029311
0.035486
0.042693
0.040825
0.028514
0.032012
0.03827
0.02919
0.015138
0.006927
0.011369
0.000367
0.010315
0.01967
0.001161
0.026609
0.04267
0.02469
0.024297
0.01532
0.03515
0.031636
0.022618
0.035163
0.023579
0.012701
0.040138
0.026444
0.02792
0.016087
-0.000396
-0.039751
-0.023453
-0.017337
-0.01996
-0.000187
0.002453
0.003787
-0.019384
0.003741
0.020513
0.021049
0.019214
-0.002835
0.010666
0.051774
0.051769
0.03872
0.020562
0.009903
0.002055
0.021081
0.017859
0.032878
0.03322
0.030422
0.00486
-0.010729
-0.040879
-0.017954
-0.001996
0.018923
0.066938
0.068613
0.051566
0.060761
0.040472
0.046594
0.008168
-0.026534
-0.030512
-0.023623
-0.011664
-0.022611
-0.040471
-0.003562
0.009107
0.024012
0.020982
0.025197
0.040351
0.030022
0.041054
0.028826
0.029122
0.039175
0.044466
0.039517
0.038366
0.04804
0.025332
0.006903
0.001079
-0.01427
-0.011146
-0.009273
0.01202
0.024512
0.030088
0.024827
0.033748
0.038595
0.046253
0.060851
0.050273
0.043973
0.045444
0.039754
0.029451
0.029356
0.05961
0.069214
0.043499
0.011008
0.001324
0.00193
0.00093
0.009426
0.024301
0.042593
0.050678
0.053805
0.04369
0.035116
0.026744
0.033464
0.063973
0.096606
0.074488
0.036316
0.018411
0.037405
0.027826
0.034467
0.031614
0.006493
0.007401
0.029539
0.031584
0.038989
0.063429
0.065945
0.072422
0.094365
0.081631
0.086387
0.087157
0.066771
0.040279
0.046907
0.047722
0.048942
0.054006
0.057823
0.07237
0.090831
0.099836
0.090414
0.087846
0.109993
0.106155
0.114334
0.113236
0.114024
0.102111
0.112174
0.119514
0.117995
0.117954
0.105879
0.102372
0.109494
0.105293
0.108533
0.109835
0.111347
0.097897
0.126655
0.129618
0.137071
0.153427
0.161444
0.167125
0.174568
0.166674
0.166208
0.177465
0.188795
0.151428
0.150137
0.162564
0.173841
0.167612
0.167492
0.171015
0.169043
0.168017
0.180525
0.202971
0.200539
0.201646
0.194189
0.211631
0.214313
0.20175
0.187143
0.196374
0.21259
0.186961
0.151835
0.170781
0.193704
0.182718
0.179937
0.189273
0.196397
0.199441
0.182022
0.192022
0.212368
0.251252
0.240195
0.216503
0.203327
0.191408
0.205555
0.20214
0.186371
0.195091
0.194762
0.188
0.16333
0.153717
0.144928
0.109796
0.123478
0.129742
0.12752
0.090028
0.072971
0.102114
0.090606
0.11454
0.1435
0.161314
0.153888
0.160695
0.130024
0.122461
0.096294
0.05689
0.081904
0.072612
0.075462
0.045933
0.057629
0.068163
0.082667
0.074741
0.063093
0.055665
0.05825
0.070863
0.042974
0.031761
0.037625
0.046099
0.02888
0.040163
0.033023
0.020461
-0.011336
-0.009456
0.000196
-0.002062
-0.028373
-0.039909
-0.012949
-0.008471
-0.01533
-0.008752
-0.005752
0.021264
0.019609
-0.007633
0.009561
0.015723
-0.020292
-0.04265
-0.043115
-0.016806
-0.006613
-0.046728
-0.058645
-0.035754
-0.032386
-0.045026
-0.031317
-0.01301
-0.00281
-0.005225
0.003476
0.008137
0.017645
-0.014384
-0.025619
-0.015614
-0.032573
-0.038412
-0.036088
-0.042716
-0.046178
-0.040261
-0.036118
-0.034513
-0.032467
-0.046199
-0.051831
-0.040588
-0.016436
-0.007841
-0.023794
-0.015049
0.009793
-0.007505
-0.026496
-0.040485
-0.049634
-0.027876
-0.045415
-0.055322
-0.03336
-0.040669
-0.057589
-0.047201
-0.062885
-0.059236
-0.039812
-0.042747
-0.040518
-0.041667
-0.023177
-0.032184
-0.031547
-0.035841
-0.020856
-0.021419
-0.033695
-0.033802
-0.016515
-0.025912
-0.027561
-0.030418
-0.035906
-0.015548
-0.016528
-0.029557
-0.030044
-0.044158
-0.044423
-0.036438
-0.057629
-0.036727
-0.029513
-0.027455
-0.040615
-0.041219
-0.009657
0.009014
-0.002683
-0.033348
-0.03098
-0.053954
-0.071374
-0.043758
-0.0408
-0.025231
-0.030175
-0.036383
-0.017046
0.000732
0.022843
0.039892
0.002348
0.008704
0.027576
0.00224
0.001955
0.009571
0.00707
-0.009932
-0.007535
-0.026553
-0.031503
-0.019645
-0.020766
-0.025551
-0.010855
-0.005299
-0.020695
-0.019312
-0.019515
-0.024424
-0.003004
0.007453
0.006997
0.018626
0.00042
0.00841
0.012699
0.004748
-0.024529
-0.031873
-0.022436
-0.036542
-0.020771
-0.012738
-0.00254
-0.029289
-0.000454
0.005004
-0.011563
0.011686
0.022
0.004266
-0.013375
-0.015386
-0.004034
-0.002722
-0.018392
-0.010918
-0.018828
-0.034661
-0.045739
-0.025284
-0.011093
0.02576
0.025817
0.012149
0.011839
0.010185
0.025082
0.021664
0.022734
0.002308
0.023785
0.009546
-0.000664
0.010768
-0.021877
-0.016228
-0.031136
-0.068244
-0.031348
-0.030178
-0.022638
-0.021746
-0.026113
-0.044994
-0.023503
-0.019974
-0.044959
-0.004754
0.013482
0.03166
0.022975
0.017618
0.010818
0.002616
0.006514
-0.000984
-0.010504
-0.007789
-0.010113
-0.04601
-0.033863
-0.019527
-0.04511
-0.034229
-0.036777
-0.035964
-0.02128
-0.003802
0.008414
0.018876
0.015768
-0.005408
-0.016853
-0.006102
-0.003395
-0.005533
0.017296
0.010817
0.002389
-0.002662
-0.010487
-0.037377
-0.034647
-0.013209
-0.029092
-0.04751
-0.045914
-0.02791
-0.023608
0.010657
-0.002952
-0.026301
-0.010126
-0.020846
-0.024558
-0.032244
-0.040207
-0.027687
-0.029069
-0.048601
-0.047765
-0.055126
-0.049992
-0.032413
-0.035462
-0.023143
-0.01457
-0.010206
-0.009923
-0.015091
-0.004483
-0.004948
-0.009515
-0.019082
-0.008513
-0.015862
-0.030191
-0.027759
-0.006873
-0.011307
-0.017425
-0.043872
-0.063364
-0.051998
-0.012115
-0.015838
-0.0625
-0.039963
-0.001887
0.01046
-0.008689
-0.013223
-0.001335
-0.025569
-0.029223
-0.030567
-0.038714
-0.074783
-0.084912
-0.061167
-0.042457
-0.045093
-0.042714
-0.037518
-0.018849
-0.010863
-0.013513
0.003603
0.00262
-0.02846
-0.031433
-0.019148
-0.015594
-0.002433
-0.00963
-0.01049
-0.025741
-0.046111
-0.040204
-0.047099
-0.058525
-0.05504
-0.019788
-0.045982
-0.05122
-0.06304
-0.028542
0.001722
-0.020799
-0.030542
0.005751
-0.009445
-0.024874
-0.039341
-0.044848
-0.015959
-0.059526
-0.072195
-0.056741
-0.044886
-0.024123
-0.00263
0.008179
-0.011317
-0.036303
-0.039664
-0.024876
-0.013558
-0.021073
-0.024949
-0.020537
0.003587
-0.016166
-0.030247
-0.035463
-0.03556
-0.028871
-0.049647
-0.026508
-0.018223
-0.046179
-0.034478
-0.049504
-0.073528
-0.06986
-0.053124
-0.05368
-0.048812
-0.021949
-0.026651
-0.006265
-0.010009
-0.028121
-0.06099
-0.087892
-0.038138
-0.018692
-0.03181
-0.048502
-0.03757
-0.03835
-0.041719
-0.047484
-0.04587
-0.027796
-0.035666
-0.023131
-0.017195
-0.037796
-0.017276
-0.029064
-0.036419
-0.036484
-0.026359
-0.028882
-0.040315
-0.037678
-0.017666
-0.039351
-0.055191
-0.05002
-0.046946
-0.03439
-0.019631
-0.000729
0.003922
-0.006274
-0.025485
-0.033218
-0.021967
-0.035544
-0.014696
-0.000806
0.001739
-0.012658
-0.039054
-0.071172
-0.070429
-0.061764
-0.061908
-0.068763
-0.067145
-0.052138
-0.019969
0.011708
0.013845
0.008989
0.01228
0.010873
0.018266
0.027388
0.022909
0.046464
0.050236
0.026477
0.009467
0.018163
0.034298
0.028741
0.00895
0.015873
0.010944
0.007074
0.04155
0.043005
0.039169
0.03577
0.025365
0.015093
0.003186
0.008022
0.00639
0.036679
0.052357
0.048741
0.035065
0.027259
0.032158
0.031304
0.033729
-0.001923
0.000827
0.027272
0.051993
0.070367
0.089307
0.065578
0.073968
0.081491
0.072889
0.072446
0.089222
0.076897
0.071617
0.066233
0.062064
0.041468
0.045132
0.02966
0.003045
-0.02698
-0.025194
-0.004928
0.005122
0.023887
0.019825
0.008036
0.003305
0.024141
0.007598
0.001572
0.02628
0.047008
0.030902
-0.021789
-0.020272
-0.007556
-0.036602
-0.044397
-0.032625
-0.03349
-0.058912
-0.050898
-0.04228
-0.028552
-0.041505
-0.020601
0.024439
0.021683
0.007966
-0.012491
-0.027871
-0.058028
-0.036979
-0.057437
-0.055267
-0.065856
-0.072255
-0.082704
-0.10737
-0.103453
-0.078982
-0.054618
-0.055996
-0.051667
-0.062889
-0.035955
-0.035516
-0.044006
-0.033962
-0.041672
-0.042512
-0.037595
-0.044892
-0.076181
-0.076652
-0.09521
-0.104299
-0.092264
-0.095567
-0.095567
-0.093216
-0.082857
-0.046763
-0.052385
-0.052236
-0.050431
-0.038353
-0.039087
-0.042108
-0.045296
-0.065202
-0.062645
-0.055263
-0.069042
-0.073564
-0.080718
-0.105681
-0.111528
-0.084298
-0.064905
-0.078095
-0.090421
-0.103654
-0.107956
-0.103037
-0.096593
-0.093241
-0.094058
-0.045266
-0.054711
-0.07775
-0.078162
-0.07407
-0.093576
-0.090963
-0.083897
-0.100274
-0.064396
-0.037639
-0.025863
0.011747
0.025502
0.043256
0.082081
0.1245
0.14681
0.175524
0.239106
0.30486
0.346636
0.378223
0.41668
0.447212
0.488314
0.51911
0.523993
0.56821
0.614419
0.633843
0.662343
0.692089
0.703285
0.722476
0.702817
0.641257
0.606412
0.596474
0.58842
0.565008
0.476911
0.403682
0.345836
0.325057
0.291315
0.25258
0.187157
0.176627
0.16851
0.127516
0.102799
0.060662
0.018403
0.002436
-0.010497
-0.020829
-0.002425
-0.020059
-0.033241
-0.045484
-0.064863
-0.058514
-0.035583
-0.047614
-0.061439
-0.066005
-0.079414
-0.028805
-0.039819
-0.051065
-0.043354
-0.035999
-0.034352
-0.010424
-0.000408
0.004812
0.005132
0.002835
0.002551
0.008099
-0.011573
-0.020415
-0.016515
-0.007683
-0.000467
-0.005699
-0.001525
-0.018181
-0.024726
-0.044102
-0.026333
-0.017556
-0.040625
-0.031282
-0.016006
-0.018682
0.009173
0.022164
0.036542
0.035388
0.012264
-0.008914
-0.015649
-0.043806
-0.060859
-0.059328
-0.036385
-0.027299
-0.020703
-0.001718
0.000443
-0.013876
-0.046463
-0.051724
-0.023844
-0.008611
-0.010112
-0.000341
0.007144
0.006064
-0.010199
-0.008157
-0.018717
-0.028773
-0.0257
-0.019644
-0.019399
-0.033946
-0.028505
-0.006745
-0.012374
-0.018926
-0.020131
-0.004615
-0.002464
0.019197
0.027901
0.008514
-0.009221
-0.020255
-0.009311
-0.017072
-0.002145
0.023351
0.024172
-0.007261
-0.044024
-0.033123
-0.034538
-0.03697
-0.010658
-0.002863
-0.006148
-0.005726
0.01096
0.010136
-0.007123
-0.015724
0.009712
0.031988
0.031201
0.024201
0.014457
0.020827
0.015055
0.006868
-0.00385
-0.021698
-0.043629
-0.033914
-0.011001
0.003538
0.018638
0.043302
0.036579
0.041155
0.023254
0.018787
0.029599
0.027576
-0.001508
-0.007685
-0.001023
-0.002793
0.00063
0.012032
0.003967
0.018767
0.0251
0.003222
0.005551
-0.008232
-0.009375
0.014906
0.006481
0.00934
0.024771
0.027404
0.024082
0.025384
0.036251
0.06254
0.057129
0.050906
0.041677
0.015895
-0.009136
0.006218
0.032528
0.040251
0.040671
0.091453
0.085448
0.065956
0.032129
0.037417
0.042772
0.018719
0.021036
0.010553
0.019033
0.054805
0.051624
0.044292
0.044426
0.059735
0.05274
0.042671
0.038724
0.051459
0.070484
0.081435
0.083843
0.092174
0.100644
0.109374
0.109431
0.108239
0.098791
0.085476
0.067176
0.104854
0.103245
0.092996
0.075852
0.077811
0.097219
0.102524
0.114662
0.12464
0.147978
0.147849
0.149651
0.13259
0.134729
0.156603
0.172531
0.188855
0.20511
0.204695
0.189072
0.168655
0.141315
0.110301
0.115521
0.10897
0.120823
0.131211
0.151767
0.14752
0.157438
0.154896
0.15595
0.164421
0.176642
0.168819
0.179741
0.190333
0.193288
0.175234
0.17849
0.194905
0.186742
0.178575
0.180653
0.174317
0.15987
0.144026
0.161569
0.14787
0.142309
0.166101
0.1833
0.184632
0.184307
0.194728
0.164673
0.156264
0.168214
0.19365
0.198624
0.191108
0.147845
0.109625
0.077292
0.087889
0.09718
0.069182
0.07387
0.101195
0.135839
0.141937
0.114136
0.132401
0.119353
0.085875
0.095343
0.092482
0.097054
0.085519
0.08412
0.084822
0.071648
0.040151
0.02953
0.050605
0.036879
0.022204
0.022232
0.048784
0.039215
0.035361
0.027971
0.034597
0.050427
0.06629
0.043877
0.024602
0.008582
0.00835
0.015878
0.016752
0.016849
0.006366
-0.005267
-0.034974
-0.071646
-0.069881
-0.02974
-0.061217
-0.062573
-0.010023
-0.027604
-0.029961
-0.034884
-0.02241
-0.008131
0.002053
0.005492
0.004951
0.008228
-0.028558
-0.031056
-0.031637
-0.032899
-0.043205
-0.019773
-0.021153
-0.033413
-0.048274
-0.041712
-0.047046
-0.051651
-0.050421
-0.046921
-0.04398
-0.041281
-0.043455
-0.035426
-0.040339
-0.046144
-0.047901
-0.032865
-0.044717
-0.081759
-0.094264
-0.087666
-0.080063
-0.061402
-0.061963
-0.083099
-0.086645
-0.080701
-0.071295
-0.053063
-0.041263
-0.054212
-0.045429
-0.035676
-0.029745
-0.032795
-0.035321
-0.036986
-0.062057
-0.086357
-0.077944
-0.063583
-0.08049
-0.095158
-0.095974
-0.078801
-0.055442
-0.050852
-0.066327
-0.075718
-0.06676
-0.06815
-0.056403
-0.044243
-0.037071
-0.012812
-0.003891
-0.018015
-0.01838
-0.005281
-0.035038
-0.058789
-0.069435
-0.062517
-0.057644
-0.040292
-0.028654
-0.019252
-0.02145
-0.032157
-0.017373
-0.037641
-0.02078
-0.036606
-0.027602
-0.029007
-0.024881
-0.029892
-0.032862
-0.048309
-0.049978
-0.05035
-0.076916
-0.06999
-0.062631
-0.061778
-0.036696
-0.03114
-0.034887
-0.016925
-0.003865
0.009113
0.013427
0.018338
0.012303
-0.005476
-0.026711
-0.041873
-0.023092
-0.023172
-0.007578
0.006838
-0.033977
-0.056377
-0.053164
-0.034689
-0.035667
-0.014717
-0.016471
-0.020314
-0.007139
-0.002422
0.012013
-0.003788
-0.056081
-0.053689
-0.039191
-0.040014
-0.028213
-0.037287
-0.053609
-0.076669
-0.052856
-0.039359
-0.055008
-0.057384
-0.034206
-0.015037
-0.003978
-0.00039
0.015498
0.013791
0.008353
-0.007796
-0.019628
-0.018976
-0.008625
-0.024206
-0.022127
-0.012313
-0.041162
-0.057156
-0.046526
-0.039273
-0.036604
-0.036155
-0.033613
-0.032824
-0.018323
-0.006796
0.033212
0.017391
-0.007527
-0.00185
0.000673
-0.000102
-0.005755
-0.031237
-0.030002
-0.028407
-0.066879
-0.054949
-0.028926
-0.034005
-0.04675
-0.035516
-0.013956
-0.021837
-0.016013
0.000445
0.000763
-0.009984
0.01559
0.00728
-0.012954
0.006592
0.00396
-0.013516
-0.029159
-0.049367
-0.052621
-0.032247
-0.042922
-0.044152
-0.047444
-0.057351
-0.058563
-0.049393
-0.032902
-0.035706
-0.016332
0.000808
0.00296
-0.005438
-0.04458
-0.030426
-0.008142
-0.013328
-0.013444
-0.015002
-0.036826
-0.036808
-0.055993
-0.050127
-0.063584
-0.060054
-0.05447
-0.035318
-0.024646
-0.023693
-0.034219
-0.020869
-0.006824
-0.015056
-0.020753
-0.021289
-0.021921
-0.049678
-0.052011
-0.080566
-0.086322
-0.065407
-0.06076
-0.056035
-0.048079
-0.020471
-0.013111
-0.0289
-0.024686
-0.019288
-0.022103
-0.031037
-0.020835
-0.019035
-0.018773
-0.022109
-0.019911
-0.021518
-0.02318
-0.050582
-0.045225
-0.036377
-0.058434
-0.065506
-0.041047
-0.031567
-0.018534
-0.018057
-0.028901
-0.026563
-0.032776
-0.02206
-0.017612
-0.009788
-0.019811
-0.03182
-0.00362
-0.002535
-0.034657
-0.035137
-0.036357
-0.056026
-0.067936
-0.078079
-0.047593
0.000786
-0.000486
-0.008945
-0.012894
-0.018973
-0.033612
-0.020366
-0.027773
-0.02081
-0.019043
-0.027423
-0.030219
-0.073279
-0.065388
-0.058911
-0.067649
-0.059162
-0.062107
-0.055319
-0.025622
-0.014022
-0.008379
-0.027224
-0.044026
-0.063001
-0.02753
-0.012355
-0.013668
-0.01748
-0.020024
-0.033696
-0.005411
0.004869
-0.025776
-0.044109
-0.037705
-0.055626
-0.066863
-0.053918
-0.061985
-0.065333
-0.07677
-0.052785
-0.035725
-0.045798
-0.022346
-0.024071
-0.017263
-0.040759
-0.036944
-0.022983
-0.037278
-0.065062
-0.023007
-0.01159
-0.011669
-0.032054
-0.048322
-0.042845
-0.028544
-0.022648
-0.028915
-0.022793
-0.010702
-0.033328
-0.034844
-0.009243
-0.009216
-0.034781
-0.038073
-0.040089
-0.016797
-0.021379
-0.036571
-0.061315
-0.100767
-0.122969
-0.132565
-0.094441
-0.061377
-0.015289
-0.010285
-0.031132
-0.027902
-0.035829
-0.025078
-0.02776
-0.021945
-0.036475
-0.043872
-0.021851
-0.023144
-0.017535
-0.030806
-0.059428
-0.092138
-0.084399
-0.052619
-0.037538
-0.024607
-0.036631
-0.02462
-0.013249
-0.025761
-0.0101
-0.002385
0.006503
0.01805
-0.005088
-0.035202
-0.048864
-0.062469
-0.043696
-0.04643
-0.056758
-0.04013
-0.012938
0.008843
0.006979
0.011374
0.022659
0.048948
0.034738
0.024484
0.03583
0.044856
0.039591
0.046196
0.02251
0.021107
0.022048
0.021066
0.005106
-0.017691
0.016429
0.019096
0.010816
0.011036
0.011263
0.010186
0.002744
0.022917
0.028283
0.036737
0.055826
0.060817
0.061754
0.065654
0.059433
0.069369
0.061004
0.064035
0.065318
0.02471
0.014306
0.00965
0.014366
0.027465
0.031602
0.011792
0.009697
0.024745
0.028664
0.037084
0.054247
0.054052
0.052388
0.042764
0.021118
0.028427
0.009171
0.025715
0.022519
0.020573
0.011558
-0.007899
0.011668
0.028706
-0.000179
-0.031423
-0.028093
0.001081
0.017041
0.007883
-0.011642
-0.003754
-0.016472
0.000283
-0.012324
-0.030466
-0.023871
-0.024098
-0.021409
-0.050511
-0.062148
-0.071996
-0.09168
-0.105613
-0.077655
-0.060213
-0.048166
-0.06153
-0.060392
-0.030908
-0.03554
-0.057036
-0.069852
-0.059667
-0.044148
-0.032392
-0.032705
-0.026826
-0.034798
-0.078664
-0.072504
-0.081098
-0.072438
-0.07372
-0.068508
-0.062982
-0.068352
-0.061559
-0.056292
-0.047396
-0.056656
-0.048099
-0.019786
-0.010177
-0.019823
-0.028577
-0.043054
-0.038245
-0.063094
-0.104918
-0.124459
-0.125871
-0.100866
-0.091138
-0.097645
-0.082519
-0.087691
-0.092337
-0.095993
-0.09125
-0.064705
-0.067568
-0.05374
-0.054862
-0.05836
-0.050431
-0.035402
-0.056426
-0.081552
-0.09969
-0.103005
-0.097366
-0.103648
-0.107663
-0.094746
-0.096179
-0.087801
-0.096802
-0.093405
-0.074103
-0.063355
-0.051987
-0.048207
-0.047153
-0.04215
-0.017275
-0.000083
0.011237
0.034193
0.085707
0.106223
0.129138
0.152781
0.198522
0.246457
0.303004
0.345508
0.381362
0.444411
0.490381
0.5211
0.561119
0.611159
0.634074
0.646526
0.666914
0.686575
0.689207
0.675032
0.687957
0.664591
0.603857
0.546017
0.498902
0.486459
0.457635
0.402617
0.357062
0.316095
0.299248
0.247607
0.195536
0.207629
0.209561
0.181058
0.124727
0.05834
0.030202
0.027594
-0.010004
-0.031383
-0.05766
-0.044335
-0.064896
-0.080179
-0.080117
-0.065343
-0.06267
-0.053402
-0.052347
-0.055056
-0.077104
-0.061047
-0.04396
-0.021418
-0.000544
-0.006076
-0.007695
-0.003683
-0.038664
-0.038981
-0.030999
-0.048844
-0.036474
-0.029437
-0.040564
-0.033586
-0.03257
0.002279
0.01221
-0.011196
-0.0065
-0.011343
0.01178
-0.001995
-0.012114
-0.011857
-0.034523
-0.03661
-0.013536
-0.015715
-0.007693
-0.018286
-0.036427
-0.055452
-0.033593
-0.023048
-0.018549
-0.024468
-0.0258
-0.00762
0.005273
0.014937
0.017777
-0.001867
-0.033438
-0.025184
-0.035687
-0.048648
-0.053046
-0.045884
-0.062141
-0.084178
-0.038578
-0.011828
-0.026248
-0.02836
-0.037561
-0.036909
-0.023229
-0.006148
0.003842
0.018385
0.032266
0.025388
0.018012
-0.005599
-0.000542
-0.024308
-0.040312
-0.064171
-0.045392
-0.032843
-0.057227
-0.053007
-0.036959
-0.025763
-0.020113
0.005201
-0.001558
-0.013754
0.01449
0.007692
0.014865
-0.008803
-0.020393
-0.024244
-0.037771
-0.032246
-0.032847
-0.057729
-0.039285
-0.019795
-0.013765
-0.006223
-0.016618
-0.016652
-0.01494
-0.012694
-0.010021
0.001862
0.017899
0.019511
0.044323
0.029106
0.023194
0.015019
0.006102
-0.004656
-0.002206
0.003697
-0.014588
-0.02042
-0.034285
-0.041144
-0.026112
-0.006898
0.014917
0.019078
-0.003337
-0.024849
0.006811
0.017785
0.008782
0.013529
0.028972
0.023684
0.01568
0.007022
0.018803
0.020069
-0.01134
-0.01381
-0.03105
0.000746
0.021956
0.029782
0.024621
0.027384
0.03732
0.049115
0.052625
0.040123
0.017113
0.014754
0.029139
-0.000492
-0.018921
-0.00283
0.013308
0.013207
0.025339
0.024987
0.032329
0.030531
0.026726
0.032612
0.06886
0.070919
0.049518
0.046323
0.052924
0.057858
0.055197
0.063347
0.066461
0.05494
0.050692
0.048839
0.05261
0.055632
0.0598
0.056648
0.046378
0.047427
0.071237
0.085057
0.078933
0.079491
0.111915
0.107766
0.097888
0.10685
0.12035
0.123937
0.136244
0.136203
0.11216
0.103727
0.099301
0.082913
0.081524
0.085939
0.114883
0.142977
0.139192
0.133495
0.141524
0.143887
0.136262
0.152327
0.170299
0.171596
0.186094
0.202947
0.163515
0.145122
0.140793
0.149273
0.150649
0.132285
0.136008
0.128436
0.135514
0.152007
0.154796
0.16315
0.173267
0.181385
0.181268
0.170052
0.186919
0.18948
0.18486
0.160663
0.152935
0.131575
0.136232
0.124993
0.145598
0.140315
0.135186
0.123539
0.118461
0.117996
0.126814
0.14009
0.143043
0.156626
0.170859
0.17154
0.149657
0.125226
0.12162
0.128928
0.09644
0.094464
0.102716
0.102987
0.077097
0.067241
0.071594
0.039812
0.000027
0.013631
0.059697
0.075121
0.08084
0.056057
0.055106
0.064462
0.064985
0.06527
0.053263
0.0459
0.012885
-0.00902
-0.00359
-0.004442
-0.002402
0.000709
-0.019917
-0.052583
-0.050719
-0.0292
-0.012179
-0.01737
-0.015901
-0.009329
-0.022054
-0.039673
-0.039301
-0.028586
-0.020175
-0.010512
-0.027945
-0.051931
-0.044192
-0.051032
-0.069632
-0.077941
-0.088554
-0.086915
-0.081237
-0.07127
-0.051769
-0.059226
-0.054383
-0.051434
-0.038818
-0.038877
-0.049089
-0.048187
-0.076923
-0.068617
-0.035646
-0.037553
-0.034044
-0.066878
-0.072745
-0.071069
-0.073151
-0.101025
-0.081999
-0.076411
-0.07609
-0.075961
-0.07569
-0.054062
-0.056321
-0.054926
-0.048703
-0.034824
-0.043568
-0.043445
-0.05437
-0.085634
-0.123347
-0.127304
-0.10815
-0.09806
-0.105838
-0.084288
-0.062119
-0.065701
-0.075664
-0.066918
-0.069506
-0.078722
-0.050583
-0.029957
-0.041978
-0.060809
-0.061502
-0.054739
-0.059629
-0.06721
-0.069021
-0.077113
-0.071574
-0.092246
-0.089714
-0.118006
-0.109838
-0.095657
-0.084236
-0.067392
-0.042684
-0.059004
-0.0409
-0.021015
-0.028633
-0.029395
-0.035764
-0.039521
-0.056259
-0.074366
-0.071106
-0.073964
-0.083522
-0.092989
-0.069433
-0.064816
-0.038313
-0.026799
-0.048547
-0.067749
-0.045918
-0.03088
-0.027531
-0.039466
-0.032106
-0.017851
-0.026324
-0.04363
-0.049598
-0.062118
-0.063604
-0.064488
-0.054255
-0.052451
-0.090439
-0.066976
-0.033595
-0.033863
-0.036917
-0.030319
-0.046249
-0.011898
-0.014162
-0.024785
-0.040431
-0.070254
-0.052571
-0.051175
-0.057441
-0.07835
-0.072616
-0.064956
-0.067182
-0.081035
-0.074583
-0.065878
-0.060101
-0.026885
-0.042233
-0.051423
-0.029133
0.004994
-0.005496
-0.027493
-0.03016
-0.00805
-0.021919
-0.021652
-0.00721
-0.022477
-0.01747
-0.026294
-0.049395
-0.060239
-0.070527
-0.054568
-0.027218
-0.04605
-0.047903
-0.048797
-0.032239
-0.031396
-0.052357
-0.043641
-0.040898
-0.039789
-0.057848
-0.059181
-0.052353
-0.036965
-0.039143
-0.053499
-0.071395
-0.069335
-0.077289
-0.056656
-0.043216
-0.046896
-0.046391
-0.047709
-0.072278
-0.044122
-0.02301
-0.030538
-0.023319
-0.041668
-0.055423
-0.039281
-0.055207
-0.039504
-0.021817
-0.037124
-0.06745
-0.08217
-0.063261
-0.05495
-0.038612
-0.026688
-0.05287
-0.07527
-0.035367
-0.031861
-0.037121
-0.030233
-0.016776
-0.018101
-0.039038
-0.045956
-0.042239
-0.05389
-0.061588
-0.06557
-0.08327
-0.101613
-0.073068
-0.06501
-0.060866
-0.051792
-0.056527
-0.041898
-0.016513
-0.027375
-0.030844
-0.021289
-0.02454
-0.010336
-0.028987
-0.03959
-0.044255
-0.052875
-0.047672
-0.075824
-0.098314
-0.095403
-0.098881
-0.083589
-0.082658
-0.072174
-0.071506
-0.057778
-0.030038
-0.034973
-0.028184
-0.039988
-0.03819
-0.03998
-0.041671
-0.030197
-0.038167
-0.049719
-0.052167
-0.038826
-0.042263
-0.052836
-0.074791
-0.078272
-0.079439
-0.080398
-0.076524
-0.053511
-0.047924
-0.038781
-0.03743
-0.023793
-0.030265
-0.049412
-0.048636
-0.060979
-0.044838
-0.043189
-0.067793
-0.10199
-0.100785
-0.090779
-0.08086
-0.074035
-0.056189
-0.048008
-0.043425
-0.059637
-0.068148
-0.047713
-0.048265
-0.029952
-0.045729
-0.063205
-0.058008
-0.063026
-0.048421
-0.042256
-0.049615
-0.05402
-0.051958
-0.059381
-0.102074
-0.105753
-0.082054
-0.057196
-0.058534
-0.073692
-0.069082
-0.069318
-0.061807
-0.052734
-0.045909
-0.034869
-0.030082
-0.037512
-0.068387
-0.064996
-0.052936
-0.066357
-0.077462
-0.082368
-0.091169
-0.087187
-0.062253
-0.029538
-0.037555
-0.05283
-0.053121
-0.049198
-0.031348
-0.016252
-0.021841
-0.038784
-0.05456
-0.061054
-0.065952
-0.065094
-0.057134
-0.066287
-0.084343
-0.090495
-0.102725
-0.075895
-0.047481
-0.045768
-0.05527
-0.048458
-0.036609
-0.035314
-0.027895
-0.038924
-0.032607
-0.039708
-0.047441
-0.055993
-0.085768
-0.098868
-0.080535
-0.06671
-0.080265
-0.07224
-0.076632
-0.082449
-0.0738
-0.061325
-0.087307
-0.08531
-0.054708
-0.044983
-0.062565
-0.074204
-0.069578
-0.063071
-0.052714
-0.039324
-0.028564
-0.027295
-0.026015
-0.03851
-0.051971
-0.065383
-0.043126
-0.045159
-0.073989
-0.08756
-0.089542
-0.057501
-0.072947
-0.056249
-0.013212
0.009109
-0.021278
-0.048107
-0.054749
-0.075011
-0.083004
-0.070573
-0.06613
-0.067296
-0.072268
-0.086148
-0.100347
-0.105575
-0.084132
-0.04929
-0.047192
-0.048686
-0.030377
-0.042938
-0.061196
-0.063071
-0.054037
-0.034354
-0.025196
-0.043077
-0.07825
-0.067292
-0.058325
-0.085049
-0.092863
-0.101359
-0.051613
-0.040184
-0.059176
-0.068874
-0.063627
-0.047753
-0.030061
-0.063431
-0.048949
-0.034389
-0.047441
-0.070275
-0.074348
-0.0586
-0.07336
-0.077399
-0.069772
-0.073006
-0.076119
-0.076083
-0.062158
-0.057146
-0.067952
-0.066247
-0.055729
-0.054757
-0.06866
-0.080416
-0.094888
-0.06395
-0.047962
-0.034848
-0.053866
-0.026768
0.003716
-0.002039
-0.032527
-0.031903
-0.021991
-0.035582
-0.028646
-0.022553
-0.03632
-0.024604
-0.017141
0.004933
-0.012393
0.011654
0.040701
0.045944
0.04497
0.030691
0.026213
0.039748
0.033363
0.016812
0.006654
-0.001123
-0.023671
-0.025489
-0.030879
-0.040288
-0.026811
-0.020928
0.018285
0.011604
0.025
0.020008
0.013239
0.011503
-0.004827
-0.009936
0.022412
0.035011
0.018787
0.015787
0.019269
0.032164
0.028925
0.017157
0.018305
0.009206
0.025896
0.022244
0.039374
0.047587
0.040539
0.036902
0.017383
0.022155
0.010562
0.001375
-0.000842
0.012271
-0.000495
0.000582
-0.005785
-0.011554
-0.026159
-0.015311
-0.019065
-0.020815
-0.021151
-0.042762
-0.043259
-0.033132
-0.044615
-0.053782
-0.043929
-0.040294
-0.029024
-0.00962
-0.020588
-0.048083
-0.063518
-0.088868
-0.075036
-0.078948
-0.097475
-0.095036
-0.095926
-0.089689
-0.070195
-0.083699
-0.051983
-0.042317
-0.046931
-0.062112
-0.087528
-0.073961
-0.0635
-0.084217
-0.069916
-0.055659
-0.064854
-0.096649
-0.115029
-0.110418
-0.084091
-0.104465
-0.120297
-0.102408
-0.07451
-0.066097
-0.075486
-0.091246
-0.076009
-0.072399
-0.074818
-0.073975
-0.068374
-0.077298
-0.082897
-0.065587
-0.117692
-0.116737
-0.127072
-0.126099
-0.137168
-0.116877
-0.101351
-0.104467
-0.074892
-0.066923
-0.037493
-0.049381
-0.058037
-0.057016
-0.058922
-0.07869
-0.081424
-0.089401
-0.077081
-0.078876
-0.074959
-0.108141
-0.116463
-0.134031
-0.125249
-0.12617
-0.131223
-0.130806
-0.113019
-0.089237
-0.100652
-0.110447
-0.107464
-0.060596
-0.043003
-0.019127
-0.021293
-0.021815
0.011166
0.02792
0.036981
0.098188
0.147014
0.162503
0.198637
0.23319
0.248594
0.289262
0.355489
0.419782
0.467972
0.522461
0.583067
0.610721
0.622795
0.647905
0.685469
0.702945
0.698412
0.715757
0.706173
0.681052
0.627282
0.577766
0.557298
0.529356
0.487648
0.444908
0.373518
0.284436
0.220093
0.217056
0.209231
0.201264
0.207426
0.183589
0.124264
0.082603
0.057789
0.004678
-0.037157
-0.070193
-0.084247
-0.091882
-0.096254
-0.091645
-0.080484
-0.081196
-0.07079
-0.047028
-0.060568
-0.071261
-0.067757
-0.058687
-0.020291
-0.009598
-0.027026
-0.020969
-0.007869
-0.006574
-0.017084
-0.04206
-0.052267
-0.056165
-0.053333
-0.064053
-0.048972
-0.047712
-0.056999
-0.049316
-0.052823
-0.032817
-0.048704
-0.032728
-0.008295
0.003132
0.01611
0.005244
-0.00479
-0.021121
-0.033236
-0.029551
-0.030304
-0.052967
-0.039455
-0.039137
-0.039016
-0.043189
-0.038405
-0.049326
-0.050375
-0.033534
-0.024101
-0.015766
-0.023416
-0.021085
-0.007347
-0.028588
-0.027234
-0.025528
-0.038327
-0.045512
-0.036693
-0.028737
-0.037178
-0.041792
-0.030836
-0.044995
-0.042638
-0.055052
-0.038259
-0.007398
0.008964
0.024768
0.024724
-0.00021
-0.030008
-0.039072
-0.035345
-0.052935
-0.042142
-0.002827
-0.012205
-0.009322
-0.012618
-0.018415
-0.030586
-0.003431
0.009212
-0.001238
-0.041601
-0.046019
-0.020373
-0.023419
-0.008443
-0.021638
-0.021708
-0.005528
-0.003004
-0.023684
-0.025332
-0.009227
-0.026147
-0.03835
-0.041897
-0.051601
-0.048766
-0.044957
-0.042246
-0.016344
0.001025
0.013876
0.011733
0.005487
0.008675
0.00523
0.010159
-0.004906
-0.002003
-0.00043
-0.001987
-0.021871
-0.035481
-0.041571
-0.057741
-0.046065
-0.02362
-0.014767
-0.005006
-0.009414
0.011814
0.013769
-0.004335
-0.005781
0.002598
0.010048
-0.000305
0.007419
0.01471
0.00528
-0.013325
-0.018847
-0.026068
-0.017039
0.004976
-0.008929
-0.044943
-0.049349
-0.056431
-0.020474
0.031914
0.046931
0.040306
0.034842
0.014823
0.045321
0.062091
0.062298
0.032357
0.014879
-0.006461
-0.003438
-0.00115
0.001138
-0.007155
-0.017183
-0.011482
-0.002401
0.056885
0.054677
0.019973
0.015134
0.035318
0.058352
0.061878
0.076527
0.093019
0.107274
0.080698
0.059959
0.065631
0.05822
0.065451
0.07088
0.072309
0.051432
0.03746
0.038321
0.029889
0.069947
0.109014
0.115148
0.107508
0.105183
0.117226
0.0979
0.085794
0.107271
0.109506
0.113111
0.098262
0.093472
0.079478
0.072781
0.095582
0.11415
0.125462
0.117187
0.106305
0.133728
0.162379
0.15164
0.171429
0.191259
0.186333
0.173179
0.161298
0.181499
0.185037
0.161903
0.154056
0.150428
0.140141
0.136582
0.141315
0.128597
0.144769
0.132841
0.132007
0.151949
0.180276
0.180759
0.194597
0.216495
0.220796
0.183997
0.155132
0.160238
0.130935
0.121575
0.149292
0.142329
0.144748
0.14898
0.116205
0.101246
0.110144
0.090515
0.086586
0.107387
0.134362
0.144335
0.15707
0.13551
0.136992
0.134684
0.125569
0.133409
0.130752
0.125194
0.124948
0.106801
0.098968
0.083669
0.040564
0.001995
0.020823
0.050988
0.034662
0.025351
0.031677
0.031423
0.025553
0.05262
0.061428
0.042151
0.029444
0.023192
0.013371
-0.025504
-0.026558
-0.012139
-0.017515
-0.015366
-0.025682
-0.024578
-0.014354
-0.007328
-0.011985
-0.020973
-0.029859
-0.014643
0.000096
0.005766
-0.040373
-0.055546
-0.033576
-0.032374
-0.037205
-0.061114
-0.048211
-0.042067
-0.049255
-0.05313
-0.043265
-0.065127
-0.070381
-0.04319
-0.044418
-0.066747
-0.044331
-0.038664
-0.021341
-0.029911
-0.029635
-0.030471
-0.04658
-0.071821
-0.087125
-0.094221
-0.026368
-0.039468
-0.085626
-0.109624
-0.081354
-0.086575
-0.08114
-0.087747
-0.091422
-0.089044
-0.073359
-0.065109
-0.04312
-0.057056
-0.077306
-0.076815
-0.083516
-0.095931
-0.094092
-0.097935
-0.094226
-0.093211
-0.074726
-0.04979
-0.044159
-0.057004
-0.083521
-0.106678
-0.092929
-0.09708
-0.094996
-0.089782
-0.099504
-0.073309
-0.039943
-0.025062
-0.028429
-0.020408
-0.0208
-0.046415
-0.049776
-0.046946
-0.058617
-0.065254
-0.096572
-0.094651
-0.105197
-0.096466
-0.075477
-0.067488
-0.068462
-0.05969
-0.048547
-0.044629
-0.060392
-0.052561
-0.035825
-0.051324
-0.067559
-0.066498
-0.064857
-0.077522
-0.07881
-0.087944
-0.087592
-0.101484
-0.085498
-0.043881
-0.043226
-0.03004
-0.021777
-0.050258
-0.045727
-0.049289
-0.029156
-0.016081
-0.02082
-0.029462
-0.053974
-0.062902
-0.085467
-0.089812
-0.099858
-0.096143
-0.077626
-0.079151
-0.062274
-0.037132
-0.017373
-0.011557
-0.015839
-0.00953
-0.000056
-0.019268
-0.041875
-0.041372
-0.032176
-0.04124
-0.031632
-0.029582
-0.057838
-0.087083
-0.080464
-0.054821
-0.080251
-0.09069
-0.062993
-0.037504
-0.050389
-0.045424
-0.074615
-0.041654
-0.042398
-0.050044
0.01924
0.032962
-0.008019
-0.022828
-0.053029
-0.053242
-0.023867
-0.014432
-0.028364
-0.04781
-0.05726
-0.059794
-0.066474
-0.049253
-0.048907
-0.053002
-0.046686
-0.020983
-0.016481
-0.012491
-0.028822
-0.014593
-0.002026
-0.013246
-0.030267
-0.054229
-0.077476
-0.059318
-0.053519
-0.088797
-0.072353
-0.069989
-0.085927
-0.09218
-0.07334
-0.050525
-0.029471
-0.031273
-0.060656
-0.036899
-0.034311
-0.040302
-0.060095
-0.059566
-0.031483
-0.05282
-0.086857
-0.074672
-0.081247
-0.075802
-0.064257
-0.063352
-0.046883
-0.047348
-0.050558
-0.028321
-0.044407
-0.040878
-0.008284
0.012548
-0.018457
-0.041591
-0.050733
-0.043588
-0.045734
-0.05881
-0.062622
-0.063033
-0.047427
-0.061054
-0.05
-0.054724
-0.061046
-0.091237
-0.088202
-0.073452
-0.071864
-0.060499
-0.051552
-0.018823
-0.023213
-0.02452
-0.013217
-0.02874
-0.052423
-0.060702
-0.084077
-0.106148
-0.096394
-0.072472
-0.056141
-0.049108
-0.046493
-0.05593
-0.043631
-0.044308
-0.041703
-0.015028
-0.025507
-0.01949
-0.026414
-0.040173
-0.045112
-0.063795
-0.064676
-0.069697
-0.076459
-0.090142
-0.116687
-0.094074
-0.0708
-0.067521
-0.078537
-0.063121
-0.045749
-0.071604
-0.086674
-0.07132
-0.05561
-0.049313
-0.043954
-0.032124
-0.038881
-0.079582
-0.070873
-0.063989
-0.086906
-0.08835
-0.077786
-0.072795
-0.051653
-0.072834
-0.106214
-0.107027
-0.090714
-0.063851
-0.058712
-0.050137
-0.043823
-0.038485
-0.035979
-0.040161
-0.049167
-0.04789
-0.053029
-0.057157
-0.060841
-0.088285
-0.112514
-0.087854
-0.087153
-0.099695
-0.075412
-0.074828
-0.082742
-0.072027
-0.050824
-0.024705
-0.075186
-0.080491
-0.046879
-0.048158
-0.095244
-0.077897
-0.024871
-0.019199
-0.014795
-0.047518
-0.062
-0.074291
-0.1138
-0.096394
-0.067586
-0.032558
-0.029299
-0.050699
-0.05553
-0.067064
-0.035463
-0.025653
-0.030873
-0.038862
-0.043222
-0.059692
-0.067972
-0.076944
-0.092194
-0.073145
-0.087741
-0.088889
-0.117845
-0.082254
-0.0752
-0.075414
-0.09167
-0.078416
-0.043949
-0.046185
-0.04811
-0.041865
-0.037812
-0.039479
-0.063216
-0.063625
-0.05101
-0.064728
-0.098648
-0.105554
-0.090457
-0.06059
-0.061985
-0.061754
-0.065371
-0.083526
-0.057082
-0.048336
-0.027606
-0.025275
-0.024241
-0.024751
-0.036792
-0.054997
-0.062863
-0.062883
-0.069676
-0.091161
-0.078916
-0.087858
-0.080385
-0.071473
-0.065288
-0.057671
-0.054725
-0.045003
-0.053363
-0.059311
-0.072539
-0.048406
-0.035329
-0.064446
-0.057314
-0.050034
-0.053085
-0.019629
-0.043156
-0.081764
-0.077025
-0.086696
-0.080784
-0.07945
-0.076457
-0.096965
-0.092989
-0.07353
-0.08199
-0.064249
-0.035899
-0.03547
-0.04799
-0.019386
-0.028532
-0.047307
-0.06216
-0.074184
-0.069621
-0.06258
-0.062196
-0.062218
-0.072862
-0.081907
-0.083648
-0.094324
-0.1044
-0.067694
-0.070795
-0.066053
-0.049817
-0.023195
-0.039343
-0.021528
-0.016691
-0.035602
-0.039798
-0.046567
-0.033498
-0.027377
-0.04754
-0.063799
-0.069942
-0.068675
-0.059259
-0.033174
-0.0428
-0.075765
-0.065331
-0.049385
-0.05196
-0.061824
-0.073494
-0.052117
-0.067466
-0.062929
-0.046366
-0.03617
-0.041536
-0.031803
-0.069731
-0.080227
-0.084143
-0.094067
-0.072459
-0.064373
-0.073457
-0.055295
-0.04929
-0.042941
-0.046975
-0.024109
-0.027831
-0.006054
-0.010734
-0.039096
-0.056897
-0.058522
-0.051572
-0.057288
-0.070933
-0.056783
-0.042652
-0.052192
-0.078642
-0.059118
-0.030144
-0.025631
-0.031181
-0.027228
-0.010847
0.000723
0.008936
0.009197
0.057992
0.045611
0.024016
-0.001645
-0.015208
-0.025106
-0.042993
-0.043414
-0.007553
0.005135
0.00265
0.001171
0.002109
-0.003276
-0.009521
-0.025008
0.00403
0.03498
0.038823
0.031513
0.034297
0.034448
0.033036
0.01965
0.027624
0.012814
0.004236
0.017037
0.025861
0.009945
0.005752
0.007588
0.015235
0.016028
0.001809
0.018563
0.024599
0.034823
0.050788
0.046657
0.043259
0.017084
0.033836
0.059917
0.029854
0.011609
-0.001833
-0.012621
0.005622
0.016452
0.020694
-0.000252
-0.009945
-0.004338
0.005243
-0.008571
-0.003157
0.003075
-0.008626
-0.026521
-0.007684
-0.045614
-0.039551
-0.005262
-0.014437
-0.01365
-0.021183
-0.032512
-0.063628
-0.074652
-0.068051
-0.073594
-0.050326
-0.042455
-0.030263
-0.034178
-0.038782
-0.069827
-0.094566
-0.111692
-0.073632
-0.063321
-0.042415
-0.012858
-0.040909
-0.04867
-0.054801
-0.07344
-0.095928
-0.121852
-0.114593
-0.106966
-0.132938
-0.10002
-0.066755
-0.069258
-0.07938
-0.055066
-0.047197
-0.054815
-0.047484
-0.041843
-0.04634
-0.056409
-0.05846
-0.077079
-0.094016
-0.124748
-0.108587
-0.110447
-0.116197
-0.113214
-0.100244
-0.052932
-0.08944
-0.098362
-0.098157
-0.052445
-0.028479
-0.014462
-0.03556
-0.058426
-0.058093
-0.067607
-0.082403
-0.100832
-0.110563
-0.13444
-0.118649
-0.103451
-0.108759
-0.102549
-0.08126
-0.061777
-0.066485
-0.100568
-0.09504
-0.082511
-0.085034
-0.08182
-0.075944
-0.072396
-0.08147
-0.075831
-0.101436
-0.097543
-0.088646
-0.086935
-0.056105
-0.057509
-0.038075
0.000623
0.002704
0.048372
0.103785
0.146567
0.162697
0.205201
0.269912
0.31634
0.364277
0.406003
0.439699
0.479433
0.546439
0.598356
0.636434
0.656999
0.69386
0.735968
0.752624
0.764939
0.75152
0.719197
0.711561
0.682226
0.635386
0.601956
0.540166
0.503282
0.445052
0.367448
0.307688
0.259115
0.218759
0.171603
0.127286
0.14632
0.085337
0.053731
0.007717
-0.024978
-0.035318
-0.049005
-0.05257
-0.055739
-0.089413
-0.080685
-0.067063
-0.066157
-0.055813
-0.05192
-0.07625
-0.093493
-0.090348
-0.070493
-0.046566
-0.024008
-0.01961
-0.008218
-0.015829
-0.035018
-0.043546
-0.001275
0.019528
0.002032
0.012915
0.003751
-0.000188
0.013529
-0.013802
-0.024424
-0.004128
0.003593
-0.03574
-0.031999
-0.019181
-0.03522
-0.042655
-0.036635
-0.032496
-0.039358
-0.036548
-0.022214
-0.026712
-0.031915
-0.025819
-0.031522
-0.033103
-0.004109
0.005318
-0.025485
-0.039474
-0.04567
-0.027841
-0.043841
-0.075506
-0.072458
-0.064389
-0.0453
-0.033976
-0.02177
-0.020539
-0.028525
-0.020256
-0.005245
0.005676
0.012757
0.021466
0.009088
-0.03708
-0.039085
-0.024061
-0.011623
-0.021745
-0.012973
0.001653
-0.011482
-0.033267
-0.036701
-0.014493
-0.031682
-0.023535
-0.002066
0.007766
0.017707
0.007125
-0.004452
-0.013385
-0.025688
-0.045916
-0.048125
-0.05615
-0.045902
-0.031362
0.00419
-0.003326
-0.000117
-0.023262
-0.034424
-0.027773
-0.033558
-0.026582
0.000034
-0.00107
-0.01116
-0.010391
-0.009363
-0.00297
0.012081
0.005274
-0.012886
0.000775
-0.000651
0.004772
-0.001375
-0.003525
-0.027418
-0.035534
-0.04559
-0.042859
-0.041642
-0.023054
0.005059
-0.000279
0.010904
-0.007345
-0.007908
0.017387
0.006928
-0.010717
0.017793
0.022179
-0.01254
0.001539
0.009659
-0.0216
0.005951
-0.012243
-0.012272
-0.010908
-0.001728
0.013075
0.027034
0.030275
0.018161
0.023118
0.027776
0.024979
0.042757
0.047513
0.031842
0.005016
-0.018903
-0.012845
0.006105
-0.005177
-0.009892
-0.02619
-0.030947
-0.025579
0.010155
0.009806
-0.016271
0.006537
0.012195
0.039247
0.055021
0.074276
0.082917
0.067123
0.055596
0.052747
0.056581
0.058913
0.040461
0.02961
0.035547
0.048632
0.041647
0.039518
0.03494
0.04295
0.066077
0.0747
0.072061
0.106184
0.104792
0.083659
0.10703
0.123022
0.116622
0.109349
0.111922
0.100077
0.114637
0.106841
0.101139
0.081887
0.0803
0.086536
0.097821
0.117632
0.119331
0.123728
0.143116
0.157525
0.166023
0.184859
0.173164
0.160734
0.15045
0.14094
0.151484
0.178367
0.169384
0.141798
0.161241
0.159785
0.155684
0.143762
0.148416
0.12494
0.159981
0.185625
0.177249
0.167239
0.184837
0.20861
0.186824
0.180605
0.192594
0.210606
0.20326
0.196664
0.165407
0.163974
0.168983
0.156917
0.142696
0.148004
0.162324
0.176815
0.200406
0.186517
0.181302
0.172217
0.194114
0.19771
0.207696
0.203347
0.182614
0.169817
0.152517
0.180876
0.154674
0.142534
0.140629
0.130221
0.130086
0.11215
0.107134
0.093594
0.073878
0.085086
0.103636
0.105603
0.116575
0.092585
0.083295
0.075993
0.083246
0.079366
0.063129
0.048169
0.013117
-0.011203
0.013038
0.015767
0.017775
0.004729
0.00586
0.017961
0.01996
0.023111
0.012623
0.017404
0.020756
0.022919
0.027318
0.032575
-0.011983
-0.038202
-0.036622
-0.018666
-0.017441
-0.018539
-0.030546
-0.065593
-0.058211
-0.078681
-0.06936
-0.047896
-0.03245
-0.015233
0.004336
0.024143
0.019977
0.007629
0.013016
-0.005936
-0.029446
-0.005352
-0.026173
-0.026976
-0.049521
-0.067088
-0.076874
-0.07998
-0.092636
-0.096905
-0.08564
-0.086024
-0.07907
-0.062899
-0.054246
-0.022565
-0.020081
-0.045571
-0.050056
-0.04099
-0.041211
-0.046105
-0.047345
-0.044515
-0.038183
-0.058488
-0.088125
-0.077459
-0.069851
-0.064431
-0.06674
-0.066182
-0.059841
-0.049498
-0.039494
-0.035046
-0.056166
-0.068451
-0.037366
-0.016167
-0.041593
-0.056954
-0.053915
-0.051665
-0.062816
-0.082396
-0.079722
-0.076743
-0.068445
-0.067673
-0.068081
-0.037196
-0.020923
-0.034571
-0.034771
-0.00797
-0.002925
-0.011502
-0.028924
-0.044493
-0.055351
-0.060357
-0.067205
-0.046502
-0.042682
-0.053787
-0.067044
-0.056114
-0.039974
-0.03477
-0.037121
-0.05474
-0.046664
-0.05063
-0.041111
-0.014699
-0.0154
-0.021218
-0.009422
-0.043663
-0.061456
-0.061393
-0.038525
-0.029638
-0.070355
-0.092553
-0.099839
-0.077339
-0.050964
-0.047224
-0.040781
-0.029402
-0.019478
-0.018658
-0.01543
-0.000353
-0.007665
0.008908
0.009873
-0.005689
-0.018756
-0.061745
-0.058272
-0.033854
-0.015684
-0.034944
-0.058885
-0.060202
-0.057173
-0.065822
-0.022775
-0.016393
-0.002839
0.0053
-0.002901
0.007357
-0.008556
-0.003774
-0.00354
-0.002849
-0.020211
-0.036097
-0.046303
-0.051124
-0.045103
-0.045329
-0.024489
-0.014955
-0.030541
-0.032578
-0.031491
-0.019185
-0.011936
-0.033887
-0.043763
-0.010069
0.005959
0.013205
0.012095
-0.016957
-0.025103
-0.002789
-0.00171
-0.009595
-0.038394
-0.048551
-0.032532
-0.022958
-0.013676
-0.009201
-0.016976
-0.037903
-0.051401
-0.036759
-0.034282
-0.017806
-0.004763
-0.01482
-0.000425
0.004841
-0.015981
-0.03911
-0.040128
-0.036725
-0.027837
-0.072369
-0.063134
-0.035908
-0.053256
-0.068423
-0.035568
-0.037204
0.006494
0.019409
0.027005
0.005135
-0.018286
-0.012169
0.00203
-0.005384
-0.020965
-0.048011
-0.050419
-0.046163
-0.051888
-0.050289
-0.076496
-0.050858
-0.050202
-0.066413
-0.057948
-0.031551
-0.028344
-0.020519
0.00019
-0.006222
0.014717
0.004907
-0.034691
-0.025479
-0.037057
-0.048939
-0.044048
-0.051598
-0.047164
-0.034583
-0.04769
-0.057885
-0.062278
-0.058065
-0.030114
-0.025027
-0.034907
-0.031962
-0.002326
0.013852
0.011462
-0.005936
-0.004987
-0.013357
-0.037671
-0.018446
-0.021922
-0.023628
-0.031839
-0.046615
-0.068543
-0.05429
-0.046745
-0.063249
-0.05648
-0.035184
-0.023763
-0.018076
-0.029734
-0.031252
-0.012557
0.008035
0.001865
0.00643
-0.017916
-0.047337
-0.039658
-0.058671
-0.054095
-0.060961
-0.070332
-0.073623
-0.059439
-0.051924
-0.053042
-0.044461
-0.038422
-0.048275
-0.042527
-0.018578
-0.0074
-0.006405
-0.009769
-0.011018
-0.009602
-0.034448
-0.080243
-0.072583
-0.045917
-0.039546
-0.043893
-0.033161
-0.009783
0.004698
-0.01353
-0.047693
-0.023939
-0.014496
-0.019481
-0.051034
-0.020991
-0.007354
-0.015418
-0.018993
-0.00619
-0.03433
-0.023004
-0.045713
-0.067616
-0.081654
-0.067749
-0.051636
-0.026806
-0.009697
-0.007036
-0.021942
-0.013235
-0.03122
-0.020868
-0.011939
-0.023801
-0.012056
-0.010079
-0.020718
-0.018155
-0.041112
-0.069185
-0.095802
-0.072118
-0.05736
-0.046015
-0.037932
-0.053102
-0.056044
-0.040329
-0.026638
-0.041473
-0.018728
-0.010417
-0.009013
-0.008955
0.001221
0.00123
-0.013825
-0.023775
-0.040229
-0.034673
-0.06881
-0.084817
-0.073869
-0.069862
-0.052033
-0.028404
-0.031521
-0.054968
-0.050762
-0.042636
-0.035495
-0.017131
0.003566
0.002629
0.014827
-0.017485
-0.031364
-0.073586
-0.07756
-0.044673
-0.030898
-0.015224
-0.004055
-0.014701
-0.02612
-0.04237
-0.058325
-0.039397
-0.039592
-0.050939
-0.026162
-0.012269
-0.020392
0.007461
0.001774
-0.012014
-0.005415
-0.006165
-0.005831
-0.01635
-0.014895
-0.021071
-0.033409
-0.076874
-0.097793
-0.089255
-0.055628
-0.084172
-0.055293
-0.03246
-0.002338
-0.01793
-0.033598
-0.016998
-0.013744
-0.016354
-0.010233
-0.002117
-0.017052
-0.025435
-0.040588
-0.044269
-0.034112
-0.041014
-0.03563
-0.033727
-0.033404
-0.044527
-0.053042
-0.0436
-0.029821
-0.023623
0.005246
0.013348
0.009566
0.01762
-0.001075
0.000108
0.006298
0.005122
0.001484
-0.002649
-0.01236
-0.009652
-0.000485
0.010756
-0.007211
0.006865
0.017483
0.007881
0.027498
0.035229
0.052531
0.054147
0.036183
0.037872
0.02987
0.029993
0.004237
0.016217
0.040882
0.028341
0.017381
0.006756
-0.014497
-0.01168
0.012772
0.019018
0.035738
0.044168
0.034473
0.051997
0.060036
0.066967
0.058348
0.064468
0.045352
0.058568
0.060344
0.063582
0.065602
0.047358
0.026637
0.023571
0.02664
0.051706
0.069296
0.081933
0.077986
0.078953
0.088876
0.08327
0.061977
0.062795
0.040874
0.033147
0.007941
0.013098
0.015199
0.007273
0.01656
-0.00637
-0.021757
-0.030054
-0.010243
-0.0012
0.016181
0.039294
0.033199
0.013166
0.002266
0.00191
-0.027294
-0.038369
-0.025942
-0.011406
-0.022757
-0.027856
-0.039275
-0.073814
-0.083404
-0.083841
-0.044029
-0.015931
-0.023405
-0.022359
-0.017063
-0.025728
-0.034085
-0.027641
-0.022177
-0.023962
-0.042026
-0.052421
-0.050435
-0.057555
-0.054955
-0.043726
-0.039404
-0.036786
-0.071691
-0.067537
-0.057138
-0.071185
-0.067947
-0.072804
-0.06349
-0.061577
-0.037795
-0.045096
-0.053993
-0.067403
-0.035728
-0.031376
-0.024439
-0.029859
-0.06142
-0.055693
-0.047129
-0.048632
-0.079186
-0.100629
-0.077661
-0.072573
-0.040745
-0.053859
-0.053013
-0.051493
-0.030796
-0.034634
-0.039871
-0.028669
-0.023228
-0.023312
-0.026257
-0.065769
-0.085156
-0.08502
-0.073976
-0.080526
-0.092118
-0.106676
-0.120544
-0.132906
-0.119553
-0.103203
-0.083951
-0.07663
-0.043055
-0.036506
-0.007079
0.023677
0.024776
0.028543
0.016586
0.022498
0.040254
0.046565
0.110546
0.167882
0.191361
0.233462
0.268048
0.280788
0.317334
0.348063
0.422842
0.497217
0.543408
0.571867
0.606754
0.648969
0.668917
0.703699
0.707101
0.697633
0.717099
0.709193
0.672272
0.645729
0.595502
0.52588
0.491261
0.456153
0.383106
0.315139
0.279428
0.264394
0.23876
0.247524
0.2214
0.219498
0.169827
0.120315
0.105519
0.071078
0.027333
-0.014249
-0.039603
-0.048632
-0.065719
-0.056352
-0.028522
-0.04958
-0.05507
-0.053524
-0.045713
-0.033035
-0.025404
-0.019363
-0.018636
0.002643
0.013637
0.012588
0.009737
0.017634
-0.000449
-0.02374
-0.026164
-0.032063
-0.03124
-0.030659
-0.021943
0.00278
0.026778
0.006999
0.016735
0.01478
0.000646
-0.004545
-0.005082
0.007964
0.023272
0.019921
0.026037
0.024674
0.028392
0.02147
0.017729
0.032981
-0.010653
-0.012014
-0.026998
-0.043159
-0.044704
-0.021843
-0.024118
-0.011072
0.022731
0.002535
-0.006662
0.000926
0.01326
0.028649
0.006656
-0.001288
-0.016866
-0.018606
-0.007993
0.000099
-0.005753
-0.001878
-0.024479
-0.016409
-0.003539
0.011398
0.000777
-0.012923
-0.018295
-0.01387
-0.017002
-0.037717
-0.012952
0.023352
0.051817
0.047003
0.017668
0.012827
0.016725
0.007306
-0.016759
-0.030572
-0.014102
-0.019826
-0.012224
0.018397
0.014689
0.016388
0.038009
0.035073
0.0585
0.045159
0.006893
0.019851
0.02204
0.020591
0.033139
0.050119
0.044553
0.026855
0.004477
-0.002771
-0.001419
-0.011041
-0.00513
-0.010066
-0.00704
-0.01721
0.013218
0.033612
0.035063
0.022381
0.046155
0.045936
0.048824
0.048036
0.049633
0.061606
0.044998
0.016974
-0.014696
-0.019852
-0.022923
-0.028074
-0.010285
0.004141
-0.005988
-0.008491
0.009011
0.032334
0.049304
0.056261
0.047698
0.05622
0.06372
0.058402
0.046085
0.045578
0.055813
0.016257
0.008445
0.015438
0.028632
0.020844
0.001562
0.015047
0.046007
0.061281
0.069673
0.061347
0.049047
0.04899
0.062804
0.059545
0.056517
0.071384
0.07063
0.051095
0.023244
0.025476
0.041184
0.040425
0.054925
0.06783
0.079232
0.081802
0.087009
0.098247
0.07078
0.089679
0.094989
0.103559
0.101484
0.100785
0.091428
0.09876
0.091364
0.100816
0.089767
0.069639
0.048822
0.075215
0.076941
0.081545
0.092677
0.111222
0.127222
0.119708
0.123686
0.154876
0.133632
0.117657
0.15363
0.181828
0.177528
0.166356
0.136271
0.148306
0.153982
0.150597
0.131381
0.145211
0.154401
0.162467
0.170556
0.157896
0.1638
0.155507
0.170128
0.173699
0.170879
0.17203
0.182739
0.189647
0.1911
0.183372
0.212281
0.212272
0.175521
0.143426
0.14805
0.165288
0.170596
0.18233
0.191839
0.185018
0.181581
0.193281
0.1913
0.205882
0.21877
0.213355
0.212261
0.191483
0.206975
0.225163
0.205912
0.169316
0.172947
0.138927
0.12667
0.151668
0.171683
0.165792
0.162169
0.164715
0.167798
0.166346
0.162912
0.183361
0.165962
0.143453
0.137996
0.149586
0.154159
0.136968
0.13568
0.115738
0.120961
0.102958
0.077988
0.067021
0.07166
0.080911
0.076034
0.066566
0.054474
0.104231
0.126589
0.109414
0.10758
0.107141
0.104075
0.111468
0.102829
0.07453
0.072847
0.038771
0.046402
0.026027
0.003701
-0.019809
-0.022799
0.008427
0.001395
-0.020488
-0.030145
0.000506
0.016825
0.015061
0.025191
0.025551
0.018156
0.024106
0.003784
0.01327
0.026292
0.0124
0.009627
-0.006789
-0.010732
-0.008593
-0.017109
-0.012424
-0.008195
0.005328
0.010734
0.022188
-0.001416
-0.022078
-0.01199
-0.034452
-0.035521
-0.01164
0.015869
0.01
-0.027246
-0.025857
-0.031567
-0.043737
-0.029137
-0.020503
-0.008443
-0.00735
-0.026445
-0.055011
-0.038503
-0.018521
0.000622
-0.004782
-0.024794
-0.025188
-0.026879
-0.044382
-0.030716
-0.028248
-0.025476
-0.039525
-0.054497
-0.048532
-0.06769
-0.081072
-0.093929
-0.07248
-0.048418
-0.031807
-0.020259
0.036596
0.032998
0.036747
0.013018
0.009336
0.009392
-0.002976
0.000301
0.002966
-0.012658
-0.014119
-0.011004
0
-0.021111
-0.02957
-0.052909
-0.032473
-0.023234
-0.026043
-0.013095
0.000062
0.013714
0.030881
0.007413
-0.033176
-0.02254
0.007047
0.023713
0.012179
0.023722
-0.028109
-0.038498
-0.026389
-0.061641
-0.037108
-0.036293
-0.04977
-0.0177
0.003912
0.005188
0.010166
-0.007215
-0.002332
0.01246
0.025737
0.030939
0.013507
-0.002105
0.00797
0.010876
0.004321
-0.009894
-0.019042
-0.026789
-0.041504
-0.028301
-0.004239
0.00799
-0.019472
-0.014952
0.006768
0.014412
0.014076
0.011499
0.007738
0.024075
0.033465
0.028475
0.009182
0.012729
0.015981
0.014668
-0.022114
-0.035328
-0.062375
-0.052302
-0.024706
-0.033348
-0.021936
-0.01573
-0.003283
0.025596
0.042073
0.047156
0.029769
0.020114
0.006123
0.015683
0.031306
0.013929
0.013324
0.027315
0.003467
-0.00464
-0.001152
-0.004284
-0.012168
-0.034925
-0.031324
-0.001082
0.002221
0.007291
0.002955
0.033239
0.04026
0.03164
0.015006
0.003847
-0.003801
-0.018628
-0.011416
-0.023096
-0.02471
-0.022526
-0.020003
-0.018489
-0.008165
-0.014656
-0.007808
-0.003652
-0.003114
-0.002982
-0.010535
0.002829
0.029732
0.041976
0.020402
0.009088
0.011522
-0.000489
-0.031011
-0.043159
-0.042842
-0.05792
-0.06677
-0.03856
-0.005161
-0.004491
-0.00345
-0.002077
-0.023527
-0.024293
-0.014168
-0.000424
0.008765
0.004335
0.010476
0.002904
-0.010668
-0.018825
-0.030696
-0.028978
-0.043333
-0.041918
-0.047787
-0.051135
-0.06786
-0.065272
-0.052477
-0.022185
0.015587
0.001168
0.010484
0.006049
0.029201
0.026007
-0.016623
-0.035424
-0.036513
-0.037707
-0.038089
-0.02799
-0.033866
-0.020399
-0.041521
-0.056905
-0.054568
-0.043934
-0.009573
0.000735
0.001588
-0.036275
-0.020379
-0.009435
-0.00687
-0.009755
0.000142
-0.006239
-0.026723
-0.027573
-0.051552
-0.037553
-0.035935
-0.024567
-0.036724
-0.034168
-0.013792
0.008199
0.002439
-0.007836
0.000048
-0.001204
-0.035298
-0.031645
-0.023966
-0.02688
-0.012344
-0.006196
-0.011656
-0.006522
-0.001343
-0.011471
-0.019652
-0.021361
-0.05605
-0.06402
-0.035931
-0.011917
0.008993
0.004584
-0.001185
-0.017166
0.002942
-0.019435
-0.038129
-0.013306
0.001045
-0.040974
-0.041212
-0.044587
-0.07351
-0.05441
-0.031222
-0.015784
-0.016035
-0.020987
-0.03371
-0.028335
-0.041937
-0.031654
-0.035272
-0.036649
-0.025253
-0.031427
-0.03313
0.021642
0.032653
0.000215
-0.024742
-0.052072
-0.056572
-0.056848
-0.040287
-0.04177
-0.047226
-0.051414
-0.051399
-0.055885
-0.056569
-0.055736
-0.038089
-0.01724
0.008998
0.006745
0.019283
0.004003
-0.009601
-0.013997
-0.028029
-0.029194
-0.010291
-0.032537
-0.049324
-0.062704
-0.0626
-0.062168
-0.048596
-0.020065
-0.027831
-0.034843
-0.045199
-0.031207
-0.02488
-0.002772
0.027332
0.023242
0.00441
-0.010584
-0.015922
-0.013499
-0.024413
-0.028222
-0.036061
-0.042554
-0.063757
-0.104287
-0.069336
-0.036168
-0.036054
-0.02306
-0.01844
-0.016416
0.00282
0.001734
-0.003924
-0.018862
-0.005741
-0.023661
-0.020273
-0.027515
-0.046822
-0.045147
-0.030937
-0.018289
-0.014292
-0.017229
-0.016466
-0.026139
-0.030356
-0.054695
-0.072098
-0.048256
-0.033505
-0.024881
-0.018157
0.007991
0.020088
-0.00569
-0.001391
-0.008638
-0.013093
-0.050822
-0.063643
-0.057563
-0.060577
-0.026972
-0.029745
-0.038382
-0.0435
-0.032983
-0.023895
-0.01926
0.000744
-0.009835
-0.016007
-0.018071
-0.015527
-0.000711
0.020209
-0.009432
-0.0231
-0.019929
-0.012649
0.004816
-0.003684
-0.011992
0.01017
0.041546
0.018925
0.02439
0.035443
0.052417
0.067832
0.0555
0.071182
0.06406
0.04807
0.036526
0.01597
0.008292
0.010803
-0.004861
0.000568
0.027765
0.052371
0.046343
0.045031
0.022982
0.011369
0.016393
0.036751
0.051597
0.077444
0.074986
0.049766
0.039876
0.021977
0.024727
0.041746
0.041987
0.054487
0.084155
0.073876
0.077224
0.067548
0.06718
0.057587
0.043553
0.045013
0.05952
0.079051
0.093286
0.075517
0.057506
0.052558
0.045526
0.043706
0.023669
0.006284
0.018227
0.011516
-0.015698
-0.029905
-0.009642
-0.009751
-0.000371
0.012692
0.025631
0.017246
0.028928
0.017577
-0.002311
0.00723
-0.001875
-0.002572
-0.003336
-0.015499
-0.007012
-0.000237
-0.028438
-0.049491
-0.053192
-0.065802
-0.072799
-0.0698
-0.049921
-0.037865
-0.03325
-0.045265
-0.044658
-0.051805
-0.049003
-0.027006
-0.039291
-0.060217
-0.06812
-0.046671
-0.060015
-0.041144
-0.039556
-0.072148
-0.084324
-0.095663
-0.077877
-0.044545
-0.056217
-0.055689
-0.069125
-0.052305
-0.03843
-0.042499
-0.032713
-0.032639
-0.035977
-0.0324
-0.017482
-0.016057
-0.021616
-0.035622
-0.05312
-0.087552
-0.109468
-0.108887
-0.08349
-0.096098
-0.09988
-0.113581
-0.099665
-0.092547
-0.062902
-0.040456
-0.028462
-0.016613
-0.015623
-0.019552
-0.039637
-0.035328
-0.033428
-0.06423
-0.070427
-0.074638
-0.095509
-0.10432
-0.114711
-0.098801
-0.082846
-0.107363
-0.081394
-0.073745
-0.06858
-0.077957
-0.039857
-0.002099
-0.001137
0.009358
0.010797
0.030181
0.039514
0.0445
0.086915
0.122336
0.140894
0.169524
0.198528
0.240152
0.295876
0.3464
0.39338
0.449013
0.491034
0.526114
0.559265
0.632674
0.667793
0.681738
0.688106
0.705738
0.729974
0.72296
0.694839
0.654592
0.632788
0.581566
0.565988
0.545453
0.499134
0.445007
0.365091
0.314763
0.290678
0.294197
0.269323
0.234472
0.209652
0.160903
0.138383
0.103665
0.084218
0.052676
0.000925
-0.04625
-0.0584
-0.064301
-0.070123
-0.068273
-0.070936
-0.049136
-0.055856
-0.05355
-0.04257
-0.043542
-0.04412
-0.023195
0.01125
0.028067
0.03204
0.013153
0.02
0.003489
-0.030793
-0.014986
0.003433
-0.034441
-0.058893
-0.04538
-0.001332
0.016198
-0.008618
-0.017082
-0.003508
-0.00347
0.015621
0.041593
0.020898
0.008867
0.014728
0.014918
0.007986
-0.007777
-0.002114
-0.008165
-0.034814
-0.040417
-0.028509
-0.015549
-0.008272
-0.004911
0.000365
0.012479
0.023943
0.025439
-0.016506
0.002449
0.045683
0.039691
0.029848
0.046534
0.033108
0.022073
-0.00235
-0.026201
-0.048546
-0.041527
-0.03483
-0.022494
-0.005406
-0.017498
-0.013055
-0.027435
-0.036302
-0.021028
-0.01006
0.00483
0.006846
0.032331
0.034867
0.040978
0.0307
0.010662
-0.008593
-0.032514
-0.034868
-0.033887
-0.03946
-0.012923
-0.012806
-0.008458
0.000915
-0.009595
0.003876
0.017768
0.026842
0.038496
0.038343
0.021724
0.010095
0.000068
-0.021328
-0.030118
-0.032107
-0.041536
-0.030368
-0.027496
-0.033042
-0.028319
-0.026454
0.001196
0.028459
0.053521
0.033763
0.027997
0.033369
0.033501
0.031843
0.042912
0.057098
0.053659
0.036853
0.030267
0.036299
0.03325
-0.001672
0.007846
0.028973
-0.003716
-0.032138
-0.033407
-0.017064
0.016901
0.036053
0.040272
0.051767
0.041878
0.03905
0.057181
0.024173
0.025915
0.019457
0.015669
0.006875
0.008055
-0.009391
-0.00436
0.014817
-0.002887
-0.002092
0.018032
0.023862
0.043921
0.038441
0.015869
0.014401
0.019068
0.042392
0.067
0.076409
0.057047
0.064334
0.074603
0.056957
0.038683
0.031414
0.021044
0.012452
0.009865
0.018514
0.042659
0.037672
0.033699
0.046666
0.069693
0.06612
0.03563
0.052464
0.05728
0.068263
0.06922
0.071768
0.078279
0.073776
0.059857
0.055414
0.086824
0.109905
0.095051
0.088975
0.098438
0.092759
0.086155
0.08683
0.098942
0.113156
0.141635
0.15912
0.143515
0.100657
0.107017
0.122597
0.131239
0.130927
0.145158
0.134217
0.128269
0.126034
0.134409
0.129014
0.149548
0.163638
0.143247
0.149436
0.169069
0.176774
0.181077
0.174693
0.179586
0.177369
0.178219
0.16939
0.177713
0.179644
0.175403
0.163519
0.173521
0.172572
0.186978
0.192881
0.211516
0.200296
0.190343
0.186521
0.210984
0.233833
0.232548
0.192415
0.148028
0.145774
0.131355
0.13029
0.144656
0.177917
0.204659
0.145137
0.142299
0.134238
0.129385
0.116286
0.098133
0.131322
0.139987
0.164131
0.183706
0.177225
0.165008
0.176557
0.178702
0.145672
0.123722
0.110978
0.095268
0.095169
0.099972
0.091887
0.082917
0.070151
0.064287
0.046467
0.050211
0.056545
0.039632
0.062939
0.09988
0.097324
0.079891
0.074143
0.052341
0.043957
0.021262
0.004703
0.000189
0.002655
-0.012704
-0.008047
0.002149
0.008035
0.014803
0.016918
0.012524
0.008898
0.005135
0.008799
-0.015554
-0.002867
0.023931
-0.005903
-0.030977
-0.026223
-0.010195
-0.019373
-0.029156
-0.039204
-0.036297
-0.047779
-0.034654
-0.041428
-0.052502
-0.033219
-0.016672
-0.012718
-0.034026
-0.041991
-0.025955
-0.02242
-0.020074
-0.021778
-0.02235
-0.026296
-0.021216
-0.025802
-0.075877
-0.084549
-0.079214
-0.067449
-0.058063
-0.068223
-0.064514
-0.044539
-0.048551
-0.057809
-0.067468
-0.088705
-0.059593
-0.038978
-0.049357
-0.064079
-0.038802
-0.053078
-0.061387
-0.064789
-0.084989
-0.104704
-0.112906
-0.104258
-0.078925
-0.067588
-0.043118
-0.033691
-0.034293
-0.038253
-0.023462
-0.026209
-0.037067
-0.036534
-0.038508
-0.040812
-0.014801
-0.019868
-0.035656
-0.024674
-0.037781
-0.063326
-0.082283
-0.108063
-0.086063
-0.083151
-0.083286
-0.051233
-0.043034
-0.043264
-0.043075
-0.066574
-0.062302
-0.056559
-0.042575
-0.060201
-0.046761
0.012979
0.017102
-0.022759
-0.036363
-0.051924
-0.069023
-0.050945
-0.04461
-0.047635
-0.045828
-0.047421
-0.046529
-0.049194
-0.033344
-0.03473
-0.027103
-0.02651
-0.023935
-0.026827
-0.038661
-0.041394
-0.016718
-0.012938
-0.027843
-0.040805
-0.047181
-0.055205
-0.041224
-0.040448
-0.029026
-0.002893
-0.001861
-0.038501
-0.026682
0.001064
-0.022352
-0.015079
-0.026612
-0.028751
-0.016454
-0.010496
-0.008681
-0.010272
-0.032824
-0.044261
-0.054268
-0.022316
-0.029197
-0.025775
-0.041774
-0.060621
-0.035743
-0.009001
-0.014321
-0.013226
-0.013966
-0.004302
-0.010797
-0.001144
0.006609
0.002279
-0.024661
-0.032862
-0.045635
-0.068214
-0.063292
-0.055705
-0.05337
-0.019796
-0.008056
-0.03664
-0.018132
-0.01705
-0.042655
-0.030075
-0.046954
-0.05708
-0.053344
-0.028821
-0.011971
-0.007676
-0.028009
-0.023234
-0.0253
-0.040173
-0.044042
-0.037024
-0.040846
-0.047559
-0.031681
-0.023392
-0.022306
0.000434
-0.011919
-0.028806
-0.018629
-0.00108
-0.009376
-0.026037
-0.041215
-0.053389
-0.049621
-0.054465
-0.058977
-0.028555
-0.019781
-0.02445
-0.051937
-0.059048
-0.038635
-0.029868
-0.026717
-0.03833
-0.047892
-0.047899
-0.048388
-0.049075
-0.008092
0.022492
-0.018303
-0.040847
-0.046515
-0.037978
-0.073113
-0.085943
-0.070218
-0.04544
-0.057916
-0.041018
-0.016251
-0.025861
-0.028929
-0.042098
-0.056638
-0.042433
-0.012765
-0.002368
0.002225
-0.001388
-0.00189
-0.015061
-0.02522
-0.053298
-0.039444
-0.039231
-0.054254
-0.075073
-0.077241
-0.060339
-0.05613
-0.052606
-0.05159
-0.05042
-0.057424
-0.035167
-0.020274
-0.030389
-0.016689
-0.000799
0.00229
-0.005439
-0.031608
-0.040722
-0.047822
-0.061958
-0.08812
-0.091329
-0.081494
-0.052454
-0.056901
-0.064825
-0.061051
-0.056082
-0.038893
-0.035774
-0.032571
-0.000559
-0.002609
-0.010614
-0.010631
-0.01988
-0.030845
-0.05718
-0.087454
-0.098714
-0.098737
-0.066742
-0.059232
-0.042633
-0.044266
-0.051887
-0.05985
-0.067464
-0.067985
-0.022581
-0.008097
-0.023778
-0.033571
-0.030014
-0.017245
-0.009388
-0.040737
-0.084993
-0.092445
-0.101133
-0.088227
-0.067278
-0.052159
-0.054949
-0.063725
-0.071219
-0.041849
-0.018399
-0.006489
-0.011781
-0.010605
-0.015595
-0.024072
-0.029334
-0.023817
-0.025699
-0.033046
-0.042495
-0.044419
-0.050115
-0.053852
-0.055359
-0.07425
-0.089857
-0.064595
-0.069324
-0.067052
-0.043502
-0.035822
-0.023711
-0.010019
-0.022062
-0.041418
-0.029246
-0.038081
-0.049851
-0.050451
-0.052905
-0.034532
-0.046895
-0.059977
-0.053688
-0.047015
-0.063259
-0.062784
-0.065173
-0.063026
-0.02852
-0.032864
-0.027222
-0.030344
-0.044407
-0.036199
-0.019493
-0.027553
-0.013634
-0.016502
-0.024344
-0.028482
-0.049213
-0.074115
-0.069755
-0.058622
-0.047923
-0.056734
-0.051981
-0.048448
-0.072735
-0.070465
-0.061358
-0.057928
-0.034525
-0.028499
-0.042378
-0.040103
-0.043369
-0.053903
-0.069939
-0.056967
-0.072781
-0.081662
-0.072657
-0.081344
-0.069105
-0.042453
-0.032985
-0.026889
-0.012875
-0.029509
-0.042603
-0.053206
-0.044898
-0.040145
-0.020917
-0.023131
-0.039059
-0.028505
-0.052426
-0.051608
-0.069223
-0.093394
-0.077659
-0.052604
-0.053777
-0.050248
-0.069274
-0.065277
-0.053443
-0.044716
-0.028396
-0.014616
-0.011012
0.020861
0.02537
0.031129
0.024151
-0.003543
-0.012435
0.008348
0.009527
0.000876
-0.006854
-0.002363
0.003626
-0.001904
-0.00116
0.008873
0.017058
0.024673
0.028198
0.032368
0.035662
0.046669
0.034189
0.037798
0.024883
0.016018
0.019105
0.029162
0.034133
0.019082
-0.002864
-0.01598
-0.015948
0.01469
-0.014635
0.009309
0.0464
0.036585
0.011721
0.041515
0.051347
0.048625
0.070639
0.043978
0.042706
0.043175
0.052276
0.049538
0.044316
0.006867
0.019964
0.020996
0.009947
0.020439
0.041274
0.034563
0.019733
0.031375
0.03886
0.024757
0.05296
0.048703
0.037154
0.03733
0.016158
0.010854
0.006243
-0.00586
-0.037599
-0.064273
-0.071864
-0.062533
-0.069429
-0.053691
-0.042349
-0.044828
-0.045358
-0.031293
-0.032671
-0.019329
-0.022756
-0.028644
-0.02771
-0.015743
-0.031212
-0.045983
-0.079321
-0.084181
-0.071816
-0.082954
-0.093387
-0.089552
-0.085315
-0.085414
-0.079094
-0.08122
-0.069483
-0.072828
-0.059894
-0.047971
-0.048688
-0.055029
-0.064133
-0.080051
-0.09721
-0.069694
-0.067373
-0.052339
-0.059145
-0.060174
-0.066166
-0.06503
-0.068014
-0.068993
-0.0765
-0.085898
-0.08501
-0.072022
-0.077596
-0.064837
-0.069647
-0.100005
-0.104103
-0.064689
-0.084065
-0.080264
-0.057941
-0.07437
-0.062833
-0.084261
-0.102462
-0.088096
-0.105874
-0.111565
-0.099138
-0.096088
-0.07392
-0.061397
-0.0575
-0.054842
-0.052501
-0.069209
-0.091029
-0.089425
-0.104891
-0.121109
-0.127377
-0.148053
-0.123513
-0.13077
-0.13366
-0.102006
-0.117075
-0.079323
-0.044066
-0.042083
-0.032067
-0.002709
-0.007795
0.028384
0.080131
0.121732
0.164183
0.201525
0.221649
0.249777
0.2888
0.316258
0.347042
0.39829
0.443271
0.50711
0.534755
0.576606
0.621684
0.634191
0.666986
0.692095
0.682895
0.692855
0.668073
0.619442
0.609003
0.573088
0.522927
0.502621
0.443155
0.330774
0.277162
0.288734
0.229361
0.195225
0.180658
0.159862
0.158253
0.101916
0.083171
0.082316
0.058272
0.016416
-0.000171
-0.013047
-0.029801
-0.047921
-0.055944
-0.03918
-0.059137
-0.074936
-0.071861
-0.082006
-0.076813
-0.069437
-0.04719
-0.049192
-0.049807
-0.039123
-0.061417
-0.073725
-0.036856
-0.028446
-0.025414
0.002466
-0.003476
-0.003191
-0.022533
-0.018192
-0.026883
-0.045838
-0.048602
-0.057678
-0.05981
-0.052147
-0.048858
-0.052321
-0.037413
-0.014138
-0.027245
-0.023694
-0.014378
0.007307
0.019943
0.013136
-0.014598
-0.005384
-0.000151
0.007588
-0.020393
-0.021987
-0.020074
-0.033294
-0.046926
-0.075538
-0.07309
-0.07866
-0.043018
-0.039328
-0.038984
-0.046261
-0.039473
0.0026
0.000851
-0.014362
-0.054827
-0.031271
-0.021514
-0.041151
-0.037745
-0.040395
-0.037984
-0.017354
-0.014429
-0.021776
-0.038562
-0.072012
-0.083141
-0.075522
-0.053682
-0.013693
-0.003918
0.007046
0.004134
0.012742
0.005741
-0.008224
-0.006143
-0.01116
-0.029057
-0.039098
-0.021596
-0.030708
-0.041642
-0.026693
-0.028613
-0.020821
-0.023095
-0.00976
-0.027015
-0.014306
0.002018
0.012722
0.004191
-0.011911
-0.021402
-0.013698
-0.001196
0.008733
0.000092
-0.028719
-0.018059
-0.016774
-0.039217
-0.037375
-0.020964
-0.03673
-0.029592
-0.017737
-0.021076
0.000995
-0.004507
-0.006553
-0.016306
-0.006693
0.006062
-0.003544
-0.026921
-0.00621
-0.028131
-0.041323
-0.021323
-0.021054
-0.03743
-0.038726
-0.02072
0.004198
0.002398
-0.014116
-0.012604
0.009387
0.033822
0.042034
0.025398
0.012838
0.006056
-0.010802
-0.009124
-0.016867
-0.019472
-0.014357
-0.022038
-0.012944
0.003904
-0.004366
0.004886
-0.000757
-0.003965
0.000651
-0.001586
0.017495
0.027544
0.047408
0.058336
0.052138
0.023956
0.005836
-0.000138
-0.005703
0.007667
0.002324
0.014545
0.035502
0.028902
0.03777
0.042447
0.02532
0.028395
0.035238
0.036574
0.050722
0.07094
0.06727
0.08508
0.054904
0.055534
0.069535
0.055067
0.028889
0.052798
0.051787
0.070665
0.070356
0.080105
0.053574
0.068656
0.086392
0.062818
0.092395
0.11272
0.117916
0.115055
0.095197
0.135799
0.147837
0.132126
0.123631
0.10592
0.093175
0.126743
0.127767
0.126303
0.123847
0.114769
0.124298
0.116478
0.128514
0.13
0.145623
0.149117
0.162825
0.156586
0.15912
0.157711
0.15264
0.147798
0.137103
0.149161
0.14419
0.137949
0.120495
0.122766
0.117389
0.119542
0.125765
0.148566
0.151955
0.145292
0.137157
0.141567
0.133289
0.134262
0.141998
0.148837
0.14687
0.134884
0.123396
0.127673
0.106475
0.10939
0.129555
0.126048
0.101403
0.109253
0.103009
0.088161
0.098953
0.084868
0.096211
0.097034
0.104384
0.105205
0.076897
0.089342
0.09937
0.07024
0.062499
0.068755
0.038832
0.017777
0.014515
0.009558
0.020191
0.02185
0.015819
0.026785
0.044856
0.008113
0.000128
0.023212
0.016681
0.038468
0.046144
0.0387
0.013375
0.034157
0.003684
-0.01846
-0.031702
-0.044918
-0.056407
-0.084972
-0.081203
-0.060056
-0.030117
-0.029673
-0.010252
-0.015521
-0.026953
-0.061135
-0.0456
-0.035417
-0.040546
-0.069932
-0.076097
-0.0743
-0.076595
-0.09656
-0.079763
-0.086831
-0.064176
-0.075604
-0.084316
-0.087099
-0.09684
-0.095709
-0.065015
-0.083814
-0.098818
-0.089571
-0.082421
-0.058156
-0.046178
-0.040805
-0.044759
-0.048226
-0.079781
-0.072241
-0.094526
-0.108658
-0.119169
-0.122765
-0.112804
-0.108175
-0.100565
-0.078192
-0.060434
-0.057776
-0.073271
-0.069658
-0.08547
-0.07734
-0.067519
-0.071162
-0.087682
-0.074113
-0.075948
-0.082931
-0.084412
-0.094352
-0.10521
-0.129411
-0.130241
-0.116565
-0.102586
-0.113942
-0.104329
-0.096493
-0.080496
-0.077019
-0.089299
-0.090645
-0.107278
-0.090357
-0.062141
-0.061929
-0.068612
-0.071587
-0.096249
-0.068549
-0.059814
-0.071108
-0.088683
-0.09686
-0.097084
-0.10027
-0.108582
-0.092315
-0.073737
-0.066871
-0.066383
-0.067042
-0.052478
-0.050785
-0.049074
-0.028811
-0.054598
-0.055051
-0.058255
-0.058069
-0.041712
-0.082737
-0.108494
-0.092968
-0.075907
-0.061215
-0.088065
-0.100702
-0.106424
-0.074429
-0.061997
-0.081239
-0.054071
-0.016961
-0.015144
-0.038172
-0.085667
-0.057094
-0.082188
-0.091042
-0.076766
-0.053583
-0.050673
-0.052299
-0.060812
-0.045742
-0.042874
-0.059517
-0.051127
-0.053106
-0.047602
-0.050547
-0.057979
-0.060317
-0.063785
-0.065756
-0.046887
-0.057546
-0.071151
-0.081977
-0.094013
-0.092141
-0.101968
-0.09899
-0.071617
-0.045632
-0.071089
-0.072455
-0.064916
-0.066514
-0.04995
-0.04271
-0.018862
-0.01645
-0.025601
-0.015671
-0.036355
-0.07084
-0.076385
-0.063804
-0.066632
-0.062518
-0.071771
-0.063792
-0.070283
-0.09954
-0.081404
-0.066383
-0.052234
-0.054733
-0.048478
-0.047134
-0.044572
-0.041764
-0.061381
-0.063525
-0.04703
-0.048127
-0.044183
-0.069492
-0.080045
-0.091808
-0.083191
-0.075416
-0.098483
-0.09901
-0.08781
-0.067854
-0.07655
-0.081762
-0.039463
-0.015772
-0.023951
-0.027989
-0.026889
-0.050278
-0.082056
-0.077294
-0.077043
-0.083718
-0.062673
-0.060753
-0.10042
-0.105235
-0.099669
-0.067005
-0.050841
-0.048539
-0.049622
-0.06251
-0.066733
-0.078946
-0.07898
-0.073735
-0.071508
-0.089411
-0.101515
-0.084149
-0.068298
-0.084105
-0.080435
-0.098099
-0.096908
-0.085225
-0.083676
-0.080062
-0.074411
-0.071523
-0.061415
-0.057664
-0.042595
-0.047781
-0.044613
-0.057248
-0.062756
-0.052212
-0.049697
-0.079083
-0.098104
-0.108262
-0.121289
-0.112769
-0.109092
-0.114198
-0.119892
-0.086404
-0.057065
-0.051376
-0.069448
-0.060379
-0.049822
-0.061413
-0.071394
-0.064248
-0.06261
-0.092466
-0.105917
-0.075708
-0.083407
-0.116216
-0.104859
-0.069655
-0.084243
-0.111997
-0.114203
-0.122558
-0.104096
-0.082419
-0.08076
-0.080768
-0.055959
-0.044542
-0.075052
-0.073583
-0.067847
-0.071307
-0.09076
-0.086835
-0.064205
-0.064499
-0.070871
-0.080561
-0.082631
-0.081664
-0.092465
-0.084689
-0.108662
-0.093031
-0.089976
-0.09215
-0.066512
-0.058508
-0.053992
-0.093442
-0.071058
-0.055169
-0.067603
-0.078087
-0.105962
-0.101996
-0.120101
-0.098849
-0.06696
-0.091979
-0.121889
-0.122289
-0.122202
-0.091094
-0.108893
-0.088887
-0.048034
-0.047897
-0.061993
-0.092471
-0.07998
-0.068777
-0.06715
-0.060892
-0.074664
-0.090032
-0.102524
-0.095558
-0.102472
-0.099489
-0.063774
-0.048199
-0.044662
-0.068248
-0.101875
-0.103057
-0.089811
-0.095089
-0.077542
-0.051456
-0.054448
-0.079915
-0.080692
-0.064763
-0.080339
-0.11671
-0.143784
-0.135947
-0.121582
-0.116036
-0.122414
-0.122633
-0.108723
-0.084273
-0.089133
-0.098774
-0.088252
-0.06383
-0.066938
-0.04879
-0.056921
-0.067662
-0.102047
-0.096168
-0.090901
-0.08234
-0.082221
-0.082686
-0.09044
-0.091437
-0.08927
-0.089727
-0.110001
-0.109267
-0.09326
-0.048564
-0.030092
-0.053293
-0.039418
-0.022893
-0.023768
-0.02571
-0.038069
-0.034903
-0.02566
-0.057778
-0.071193
-0.047045
-0.067775
-0.055597
-0.037716
-0.033933
-0.039769
-0.021765
-0.025408
-0.002469
0.015282
-0.009166
-0.028347
-0.030828
-0.044365
-0.000988
0.00125
-0.018436
-0.036269
-0.039921
-0.017144
-0.01647
-0.023449
-0.034626
-0.013817
0.000729
0.003162
-0.002637
-0.017122
-0.002706
0.033527
0.023797
0.021176
0.037645
