-0.089854
-0.087646
-0.081184
-0.087887
-0.108089
-0.083636
-0.061746
-0.070938
-0.070149
-0.082197
-0.091784
-0.075784
-0.063863
-0.071091
-0.046412
-0.044357
-0.038296
-0.03447
-0.04609
-0.061401
-0.065055
-0.071093
-0.079206
-0.08276
-0.078433
-0.086538
-0.068314
-0.053115
-0.069453
-0.082912
-0.048136
-0.031404
-0.027115
-0.037054
-0.070832
-0.07085
-0.055155
-0.034827
-0.051818
-0.05503
-0.061627
-0.064205
-0.063021
-0.072496
-0.076066
-0.086249
-0.085768
-0.086582
-0.072657
-0.056886
-0.053611
-0.035811
-0.012217
-0.022291
-0.038534
-0.061622
-0.063856
-0.04945
-0.071091
-0.068094
-0.056339
-0.052243
-0.047799
-0.056753
-0.06526
-0.06049
-0.064028
-0.06555
-0.061534
-0.061473
-0.032372
-0.024299
-0.030418
-0.02806
-0.015777
-0.017332
-0.016624
-0.022547
-0.048244
-0.065606
-0.065414
-0.072024
-0.072449
-0.07062
-0.059499
-0.055829
-0.033093
-0.058196
-0.063678
-0.042134
-0.015076
-0.006732
-0.016745
-0.020022
-0.02575
-0.019219
-0.034584
-0.03464
-0.035045
-0.034256
-0.019751
-0.033063
-0.051152
-0.047774
-0.043522
-0.060683
-0.019981
-0.010229
-0.021958
-0.046143
-0.013106
-0.011527
-0.022506
-0.019635
-0.008136
0.007187
-0.021654
-0.043074
-0.065621
-0.036615
-0.047978
-0.054996
-0.042827
-0.071636
-0.081333
-0.048197
-0.037676
-0.056723
-0.073025
-0.072127
-0.047392
-0.050432
-0.072354
-0.064303
-0.027322
-0.016314
-0.017384
0.003919
0.007767
-0.023049
-0.079581
-0.079523
-0.042279
-0.054341
-0.054803
-0.029013
-0.056698
-0.051288
-0.050748
-0.070278
-0.061338
-0.052176
-0.072687
-0.079006
-0.043557
-0.023319
-0.024769
-0.030836
-0.020776
-0.033232
-0.057722
-0.061732
-0.066747
-0.061685
-0.05929
-0.044823
-0.042696
-0.051823
-0.041515
-0.036583
-0.037262
-0.032686
-0.032377
-0.026782
-0.015494
-0.026881
-0.028673
-0.02426
-0.032974
-0.034106
-0.021282
-0.034306
-0.031494
-0.058716
-0.073902
-0.069614
-0.051807
-0.039986
-0.040311
-0.042493
-0.042576
-0.050115
-0.096326
-0.058935
-0.019428
-0.045004
-0.054215
-0.062389
-0.031919
-0.045374
-0.072348
-0.087979
-0.087168
-0.071897
-0.07951
-0.071701
-0.05164
-0.040335
-0.04231
-0.047961
-0.031451
-0.051852
-0.066573
-0.039431
-0.027879
-0.048137
-0.041796
-0.032118
-0.032585
-0.032631
-0.054659
-0.066984
-0.05295
-0.065866
-0.067406
-0.062917
-0.045805
-0.039209
-0.014099
-0.036587
-0.027562
-0.020901
-0.025086
-0.038499
-0.045959
-0.041848
-0.041029
-0.046865
-0.060028
-0.061566
-0.064614
-0.049807
-0.072476
-0.087708
-0.112903
-0.09369
-0.094827
-0.085734
-0.085832
-0.052957
-0.021309
-0.005066
-0.017251
-0.028305
-0.039246
-0.027626
-0.04269
-0.079384
-0.064739
-0.042481
-0.059559
-0.07464
-0.077962
-0.101045
-0.091551
-0.086778
-0.062997
-0.049519
-0.039675
-0.022452
-0.027076
-0.033691
-0.046456
-0.027388
-0.020184
-0.02087
-0.033673
-0.038204
-0.042376
-0.055107
-0.072452
-0.092952
-0.091716
-0.074803
-0.068648
-0.066319
-0.081178
-0.075868
-0.073201
-0.052144
-0.057412
-0.052219
-0.059407
-0.052558
-0.042798
-0.044969
-0.0388
-0.027628
-0.050979
-0.047764
-0.028472
-0.042569
-0.052039
-0.055793
-0.060017
-0.07313
-0.068227
-0.062824
-0.044997
-0.041769
-0.034419
-0.02494
-0.018141
-0.021168
-0.045124
-0.064557
-0.080539
-0.066334
-0.056564
-0.051127
-0.04781
-0.045134
-0.071075
-0.091908
-0.069746
-0.085153
-0.072734
-0.061059
-0.05202
-0.056597
-0.054472
-0.045299
0.002724
0.001187
-0.005574
-0.017743
-0.042836
-0.048756
-0.063925
-0.068537
-0.099952
-0.100817
-0.097415
-0.074721
-0.056995
-0.054259
-0.045792
-0.048359
-0.053237
-0.06271
-0.03712
-0.016866
-0.018765
-0.022628
-0.033052
-0.037198
-0.048945
-0.050094
-0.048233
-0.062776
-0.07679
-0.059976
-0.05384
-0.07276
-0.071545
-0.05973
-0.07004
-0.061263
-0.070669
-0.096273
-0.067433
-0.039126
-0.009642
-0.004874
0.0006
-0.008432
0.008977
-0.003463
-0.021969
-0.034102
-0.058511
-0.069838
-0.045358
-0.029275
-0.003247
-0.011929
-0.01329
-0.020267
-0.030298
-0.04415
-0.040283
0.010916
0.01151
0.009449
0.019974
0.025997
0.016462
0.017497
-0.00997
-0.027274
-0.011139
-0.022142
-0.013303
-0.00873
-0.019185
-0.015002
-0.022517
-0.028448
-0.000814
0.008189
0.032314
0.015826
0.009947
0.037815
0.029921
0.037384
0.036427
0.031821
0.013431
0.003805
0.005505
0.004748
-0.01874
-0.005924
0.003482
0.015578
0.016564
0.048074
0.036038
0.05548
0.063557
0.076172
0.07985
0.072577
0.062968
0.066906
0.059621
0.049767
0.032944
0.014162
0.017262
0.008897
0.00494
-0.014246
0.011389
0.012313
0.00814
0.031579
0.027656
0.01625
-0.00519
0.020654
0.037302
0.018425
0.004007
-0.02206
-0.027605
-0.016227
-0.018187
-0.03953
-0.032747
-0.03294
-0.040828
-0.061676
-0.046377
-0.066906
-0.0624
-0.041478
-0.04301
-0.062136
-0.064257
-0.052859
-0.018804
-0.007785
-0.017472
-0.029336
-0.052163
-0.048694
-0.049861
-0.054597
-0.083324
-0.077297
-0.084677
-0.085385
-0.088758
-0.076124
-0.077718
-0.045456
-0.06865
-0.053968
-0.056269
-0.054032
-0.053472
-0.041779
-0.042123
-0.06247
-0.071113
-0.05192
-0.04395
-0.041645
-0.06513
-0.091824
-0.081507
-0.0782
-0.078757
-0.105491
-0.099985
-0.104264
-0.069698
-0.0509
-0.038491
-0.05081
-0.052656
-0.044798
-0.054257
-0.049287
-0.048555
-0.049683
-0.058991
-0.056283
-0.048375
-0.062055
-0.087925
-0.086215
-0.118434
-0.099071
-0.091361
-0.092584
-0.090584
-0.046393
-0.05787
-0.074613
-0.071104
-0.087857
-0.105684
-0.12972
-0.135844
-0.123611
-0.122002
-0.115521
-0.118189
-0.121561
-0.112781
-0.078967
-0.047036
-0.014865
0.00853
0.018147
0.047269
0.066795
0.104312
0.152089
0.189484
0.216088
0.254058
0.288602
0.33507
0.359308
0.38801
0.443477
0.486882
0.530134
0.548665
0.566529
0.607867
0.644264
0.643566
0.679412
0.705503
0.719886
0.708019
0.677522
0.666927
0.614097
0.548259
0.53621
0.486879
0.38423
0.333934
0.279061
0.231467
0.209405
0.197753
0.156896
0.12995
0.130885
0.09329
0.070975
0.066736
0.059812
0.032824
0.010335
0.001285
-0.006369
-0.041952
-0.059835
-0.061903
-0.05542
-0.03646
-0.056663
-0.078528
-0.101519
-0.084842
-0.022447
-0.033102
-0.059767
-0.0425
-0.027295
-0.013017
0.010828
0.026193
-0.007592
-0.040456
-0.020071
0.00447
0.022311
0.017614
-0.001577
-0.010728
-0.045009
-0.07793
-0.063011
-0.064079
-0.076584
-0.053199
-0.021868
-0.014944
0.019707
0.020068
0.00897
0.007861
0.024742
0.034991
0.049198
0.048969
0.025565
-0.005369
-0.027454
-0.030658
-0.045756
-0.067721
-0.040389
-0.025308
-0.019508
-0.038192
-0.027624
-0.002075
-0.006536
0.000549
-0.009682
-0.061514
-0.018278
0.028337
0.024237
0.020557
0.006075
0.004409
-0.023077
-0.032011
-0.014752
-0.033918
-0.03725
-0.036495
-0.026444
-0.02543
-0.013234
-0.016257
-0.014934
-0.018682
-0.006712
0.022872
0.026237
0.019359
0.019057
0.010893
-0.001427
0.018497
-0.003673
0.002954
0.0048
-0.010336
-0.030093
-0.023423
-0.020783
-0.008011
-0.008507
-0.012593
-0.003047
-0.016874
-0.028553
-0.026709
-0.02412
-0.004594
0.005691
0.009352
0.018284
0.019919
0.00995
0.023557
0.03424
0.017613
0.01147
0.007801
0.007698
0.006636
-0.013437
-0.00031
0.018411
0.01836
0.00759
0.031961
0.034754
0.043555
0.055181
0.043516
0.027219
0.025896
0.000754
0.012775
-0.00724
-0.01238
-0.013527
-0.002374
0.003069
0.01942
0.016334
0.021622
0.031962
0.032189
0.011872
0.01336
0.016209
0.039975
0.048832
0.03659
0.006601
0.006276
0.022798
0.037047
0.035402
0.010661
0.016537
0.012119
0.005517
0.008243
0.005188
0.001189
0.013699
0.019067
0.047329
0.05738
0.068169
0.06908
0.08065
0.076417
0.061982
0.051535
0.039262
0.033666
0.023332
0.022148
0.035571
0.040452
0.040285
0.058033
0.062953
0.062506
0.068868
0.054793
0.07361
0.119906
0.103285
0.075737
0.081899
0.104622
0.081371
0.049175
0.046435
0.061507
0.049267
0.075332
0.073046
0.095055
0.095986
0.097696
0.124355
0.12019
0.136057
0.148586
0.160956
0.17715
0.151997
0.165536
0.170238
0.178555
0.15772
0.138574
0.125904
0.148308
0.155452
0.124454
0.117693
0.124584
0.131663
0.140804
0.147003
0.162276
0.177193
0.184845
0.186384
0.187275
0.193984
0.193984
0.189236
0.185563
0.167509
0.159291
0.165611
0.174204
0.160704
0.164161
0.153927
0.135252
0.129165
0.142824
0.154488
0.173517
0.167637
0.160211
0.176871
0.198644
0.20563
0.181524
0.163724
0.150915
0.140131
0.172042
0.160058
0.12937
0.15403
0.146965
0.112334
0.107192
0.106347
0.094169
0.102694
0.108067
0.116327
0.145095
0.142477
0.110457
0.093799
0.122065
0.098273
0.065863
0.053616
0.044165
0.041411
0.046106
0.066491
0.075437
0.057382
0.029669
0.027695
0.022576
0.038875
0.042065
0.056657
0.0388
0.022672
0.029116
0.022955
0.001645
0.017395
0.023591
0.002598
-0.007783
0.00005
0.001869
-0.022745
-0.027913
-0.025018
-0.044733
-0.021766
-0.032755
-0.032205
-0.0231
-0.012875
0.010095
0.021112
0.006536
-0.028167
-0.014624
-0.026607
-0.027221
-0.001939
-0.00794
-0.028888
-0.038563
-0.057247
-0.051947
-0.052753
-0.064994
-0.06992
-0.09007
-0.077582
-0.067094
-0.02869
-0.027021
-0.00931
-0.001695
-0.029488
-0.023851
-0.048224
-0.056077
-0.037838
-0.055849
-0.071882
-0.075709
-0.071763
-0.061759
-0.057012
-0.059209
-0.065939
-0.063975
-0.059594
-0.037911
-0.042221
-0.054096
-0.049743
-0.026208
-0.015538
-0.022705
-0.043252
-0.05005
-0.046573
-0.044115
-0.048664
-0.044691
-0.043545
-0.04238
-0.065072
-0.069675
-0.065366
-0.036467
-0.046653
-0.037182
-0.024112
-0.012753
0.004967
-0.036021
-0.050455
-0.055567
-0.049024
-0.044506
-0.062625
-0.045164
-0.045682
-0.049761
-0.058607
-0.063701
-0.059389
-0.079688
-0.06732
-0.053052
-0.066073
-0.047843
-0.013668
-0.002449
-0.004017
0.001316
-0.005909
-0.007517
0.012015
-0.01225
-0.041614
-0.015965
-0.014288
-0.022732
-0.026548
-0.035
-0.044509
-0.04464
-0.039719
-0.043257
-0.038576
-0.046496
-0.040012
-0.018663
0.006912
-0.007328
-0.001628
-0.012122
-0.014967
-0.009032
-0.020348
-0.022285
-0.043878
-0.052725
-0.057591
-0.040169
-0.040659
-0.053286
-0.049786
-0.059578
-0.064233
-0.040927
-0.01207
0.01433
0.023794
0.008423
-0.000909
-0.000877
-0.010606
-0.013778
-0.011832
-0.024619
-0.025136
-0.023185
-0.031244
-0.052715
-0.022306
-0.021228
-0.024561
-0.036146
-0.058479
-0.031374
-0.022779
-0.009509
-0.013349
-0.009463
0.020342
0.030179
0.004002
-0.006286
-0.005962
-0.02511
-0.03722
-0.048246
-0.042174
-0.064968
-0.038045
-0.050537
-0.04973
-0.030294
-0.036953
-0.058709
-0.076691
-0.041891
0.011414
0.005927
-0.007238
-0.021457
-0.023616
-0.006776
-0.025927
-0.010477
-0.002772
-0.0147
-0.044635
-0.074917
-0.057789
-0.039169
-0.029994
-0.030737
-0.029703
-0.01479
0.002186
-0.002723
-0.003047
0.000423
-0.014026
-0.024459
-0.027825
-0.029191
-0.033667
-0.056144
-0.051686
-0.045154
-0.04272
-0.032073
-0.027151
-0.04147
-0.027885
-0.019636
-0.041016
-0.03236
-0.024452
-0.04023
-0.018265
-0.026598
-0.02725
-0.00614
-0.014152
-0.014031
-0.014292
-0.02012
-0.045002
-0.059236
-0.067431
-0.065897
-0.058594
-0.053739
-0.046556
-0.042442
-0.028426
0.006511
0.011046
0.009175
-0.00565
-0.018053
-0.032976
-0.044187
-0.03073
-0.036922
-0.040498
-0.030652
-0.051266
-0.037766
-0.036157
-0.033546
-0.040616
-0.032151
-0.033139
-0.047636
-0.040778
-0.034471
-0.04162
-0.040974
-0.031846
-0.03247
-0.028058
0.00104
0.003281
-0.009122
-0.021673
-0.048731
-0.025669
-0.034963
-0.047009
-0.037731
-0.026577
-0.04614
-0.040241
-0.047341
-0.055501
-0.052241
-0.02249
-0.029415
-0.030932
-0.007831
-0.002604
-0.005778
-0.003402
-0.015225
-0.020666
0.003084
-0.018155
-0.047716
-0.053721
-0.056599
-0.052665
-0.056729
-0.07221
-0.081028
-0.048539
-0.035888
-0.047823
-0.064612
-0.036408
-0.034398
-0.024602
-0.016017
-0.009978
-0.028616
-0.004116
-0.010623
-0.008916
-0.022906
-0.035077
-0.027804
-0.020495
-0.023001
-0.026481
-0.019334
-0.017134
-0.012716
-0.016113
0.002294
-0.019055
-0.057062
-0.032012
-0.024062
-0.040056
-0.036202
-0.04396
-0.02094
-0.000135
-0.00923
-0.036514
-0.043364
-0.043116
-0.025349
-0.020571
-0.011212
-0.014908
-0.009593
-0.017382
-0.038751
-0.002113
0.035982
0.015212
-0.013868
-0.043421
-0.057419
-0.084734
-0.093082
-0.067655
-0.065427
-0.049453
-0.068924
-0.036278
-0.074668
-0.085522
-0.076117
-0.063741
-0.027251
-0.024928
-0.026198
-0.026977
-0.017724
-0.017596
-0.038292
-0.03278
-0.019475
-0.025927
-0.032402
-0.017892
-0.024595
-0.051086
-0.06499
-0.054377
-0.054732
-0.049137
-0.031386
-0.029366
0.013931
0.000129
-0.00052
-0.003083
0.010323
0.017414
0.008223
-0.012107
-0.02481
-0.045704
-0.061987
-0.058682
-0.055424
-0.038297
-0.033035
-0.034745
-0.031418
-0.043974
-0.042392
-0.024754
-0.02578
-0.020435
-0.004433
-0.002968
-0.003225
0.000463
0.002364
-0.005257
-0.029417
-0.029756
-0.02265
-0.010171
-0.054295
-0.079362
-0.04889
-0.040464
-0.034436
-0.032806
-0.012082
0.009886
-0.010529
0.008209
0.009864
0.014807
0.016657
0.003001
0.017214
0.026286
0.00041
-0.001509
-0.006054
-0.017705
-0.011344
0.009258
-0.000395
-0.004091
0.027631
0.037505
0.039705
0.047842
0.042905
0.049782
0.048883
0.050757
0.04933
0.029236
0.075109
0.074156
0.065021
0.057725
0.038368
0.031225
0.050385
0.040244
0.040453
0.037666
0.043469
0.040585
0.046666
0.058902
0.050062
0.043773
0.047273
0.042589
0.051713
0.037473
0.026442
0.036922
0.053335
0.0632
0.034059
0.016162
-0.001601
0.013085
0.043079
0.046007
0.059537
0.073681
0.047322
0.058318
0.06611
0.061963
0.065865
0.079442
0.064426
0.077072
0.066163
0.050813
0.052748
0.048741
0.012261
-0.038049
-0.040166
-0.039225
-0.029787
-0.023948
0.021707
0.020193
0.001148
-0.021392
-0.025838
-0.03033
-0.035576
-0.010915
-0.003072
0.009366
0.017069
0.019097
-0.001081
-0.034184
-0.036883
-0.03059
-0.039943
-0.086067
-0.070443
-0.041093
-0.046827
-0.052413
-0.035592
-0.067801
-0.065902
-0.040338
-0.047797
-0.017173
-0.0242
-0.007873
-0.028102
-0.027902
-0.023097
-0.038071
-0.046228
-0.01997
-0.042913
-0.078099
-0.078787
-0.096735
-0.094653
-0.071736
-0.043315
-0.051867
-0.030548
-0.020056
-0.02078
-0.016697
-0.031419
-0.022527
-0.014446
-0.014855
-0.03561
-0.048525
-0.081907
-0.081579
-0.087276
-0.099838
-0.077561
-0.070236
-0.057698
-0.043283
-0.066483
-0.064282
-0.068023
-0.034222
-0.024492
-0.024864
-0.040402
-0.042696
-0.028528
-0.037038
-0.044643
-0.033602
-0.070317
-0.093322
-0.114998
-0.101063
-0.112629
-0.109916
-0.082474
-0.075214
-0.051212
-0.055793
-0.055628
-0.083513
-0.08913
-0.055174
-0.019525
-0.013133
-0.014299
0.00228
0.01385
0.017627
0.066082
0.122212
0.152768
0.179157
0.193052
0.231004
0.285325
0.337989
0.385812
0.455764
0.494467
0.550041
0.597211
0.665994
0.675778
0.682591
0.696278
0.712423
0.714567
0.736217
0.720135
0.672714
0.650907
0.630268
0.584793
0.542571
0.506842
0.449364
0.351452
0.309067
0.3059
0.268349
0.246396
0.231939
0.207354
0.166115
0.139257
0.101428
0.080089
0.026682
0.003743
-0.039958
-0.066318
-0.081297
-0.073255
-0.051383
-0.055505
-0.054882
-0.041715
-0.029902
-0.05007
-0.037997
0.005781
0.022137
0.017321
0.020935
0.042407
0.055434
0.010341
0.011009
0.012529
0.003042
0.007263
-0.011154
-0.001833
-0.000373
0.001973
0.012711
0.029602
0.022032
0.015925
0.037369
0.027852
0.027882
0.024745
0.019736
0.026401
0.02719
-0.009456
-0.041934
-0.007467
0.006637
-0.022604
-0.028097
-0.031326
-0.035125
-0.027196
-0.016094
-0.002478
-0.009117
-0.01154
0.001541
0.021108
0.028296
0.018059
0.011954
0.015846
0.046964
0.021055
0.01117
0.012357
0.008621
0.011389
0.011474
-0.007191
-0.019593
-0.036159
-0.023175
-0.006984
0.013232
0.023495
0.027279
0.036065
0.024106
0.020609
0.023401
-0.007829
0.015335
0.028665
0.009218
0.010611
0.002965
-0.01685
-0.019447
-0.027282
-0.03652
-0.028087
-0.018596
-0.014153
-0.002235
0.018808
0.02687
0.041881
0.044932
0.022205
0.029037
0.011264
0.001052
0.006327
-0.000518
0.003121
-0.007281
-0.033699
-0.023146
-0.019698
-0.024021
-0.034597
-0.041266
-0.027544
-0.018021
-0.014431
0.005958
0.031696
0.057511
0.067748
0.033949
0.044972
0.031102
0.013722
0.010954
0.032258
0.035652
0.010081
0.012564
-0.001174
-0.004891
-0.00048
-0.001095
0.001701
0.013197
0.025303
0.023893
0.024935
0.038521
0.024434
0.015987
0.022625
0.038386
0.033172
0.015096
0.042275
0.032893
0.033529
0.027301
0.00895
-0.000951
0.006653
0.011432
0.035988
0.037202
0.04374
0.041045
0.048124
0.042874
0.045566
0.048193
0.045928
0.063175
0.068104
0.063154
0.049953
0.020844
0.012988
0.035115
0.059083
0.052731
0.064851
0.068829
0.072457
0.079868
0.072096
0.04506
0.049594
0.076167
0.086444
0.083768
0.076098
0.090581
0.075506
0.080795
0.099131
0.095728
0.094273
0.09245
0.092949
0.102105
0.098018
0.116955
0.104205
0.11648
0.132884
0.128631
0.129381
0.105297
0.094308
0.103794
0.115394
0.132329
0.137162
0.11165
0.128166
0.140712
0.130854
0.142118
0.14325
0.169632
0.176533
0.14557
0.138017
0.181473
0.172362
0.16555
0.188438
0.159529
0.173851
0.167719
0.164085
0.160977
0.169282
0.180099
0.166322
0.153754
0.157812
0.15379
0.139892
0.142424
0.16438
0.167054
0.166051
0.17598
0.19399
0.2156
0.208886
0.183958
0.196025
0.20881
0.200988
0.20995
0.198965
0.176178
0.159618
0.1616
0.141837
0.141587
0.155617
0.167232
0.162409
0.148635
0.154389
0.167256
0.155233
0.146681
0.173893
0.163236
0.17035
0.170746
0.17476
0.161075
0.119726
0.111744
0.102483
0.075694
0.062097
0.084008
0.067895
0.066339
0.092554
0.119181
0.112133
0.112476
0.094381
0.085624
0.085005
0.078578
0.060865
0.070927
0.083955
0.068744
0.037444
0.007538
0.02629
0.022937
0.007727
0.000785
0.00209
-0.008466
-0.019084
-0.023472
-0.005732
-0.003366
-0.000372
0.024585
0.001316
0.024077
0.03177
0.022569
0.011586
0.005467
0.001364
-0.000376
-0.009666
0.000458
-0.020291
-0.039321
-0.052234
-0.060541
-0.057443
-0.041953
-0.024626
-0.022941
-0.00588
0.012098
0.021984
0.005142
-0.023912
-0.02805
-0.027826
-0.043344
-0.022777
-0.025282
-0.064603
-0.084708
-0.087333
-0.073215
-0.057762
-0.054223
-0.029889
-0.048109
-0.043168
-0.035082
-0.040822
-0.039957
-0.038957
-0.042973
-0.009496
-0.023645
-0.02132
-0.021517
-0.007176
-0.024046
-0.053653
-0.057173
-0.057549
-0.059979
-0.05941
-0.066962
-0.040876
-0.034368
-0.062867
-0.057807
-0.034875
-0.015466
-0.01388
-0.01548
0.004321
-0.022037
-0.022384
-0.047223
-0.075432
-0.075418
-0.046029
-0.026244
-0.033858
-0.024501
-0.0311
-0.040881
-0.035347
-0.03479
-0.016883
0.001885
-0.005393
-0.003846
-0.0017
-0.02853
-0.054231
-0.031132
-0.033573
-0.023659
-0.01603
-0.016426
-0.041517
-0.036768
-0.038889
-0.038951
-0.055307
-0.0391
-0.037719
-0.027929
-0.012396
0.007111
0.015214
0.002151
0.019347
0.021322
-0.001702
0.015459
0.022879
0.044993
0.009438
-0.02026
-0.000345
-0.005135
-0.005838
0.001325
-0.015141
-0.040218
-0.050252
-0.055783
-0.057473
-0.023659
-0.017547
0.007218
0.023792
0.02441
0.02518
0.00946
-0.008745
-0.00736
0.000278
-0.010578
-0.032183
-0.03987
-0.030223
-0.036882
-0.025599
-0.025764
-0.032754
-0.018047
-0.032944
-0.021655
-0.002632
0.017852
0.008644
0.029066
0.047607
0.040169
0.011144
0.000296
-0.023693
-0.015436
-0.01898
-0.015573
-0.025896
-0.030013
-0.049069
-0.046668
-0.039297
-0.014464
-0.019251
-0.011189
-0.006273
0.002226
-0.016803
-0.043023
-0.053315
-0.049953
-0.028848
-0.015175
-0.022029
-0.010723
-0.016615
-0.015025
0.014844
0.011998
-0.007581
-0.011899
-0.011626
-0.004465
-0.012219
0.000514
0.011216
0.011077
0.003225
0.003108
0.0058
0.00635
0.007567
0.005913
-0.004333
-0.016464
-0.015888
-0.025989
-0.034899
-0.039686
-0.03638
-0.027134
-0.018593
-0.01583
-0.00368
0.013828
0.002368
-0.005242
0.023032
0.018961
-0.020542
-0.004596
0.007924
-0.00312
0.007463
0.013906
0.00513
-0.01695
-0.035021
-0.079756
-0.063627
-0.022943
-0.02434
0.0182
0.000739
-0.006749
-0.001679
-0.003974
-0.008308
-0.022908
-0.029044
-0.035766
-0.03723
-0.057425
-0.067198
-0.058744
-0.029061
-0.000532
-0.028757
-0.063916
-0.058201
-0.034117
-0.016789
-0.03666
-0.023118
-0.019914
-0.025725
-0.009958
-0.010788
0.010537
0.00526
-0.004558
-0.002675
-0.012921
-0.002825
-0.005681
-0.045697
-0.050843
-0.031393
-0.037173
-0.053774
-0.056772
-0.034692
-0.02581
-0.018424
-0.014252
-0.001425
0.024597
0.02018
0.028862
0.036288
0.027417
0.032962
0.007223
-0.016859
-0.026975
-0.040655
-0.039583
-0.043572
-0.049196
-0.052493
-0.024896
-0.0276
-0.02152
-0.005282
-0.040563
-0.027811
-0.007903
0.033981
0.050596
0.0084
-0.001033
-0.006057
0.003983
-0.00907
-0.023764
-0.030453
-0.039158
-0.04166
-0.004953
-0.029423
-0.051128
-0.047381
-0.017685
-0.020787
-0.053286
-0.050918
-0.03
-0.009
-0.008566
-0.004294
0.011194
0.009667
-0.000374
-0.019866
-0.007631
-0.021098
-0.025655
-0.027685
-0.038844
-0.041125
-0.021045
-0.031103
-0.049634
-0.032364
-0.037146
-0.027771
-0.015468
-0.048478
-0.025789
-0.001822
-0.00736
-0.008114
-0.024124
-0.021403
-0.011114
-0.018388
-0.028161
-0.05644
-0.048955
-0.034093
-0.024383
-0.028974
-0.03863
-0.027291
-0.030143
-0.011842
-0.004436
0.005497
-0.0048
-0.018437
-0.022928
-0.00813
0.001388
-0.006514
-0.02619
-0.035219
-0.026297
-0.02032
-0.055117
-0.039914
-0.026496
-0.030367
-0.009205
-0.006767
0.009853
0.019848
0.01738
-0.000995
-0.001216
-0.006656
-0.019859
-0.029217
-0.030704
-0.020791
-0.001937
-0.018856
-0.042722
-0.056133
-0.034831
-0.015939
-0.05553
-0.058145
-0.036265
0.008646
0.013267
-0.003516
0.012803
0.024102
0.020125
0.002014
0.0008
0.017936
0.016487
-0.00314
-0.020097
-0.031724
-0.025483
-0.019766
-0.023934
-0.021924
-0.039254
-0.035396
-0.016374
-0.005719
-0.000413
-0.007021
-0.018211
-0.01041
-0.003736
0.001622
0.019555
0.009914
-0.008919
-0.026993
-0.030338
-0.03938
-0.023389
-0.024796
-0.03117
-0.043965
-0.031503
-0.013767
-0.007693
-0.014151
-0.008087
0.007353
-0.004382
0.002939
0.014694
0.026173
0.015736
0.004216
0.003552
0.009228
0.009002
-0.003304
-0.021004
0.002725
-0.017434
-0.01185
-0.010284
-0.001605
-0.000722
0.006821
0.036165
0.059922
0.063281
0.059268
0.05562
0.059298
0.061422
0.04943
0.053101
0.048814
0.035439
0.023224
-0.006974
0.02056
0.05703
0.042947
0.030761
0.028753
0.024033
0.039226
0.052966
0.071252
0.073109
0.071883
0.080752
0.080876
0.061956
0.062416
0.06606
0.077556
0.067686
0.034182
0.017246
0.020503
0.044575
0.057255
0.089185
0.09225
0.075471
0.087099
0.084372
0.094461
0.11962
0.100971
0.108635
0.109884
0.099496
0.096767
0.082528
0.068821
0.065907
0.031164
0.016154
0.037367
0.010468
-0.002947
0.009453
0.003239
0.007706
0.006013
0.015156
0.017239
0.030067
0.034875
0.038181
0.031489
0.01495
0.003489
0.013299
0.006555
0.040313
0.011425
-0.013951
-0.008246
0.004344
-0.007996
-0.031684
-0.037779
-0.054586
-0.037164
-0.018086
0.031327
0.031598
0.029185
0.03252
0.026547
0.020315
-0.000373
-0.007342
-0.026279
-0.019608
-0.025165
-0.038396
-0.061667
-0.072098
-0.085227
-0.078495
-0.060523
-0.032691
-0.019734
-0.029704
-0.026975
0.014379
-0.018351
-0.04313
-0.031708
-0.054274
-0.055156
-0.02478
-0.024933
-0.027915
-0.033702
-0.041573
-0.047142
-0.048886
-0.058428
-0.058536
-0.029037
-0.012035
-0.013322
-0.022722
-0.016506
-0.000735
0.025413
0.013817
-0.009398
-0.0122
-0.028701
-0.020373
-0.020468
-0.017978
-0.031622
-0.043448
-0.065313
-0.086553
-0.096013
-0.076151
-0.068187
-0.073534
-0.066472
-0.068223
-0.053869
-0.06964
-0.072222
-0.067156
-0.055359
-0.036858
-0.037896
-0.015389
0.000421
0.016814
0.014747
0.027755
0.039739
0.046819
0.089025
0.139096
0.172951
0.225148
0.256204
0.299012
0.366994
0.418179
0.487444
0.535602
0.54774
0.564462
0.608261
0.657435
0.680532
0.683917
0.724032
0.731152
0.719635
0.745026
0.73453
0.681764
0.656798
0.627061
0.602163
0.564996
0.508984
0.481581
0.382555
0.362169
0.359688
0.324747
0.264635
0.24046
0.200422
0.173379
0.147149
0.114725
0.06549
0.01222
-0.00768
-0.002717
-0.00777
-0.033209
-0.061
-0.026888
0.000548
0.011165
0.021594
0.048289
0.024885
-0.001236
-0.021023
-0.033358
-0.009336
-0.003673
-0.002837
0.010765
0.007926
0.013762
0.024592
0.040706
0.023173
0.033189
0.032856
0.034055
0.030884
0.049512
0.03849
0.039047
0.051478
0.058855
0.05405
0.032952
0.015833
0.014635
-0.001599
-0.017359
-0.026498
-0.041516
-0.051017
-0.030657
0.013145
0.026198
0.027896
0.070599
0.085782
0.077879
0.063557
0.032723
0.017466
-0.006702
-0.003328
0.047551
0.053763
0.04477
0.051971
0.029879
0.004761
-0.022744
-0.034309
-0.027667
-0.010788
0.003646
0.027154
0.023943
0.040898
0.04966
0.039537
0.043198
0.035843
0.046371
0.053186
0.044428
0.030102
0.014723
0.012396
0.021982
0.01712
0.018965
0.010182
0.043153
0.049024
0.024197
0.008856
-0.006418
0.039034
0.032944
0.047954
0.072359
0.069973
0.043634
0.034641
0.042892
0.023814
0.00209
-0.004826
-0.016005
-0.030185
-0.01325
-0.011937
0.027966
0.067324
0.072512
0.046799
0.039971
0.05888
0.065528
0.058494
0.063187
0.060174
0.060105
0.049772
0.038824
0.032758
0.022402
0.020695
0.023796
0.023535
0.019938
0.025202
0.019835
0.016298
0.041394
0.067273
0.073178
0.043111
0.054133
0.064121
0.047468
0.015605
0.037767
0.038327
0.012049
-0.002321
0.025178
0.069707
0.078042
0.078269
0.06895
0.063192
0.0805
0.096155
0.091841
0.068012
0.110856
0.09473
0.046815
0.060928
0.060492
0.059281
0.061495
0.049336
0.032214
0.038876
0.054616
0.070854
0.049514
0.038444
0.025453
0.035253
0.067669
0.085725
0.085435
0.089489
0.101531
0.124678
0.116815
0.09866
0.102298
0.107459
0.108309
0.107169
0.087358
0.080582
0.083258
0.071475
0.067678
0.078325
0.085906
0.069425
0.094417
0.107496
0.120444
0.128526
0.148453
0.169543
0.174275
0.159079
0.147903
0.164331
0.162117
0.15671
0.150631
0.133502
0.129264
0.131399
0.140414
0.142496
0.146255
0.143163
0.145973
0.153369
0.156619
0.17306
0.189926
0.193278
0.176339
0.186809
0.194101
0.20728
0.206566
0.189678
0.19123
0.169533
0.155542
0.148812
0.142278
0.125482
0.123714
0.168134
0.184693
0.187191
0.201357
0.216511
0.236665
0.255809
0.251042
0.245868
0.233706
0.223941
0.230495
0.247602
0.230149
0.234578
0.207434
0.200139
0.196452
0.184354
0.188146
0.174562
0.157696
0.202922
0.21877
0.206682
0.208113
0.203433
0.196559
0.207023
0.218161
0.23081
0.19792
0.184709
0.194356
0.191726
0.187992
0.184868
0.159592
0.14504
0.141942
0.138311
0.139471
0.119192
0.129534
0.121287
0.112475
0.134999
0.13354
0.13353
0.12472
0.133628
0.113538
0.076683
0.062413
0.07833
0.075244
0.069154
0.062709
0.055587
0.033736
0.02674
0.018382
0.018944
0.017802
0.025255
0.049191
0.087359
0.066802
0.072031
0.072802
0.055239
0.065529
0.028459
0.023179
0.01524
0.036296
0.001801
-0.023566
-0.022898
-0.025978
-0.031941
-0.023672
-0.020554
-0.010759
-0.015235
-0.00141
0.015214
0.033747
0.041534
0.023008
0.053704
0.055046
0.0206
0.001495
-0.003685
-0.021764
-0.036203
-0.036096
-0.035385
-0.033624
-0.022582
-0.014356
-0.002907
0.018375
0.008287
-0.001237
0.001179
0.001138
0.010451
0.005319
0.002599
0.005073
0.005943
0.01517
0.004745
-0.006589
-0.022031
-0.036598
-0.038091
-0.042744
-0.028386
-0.008064
-0.019912
-0.04405
-0.031006
-0.008478
0.024206
-0.000709
-0.013883
-0.018625
0.002747
0.012269
-0.000364
-0.020863
-0.003841
-0.015514
-0.034788
-0.026271
-0.008872
-0.017728
-0.028994
-0.031833
-0.001245
0.002218
0.021392
0.000756
0.001745
0.042283
0.03218
0.032771
0.001686
0.014144
0.0034
-0.008003
-0.011111
0.009928
-0.00854
0.001301
0.015644
-0.012298
-0.001753
0.007403
0.003751
0.014966
0.003463
-0.01222
-0.010032
0.014644
0.023226
0.014101
-0.01632
-0.004123
0.017549
-0.003243
0.004817
0.000127
0.019738
0.02628
0.027958
0.032839
0.005873
-0.013403
-0.017226
0.007104
0.010231
-0.004545
0.008
0.050147
0.072135
0.065148
0.049474
0.030013
0.023365
0.025254
0.018756
0.016644
0.013794
0.002029
-0.019413
-0.02175
-0.013824
-0.003237
0.016568
0.038652
0.026113
0.040056
0.061459
0.058435
0.044266
0.045947
0.023977
0.056411
0.067867
0.038708
-0.002864
-0.003691
0.009024
-0.012841
-0.00352
0.007062
0.007612
0.01059
0.023152
0.032197
0.031367
0.026238
0.029573
0.027004
0.006994
0.025579
0.039915
0.044109
0.023943
0.029077
0.040795
0.040653
0.027884
0.00774
-0.026147
-0.029308
-0.010532
0.007992
0.021047
0.011297
0.026647
0.052338
0.054232
0.067758
0.064491
0.051704
0.039952
0.036688
0.009246
0.001857
0.012211
0.003616
-0.002425
0.023724
0.039238
0.021761
0.03346
0.010221
0.007071
0.037749
0.02499
0.038264
0.02012
0.034611
0.052212
0.052336
0.043053
0.033433
0.009008
-0.008618
0.022288
0.021063
0.01249
0.026479
0.003546
0.0098
0.008343
0.01801
0.022348
0.029004
0.038211
0.037998
0.024725
0.013494
0.005613
0.011518
0.024745
0.023439
0.030013
0.011178
-0.002343
0.00075
-0.008538
-0.012109
-0.01048
0.027884
0.029764
0.002707
0.00325
0.011061
0.028219
0.00967
0.005648
0.022992
-0.001465
0.001685
0.015624
0.030454
0.032012
0.027672
0.020464
0.012275
-0.012028
-0.008818
-0.008305
-0.010835
0.005014
0.037853
0.039661
0.014715
0.005439
0.012565
0.000966
0.008189
0.034848
0.04446
0.070592
0.031306
-0.006399
-0.019871
-0.012821
-0.013648
0.010098
0.011647
0.007132
0.008982
-0.000006
0.001716
0.009094
0.021959
0.020602
0.026753
0.027038
0.040463
0.054564
0.037182
0.045275
0.048403
0.057976
0.023893
0.007728
0.007463
-0.033737
-0.034188
-0.005099
-0.016286
0.024196
0.038563
0.01884
0.004752
-0.013116
-0.009948
0.032407
0.034985
0.038044
0.02418
0.024049
0.013662
0.014294
0.046579
0.027174
-0.006897
-0.007085
-0.0085
-0.000445
-0.00012
-0.011081
0.006445
0.02754
0.028572
0.038548
0.035024
0.035106
0.036127
0.031338
0.039873
0.017211
0.013192
0.023395
0.041364
-0.008433
-0.002681
0.002693
0.02504
0.022776
0.000079
0.015136
0.015398
0.00752
0.032219
0.03982
0.029799
0.04546
0.066472
0.059057
0.030532
0.003349
-0.000993
-0.007447
-0.021406
-0.007034
-0.014416
-0.001038
0.001274
0.012241
0.020366
0.008983
-0.006051
-0.009299
-0.011449
0.017927
0.036363
0.038919
0.034595
0.040378
0.010162
0.009742
0.024461
0.023426
0.015216
0.016094
0.00484
-0.005161
-0.01181
-0.002231
-0.01814
-0.015996
0.007569
0.008531
0.015685
0.032782
0.051042
0.022966
-0.00223
0.005108
0.021854
0.019446
0.017694
0.00701
-0.015562
-0.024367
-0.003404
-0.003344
0.001395
0.011149
0.027149
0.015127
-0.001271
0.014606
0.029555
0.037269
0.049042
0.032076
0.033446
0.051472
0.031719
0.008285
0.00976
-0.002428
0.018987
0.018403
0.001519
-0.003254
0.000789
0.000194
0.009073
0.001269
0.00657
0.016997
0.045283
0.048386
0.042979
0.042783
0.046259
0.055539
0.046537
0.02727
0.022808
0.013374
0.021464
0.019911
0.012261
0.018697
0.02486
0.017827
-0.002727
-0.021706
0.017028
0.059122
0.036885
0.016183
0.017923
0.0507
0.084657
0.058168
0.064825
0.05939
0.065244
0.046807
0.06348
0.098397
0.088901
0.057974
0.056766
0.066081
0.069114
0.068249
0.073084
0.07489
0.077244
0.096532
0.104451
0.123059
0.136938
0.137428
0.114562
0.105285
0.087842
0.098945
0.099779
0.07138
0.049313
0.052385
0.041567
0.044335
0.049932
0.062545
0.10589
0.113234
0.049896
0.065823
0.095748
0.112506
0.115237
0.089001
0.101771
0.120074
0.147622
0.130323
0.110591
0.097385
0.096364
0.100981
0.08209
0.098023
0.089995
0.088307
0.08512
0.092471
0.089229
0.098347
0.101214
0.093866
0.097494
0.103501
0.075623
0.06079
0.054341
0.056002
0.06392
0.034398
0.005411
0.000921
-0.016082
0.001218
0.032294
0.042419
0.043419
0.043639
0.040166
0.033215
0.049673
0.05437
0.066983
0.044118
0.019471
0.005423
0.011134
0.017596
0.001495
-0.008676
-0.01176
-0.020337
-0.025761
-0.015697
-0.016023
0.009058
0.029548
0.023731
0.006527
-0.009943
-0.010792
-0.011718
0.022295
0.010883
-0.002894
0.025969
-0.003496
-0.022231
0.008806
0.013554
-0.014479
-0.024089
-0.012182
-0.015819
-0.016125
-0.026622
-0.039099
-0.021879
-0.005057
0.024437
0.018684
-0.002802
0.008496
0.037158
0.074215
0.049411
0.043428
0.017064
0.005652
-0.013535
-0.029626
-0.029531
0.005994
-0.020584
-0.041217
-0.022574
-0.01145
0.012069
-0.001727
0.005486
0.012652
0.001803
-0.003791
-0.021615
-0.042111
-0.021017
-0.006302
-0.001054
-0.015787
-0.045692
-0.051743
-0.049898
-0.037429
-0.019409
-0.007608
0.011151
0.036487
0.036542
0.053957
0.078483
0.103631
0.137529
0.167497
0.161868
0.196151
0.21095
0.22407
0.291106
0.350323
0.380702
0.414166
0.455931
0.506542
0.53825
0.603871
0.624033
0.676483
0.720622
0.770727
0.782567
0.790047
0.801663
0.776106
0.723075
0.673275
0.665447
0.64359
0.590317
0.532405
0.465993
0.405288
0.359903
0.314121
0.265478
0.231146
0.212423
0.201885
0.204084
0.206309
0.203278
0.176998
0.163134
0.106459
0.063775
0.004259
-0.005711
0.006811
0.021297
0.034967
0.040468
0.04644
0.025439
-0.001855
-0.014886
-0.026948
-0.008439
0.016531
0.05525
0.045414
0.047628
0.062625
0.073353
0.103286
0.087991
0.098331
0.09778
0.081724
0.05226
0.055818
0.0621
0.048896
0.046246
0.030568
0.046135
0.037188
0.039982
0.046474
0.05688
0.05631
0.055726
0.060256
0.072903
0.071007
0.063103
0.063404
0.0718
0.071761
0.080203
0.079955
0.083705
0.061133
0.046629
0.02565
0.031187
0.033867
0.047137
0.056606
0.054442
0.065438
0.080871
0.074196
0.078171
0.078938
0.084386
0.063456
0.03912
0.037583
0.046421
0.07512
0.073825
0.067767
0.030915
-0.003694
0.017222
0.037243
0.02808
0.038555
0.087112
0.10931
0.110575
0.117236
0.119673
0.119244
0.104807
0.068117
0.0548
0.065655
0.064735
0.057417
0.058671
0.057543
0.053761
0.049126
0.028522
0.017061
0.024941
0.020641
0.060897
0.069362
0.079057
0.092849
0.102693
0.086463
0.087032
0.07827
0.057346
0.055088
0.050208
0.073384
0.078253
0.078748
0.061352
0.074172
0.064612
0.072612
0.053002
0.051814
0.079343
0.084632
0.119639
0.130148
0.109591
0.085534
0.105168
0.109846
0.086564
0.08512
0.073183
0.069592
0.066155
0.054561
0.062119
0.056053
0.067662
0.074816
0.062381
0.056139
0.062283
0.091284
0.104348
0.108376
0.094133
0.074474
0.074317
0.09797
0.091734
0.106063
0.093783
0.094728
0.097708
0.109683
0.087293
0.080197
0.082964
0.103891
0.106565
0.090529
0.076858
0.126953
0.139704
0.156174
0.158685
0.148964
0.142516
0.13683
0.143923
0.140422
0.150458
0.13045
0.109163
0.088192
0.078361
0.099545
0.111839
0.128556
0.141597
0.142443
0.114831
0.123566
0.130455
0.149194
0.170251
0.163627
0.151458
0.154511
0.142487
0.156614
0.151603
0.161966
0.149457
0.135256
0.12596
0.123936
0.107912
0.128408
0.152511
0.16851
0.175575
0.181661
0.196056
0.200388
0.208914
0.22213
0.230061
0.216371
0.220243
0.205486
0.198732
0.187152
0.195833
0.191673
0.178586
0.187963
0.236432
0.215419
0.205847
0.21856
0.235504
0.232157
0.238759
0.267076
0.278963
0.257518
0.242869
0.245257
0.26551
0.251242
0.23137
0.21813
0.199574
0.19009
0.217102
0.212524
0.231244
0.249112
0.264519
0.28253
0.289274
0.27086
0.257718
0.268883
0.250991
0.246414
0.262055
0.246836
0.257772
0.254446
0.241853
0.211021
0.171137
0.170125
0.171943
0.223487
0.232054
0.198091
0.210539
0.21836
0.220952
0.219917
0.213229
0.214191
0.219269
0.22799
0.232125
0.207854
0.17872
0.163267
0.169802
0.183706
0.126647
0.108069
0.110644
0.108895
0.11304
0.139795
0.131804
0.16033
0.16835
0.156531
0.119033
0.106255
0.097289
0.126929
0.125146
0.121315
0.106302
0.094581
0.095102
0.072367
0.06472
0.060305
0.045023
0.046266
0.058158
0.058779
0.067692
0.060724
0.066731
0.077307
0.061659
0.056283
0.063711
0.089949
0.094305
0.067434
0.063535
0.034695
0.013051
0.009612
-0.009753
-0.020687
0.010339
0.027556
0.027824
0.0266
0.031023
0.034744
0.032204
0.067404
0.08476
0.050328
0.066189
0.063854
0.050707
0.017392
0.0215
0.043614
0.048375
0.032638
0.024899
0.013836
-0.002737
0.000361
0.004336
0.010067
0.04003
0.044956
0.042637
0.060538
0.062791
0.047422
0.03888
0.044358
0.029247
0.022478
0.031586
0.026906
0.021203
0.010061
0.015282
-0.000375
-0.013713
-0.041017
-0.018167
0.037082
0.050767
0.048574
0.047491
0.077382
0.06201
0.084642
0.103486
0.106429
0.054627
0.02066
0.021237
0.022263
0.013734
0.016273
0.031242
0.037362
0.036543
0.032567
0.039096
0.027257
0.034594
0.045745
0.044461
0.064153
0.068362
0.078744
0.072309
0.063604
0.057937
0.045637
0.037111
0.032008
0.028987
0.033879
0.019264
0.020841
0.033285
0.028936
0.010398
0.005676
0.011405
0.061047
0.059668
0.042381
0.050067
0.064689
0.072087
0.081583
0.083717
0.069383
0.061143
0.030791
0.017413
0.035126
0.040234
0.037004
0.049728
0.055852
0.044161
0.050477
0.0603
0.043493
0.061625
0.054366
0.047611
0.055912
0.059141
0.057546
0.056099
0.06761
0.074984
0.050056
0.042654
0.063033
0.054685
0.049217
0.060665
0.03686
0.039957
0.05333
0.052361
0.048212
0.070133
0.070344
0.095844
0.108529
0.105071
0.093619
0.088752
0.08071
0.065527
0.052661
0.036114
0.038752
0.034427
0.030709
0.027668
0.045677
0.049055
0.03741
0.048423
0.070324
0.071278
0.068869
0.032872
0.0169
0.027194
0.032954
0.043239
0.049299
0.085187
0.086272
0.086033
0.062631
0.022406
0.002356
0.03068
0.019751
0.037289
0.053773
0.051082
0.060033
0.053664
0.066565
0.076051
0.084822
0.090201
0.096341
0.083483
0.088997
0.094688
0.086452
0.059956
0.067634
0.043428
0.037485
0.027684
0.047859
0.055255
0.059915
0.04708
0.056
0.038124
0.027765
0.050891
0.077665
0.054522
0.061029
0.062245
0.055946
0.067448
0.044359
0.035924
0.039663
0.041332
0.049755
0.029546
0.019974
0.010928
0.040335
0.048612
0.066276
0.045571
0.0389
0.035478
0.041833
0.068755
0.064817
0.058678
0.067147
0.064812
0.05364
0.055834
0.036917
0.002364
-0.019631
-0.022603
-0.016972
-0.002241
0.015274
0.035975
0.027268
0.041449
0.064218
0.083767
0.093482
0.106315
0.095549
0.082488
0.057426
0.069075
0.061794
0.012267
0.017755
0.040048
0.038426
0.044183
0.05188
0.038045
0.033464
0.0449
0.066295
0.051612
0.070119
0.079703
0.082607
0.083222
0.081883
0.069081
0.077279
0.065937
0.056502
0.058421
0.035726
0.006011
0.012372
0.001765
-0.009313
0.031435
0.034566
0.045788
0.036645
0.029967
0.069946
0.087786
0.091172
0.082212
0.065441
0.037785
0.050633
0.040724
0.029328
0.041622
0.03351
0.025942
0.001209
-0.003535
0.026942
0.039342
0.062875
0.059246
0.057365
0.072369
0.057665
0.053615
0.071198
0.075424
0.068384
0.073306
0.077526
0.058341
0.04293
0.02903
0.009754
0.02497
0.014011
-0.008917
-0.014148
-0.017403
-0.009351
0.025138
0.054698
0.094778
0.107321
0.073676
0.068187
0.081953
0.091136
0.08223
0.060257
0.031753
0.017128
0.029581
0.037193
0.02943
0.031338
0.006
0.025263
0.039035
0.054749
0.054804
0.065253
0.082016
0.08073
0.07321
0.078891
0.069133
0.062972
0.049193
0.03955
0.072865
0.083194
0.049152
0.02122
-0.01837
0.012681
0.020646
0.011945
0.022225
0.03473
0.016487
0.018514
0.041565
0.07026
0.079604
0.076632
0.080393
0.092822
0.055701
0.039532
0.070772
0.06467
0.048071
0.025144
0.0444
0.034021
0.044928
0.04914
0.062397
0.051824
0.050643
0.065025
0.05134
0.069486
0.08184
0.096809
0.105814
0.083258
0.078895
0.064821
0.028722
-0.007073
-0.033805
-0.000968
0.040746
0.056119
0.066156
0.019538
0.041511
0.059133
0.03989
0.030483
-0.001227
0.032794
0.082189
0.095704
0.106423
0.125956
0.112228
0.078334
0.090121
0.086916
0.081854
0.083683
0.07584
0.086695
0.097423
0.091655
0.100807
0.112218
0.124418
0.122775
0.122602
0.124737
0.13679
0.144553
0.142486
0.126836
0.126294
0.127783
0.136322
0.13685
0.123494
0.122762
0.101719
0.072663
0.064584
0.068008
0.09259
0.097136
0.113633
0.140059
0.157221
0.145289
0.144154
0.13092
0.140342
0.145436
0.13375
0.12914
0.132916
0.150284
0.145209
0.139803
0.107167
0.093282
0.116982
0.118211
0.126106
0.127498
0.128104
0.119931
0.134807
0.140126
0.137774
0.134743
0.135716
0.119317
0.115767
0.093961
0.08303
0.068478
0.054191
0.060789
0.065617
0.041511
0.04366
0.047328
0.044268
0.053077
0.066063
0.058311
0.061253
0.071261
0.051482
0.065538
0.082228
0.099024
0.087763
0.096354
0.097224
0.052695
-0.025383
-0.024433
-0.019146
-0.035773
-0.073362
0.00804
0.026359
0.018564
0.035103
0.059449
0.077666
0.066836
0.032569
0.034021
0.020057
0.028063
0.034929
0.045102
0.051664
0.046083
0.020907
0.008214
-0.00022
-0.003485
-0.000643
-0.001617
0.00117
0.004366
0.024367
0.034769
0.053775
0.059231
0.056088
0.076372
0.08238
0.057644
0.054859
0.052652
0.041798
0.030581
0.024882
0.014055
0.006648
0.007899
0.015273
0.027212
0.034967
0.020304
0.032811
0.032509
0.03738
0.043675
0.039526
0.020382
0.001168
0.014446
0.003683
-0.020604
-0.019355
-0.018543
-0.027224
-0.035448
-0.029078
-0.025553
-0.004033
0.001705
0.007015
0.034354
0.029686
0.061041
0.072298
0.070618
0.084143
0.149969
0.198882
0.244518
0.274894
0.302728
0.355413
0.393517
0.390726
0.409975
0.46449
0.512356
0.558333
0.587433
0.624125
0.666295
0.706741
0.744671
0.795264
0.819628
0.819118
0.812092
0.790173
0.753464
0.734398
0.709062
0.663837
0.6201
0.557625
0.471242
0.38552
0.351949
0.302856
0.279659
0.279459
0.27307
0.269239
0.25436
0.229789
0.199815
0.173721
0.127544
0.10133
0.089808
0.067384
0.05242
0.037278
0.013552
0.006043
0.023968
0.0273
0.052628
0.046479
0.028963
0.035272
0.045463
0.067503
0.089849
0.102791
0.115192
0.121512
0.112743
0.108833
0.100597
0.081284
0.077291
0.092631
0.115258
0.077172
0.066874
0.051681
0.048231
0.03684
0.054638
0.077998
0.089529
0.079701
0.07086
0.080351
0.074394
0.095709
0.115669
0.123087
0.115576
0.102904
0.092288
0.064711
0.040834
0.051292
0.052737
0.07579
0.060188
0.06135
0.060402
0.033124
0.035103
0.023645
0.032436
0.069947
0.111745
0.096151
0.094252
0.103108
0.115638
0.122242
0.11668
0.097937
0.096561
0.059425
0.036855
0.060151
0.050422
0.050243
0.067705
0.074686
0.073974
0.088184
0.098883
0.110089
0.113589
0.120204
0.126015
0.104989
0.077808
0.075419
0.089268
0.093321
0.070332
0.079518
0.071519
0.084441
0.085326
0.077827
0.076307
0.078996
0.073513
0.100633
0.104284
0.12504
0.137939
0.12803
0.111176
0.107265
0.156033
0.132808
0.106256
0.074226
0.08097
0.054784
0.059455
0.071683
0.074804
0.071013
0.083296
0.080921
0.101541
0.134813
0.121101
0.114976
0.130691
0.116105
0.112008
0.113401
0.115641
0.107658
0.091377
0.082219
0.093165
0.079061
0.058945
0.06189
0.072343
0.048766
0.034564
0.07163
0.08998
0.100818
0.103481
0.101065
0.143378
0.153328
0.150866
0.153422
0.141068
0.134431
0.133935
0.126049
0.110885
0.105673
0.098503
0.098075
0.101686
0.105283
0.120658
0.11084
0.117197
0.135276
0.112547
0.137894
0.166525
0.165614
0.155245
0.156374
0.144254
0.118675
0.127466
0.13197
0.132087
0.128589
0.106901
0.079697
0.099331
0.107367
0.131204
0.149131
0.157006
0.150416
0.144523
0.158702
0.158505
0.160795
0.175198
0.175836
0.18641
0.19605
0.190833
0.167453
0.178062
0.187999
0.196757
0.165532
0.141824
0.155589
0.172707
0.180636
0.1884
0.184141
0.188241
0.211891
0.224308
0.229747
0.248866
0.244905
0.25737
0.253467
0.276608
0.258536
0.220538
0.20123
0.208011
0.215287
0.216457
0.218113
0.227963
0.243028
0.24114
0.236123
0.245167
0.23898
0.22508
0.238745
0.256334
0.247524
0.245207
0.254087
0.246347
0.235475
0.244917
0.261406
0.256807
0.250148
0.229379
0.222833
0.24793
0.265766
0.27014
0.272845
0.269372
0.282869
0.261006
0.271188
0.28436
0.268623
0.275272
0.288538
0.270722
0.244417
0.236256
0.226391
0.210154
0.22418
0.238073
0.23389
0.23749
0.224218
0.203897
0.191889
0.216823
0.239195
0.232509
0.232017
0.209555
0.225138
0.21158
0.190948
0.19797
0.189513
0.164543
0.156672
0.142825
0.114494
0.123639
0.125893
0.126752
0.107138
0.105348
0.084947
0.120279
0.137013
0.138675
0.164022
0.13711
0.12974
0.128286
0.115017
0.082319
0.101033
0.08772
0.080345
0.08278
0.064288
0.049864
0.061297
0.077056
0.086511
0.087531
0.082048
0.091706
0.089117
0.083808
0.084199
0.093112
0.096339
0.096268
0.058654
0.042996
0.057372
0.056384
0.06514
0.055512
0.038409
0.03658
0.05316
0.046079
0.057876
0.04906
0.030727
0.053058
0.062875
0.063339
0.071133
0.062955
0.038745
0.038448
0.037187
0.020965
0.015103
0.016631
0.012922
0.03238
0.030192
0.026099
0.03925
0.040924
0.030552
0.029342
0.03694
0.046998
0.065762
0.06459
0.063091
0.052386
0.05327
0.065357
0.066452
0.056666
0.022419
0.011687
0.002969
-0.002731
0.011955
0.027128
0.030524
0.045719
0.034234
0.043517
0.018133
0.032056
0.058442
0.050027
0.066161
0.060715
0.059331
0.06236
0.070792
0.066602
0.062723
0.058977
0.023025
0.023828
0.032027
0.030917
0.044467
0.028038
0.051981
0.072805
0.064126
0.077699
0.067432
0.044736
0.053938
0.059989
0.056875
0.046754
0.036572
0.028321
0.046564
0.048121
0.058854
0.043637
0.023308
0.017444
0.028657
0.047051
0.071681
0.083721
0.071494
0.065106
0.089009
0.086969
0.091039
0.074436
0.053134
0.027197
0.063739
0.06029
0.072819
0.077281
0.038622
0.045517
0.037296
0.042184
0.02226
0.0453
0.068691
0.050372
0.02525
0.04053
0.061025
0.07951
0.079604
0.085313
0.075275
0.090451
0.080405
0.070511
0.057589
0.053972
0.043606
0.042818
0.021419
0.028528
0.034342
0.041091
0.044427
0.060532
0.065571
0.068377
0.065422
0.051203
0.063833
0.059779
0.048719
0.05035
0.065157
0.054532
0.041874
0.012743
0.013067
0.039062
0.062514
0.072705
0.089609
0.074749
0.060288
0.064618
0.051266
0.067426
0.071474
0.041583
0.049475
0.071598
0.081075
0.074032
0.075152
0.06853
0.056679
0.047084
0.043585
0.028132
0.03386
0.04271
0.058353
0.09643
0.096581
0.089639
0.065795
0.055461
0.073094
0.073299
0.084693
0.060572
0.075712
0.083986
0.071972
0.052784
0.037646
0.033749
0.02626
0.050958
0.044167
0.032555
0.032427
0.032571
0.033713
0.022075
0.02152
0.024473
0.047573
0.063987
0.073628
0.079815
0.079224
0.053564
0.05929
0.028348
0.01016
0.025097
0.020612
0.04912
0.046818
0.019377
0.028137
0.022317
0.032108
0.046074
0.048573
0.053826
0.070081
0.083158
0.071817
0.059619
0.071514
0.087367
0.084927
0.071946
0.059785
0.050735
0.062857
0.078498
0.019267
0.024209
0.032791
0.016597
0.053789
0.064384
0.057053
0.036308
0.006295
0.028972
0.058454
0.06546
0.060239
0.044761
0.028124
0.028351
0.034449
0.020996
0.001402
0.021041
0.042638
0.050287
0.044752
0.033705
0.016805
0.026584
0.021493
0.050349
0.073036
0.081117
0.068252
0.058907
0.061949
0.074051
0.074782
0.057241
0.038889
0.03667
0.029977
0.037681
0.043873
0.033822
0.032394
0.034581
0.018565
0.019645
0.032031
0.040791
0.061731
0.081871
0.07999
0.066835
0.053824
0.058961
0.0704
0.042566
0.026026
0.042979
0.051398
0.046467
-0.004721
-0.009391
0.021864
0.039063
0.043391
0.049394
0.049511
0.044712
0.066754
0.087557
0.092221
0.052418
0.032763
0.032213
0.046439
0.039604
0.051054
0.045667
0.006934
-0.011322
0.011127
0.02385
0.027112
0.041246
0.042931
0.036346
0.06609
0.069578
0.082845
0.074414
0.073023
0.071727
0.06503
0.043125
0.037452
0.042758
0.034406
0.024238
0.02379
0.023791
0.031641
0.026822
0.03738
0.061845
0.069479
0.053434
0.04602
0.066517
0.062533
0.021885
0.014004
0.044428
0.08706
0.081226
0.06824
0.037953
0.036701
0.04426
0.032781
0.015708
0.042378
0.026734
0.026485
0.041092
0.038776
0.050181
0.066288
0.073641
0.073326
0.068527
0.072856
0.073777
0.076745
0.050115
0.047722
0.060328
0.037764
0.023477
0.01916
0.01923
0.031315
0.026365
0.002857
-0.004099
0.029261
0.035006
0.054841
0.075239
0.074861
0.088226
0.077839
0.069003
0.081069
0.066881
0.069617
0.05605
0.031362
0.033491
0.051195
0.037395
0.036689
0.025295
0.046581
0.052363
0.043097
0.032149
0.066543
0.056874
0.071794
0.074703
0.077385
0.063551
0.049044
0.043867
0.029212
0.03422
0.048956
0.049298
0.044057
0.033058
0.030413
0.032488
0.042289
0.05347
0.070563
0.092616
0.084763
0.058555
0.024374
0.045245
0.087049
0.103797
0.112056
0.090683
0.09453
0.07913
0.051165
0.063183
0.080954
0.075001
0.081149
0.065417
0.091108
0.103469
0.100138
0.121471
0.122129
0.135673
0.116521
0.12704
0.125505
0.138456
0.148003
0.143038
0.125592
0.077267
0.059865
0.088126
0.095372
0.102683
0.122695
0.115091
0.099641
0.103456
0.099927
0.11971
0.128148
0.163909
0.172364
0.144528
0.128048
0.138176
0.137708
0.127734
0.137812
0.136599
0.116636
0.099121
0.111143
0.107878
0.096426
0.086407
0.082977
0.103608
0.090532
0.079667
0.09911
0.131059
0.124146
0.104392
0.104632
0.111579
0.108654
0.10107
0.096139
0.086127
0.08556
0.065246
0.060723
0.067461
0.062816
0.06151
0.061653
0.068202
0.067479
0.071889
0.061039
0.088112
0.089003
0.074555
0.05023
0.073603
0.077634
0.081635
0.057877
0.025021
-0.046053
-0.027665
-0.00907
0.001896
-0.020282
-0.038312
-0.010207
-0.012584
0.021923
0.037348
0.041359
0.076067
0.08365
0.063054
0.057828
0.039562
0.045049
0.054863
0.041091
0.030168
0.031058
0.016935
0.012292
-0.023347
-0.024148
0.005812
0.000466
0.014541
0.024081
0.028615
0.046726
0.046317
0.026318
0.039947
0.050815
0.051401
0.018079
0.034984
0.033556
0.021928
0.019386
0.018322
0.002229
-0.026559
0.003391
0.017624
0.028469
0.012041
0.029076
0.050571
0.029929
0.028627
0.032494
0.010617
-0.009364
0.001888
-0.002909
0.008367
-0.006077
-0.0182
-0.025225
-0.017933
-0.03787
-0.067659
-0.04291
-0.030256
-0.037571
-0.016606
-0.004101
-0.009614
0.024162
0.05723
0.098593
0.120626
0.13198
0.166866
0.201352
0.228265
0.241509
0.29402
0.344861
0.382253
0.441075
0.440515
0.459501
0.507627
0.565329
0.618931
0.682671
0.712969
0.752895
0.779254
0.795283
0.816093
0.809198
0.819645
0.800944
0.753431
0.71094
0.673751
0.635757
0.591114
0.5491
0.483233
0.401616
0.312707
0.293367
0.340751
0.336164
0.292655
0.264266
0.233963
0.223342
0.188992
0.152881
0.111343
0.089911
0.061308
0.050408
0.037282
0.030924
0.005719
0.000446
0.007522
-0.00323
0.005361
0.008473
0.016485
0.048717
0.071558
0.073023
0.090524
0.091018
0.107434
0.089629
0.054322
0.075118
0.086054
0.06126
0.046991
0.075442
0.081582
0.068362
0.028664
0.026912
0.01625
0.036023
0.075219
0.09779
0.092839
0.104735
0.109532
0.114499
0.119619
0.120363
0.096209
0.063418
0.085389
0.097925
0.078919
0.043368
0.043734
0.043695
0.02984
0.020913
0.028161
0.054758
0.035228
0.050348
0.054127
0.070874
0.102988
0.098084
0.104177
0.100248
0.084209
0.068474
0.089324
0.082505
0.070473
0.043005
0.063109
0.067465
0.054187
0.059628
0.071953
0.034386
0.017348
0.023366
0.039956
0.047857
0.072816
0.089123
0.107674
0.100277
0.087031
0.074766
0.061072
0.051811
0.072291
0.059287
0.044982
0.033516
0.03802
0.019718
0.012941
0.060132
0.064166
0.071356
0.079751
0.108671
0.11121
0.107097
0.112585
0.117484
0.09478
0.095552
0.093449
0.090262
0.091919
0.081425
0.088603
0.081656
0.057952
0.061539
0.064877
0.059527
0.040938
0.038081
0.055449
0.06588
0.093908
0.10605
0.087179
0.11151
0.117996
0.096956
0.067095
0.032699
0.065581
0.052099
0.063496
0.078946
0.080166
0.090655
0.074001
0.06444
0.085796
0.104296
0.079192
0.081389
0.086036
0.102936
0.11576
0.128271
0.129238
0.111408
0.104345
0.109287
0.104207
0.083861
0.071233
0.051032
0.065539
0.104452
0.095843
0.078832
0.077265
0.089948
0.108634
0.13769
0.149695
0.129102
0.110845
0.119838
0.108769
0.117922
0.115408
0.117172
0.112468
0.103845
0.057474
0.082884
0.083637
0.106688
0.120764
0.139771
0.125296
0.123155
0.134886
0.163778
0.152263
0.14422
0.160375
0.161191
0.153027
0.147618
0.14981
0.128822
0.121806
0.118191
0.120321
0.119824
0.166993
0.136466
0.136696
0.136891
0.162481
0.181997
0.165011
0.171617
0.187046
0.204464
0.226059
0.237023
0.21559
0.196466
0.187785
0.181303
0.205523
0.212242
0.199935
0.183123
0.183194
0.183706
0.189366
0.195453
0.194738
0.240616
0.24395
0.252114
0.261003
0.238621
0.245979
0.270606
0.260103
0.233923
0.221698
0.223661
0.231352
0.214401
0.227914
0.223335
0.226316
0.221916
0.217532
0.237062
0.235463
0.244129
0.251807
0.267876
0.289115
0.283402
0.26405
0.259003
0.250204
0.214834
0.191898
0.209098
0.226149
0.209806
0.206752
0.203139
0.200338
0.176713
0.165726
0.186046
0.194572
0.188722
0.172607
0.176595
0.199836
0.211305
0.203962
0.168602
0.174921
0.176787
0.161009
0.130488
0.138846
0.136966
0.127916
0.112267
0.098824
0.09578
0.098768
0.101006
0.102197
0.11185
0.112135
0.127525
0.143038
0.147689
0.124207
0.117978
0.117475
0.102097
0.081712
0.080888
0.07018
0.060309
0.054864
0.034749
0.021584
0.042922
0.03412
0.029187
0.030239
0.030911
0.044489
0.038754
0.054755
0.052046
0.046922
0.038741
0.036406
0.032425
0.021572
0.011981
0.014845
0.006571
0.009241
0.013095
-0.011068
-0.005062
-0.00708
0.006274
0.016275
-0.002699
-0.005045
0.022234
0.034806
0.030389
0.065562
0.056565
0.036383
0.026028
0.035155
0.035818
-0.003442
-0.001044
-0.007014
-0.009663
-0.024418
-0.012502
-0.013191
-0.032146
-0.02033
0.000883
0.021066
0.043786
0.036877
0.011663
0.000774
-0.005565
0.001325
-0.002987
0.018764
-0.003722
-0.014765
-0.02853
-0.033531
-0.026284
-0.012859
-0.007166
-0.027874
-0.05157
-0.02439
0.003796
0.005097
0.002393
-0.027767
-0.018847
-0.013138
-0.016865
0.012005
0.014304
0.024969
0.001605
-0.008139
-0.003748
-0.014993
-0.000568
-0.02178
-0.030646
-0.013969
-0.005237
0.007821
0.016175
-0.007868
0.033024
0.057663
0.035662
0.045911
0.033223
0.013631
-0.015451
0.005756
-0.006907
-0.039353
-0.044729
-0.018569
-0.001889
0.01086
-0.000315
0.028285
0.036554
0.027873
0.015751
0.025237
0.018317
0.019513
0.028351
0.033306
0.014569
0.007889
0.014936
-0.004159
0.00801
0.009995
0.007304
-0.005669
0.007527
0.004616
0.022631
0.003718
0.018899
0.024046
0.013884
0.01442
0.04175
0.044105
0.049366
0.03612
0.00022
-0.009147
-0.009788
-0.001457
-0.002263
-0.013802
0.015941
0.024126
0.034405
0.027781
0.005747
-0.025965
-0.026339
-0.006494
-0.002292
0.005447
0.045962
0.0327
0.020264
0.030696
0.035207
0.034761
0.049231
0.044852
0.009257
0.006447
0.000467
0.009792
0.013701
0.009769
0.000659
0.004803
0.010928
0.01939
0.003403
0.013798
0.02385
0.028493
0.038121
0.037257
0.030802
0.025739
0.026907
0.01812
0.004518
0.004526
0.006094
-0.021009
-0.024125
-0.016206
-0.001898
-0.009928
-0.009756
0.0034
0.018989
0.028214
0.011417
0.010943
0.030619
0.028534
0.0213
-0.012499
0.002002
-0.001236
-0.010082
0.007554
-0.010148
-0.016976
-0.021324
-0.01117
-0.001938
0.018847
0.015534
0.008967
0.005942
-0.001212
0.013297
0.023535
0.027624
0.023628
0.019418
0.021566
0.006953
0.002642
-0.000586
0.009993
-0.020034
-0.018761
-0.019784
-0.014323
-0.011785
-0.018665
-0.029361
-0.012626
-0.006415
0.008959
0.015056
0.009976
0.010113
-0.000827
0.007321
0.001966
0.006883
0.021382
-0.028875
-0.037763
-0.003157
-0.003651
-0.003955
-0.012874
-0.013352
-0.004173
0.002717
0.000519
-0.008375
0.004512
-0.006346
-0.003568
0.04156
0.034452
0.010388
-0.011368
-0.012955
0.000123
0.010213
-0.013731
-0.020183
-0.011997
-0.027602
-0.048851
-0.022621
-0.021017
-0.024033
-0.002496
0.007519
-0.019254
-0.020337
-0.031584
-0.017873
0.006425
0.015575
-0.004338
0.008496
-0.013879
-0.030836
-0.023675
-0.006685
-0.013908
-0.016625
-0.027955
-0.038
-0.03159
-0.037442
-0.037148
-0.013652
0.014
0.026117
0.008934
0.022835
0.032903
0.014552
0.000403
0.000321
-0.007672
-0.003681
-0.0118
-0.023086
-0.00725
0.008969
-0.006628
-0.007236
-0.020101
-0.01306
-0.001402
0.015792
0.006729
0.004181
0.020817
0.014635
0.015181
0.006648
-0.02225
0.003973
-0.031605
-0.054955
-0.066344
-0.070399
-0.059468
-0.046406
-0.058533
-0.035558
-0.024555
-0.031649
-0.001872
-0.010425
-0.016511
0.018541
0.008125
0.008524
0.010954
0.01133
-0.009831
-0.013658
-0.004826
-0.001618
-0.023218
-0.058746
-0.05501
-0.047314
-0.04194
-0.02966
-0.016419
-0.025883
0.013815
0.021926
0.001507
0.031021
0.030394
-0.015737
-0.037909
-0.061007
-0.0304
-0.015835
-0.022758
-0.031879
-0.037692
-0.038636
-0.030303
-0.025755
-0.037556
-0.015054
-0.01451
-0.011669
0.00214
0.011577
0.019659
0.028804
0.015262
0.027006
0.011092
-0.00943
-0.001314
-0.002471
-0.010617
-0.004921
-0.008307
-0.034962
-0.034496
-0.02005
-0.026191
-0.033985
-0.022554
0.003479
0.01157
0.011079
-0.002362
-0.005903
-0.002018
0.012219
0.006334
0.007169
-0.006674
-0.028913
-0.020538
-0.020268
-0.057235
-0.080376
-0.093494
-0.106545
-0.086818
-0.046574
-0.014206
-0.010864
0.001141
0.007903
0.013162
0.014689
0.012697
0.022286
0.017675
0.01692
0.009091
-0.018766
0.005455
0.012681
-0.005673
-0.028486
-0.011256
-0.020729
-0.062377
-0.08355
-0.060021
-0.028846
0.021521
0.021094
-0.01179
-0.023971
-0.02558
-0.04254
-0.011023
-0.01259
0.001692
-0.009352
-0.030852
-0.05176
-0.040729
-0.058443
-0.033989
-0.026164
-0.033497
-0.022148
-0.025992
-0.015031
0.003457
0.015772
0.033921
0.047485
0.028168
0.033247
0.014501
0.018286
0.003323
0.018132
0.034913
0.042951
0.03374
0.001331
0.008488
0.0138
0.018846
0.030364
0.046488
0.030852
0.046473
0.044574
0.034098
0.05719
0.051584
0.067353
0.063125
0.032621
0.036886
0.038062
0.020838
0.03816
0.054785
0.058379
0.050711
0.010076
-0.006481
0.018012
0.040756
0.055617
0.070363
0.085124
0.098626
0.090626
0.1082
0.099647
0.093878
0.102324
0.098958
0.093851
0.066118
0.046508
0.045822
0.048099
0.045119
0.018429
0.023342
0.04347
0.038875
0.067609
0.070099
0.077733
0.067847
0.05246
0.040819
0.045315
0.053055
0.07119
0.046461
0.01413
0.038447
0.053327
0.052847
0.034829
0.028481
0.016081
0.001176
-0.010105
-0.014717
-0.01269
-0.001393
0.007547
-0.001763
0.001331
0.019631
0.022401
0.019832
0.019601
0.027065
-0.004464
-0.015461
-0.039259
-0.052398
-0.048258
-0.017799
-0.027123
-0.053303
-0.062965
-0.086526
-0.052707
-0.034792
-0.017702
-0.029546
-0.018
-0.004299
0.023819
0.028792
-0.001416
-0.027816
-0.050675
-0.047461
-0.052798
-0.079283
-0.072167
-0.064621
-0.07793
-0.087605
-0.070923
-0.06344
-0.061623
-0.069721
-0.043817
-0.006918
0.006714
-0.031451
-0.000448
-0.002265
0.000544
0.009152
0.010104
-0.012633
-0.04091
-0.054673
-0.062012
-0.074447
-0.080153
-0.056558
-0.046699
-0.034093
-0.033934
-0.019731
-0.036653
-0.006039
0.021303
0.022796
-0.005838
-0.03113
-0.061344
-0.086589
-0.067873
-0.070043
-0.079637
-0.076747
-0.07243
-0.083614
-0.087543
-0.098378
-0.098059
-0.088614
-0.063072
-0.059765
-0.050305
-0.022368
0.010745
0.039838
0.050561
0.073033
0.069292
0.074051
0.115952
0.158325
0.187521
0.224131
0.257953
0.293999
0.347026
0.368895
0.426352
0.482693
0.526494
0.584478
0.60787
0.648242
0.68527
0.72475
0.757992
0.772872
0.737627
0.710874
0.677838
0.650448
0.62653
0.594503
0.570442
0.529814
0.466932
0.400758
0.329476
0.303642
0.284363
0.266345
0.235794
0.232732
0.210981
0.153241
0.134903
0.103478
0.07049
0.055404
0.022508
0.012354
-0.000898
-0.007383
-0.039524
-0.05329
-0.059956
-0.060762
-0.058024
-0.048261
-0.015702
-0.001039
0.00936
0.04531
0.03584
0.052795
0.044289
0.028707
0.016504
0.00083
-0.017179
0.003181
0.013658
0.005018
-0.006213
-0.020792
-0.005951
-0.013295
-0.003949
0.001497
-0.00347
0.008232
0.022911
0.018317
0.017434
0.026613
0.016998
0.039027
0.015398
0.021306
0.023046
0.005138
0.009226
-0.00987
-0.039512
-0.021894
-0.010687
0.00727
-0.003215
0.002091
0.000445
0.008447
0.014522
0.029077
0.035123
0.045068
0.036271
0.042839
0.027751
0.012523
0.024964
0.032741
0.015232
-0.010627
-0.024944
-0.050954
-0.04034
-0.024399
-0.006889
0.002483
0.036259
0.047402
0.076592
0.079186
0.064105
0.073096
0.072681
0.046794
0.006702
-0.01317
0.01475
0.020462
0.029198
0.017247
0.021405
0.021025
0.006468
0.002595
0.012203
0.02135
0.029121
0.014696
0.034322
0.057977
0.049155
0.048151
0.04402
0.025947
0.033722
0.042173
0.030439
0.015272
0.012166
0.012176
-0.002451
-0.005391
0.007025
-0.01316
-0.004346
0.009635
0.034422
0.053947
0.077552
0.049689
0.059758
0.065772
0.05243
0.056103
0.055393
0.058363
0.037675
0.037151
-0.003196
-0.014471
-0.00245
0.003463
0.013397
0.024701
0.009845
0.014125
0.029988
0.008877
0.033682
0.054918
0.039739
0.046305
0.042899
0.034209
0.055967
0.064102
0.07026
0.076471
0.042809
0.068814
0.061474
0.049968
0.033653
0.047404
0.042875
0.043168
0.060655
0.075556
0.086783
0.103688
0.08413
0.068845
0.063771
0.070461
0.06684
0.046789
0.047775
0.061601
0.103217
0.0901
0.073466
0.059044
0.077348
0.055597
0.050452
0.071112
0.067585
0.05319
0.066284
0.103965
0.116035
0.114785
0.122935
0.111945
0.098251
0.092394
0.109692
0.102807
0.110156
0.09612
0.098139
0.108835
0.099106
0.083974
0.106408
0.103111
0.106418
0.132443
0.157609
0.165703
0.132298
0.148653
0.137572
0.150312
0.1393
0.156891
0.169238
0.165015
0.167369
0.152757
0.154284
0.149838
0.157021
0.162529
0.157267
0.16131
0.158605
0.156376
0.18098
0.20118
0.207248
0.208376
0.195125
0.169673
0.177703
0.164305
0.152998
0.160929
0.170948
0.187671
0.180456
0.189488
0.193546
0.180905
0.16927
0.173992
0.201802
0.209883
0.231047
0.231455
0.219444
0.243203
0.237613
0.233197
0.227468
0.195266
0.170273
0.178191
0.179554
0.170529
0.176256
0.164067
0.166378
0.189439
0.177845
0.164193
0.17883
0.179623
0.194141
0.193288
0.179913
0.171435
0.170598
0.154517
0.14109
0.141868
0.117467
0.121194
0.109928
0.096469
0.082119
0.074085
0.08567
0.080834
0.074696
0.099883
0.109435
0.104828
0.110865
0.097027
0.099569
0.08199
0.067203
0.07834
0.082381
0.061893
0.036915
0.023188
0.000027
0.008745
0.00757
0.011745
0.00041
0.024132
0.033564
0.018872
0.004607
0.008226
0.031739
0.040738
0.053834
0.049786
0.030216
0.008392
-0.007655
-0.005894
0.00648
0.011254
0.007123
-0.005893
-0.002224
-0.005681
-0.002958
0.003003
0.010648
0.003158
-0.009257
-0.010532
-0.023659
-0.007281
0.010809
0.029637
0.013736
-0.01878
-0.021829
-0.027974
-0.030634
-0.030784
-0.041837
-0.03538
-0.024301
-0.040133
-0.058983
-0.025904
-0.036667
-0.014806
-0.001493
0.010739
0.018303
0.000499
-0.003995
-0.01084
0.001559
0.006596
0.004169
-0.005356
-0.008484
-0.014298
-0.029418
-0.025009
-0.058683
-0.064646
-0.052152
-0.056199
-0.051712
-0.048959
-0.038182
-0.023034
-0.007954
-0.007366
0.013942
0.022354
0.015025
0.013459
0.026348
0.024146
0.008144
0.016619
-0.018563
-0.015327
-0.020101
-0.026056
-0.029621
-0.035718
-0.032554
-0.05768
-0.066311
-0.043487
0.002052
0.029672
0.050319
0.052162
0.048713
0.029905
0.022334
0.017636
0.008114
0.003961
-0.007102
-0.018177
-0.016115
-0.03557
-0.008868
0.006575
0.007297
-0.000704
-0.007092
-0.002639
0.0149
0.031296
0.032447
0.029081
0.002732
-0.008503
-0.003935
0.01777
0.0278
0.017685
0.008231
-0.018791
0.009457
0.003581
-0.005736
-0.013654
0.003456
0.011729
0.023799
0.021743
0.020163
0.041444
0.022402
0.018759
0.033755
0.02679
0.021067
0.014047
0.015836
0.038528
0.013029
-0.007089
-0.023578
-0.016788
-0.006901
-0.005186
-0.002604
0.000375
0.0163
0.000821
0.022218
0.036208
0.037616
0.039955
0.040473
0.022795
0.009195
0.002592
-0.030279
-0.020431
-0.009195
-0.006056
0.003888
0.006818
0.006159
0.005745
0.005656
-0.00951
0.015525
0.027581
0.029326
0.040171
0.030809
0.034726
0.049611
0.046872
0.030628
0.029309
0.025434
0.011246
0.012488
0.010278
0.006373
-0.011182
0.005699
0.007225
0.015224
0.010673
0.013926
0.025331
0.024848
0.036234
0.046886
0.047144
0.050173
0.04195
0.019564
-0.005723
-0.02021
-0.031508
-0.022677
-0.02102
-0.034442
-0.025095
-0.009172
0.001886
-0.022961
-0.011858
-0.003395
0.006727
0.012975
0.011454
0.027898
0.015762
0.005115
0.004111
0.000037
-0.003571
0.001619
-0.000405
-0.00003
-0.017859
-0.011447
-0.010782
0.00892
0.014332
0.017739
0.006329
0.015611
0.024947
0.045048
0.044721
0.051297
0.053906
0.013402
-0.019171
-0.02266
-0.001429
0.010574
-0.000905
-0.00749
-0.034301
-0.024076
-0.008642
-0.011244
-0.012675
-0.021703
-0.025852
-0.018196
0.021181
0.015775
0.056774
0.056459
0.01021
0.005104
0.027175
0.033709
0.02053
-0.004191
-0.020727
-0.019007
-0.044525
-0.03359
-0.027612
-0.008232
-0.003826
0.008253
0.02209
0.013088
0.018624
0.022952
0.037479
0.062672
0.054092
0.031409
0.021549
0.03199
0.012341
0.00906
0.003017
-0.020338
-0.010467
-0.010173
-0.030054
-0.020801
-0.004509
0.003339
0.008451
0.00509
0.002499
0.001082
-0.005359
-0.00446
0.01163
0.009798
0.019873
0.017579
-0.004748
-0.00876
-0.025489
-0.034047
-0.036282
-0.023844
-0.034801
-0.029749
-0.009796
0.011683
0.025431
0.023913
0.027703
0.03015
0.02617
0.030519
0.012691
-0.005876
-0.010002
-0.004383
0.015921
0.027512
0.010094
-0.006253
0.012242
-0.000303
-0.004924
0.006791
-0.012441
-0.003126
0.005275
0.018559
0.020247
0.039154
0.043189
0.041041
0.040732
0.02996
0.03898
0.007464
-0.022341
-0.010451
-0.056032
-0.045003
-0.008146
-0.011412
-0.011672
-0.022951
-0.020617
-0.01643
-0.013557
-0.013412
-0.006574
0.034175
0.044966
0.027736
0.019391
-0.01879
-0.016324
0.002878
0.021459
0.027497
0.024394
-0.001335
-0.012637
-0.004641
0.026472
0.002182
0.0111
0.002357
0.013505
0.020792
0.018557
0.000605
0.00703
0.023423
0.021634
0.014347
0.015118
0.030213
0.017149
0.012576
-0.004095
-0.004622
-0.010363
-0.018067
-0.030116
-0.038132
0.004767
0.000576
-0.007448
-0.013487
-0.001709
0.011704
0.024574
0.045388
0.057047
0.061003
0.054151
0.04054
0.017696
0.00069
0.003899
0.013495
0.012037
-0.01723
-0.020903
-0.014684
-0.024973
-0.038447
-0.022385
-0.023617
-0.009802
-0.012434
0.009286
0.032143
0.036483
0.032308
0.034385
0.015801
-0.003702
0.007983
-0.00976
-0.00613
-0.003357
0.004607
0.001448
0.001719
-0.00844
-0.059229
-0.058783
-0.020776
0.019654
0.040799
0.026119
0.016808
0.002726
0.01895
0.036444
0.011432
0.00044
0.014337
0.006532
0.011699
0.02273
0.010791
0.001357
0.010865
0.035196
0.035246
0.044553
0.060494
0.061257
0.054592
0.093684
0.106326
0.056511
0.064499
0.07204
0.088409
0.082321
0.076929
0.047844
0.01107
0.023279
0.048999
0.065544
0.046859
0.049816
0.047143
0.086443
0.096989
0.096248
0.090441
0.097888
0.086272
0.07024
0.098679
0.100437
0.089108
0.061164
0.036762
0.045952
0.045614
0.061868
0.070463
0.071781
0.092311
0.101495
0.102694
0.09097
0.097614
0.104422
0.089124
0.132628
0.148372
0.134649
0.122661
0.092449
0.068937
0.047329
0.050206
0.055148
0.063025
0.061487
0.049516
0.050873
0.060732
0.077458
0.059171
0.06789
0.049048
0.045494
0.057578
0.051097
0.058766
0.043883
0.035962
0.023315
0.009638
0.002432
0.002774
0.001381
0.022257
0.001677
-0.016759
-0.025391
-0.020485
-0.021101
-0.018838
-0.012361
-0.009697
-0.00386
-0.004113
0.012631
0.013016
0.019016
-0.002879
-0.014448
-0.039195
-0.036251
-0.021011
-0.016159
-0.015236
-0.015304
-0.021087
-0.037753
-0.037493
-0.02185
-0.015662
-0.027097
0.000125
0.01795
0.010794
-0.004689
-0.002136
-0.005877
-0.012525
0.005135
-0.010829
-0.020153
-0.023202
-0.030358
-0.05481
-0.04504
-0.049081
-0.029016
-0.020138
-0.029634
-0.037395
-0.003307
0.007088
0.018153
0.021005
-0.001739
-0.013576
-0.004524
-0.008773
-0.032674
-0.035463
-0.030609
-0.053082
-0.062631
-0.066107
-0.068944
-0.061683
-0.072263
-0.070119
-0.056911
-0.07336
-0.044814
-0.006019
-0.011907
-0.001893
-0.015078
-0.011849
0.005302
0.001476
0.014561
0.006884
-0.002799
-0.021487
0.005697
0.040813
0.088331
0.129891
0.159255
0.19053
0.230003
0.245702
0.282631
0.354668
0.411265
0.462457
0.532459
0.567427
0.606015
0.626298
0.65034
0.6973
0.688385
0.702819
0.747828
0.767691
0.746058
0.730165
0.677836
0.656095
0.632333
0.616079
0.579083
0.56691
0.541319
0.444515
0.392967
0.363691
0.348055
0.32961
0.287259
0.237363
0.217637
0.184395
0.14979
0.10021
0.052125
0.004313
-0.008476
-0.009511
0.020512
0.017729
0.015759
0.011757
-0.017433
-0.016212
-0.022151
-0.020387
-0.009388
0.027799
0.010291
0.032488
0.027845
0.017479
0.012864
0.004993
0.016887
0.021559
0.024544
0.030512
0.037438
0.032224
0.044816
0.030383
0.053982
0.076793
0.06898
0.066437
0.05251
0.050526
0.06077
0.056967
0.060085
0.027279
0.021815
-0.020949
-0.020135
0.005924
0.019056
0.022252
0.024836
0.034597
0.05228
0.053324
0.051341
0.040428
0.046824
0.045572
0.043275
0.043247
0.04607
0.009153
0.004148
0.013815
0.010398
0.012444
0.043485
0.031629
0.025862
0.022727
0.018528
0.021121
0.034645
0.052879
0.083155
0.083511
0.073944
0.055404
0.040622
0.057352
0.068852
0.057698
0.018281
0.024438
0.048249
0.04425
0.006894
0.02077
0.052247
0.048841
0.048404
0.016042
-0.000407
0.040078
0.057404
0.056934
0.052823
0.029037
0.019267
0.012455
0.009177
0.042143
0.036887
0.045367
0.052227
0.064514
0.047514
0.032467
0.01551
0.028882
0.038663
0.058875
0.051236
0.058579
0.071135
0.073233
0.05806
0.053364
0.062474
0.055943
0.073601
0.067181
0.050925
0.044726
0.042059
0.036433
0.011175
0.010544
0.029131
0.042957
0.050502
0.055152
0.071978
0.055272
0.040325
0.053202
0.089611
0.092785
0.087752
0.065758
0.07404
0.045212
0.055137
0.058626
0.052902
0.031387
0.035793
0.065651
0.086809
0.076469
0.042433
0.070559
0.074761
0.073077
0.078233
0.08112
0.098152
0.115551
0.109746
0.096451
0.053906
0.05931
0.069513
0.049533
0.063612
0.058202
0.051733
0.053174
0.071033
0.04454
0.056633
0.082599
0.091436
0.084049
0.105109
0.128206
0.121417
0.151672
0.169312
0.156906
0.131498
0.141261
0.10036
0.090204
0.09877
0.08998
0.075651
0.07575
0.070163
0.074713
0.079857
0.077605
0.070696
0.136464
0.180391
0.178398
0.151845
0.134552
0.136786
0.149371
0.145958
0.139885
0.13279
0.142214
0.159078
0.154985
0.151539
0.156674
0.16351
0.165875
0.162876
0.177041
0.201273
0.208923
0.214937
0.181587
0.202185
0.202395
0.203109
0.220055
0.2207
0.210602
0.18707
0.203155
0.196207
0.183481
0.170499
0.176435
0.203902
0.214302
0.211625
0.216773
0.215769
0.221996
0.221164
0.21672
0.228219
0.21416
0.226522
0.247928
0.231883
0.206081
0.20165
0.219827
0.201239
0.206806
0.194877
0.197926
0.188952
0.193834
0.20389
0.186205
0.183793
0.196646
0.19756
0.217971
0.19744
0.214964
0.211885
0.183296
0.180424
0.173698
0.177792
0.178563
0.159941
0.124506
0.098668
0.11934
0.137411
0.128793
0.135836
0.134681
0.126831
0.140585
0.153759
0.160464
0.171767
0.142514
0.130091
0.115509
0.091156
0.062763
0.074169
0.086067
0.061752
0.051866
0.051007
0.068272
0.065637
0.062901
0.056595
0.056028
0.058812
0.053691
0.057797
0.058238
0.058909
0.052714
0.038422
0.033909
0.019572
-0.001453
0.0115
0.0107
0.00023
0.004771
-0.00626
-0.02959
-0.0321
-0.009328
0.015977
0.017221
0.005387
-0.007721
-0.023606
-0.032803
-0.023628
-0.007485
0.007492
0.013117
0.010178
-0.007482
-0.029034
-0.020791
-0.015547
-0.020568
-0.025695
-0.006472
-0.050438
-0.060752
-0.039267
-0.020472
-0.000016
0.010621
-0.00647
0.00527
0.014412
0.01511
-0.001544
0.00925
-0.011143
-0.030401
-0.043827
-0.06016
-0.07263
-0.090535
-0.081464
-0.046744
-0.049395
-0.042621
-0.040672
-0.047188
-0.030682
-0.005703
-0.025792
-0.029113
-0.00738
0.011227
0.026334
0.034878
-0.006684
-0.039143
-0.047775
-0.047396
-0.063292
-0.035402
-0.01748
-0.009974
-0.008009
-0.015699
-0.011975
-0.008263
-0.000572
-0.020841
-0.007576
0.001101
-0.002903
-0.014936
-0.03082
-0.028896
-0.008712
-0.005026
-0.005523
-0.046417
-0.06756
-0.029265
-0.041629
-0.037126
-0.037597
-0.034989
-0.024698
-0.013882
-0.000596
0.014322
0.018988
0.013855
0.023003
0.022152
0.003582
0.003533
-0.00876
0.011975
-0.010659
-0.028983
-0.018383
-0.005094
-0.017529
-0.028339
-0.019445
-0.011828
-0.017123
-0.000037
0.025656
0.021966
0.01666
0.014486
0.019535
0.019075
0.00339
-0.026421
-0.017031
0.00387
-0.014841
-0.026218
-0.0317
-0.013029
-0.000792
-0.021773
-0.032013
-0.007845
0.006484
-0.005364
0.002278
-0.001641
-0.00272
0.037388
0.042709
0.036632
-0.008017
-0.008221
-0.001364
0.001026
-0.009676
0.002283
-0.005437
-0.007849
-0.013507
-0.03456
-0.036843
-0.011226
0.014151
0.010134
0.000549
-0.007029
-0.012577
-0.000864
0.010734
0.026578
0.02047
0.009924
0.028915
0.0073
-0.025647
-0.0397
-0.041075
-0.032191
-0.03537
-0.036297
-0.028405
-0.000283
-0.011635
-0.009052
-0.020612
-0.013287
0.000005
0.017085
0.017975
0.012592
0.022587
0.021628
-0.012787
-0.023508
-0.023715
-0.017239
-0.029645
-0.042261
-0.038388
-0.032651
-0.062599
-0.067895
-0.071127
-0.05563
-0.026059
-0.0285
0.009976
0.032094
0.026542
-0.014412
-0.016416
-0.000982
-0.009944
-0.04475
-0.036103
-0.058859
-0.047253
-0.060213
-0.071929
-0.028114
-0.031039
-0.030487
-0.043123
-0.042448
-0.021749
-0.027668
-0.015142
0.002248
0.00101
0.005173
0.005162
-0.019556
-0.025943
-0.03161
-0.034399
-0.050327
-0.035293
-0.05627
-0.04064
-0.047755
-0.069118
-0.021488
-0.011875
-0.034903
-0.016277
-0.026695
-0.011984
-0.024652
-0.028674
-0.011546
0.000326
-0.009483
-0.032767
-0.020398
-0.026894
-0.039287
-0.058638
-0.054221
-0.050103
-0.060902
-0.038247
-0.039341
-0.040597
-0.03239
-0.030639
-0.023678
-0.004192
0.007621
0.006112
-0.013836
-0.015322
-0.038253
-0.063019
-0.041677
-0.036936
-0.039582
-0.038068
-0.04958
-0.045539
-0.039581
-0.019387
-0.017164
-0.011264
-0.013293
-0.036341
-0.023986
-0.025105
-0.028072
-0.044053
-0.046501
-0.045004
-0.054072
-0.06573
-0.085708
-0.064715
-0.04788
-0.057099
-0.049774
-0.068931
-0.049797
-0.047911
-0.049337
-0.040897
-0.036534
-0.043205
-0.029171
-0.00676
-0.0104
-0.018585
-0.019633
-0.033298
-0.053715
-0.070439
-0.090171
-0.038989
-0.035757
-0.030826
-0.000684
-0.028701
-0.040767
-0.049236
-0.060023
-0.044256
-0.040141
-0.032498
-0.037685
0.007192
0.014181
-0.007997
-0.015927
-0.029599
-0.024771
-0.00085
-0.022543
-0.027759
-0.058307
-0.058264
-0.046348
-0.043199
-0.018583
-0.014668
-0.017645
-0.038409
-0.023956
-0.01689
-0.021866
-0.032323
-0.015241
0.007329
0.001445
0.001492
-0.018789
-0.032021
-0.043102
-0.027433
-0.049351
-0.062374
-0.077242
-0.074533
-0.071822
-0.063294
-0.056138
-0.035365
-0.018088
-0.054538
-0.038626
-0.045842
-0.02442
-0.006084
-0.019026
-0.039467
-0.027372
-0.040385
-0.066587
-0.079451
-0.070837
-0.066458
-0.058886
-0.047582
-0.050472
-0.040736
-0.056186
-0.045628
-0.014485
-0.028472
-0.018401
-0.018173
-0.006402
-0.006582
-0.032521
-0.033864
-0.027583
-0.026127
-0.037723
-0.059607
-0.061067
-0.06689
-0.07849
-0.074299
-0.065137
-0.06529
-0.044121
-0.025721
-0.01775
-0.026448
-0.033593
-0.049914
-0.01984
0.019318
0.032833
-0.005174
-0.058484
-0.03677
-0.034852
-0.037259
-0.058267
-0.06271
-0.064273
-0.052573
-0.050433
-0.046995
-0.048635
-0.036097
-0.027878
-0.010751
-0.014083
-0.031572
-0.025311
-0.033773
-0.030014
-0.008231
-0.002658
-0.007687
-0.026226
-0.047177
-0.062237
-0.049733
-0.058912
-0.063934
-0.07821
-0.070804
-0.074093
-0.070023
-0.026109
-0.034477
-0.01475
0.010843
0.009977
-0.016792
-0.026861
-0.019776
-0.024251
-0.009596
-0.004524
-0.021968
-0.01321
0.011247
-0.025152
-0.0175
0.015929
0.015341
0.02302
0.006608
0.04327
0.033305
0.040124
0.031524
0.046295
0.063132
0.049701
0.055915
0.026599
0.021567
0.015759
0.01406
-0.003387
-0.010628
0.020233
0.037562
0.029807
0.008236
0.027764
0.051839
0.031274
0.025798
0.037242
0.041223
0.042446
0.029505
0.039492
0.051081
0.040865
0.019366
0.007389
-0.009667
-0.014706
0.008972
0.016464
0.004263
0.017132
0.040451
0.055197
0.060083
0.030256
0.036775
0.05216
0.041819
0.049628
0.029602
0.008696
-0.016159
-0.005296
0.01292
0.009458
-0.001801
0.007512
-0.007769
-0.055061
-0.094814
-0.077776
-0.045488
-0.059034
-0.011878
0.000561
-0.005515
0.034509
0.00436
-0.009549
0.00067
-0.021062
-0.036017
-0.039871
-0.062928
-0.079621
-0.06173
-0.056172
-0.056183
-0.056731
-0.074774
-0.076832
-0.077117
-0.082388
-0.070252
-0.072703
-0.062903
-0.059164
-0.052356
-0.047833
-0.054116
-0.059069
-0.075339
-0.101799
-0.090376
-0.076023
-0.096012
-0.093473
-0.09821
-0.084219
-0.075564
-0.066182
-0.053028
-0.040009
-0.050263
-0.068154
-0.051691
-0.043087
-0.052723
-0.057293
-0.05879
-0.061869
-0.063909
-0.070656
-0.057225
-0.042914
-0.064791
-0.07629
-0.110384
-0.119448
-0.102786
-0.099771
-0.091096
-0.104947
-0.111552
-0.081539
-0.058909
-0.02036
-0.019332
-0.038605
-0.057082
-0.082872
-0.076578
-0.060309
-0.044915
-0.076787
-0.090123
-0.094243
-0.109369
-0.123184
-0.141544
-0.129238
-0.125907
-0.118132
-0.106386
-0.104882
-0.081215
-0.017698
-0.025748
-0.017239
-0.000616
0.023106
0.051747
0.050428
0.084676
0.113426
0.139101
0.155324
0.204926
0.220904
0.269129
0.316173
0.363485
0.408173
0.460613
0.522701
0.569913
0.611405
0.644087
0.684851
0.712399
0.724513
0.701797
0.678024
0.652461
0.611383
0.561376
0.519173
0.515574
0.475189
0.414956
0.349881
0.290171
0.26042
0.250772
0.224745
0.194984
0.157681
0.166294
0.160694
0.133033
0.100982
0.039404
-0.013691
-0.019535
-0.042957
-0.065423
-0.076425
-0.105033
-0.12367
-0.128021
-0.117889
-0.094392
-0.079701
-0.07183
-0.059447
-0.021633
-0.002048
-0.017911
-0.007613
0.01574
0.018966
-0.012509
-0.038433
-0.049892
-0.052319
-0.0484
-0.031328
-0.018311
-0.028314
-0.031308
-0.045536
-0.050592
-0.062872
-0.04667
-0.035328
-0.00723
-0.01204
0.004625
0.007416
-0.003862
-0.019444
-0.023425
-0.020094
-0.036126
-0.038635
-0.043535
-0.034079
-0.033808
-0.038492
-0.048353
-0.0473
-0.052971
-0.070292
-0.02953
-0.033171
-0.031108
-0.017017
-0.0121
-0.017814
-0.033326
-0.046499
-0.038544
-0.028899
-0.024959
-0.040178
-0.051594
-0.077685
-0.063817
-0.040916
-0.04848
-0.060673
-0.048278
-0.041308
-0.029984
-0.030545
-0.021844
-0.010444
-0.021048
0.004764
-0.013053
-0.056422
-0.036193
-0.036766
-0.06934
-0.058551
-0.044209
-0.01878
-0.012756
-0.011694
-0.020292
-0.021438
-0.01364
-0.030074
-0.015206
-0.010883
-0.027756
-0.014237
-0.024077
-0.018077
-0.00424
-0.018334
-0.022164
-0.023666
-0.038244
-0.039371
-0.049419
-0.043696
-0.034442
-0.035786
-0.045697
-0.057042
-0.046926
-0.052752
-0.038296
-0.023285
-0.015675
-0.006567
0.00117
-0.002467
-0.01029
-0.015472
-0.005489
-0.025037
-0.033808
-0.035373
-0.047202
-0.037058
-0.042254
-0.073394
-0.075345
-0.054499
-0.040692
-0.053499
-0.038986
-0.029533
-0.012145
0.026361
0.012293
0.014008
0.021642
-0.008717
-0.004922
-0.016613
-0.047948
-0.037162
-0.054143
-0.052505
-0.060103
-0.042209
-0.042357
-0.042076
-0.03248
-0.032491
0.006547
0.028822
0.016711
0.016357
0.016269
0.004209
-0.002616
0.013708
-0.003233
-0.004038
-0.022794
-0.014403
-0.000265
-0.004809
-0.009516
-0.027504
-0.022642
-0.000614
-0.006815
-0.000544
0.017361
0.036296
0.036511
0.029987
0.048965
0.060853
0.043332
0.067184
0.068409
0.055055
0.04212
0.047931
0.047565
0.046025
0.034623
0.037112
0.042177
0.047952
0.025999
0.03577
0.042182
0.052939
0.042546
0.041762
0.077346
0.084244
0.084772
0.062285
0.063388
0.061831
0.068461
0.068035
0.065781
0.083976
0.099648
0.088504
0.085539
0.103435
0.109229
0.104018
0.127791
0.139729
0.128543
0.122953
0.150372
0.151428
0.13958
0.137705
0.118217
0.099144
0.076235
0.07801
0.082492
0.085959
0.113629
0.136427
0.126882
0.128878
0.122534
0.132086
0.135816
0.123468
0.136278
0.147377
0.156226
0.150155
0.149619
0.151378
0.162337
0.141127
0.108849
0.13459
0.112369
0.09114
0.104473
0.116761
0.120514
0.136912
0.116001
0.125276
0.115484
0.11785
0.118193
0.110395
0.112155
0.107197
0.074229
0.063778
0.05147
0.049455
0.04043
0.06522
0.051334
-0.001385
-0.021059
-0.025287
-0.021952
0.007948
0.010912
0.003753
0.025761
-0.000469
0.006257
0.010639
0.001838
-0.010839
0.006505
0.016682
0.009417
-0.007459
-0.032464
-0.031142
-0.035638
-0.072694
-0.095177
-0.06967
-0.060626
-0.075281
-0.062778
-0.055841
-0.056417
-0.049083
-0.049817
-0.053925
-0.054589
-0.056191
-0.051646
-0.050149
-0.045214
-0.057195
-0.083901
-0.092836
-0.096771
-0.084626
-0.091499
-0.098491
-0.097293
-0.114115
-0.127727
-0.104012
-0.075482
-0.074534
-0.068469
-0.075168
-0.061306
-0.09121
-0.098376
-0.083493
-0.099374
-0.107922
-0.111053
-0.124614
-0.107585
-0.112498
-0.136001
-0.128515
-0.115044
-0.115155
-0.112416
-0.109886
-0.105174
-0.110565
-0.105014
-0.115549
-0.099354
-0.104352
-0.101983
-0.103046
-0.104106
-0.131729
-0.137301
-0.149379
-0.15739
-0.150794
-0.139075
-0.114389
-0.119899
-0.101094
-0.120169
-0.124366
-0.111767
-0.092561
-0.063666
-0.080713
-0.075951
-0.075497
-0.094494
-0.078157
-0.083781
-0.093434
-0.099339
-0.122206
-0.145415
-0.154926
-0.153647
-0.154312
-0.144116
-0.104229
-0.103528
-0.125954
-0.112697
-0.084332
-0.056459
-0.060761
-0.100006
-0.100414
-0.081376
-0.088253
-0.092051
-0.09515
-0.102014
-0.085597
-0.102878
-0.12155
-0.176071
-0.146573
-0.166379
-0.144119
-0.110839
-0.122191
-0.115135
-0.117661
-0.120451
-0.101861
-0.067009
-0.072369
-0.074385
-0.079535
-0.067763
-0.070941
-0.075185
-0.095732
-0.107075
-0.117618
-0.122268
-0.107129
-0.091674
-0.066705
-0.074883
-0.08582
-0.080894
-0.080797
-0.082814
-0.072376
-0.065676
-0.04611
-0.079625
-0.071977
-0.091619
-0.115739
-0.105043
-0.109885
-0.098349
-0.111738
-0.119542
-0.136649
-0.133717
-0.111513
-0.094365
-0.075343
-0.06142
-0.069726
-0.07658
-0.061122
-0.072699
-0.050925
-0.021355
-0.039369
-0.040273
-0.047422
-0.086557
-0.115534
-0.11866
-0.0865
-0.093387
-0.104312
-0.116858
-0.099902
-0.065797
-0.064736
-0.083875
-0.090361
-0.073325
-0.064147
-0.037973
-0.057214
-0.069553
-0.081983
-0.086801
-0.11089
-0.131875
-0.128798
-0.145272
-0.129511
-0.130011
-0.118795
-0.115579
-0.12135
-0.106237
-0.104199
-0.092886
-0.089316
-0.103518
-0.075636
-0.067724
-0.095268
-0.105705
-0.109102
-0.116161
-0.109854
-0.116848
-0.121906
-0.103733
-0.128438
-0.135531
-0.131674
-0.133278
-0.143137
-0.117354
-0.10278
-0.095335
-0.090864
-0.091526
-0.0899
-0.100796
-0.079934
-0.089705
-0.077547
-0.065078
-0.083983
-0.106707
-0.128777
-0.109131
-0.097795
-0.108651
-0.141047
-0.142177
-0.12476
-0.110314
-0.117864
-0.109029
-0.102836
-0.087662
-0.079688
-0.066773
-0.037487
-0.049893
-0.085628
-0.094269
-0.109746
-0.108834
-0.132568
-0.098394
-0.133071
-0.136321
-0.147127
-0.140765
-0.112859
-0.083242
-0.114237
-0.110478
-0.077723
-0.080536
-0.097454
-0.10362
-0.113289
-0.12468
-0.139555
-0.128142
-0.106327
-0.117253
-0.125441
-0.141398
-0.12617
-0.12541
-0.14351
-0.11351
-0.122074
-0.110558
-0.113157
-0.117044
-0.090113
-0.083573
-0.102896
-0.087905
-0.083301
-0.08302
-0.093888
-0.087736
-0.105026
-0.111917
-0.11585
-0.110691
-0.113454
-0.136071
-0.142633
-0.129006
-0.103482
-0.101935
-0.082084
-0.080539
-0.091546
-0.104501
-0.086833
-0.089906
-0.089342
-0.119367
-0.131157
-0.10034
-0.095112
-0.115226
-0.150792
-0.147127
-0.150855
-0.15912
-0.157544
-0.162265
-0.156752
-0.123191
-0.099381
-0.09612
-0.07087
-0.081199
-0.094659
-0.080597
-0.095611
-0.111564
-0.140679
-0.140743
-0.132174
-0.101529
-0.112233
-0.157649
-0.160432
-0.160767
-0.149365
-0.152792
-0.136024
-0.11024
-0.105855
-0.123699
-0.12737
-0.113702
-0.095356
-0.083905
-0.089109
-0.093453
-0.128529
-0.105823
-0.117884
-0.113027
-0.121113
-0.141167
-0.16762
-0.162856
-0.154545
-0.140474
-0.129125
-0.115081
-0.10398
-0.091702
-0.085358
-0.085369
-0.118937
-0.123521
-0.131544
-0.126562
-0.126728
-0.117773
-0.112396
-0.121319
-0.124414
-0.131
-0.137735
-0.122723
-0.132783
-0.109857
-0.126749
-0.126076
-0.128551
-0.104639
-0.117706
-0.105661
-0.098721
-0.098825
-0.092195
-0.094257
-0.114727
-0.112453
-0.10962
-0.125012
-0.138733
-0.131597
-0.127825
-0.113607
-0.100584
-0.098139
-0.100833
-0.089061
-0.113035
-0.1168
-0.093644
-0.076826
-0.07849
-0.066603
-0.041048
-0.039559
-0.093437
-0.104761
-0.107702
-0.114925
-0.116525
-0.119457
-0.10554
-0.076599
-0.074782
-0.084065
-0.090981
-0.092949
-0.061767
-0.043585
-0.039053
-0.040132
-0.018454
-0.025775
-0.032296
-0.036483
-0.036951
-0.037023
-0.060976
-0.052735
-0.050651
-0.065229
-0.076679
-0.066223
-0.05224
-0.042293
-0.047365
-0.064952
-0.057874
-0.039817
-0.040957
-0.009897
-0.016768
0.000962
0.016801
-0.004327
-0.017918
-0.025196
-0.063166
-0.083202
-0.080469
-0.085334
-0.059623
-0.05292
-0.057936
-0.05213
-0.052583
-0.059579
-0.050118
-0.050902
-0.049824
-0.041924
-0.040285
-0.036463
-0.058442
-0.05375
-0.066724
-0.071638
-0.081549
-0.08416
-0.093467
-0.098636
-0.103162
-0.127344
-0.124612
-0.113668
-0.126298
-0.127334
-0.102998
-0.096566
-0.092269
-0.097612
-0.100498
-0.123842
-0.122876
-0.133791
-0.103781
-0.12872
-0.125615
-0.155228
-0.145776
-0.151358
-0.169692
-0.151303
-0.142128
-0.104506
-0.132688
-0.204411
-0.214053
-0.169899
-0.144787
-0.128476
-0.122354
-0.122562
-0.111252
-0.104374
-0.097248
-0.12808
-0.135169
-0.136001
-0.152475
-0.169712
-0.158021
-0.154706
-0.177177
-0.157573
-0.151512
-0.151547
-0.141212
-0.135731
-0.131889
-0.123383
-0.126967
-0.116065
-0.121142
-0.135356
-0.136821
-0.142316
-0.153758
-0.168256
-0.172415
-0.166579
-0.160206
-0.148873
-0.152254
-0.131142
-0.134324
-0.141678
-0.124675
-0.128585
-0.117909
-0.125203
-0.158552
-0.139132
-0.13544
-0.171871
-0.198334
-0.170582
-0.182023
-0.178362
-0.194555
-0.208325
-0.222249
-0.194313
-0.185991
-0.177542
-0.148689
-0.124184
-0.108456
-0.050103
-0.013822
0.017247
0.016151
0.009374
0.026242
0.037644
0.066015
0.116893
0.120527
0.162875
0.22761
0.267091
0.35368
0.397406
0.42757
0.455425
0.509749
0.535228
0.554174
0.579946
0.619814
0.631236
0.637613
0.625918
0.607829
0.577835
0.555122
0.509221
0.475612
0.418754
0.320361
0.253061
0.199786
0.173703
0.137354
0.112043
0.120899
0.113192
0.092482
0.091936
0.054989
0.036356
-0.018364
-0.033021
-0.053738
-0.079948
-0.107442
-0.124693
-0.155279
-0.160743
-0.136093
-0.142052
-0.154859
-0.175535
-0.184911
-0.154917
-0.1181
-0.112864
-0.093787
-0.083857
-0.077073
-0.06435
-0.071139
-0.072001
-0.082837
-0.08352
-0.09577
-0.097876
-0.08209
-0.073096
-0.071413
-0.081709
-0.101704
-0.101328
-0.08984
-0.056895
-0.074089
-0.084431
-0.089884
-0.075516
-0.068271
-0.055134
-0.063201
-0.074663
-0.088531
-0.092985
-0.110735
-0.100969
-0.10787
-0.139094
-0.164107
-0.154442
-0.126372
-0.113946
-0.073562
-0.087135
-0.104549
-0.099216
-0.099342
-0.087348
-0.098798
-0.076438
-0.05997
-0.051779
-0.060543
-0.080577
-0.067145
-0.068443
-0.08036
-0.087941
-0.092613
-0.086498
-0.103584
-0.135676
-0.134781
-0.111294
-0.096342
-0.088281
-0.084204
-0.07058
-0.036111
-0.036226
-0.043523
-0.014373
-0.034218
-0.050216
-0.05365
-0.06015
-0.06936
-0.09537
-0.101267
-0.083205
-0.109283
-0.118028
-0.12122
-0.10357
-0.082434
-0.08134
-0.067928
-0.073111
-0.065551
-0.062418
-0.058326
-0.052903
-0.063469
-0.085752
-0.117007
-0.062789
-0.056313
-0.069201
-0.042674
-0.054532
-0.083197
-0.08214
-0.06272
-0.060221
-0.053084
-0.054112
-0.062905
-0.057304
-0.072936
-0.069024
-0.063654
-0.031465
-0.052742
-0.05846
-0.045598
-0.04901
-0.067623
-0.078821
-0.085983
-0.083125
-0.080601
-0.104574
-0.07889
-0.087934
-0.08273
-0.059488
-0.04834
-0.053527
-0.05262
-0.043213
-0.038454
-0.035796
-0.062267
-0.061726
-0.032135
-0.03526
-0.064045
-0.086329
-0.089473
-0.094264
-0.098967
-0.085908
-0.061384
-0.040147
-0.058981
-0.063376
-0.059428
-0.020112
-0.002788
-0.004766
-0.006894
-0.021468
-0.011866
-0.005562
0.00051
-0.027232
-0.014507
-0.022563
-0.070964
-0.065302
-0.071076
-0.048658
-0.031725
-0.031926
-0.022439
-0.020201
-0.009545
-0.011721
0.000015
0.019381
0.010383
0.021888
0.021764
0.021845
0.018083
0.008298
0.013704
0.003825
-0.003024
-0.006738
-0.000997
-0.000578
-0.005946
0.026412
0.052844
0.066938
0.05409
0.043663
0.054296
0.058098
0.065207
0.066421
0.083873
0.086687
0.07603
0.070421
0.076744
0.068458
0.055053
0.055405
0.041922
0.04339
0.043836
0.043234
0.050374
0.071299
0.082187
0.103731
0.104109
0.1183
0.122094
0.112014
0.106081
0.106192
0.10118
0.106619
0.094828
0.0975
0.084757
0.042532
0.030004
0.068894
0.062744
0.076111
0.090744
0.110825
0.123495
0.114995
0.090681
0.136452
0.137315
0.11654
0.098564
0.087204
0.100779
0.0702
0.063498
0.057012
0.050594
0.050487
0.063623
0.049769
0.050608
0.045405
0.005285
0.007914
0.019412
0.035816
0.057712
0.03454
0.024561
0.026589
0.020691
0.027491
0.044317
0.05393
0.008856
-0.015489
-0.003947
0.006769
-0.025928
-0.080076
-0.100105
-0.084963
-0.080789
-0.044007
0.014539
0.028172
0.029623
0.003105
-0.016731
-0.034708
-0.038584
-0.043393
-0.070651
-0.072096
-0.069653
-0.055848
-0.081236
-0.095072
-0.082556
-0.09074
-0.138655
-0.133773
-0.109622
-0.094489
-0.097836
-0.090634
-0.078888
-0.080944
-0.09966
-0.111007
-0.121839
-0.109636
-0.119235
-0.134284
-0.125245
-0.112359
-0.126782
-0.122628
-0.109197
-0.113102
-0.105397
-0.107007
-0.117924
-0.14081
-0.147026
-0.12312
-0.098165
-0.097391
-0.113492
-0.121581
-0.131748
-0.146391
-0.100333
-0.104745
-0.122867
-0.112076
-0.144071
-0.161346
-0.173815
-0.174977
-0.184967
-0.160089
-0.152582
-0.145937
-0.140329
-0.112309
-0.107379
-0.095698
-0.087349
-0.119732
-0.150275
-0.142055
-0.137266
-0.125797
-0.127866
-0.134536
-0.147512
-0.136758
-0.125168
-0.13208
-0.131191
-0.128395
-0.142713
-0.138042
-0.111755
-0.110135
-0.11371
-0.103907
-0.101043
-0.10797
-0.129398
-0.118109
-0.11621
-0.114251
-0.120413
-0.135931
-0.122685
-0.143153
-0.156644
-0.155429
-0.146267
-0.132212
-0.106674
-0.084235
-0.094934
-0.076184
-0.072827
-0.088012
-0.090582
-0.092307
-0.103361
-0.117671
-0.12802
-0.129292
-0.143617
-0.127809
-0.123778
-0.141584
-0.144529
-0.15974
-0.146772
-0.119707
-0.118807
-0.106835
-0.11254
-0.115289
-0.092928
-0.07795
-0.070468
-0.076385
-0.087313
-0.100492
-0.106585
-0.119257
-0.120924
-0.131507
-0.156747
-0.13236
-0.135664
-0.13306
-0.122275
-0.122102
-0.109374
-0.111131
-0.114504
-0.10622
-0.09319
-0.091074
-0.085817
-0.078565
-0.08235
-0.087164
-0.084902
-0.109789
-0.094982
-0.116154
-0.118355
-0.127193
-0.128543
-0.130558
-0.131356
-0.135242
-0.148284
-0.141327
-0.12589
-0.063581
-0.041913
-0.066562
-0.107663
-0.108322
-0.101132
-0.105232
-0.094059
-0.1035
-0.117477
-0.116308
-0.125817
-0.118946
-0.115448
-0.121613
-0.123703
-0.133138
-0.141452
-0.121751
-0.085948
-0.082973
-0.085712
-0.095779
-0.117868
-0.112404
-0.109077
-0.102059
-0.09756
-0.125383
-0.136399
-0.132991
-0.120697
-0.108501
-0.112799
-0.110718
-0.123709
-0.114534
-0.129201
-0.102529
-0.11111
-0.113767
-0.103259
-0.105761
-0.131918
-0.125118
-0.09352
-0.098457
-0.092949
-0.095137
-0.101732
-0.106037
-0.118859
-0.143584
-0.143367
-0.138534
-0.151971
-0.143693
-0.13951
-0.101478
-0.102286
-0.094644
-0.092079
-0.072506
-0.084511
-0.089445
-0.112711
-0.116606
-0.128271
-0.146841
-0.147051
-0.122103
-0.145999
-0.153221
-0.149209
-0.149926
-0.12295
-0.111352
-0.110019
-0.114436
-0.095886
-0.096262
-0.107965
-0.092154
-0.093071
-0.118765
-0.136444
-0.139683
-0.137755
-0.136432
-0.136048
-0.132466
-0.103001
-0.097648
-0.104321
-0.089364
-0.1027
-0.114398
-0.151187
-0.15444
-0.125982
-0.108375
-0.116959
-0.101091
-0.10137
-0.136049
-0.130106
-0.109706
-0.116346
-0.130214
-0.132626
-0.141707
-0.133534
-0.132638
-0.142489
-0.160846
-0.138744
-0.128633
-0.136269
-0.117482
-0.140242
-0.153273
-0.157054
-0.130439
-0.116882
-0.126054
-0.13062
-0.107539
-0.122992
-0.140882
-0.109312
-0.122436
-0.145843
-0.152548
-0.148461
-0.148753
-0.148282
-0.133087
-0.112536
-0.104926
-0.114811
-0.125591
-0.127527
-0.094236
-0.078357
-0.094904
-0.107551
-0.110024
-0.137387
-0.157961
-0.136312
-0.131012
-0.131175
-0.143195
-0.162563
-0.156992
-0.138955
-0.142601
-0.130537
-0.118491
-0.127803
-0.159588
-0.136652
-0.108376
-0.125795
-0.128994
-0.112575
-0.108127
-0.104433
-0.118528
-0.138372
-0.137254
-0.128222
-0.133988
-0.155176
-0.16883
-0.159383
-0.152547
-0.133172
-0.125427
-0.091742
-0.067927
-0.093206
-0.129758
-0.135071
-0.143684
-0.154254
-0.149375
-0.15634
-0.17368
-0.174576
-0.135034
-0.128418
-0.136114
-0.136909
-0.134251
-0.122596
-0.126786
-0.126951
-0.12436
-0.111088
-0.096717
-0.101678
-0.108968
-0.107894
-0.113448
-0.098545
-0.105699
-0.093464
-0.076424
-0.114271
-0.121927
-0.161697
-0.198238
-0.211273
-0.198083
-0.187033
-0.169401
-0.148719
-0.140255
-0.132641
-0.152825
-0.139839
-0.127377
-0.126795
-0.1321
-0.118197
-0.101339
-0.111897
-0.127778
-0.124482
-0.134488
-0.138806
-0.149766
-0.145412
-0.136951
-0.127011
-0.129882
-0.116595
-0.123818
-0.120121
-0.110574
-0.072765
-0.066145
-0.067188
-0.07656
-0.090444
-0.08823
-0.078429
-0.082972
-0.087856
-0.100499
-0.09392
-0.140778
-0.154317
-0.12125
-0.069235
-0.063097
-0.065924
-0.085976
-0.048108
-0.040885
-0.03513
-0.033388
-0.032131
-0.010666
-0.011509
-0.04853
-0.056853
-0.067777
-0.074564
-0.093868
-0.09357
-0.060809
-0.045631
-0.038487
-0.049635
-0.057029
-0.055441
-0.047225
-0.035937
-0.025727
-0.019697
-0.018125
-0.043622
-0.043719
-0.052657
-0.051324
-0.053562
-0.063569
-0.062128
-0.030218
-0.029227
-0.07216
-0.059265
-0.063685
-0.068727
-0.072571
-0.069066
-0.060518
-0.06996
-0.066084
-0.07376
-0.083729
-0.107743
-0.095429
-0.073637
-0.083978
-0.104273
-0.117589
-0.122739
-0.13619
-0.145001
-0.177945
-0.151019
-0.119334
-0.113378
-0.10685
-0.117627
-0.152228
-0.14406
-0.149943
-0.132766
-0.125575
-0.135309
-0.119174
-0.118268
-0.139958
-0.14894
-0.152384
-0.143055
-0.161946
-0.176822
-0.172011
-0.166183
-0.192246
-0.177584
-0.147328
-0.139211
-0.144019
-0.14768
-0.138336
-0.142984
-0.141632
-0.144471
-0.15365
-0.143394
-0.146523
-0.147498
-0.131232
-0.130653
-0.163639
-0.167324
-0.181411
-0.179055
-0.183272
-0.173689
-0.154432
-0.13921
-0.141321
-0.128133
-0.129692
-0.147591
-0.137021
-0.144914
-0.152324
-0.157364
-0.161573
-0.146123
-0.157325
-0.194823
-0.174724
-0.179164
-0.174823
-0.150238
-0.164616
-0.16876
-0.167094
-0.159115
-0.156481
-0.150837
-0.143857
-0.158725
-0.16475
-0.170833
-0.171735
-0.166502
-0.166353
-0.190309
-0.191271
-0.185431
-0.186814
-0.184596
-0.183903
-0.161531
-0.153299
-0.131276
-0.095422
-0.074452
-0.080238
-0.046035
0.015422
0.056104
0.080811
0.107706
0.141395
0.185123
0.231775
0.286468
0.301758
0.311144
0.340369
0.424617
0.464009
0.530605
0.584691
0.614792
0.66472
0.686242
0.646336
0.647289
0.637907
0.606418
0.594399
0.5511
0.498628
0.482974
0.44473
0.389214
0.263365
0.196157
0.173846
0.130272
0.103044
0.066206
0.065193
0.04171
0.007014
0.012323
-0.029703
-0.075791
-0.098956
-0.112039
-0.10501
-0.108462
-0.131978
-0.144753
-0.147929
-0.152743
-0.144344
-0.133762
-0.153311
-0.168759
-0.153427
-0.143388
-0.137085
-0.125708
-0.105484
-0.085119
-0.084837
-0.081635
-0.072157
-0.073713
-0.079018
-0.071307
-0.078721
-0.086954
-0.079489
-0.078977
-0.09923
-0.12055
-0.107568
-0.098744
-0.111708
-0.085843
-0.092265
-0.087794
-0.080426
-0.073307
-0.082517
-0.069181
-0.063931
-0.088387
-0.094947
-0.07763
-0.086726
-0.105952
-0.143318
-0.155071
-0.143713
-0.128391
-0.135121
-0.143699
-0.147554
-0.158651
-0.161811
-0.132567
-0.101449
-0.083215
-0.077361
-0.080582
-0.074158
-0.047209
-0.043253
-0.046981
-0.074243
-0.094728
-0.131566
-0.106288
-0.086147
-0.118348
-0.138076
-0.120119
-0.110114
-0.139725
-0.166372
-0.15204
-0.120084
-0.122576
-0.113857
-0.108615
-0.103241
-0.10709
-0.096352
-0.070183
-0.079048
-0.059134
-0.055505
-0.084839
-0.099713
-0.11606
-0.114874
-0.0926
-0.094665
-0.092405
-0.122642
-0.113607
-0.095371
-0.078611
-0.07374
-0.060944
-0.059542
-0.067526
-0.074623
-0.065206
-0.059564
-0.073224
-0.09203
-0.123996
-0.12125
-0.089439
-0.099621
-0.08807
-0.094039
-0.107418
-0.101896
-0.106912
-0.079993
-0.07813
-0.063257
-0.059288
-0.047087
-0.042508
-0.052978
-0.056327
-0.064117
-0.080726
-0.076901
-0.077456
-0.087654
-0.084359
-0.096834
-0.084595
-0.067034
-0.056891
-0.066495
-0.065451
-0.061619
-0.079305
-0.089831
-0.084581
-0.06181
-0.050714
-0.051831
-0.046465
-0.061385
-0.081807
-0.091833
-0.103433
-0.107444
-0.088419
-0.107035
-0.117856
-0.131001
-0.123576
-0.088932
-0.018976
-0.02643
-0.045245
-0.037231
-0.023062
-0.014862
-0.026489
-0.029741
-0.0342
-0.037216
-0.046099
-0.03429
-0.026708
-0.028159
-0.044109
-0.076644
-0.084894
-0.082712
-0.073289
-0.0599
-0.023617
-0.013547
-0.022965
-0.039934
-0.026156
-0.004649
0.003013
0.030865
0.035233
0.010453
-0.016059
-0.013959
0.000364
-0.006348
0.014241
0.025497
-0.001375
0.006422
0.009849
0.015727
-0.003786
0.002947
0.020732
0.018688
0.038881
0.051206
0.042659
0.058456
0.070837
0.066277
0.052305
0.05467
0.050394
0.055573
0.054652
0.030731
0.036643
0.042649
0.035657
0.030454
0.015404
0.034745
0.055179
0.07484
0.081078
0.067592
0.073557
0.107557
0.112256
0.10097
0.104645
0.093139
0.083152
0.077565
0.069288
0.069625
0.075298
0.090966
0.026649
0.058082
0.056472
0.076036
0.081398
0.107254
0.11386
0.088147
0.068917
0.100801
0.099272
0.088845
0.096723
0.077757
0.04642
0.037891
0.03297
0.012782
0.009923
0.017072
0.004153
0.006654
0.003096
0.012885
0.012045
0.004849
0.025336
0.042864
0.026991
0.012085
0.010389
-0.001262
0.016036
0.011087
0.001653
-0.011176
-0.053424
-0.069884
-0.077973
-0.093158
-0.07385
-0.050222
-0.054923
-0.045805
-0.038455
-0.055489
-0.058547
-0.102676
-0.078514
-0.077734
-0.065253
-0.071699
-0.074855
-0.072731
-0.105225
-0.101809
-0.093845
-0.115349
-0.130836
-0.130607
-0.138221
-0.139297
-0.155811
-0.16442
-0.124673
-0.093357
-0.072742
-0.082726
-0.061315
-0.071707
-0.093931
-0.089888
-0.097918
-0.104059
-0.120283
-0.139487
-0.149941
-0.159944
-0.166091
-0.177593
-0.18947
-0.170529
-0.139887
-0.117386
-0.110536
-0.116515
-0.133742
-0.13684
-0.126379
-0.123908
-0.166693
-0.189703
-0.179356
-0.15223
-0.164183
-0.195409
-0.183176
-0.178637
-0.162016
-0.139417
-0.16297
-0.182955
-0.177435
-0.159994
-0.147258
-0.162955
-0.150691
-0.166235
-0.138106
-0.12171
-0.113851
-0.137305
-0.151907
-0.136928
-0.141066
-0.16222
-0.161815
-0.181623
-0.199425
-0.182634
-0.206466
-0.187889
-0.177493
-0.179823
-0.173416
-0.151003
-0.11431
-0.113978
-0.10819
-0.135835
-0.124523
-0.122952
-0.139728
-0.127273
-0.131391
-0.168255
-0.181768
-0.148187
-0.155326
-0.142738
-0.138866
-0.140006
-0.163187
-0.172491
-0.16065
-0.144179
-0.126777
-0.137288
-0.104552
-0.088163
-0.114334
-0.134772
-0.133006
-0.143067
-0.155151
-0.138957
-0.157505
-0.136035
-0.132926
-0.144928
-0.136803
-0.125173
-0.116034
-0.095216
-0.101635
-0.110355
-0.097433
-0.075804
-0.072159
-0.089839
-0.116782
-0.126968
-0.12156
-0.132329
-0.141225
-0.141509
-0.1326
-0.129776
-0.148938
-0.140161
-0.163788
-0.142838
-0.175746
-0.145072
-0.142083
-0.13932
-0.130348
-0.144262
-0.112577
-0.097983
-0.100336
-0.104961
-0.117491
-0.111493
-0.106454
-0.112251
-0.117654
-0.153421
-0.184439
-0.158213
-0.130552
-0.143306
-0.138921
-0.129382
-0.114441
-0.099369
-0.111412
-0.109113
-0.103537
-0.075298
-0.076738
-0.096458
-0.109228
-0.124959
-0.110385
-0.121905
-0.125837
-0.151676
-0.172567
-0.160566
-0.148771
-0.161872
-0.144897
-0.135204
-0.096697
-0.083055
-0.089605
-0.099796
-0.106354
-0.112825
-0.123436
-0.121357
-0.157236
-0.178084
-0.160959
-0.144757
-0.184253
-0.166074
-0.163962
-0.16778
-0.16283
-0.141549
-0.145099
-0.124914
-0.085813
-0.104
-0.114852
-0.115745
-0.111214
-0.129382
-0.139289
-0.153607
-0.150177
-0.152791
-0.136512
-0.142701
-0.146201
-0.156188
-0.144035
-0.131931
-0.144218
-0.134994
-0.138378
-0.1196
-0.1069
-0.109115
-0.110171
-0.113136
-0.106721
-0.097631
-0.099319
-0.107015
-0.12638
-0.152801
-0.149379
-0.184039
-0.19636
-0.18019
-0.158235
-0.15418
-0.17353
-0.166451
-0.174893
-0.171281
-0.13801
-0.129209
-0.140355
-0.126227
-0.114598
-0.113792
-0.132994
-0.153029
-0.153308
-0.153477
-0.137877
-0.126776
-0.140189
-0.146761
-0.153999
-0.157264
-0.163277
-0.163544
-0.150792
-0.131913
-0.16873
-0.13242
-0.125585
-0.104778
-0.103771
-0.113376
-0.128286
-0.114777
-0.097833
-0.124416
-0.154992
-0.175096
-0.174832
-0.171393
-0.185388
-0.192532
-0.16651
-0.143972
-0.16262
-0.176512
-0.168867
-0.152486
-0.160978
-0.153836
-0.161228
-0.146321
-0.12152
-0.121434
-0.116073
-0.14388
-0.165632
-0.177022
-0.168307
-0.165126
-0.145929
-0.133887
-0.131397
-0.153288
-0.154581
-0.149645
-0.15702
-0.145833
-0.133839
-0.119739
-0.117285
-0.123097
-0.131199
-0.152138
-0.171594
-0.175993
-0.150839
-0.137979
-0.164311
-0.165541
-0.168475
-0.143678
-0.141257
-0.161697
-0.16418
-0.152814
-0.148072
-0.129326
-0.119132
-0.118571
-0.128467
-0.129493
-0.147294
-0.121759
-0.153628
-0.143135
-0.150384
-0.153818
-0.179896
-0.154608
-0.159355
-0.166481
-0.181457
-0.179804
-0.145513
-0.141621
-0.143617
-0.152605
-0.149888
-0.137654
-0.133921
-0.130604
-0.151514
-0.131646
-0.123688
-0.122873
-0.150463
-0.185761
-0.189621
-0.220305
-0.188658
-0.161014
-0.165937
-0.162186
-0.172723
-0.158821
-0.133348
-0.131425
-0.118627
-0.115867
-0.123436
-0.129539
-0.132146
-0.125475
-0.119664
-0.129342
-0.154679
-0.184217
-0.200132
-0.187335
-0.193288
-0.188045
-0.178953
-0.169095
-0.168479
-0.159442
-0.139922
-0.135414
-0.141721
-0.143495
-0.141896
-0.133446
-0.142019
-0.152594
-0.165265
-0.165967
-0.170246
-0.168929
-0.176706
-0.16108
-0.156094
-0.174455
-0.155863
-0.16154
-0.161099
-0.139607
-0.140117
-0.146131
-0.132544
-0.118355
-0.115775
-0.130284
-0.137626
-0.14104
-0.13177
-0.131517
-0.149249
-0.148042
-0.150878
-0.152423
-0.165407
-0.162476
-0.136686
-0.100347
-0.120555
-0.114022
-0.113009
-0.089828
-0.074453
-0.071814
-0.073978
-0.065439
-0.051377
-0.064459
-0.080446
-0.112163
-0.089032
-0.077604
-0.098697
-0.114957
-0.115801
-0.105459
-0.105111
-0.09207
-0.08677
-0.0779
-0.068574
-0.059409
-0.063107
-0.059288
-0.064787
-0.062679
-0.053304
-0.041989
-0.048399
-0.060882
-0.079246
-0.076062
-0.098696
-0.099633
-0.098258
-0.084758
-0.05398
-0.030174
-0.044483
-0.065507
-0.070502
-0.089756
-0.069376
-0.047548
-0.047062
-0.045272
-0.05309
-0.054209
-0.051089
-0.07602
-0.086282
-0.080834
-0.09997
-0.108683
-0.124267
-0.120626
-0.109505
-0.107097
-0.120446
-0.120288
-0.136092
-0.135964
-0.093515
-0.088668
-0.092108
-0.116934
-0.125508
-0.134731
-0.113227
-0.14621
-0.175874
-0.159631
-0.136463
-0.137584
-0.158001
-0.179625
-0.182032
-0.162117
-0.172894
-0.174725
-0.139184
-0.123939
-0.120668
-0.114207
-0.142699
-0.167703
-0.167229
-0.151551
-0.154465
-0.172706
-0.170151
-0.185198
-0.193265
-0.188881
-0.176072
-0.185655
-0.182627
-0.186332
-0.172711
-0.170408
-0.154733
-0.138528
-0.14217
-0.150194
-0.140234
-0.158387
-0.157181
-0.153027
-0.164647
-0.197258
-0.196701
-0.190573
-0.204005
-0.217291
-0.206955
-0.252571
-0.233709
-0.159712
-0.182743
-0.178728
-0.166282
-0.153611
-0.124316
-0.113805
-0.142856
-0.154877
-0.17757
-0.164749
-0.164253
-0.175712
-0.173593
-0.172451
-0.163773
-0.175126
-0.198933
-0.186488
-0.201891
-0.205787
-0.198599
-0.18769
-0.199385
-0.182079
-0.163945
-0.175272
-0.185681
-0.179524
-0.181567
-0.163827
-0.148125
-0.142751
-0.113297
-0.118842
-0.097763
-0.081118
-0.095923
-0.07644
-0.023898
0.030175
0.094883
0.151627
0.204716
0.259321
0.296248
0.310726
0.359756
0.401629
0.451898
0.490812
0.543138
0.559679
0.551038
0.589751
0.61092
0.590415
0.605118
0.577424
0.525977
0.508931
0.507074
0.48374
0.452308
0.410044
0.34386
0.267672
0.217691
0.191424
0.15972
0.101512
0.082215
0.062671
0.040079
-0.022997
-0.067353
-0.097628
-0.127948
-0.132021
-0.150999
-0.14247
-0.164797
-0.17561
-0.188902
-0.182308
-0.179977
-0.153509
-0.130248
-0.11899
-0.110512
-0.111125
-0.107077
-0.124733
-0.127256
-0.116508
-0.110414
-0.119951
-0.126494
-0.119954
-0.104719
-0.102827
-0.091654
-0.084171
-0.079576
-0.097227
-0.087107
-0.092808
-0.101301
-0.123875
-0.089698
-0.094523
-0.094053
-0.11343
-0.123902
-0.137667
-0.142362
-0.141664
-0.13937
-0.13559
-0.138673
-0.133861
-0.124181
-0.111762
-0.11095
-0.099395
-0.088045
-0.07067
-0.074591
-0.090445
-0.091501
-0.101546
-0.10722
-0.114292
-0.100199
-0.124904
-0.133154
-0.126097
-0.104447
-0.122689
-0.134389
-0.140501
-0.140768
-0.110434
-0.056448
-0.066403
-0.10358
-0.105165
-0.106681
-0.105332
-0.103876
-0.098955
-0.088008
-0.096737
-0.101924
-0.11905
-0.127152
-0.155495
-0.146363
-0.123112
-0.122298
-0.127063
-0.119577
-0.090797
-0.085525
-0.092205
-0.083174
-0.076734
-0.087274
-0.10327
-0.096994
-0.079575
-0.079527
-0.131042
-0.115908
-0.139542
-0.141093
-0.131561
-0.110884
-0.104464
-0.086405
-0.091552
-0.080345
-0.073803
-0.06156
-0.088728
-0.098832
-0.090074
-0.076667
-0.103186
-0.103789
-0.07537
-0.096026
-0.114118
-0.121724
-0.11253
-0.113512
-0.1016
-0.077249
-0.087828
-0.075396
-0.077362
-0.091106
-0.095553
-0.083975
-0.074564
-0.051874
-0.085177
-0.056543
-0.051708
-0.07321
-0.088306
-0.095171
-0.109981
-0.128788
-0.110031
-0.08971
-0.115139
-0.137721
-0.113434
-0.073499
-0.061356
-0.07084
-0.104031
-0.095596
-0.089672
-0.073798
-0.044025
-0.024062
-0.038159
-0.020576
-0.028961
-0.031269
-0.066481
-0.083498
-0.098907
-0.099768
-0.087371
-0.077369
-0.0768
-0.082896
-0.066289
-0.06592
-0.040038
-0.038894
-0.021166
-0.027222
-0.030133
-0.017906
-0.028268
-0.038767
-0.022952
-0.03013
-0.044094
-0.059309
-0.062088
-0.034478
-0.025946
-0.009505
-0.002217
0.007472
-0.016792
-0.038159
-0.025271
0.012058
0.013112
-0.016722
-0.003553
0.011158
0.026175
0.023494
0.002295
0.008825
0.008221
0.02002
0.019411
0.011781
0.017917
0.016908
0.001319
-0.011527
-0.010463
-0.010731
0.008342
0.055647
0.076168
0.061081
0.044436
0.074252
0.0832
0.079939
0.095884
0.074173
0.063831
0.061943
0.064853
0.03602
0.006925
0.034696
0.039842
0.037918
0.067063
0.076003
0.084168
0.086627
0.100696
0.10601
0.097441
0.091925
0.086204
0.087123
0.083049
0.08305
0.077559
0.078633
0.058176
0.021801
0.021801
0.05676
0.080075
0.0932
0.079577
0.085005
0.087311
0.072018
0.084385
0.114408
0.098713
0.045887
0.070775
0.057835
0.039446
0.021391
0.005255
-0.005397
-0.006955
0.005215
-0.004555
0.006253
-0.004965
-0.017023
-0.00467
0.007001
0.016483
0.005768
0.013718
0.01179
0.03211
0.020304
0.015315
-0.029427
-0.069765
-0.067081
-0.052265
-0.076549
-0.097524
-0.097595
-0.083057
-0.079685
-0.072586
-0.084259
-0.085841
-0.075841
-0.083101
-0.082062
-0.06769
-0.066332
-0.060528
-0.071123
-0.103277
-0.132755
-0.150688
-0.139916
-0.123662
-0.13958
-0.125536
-0.110103
-0.135714
-0.14577
-0.12209
-0.125525
-0.123689
-0.099741
-0.095854
-0.104358
-0.119525
-0.103586
-0.083355
-0.081516
-0.083154
-0.08119
-0.101804
-0.130516
-0.139413
-0.156351
-0.158426
-0.166483
-0.162214
-0.158238
-0.136044
-0.129431
-0.12234
-0.109936
-0.117979
-0.1364
-0.135645
-0.140976
-0.151846
-0.141646
-0.135702
-0.138141
-0.129518
-0.155243
-0.162302
-0.187205
-0.196024
-0.177812
-0.173773
-0.181247
-0.181723
-0.144066
-0.120442
-0.120706
-0.117828
-0.114574
-0.115307
-0.113561
-0.127988
-0.137839
-0.14227
-0.145528
-0.125301
-0.146229
-0.141425
-0.140892
-0.148311
-0.138522
-0.15523
-0.171199
-0.169474
-0.142866
-0.135014
-0.136139
-0.129364
-0.121028
-0.120121
-0.142609
-0.139504
-0.104078
-0.092293
-0.111219
-0.122075
-0.144986
-0.153969
-0.158241
-0.168787
-0.168749
-0.153481
-0.130067
-0.146031
-0.153586
-0.157103
-0.133743
-0.118925
-0.104841
-0.114844
-0.103055
-0.099171
-0.126009
-0.122838
-0.134148
-0.136652
-0.131725
-0.149479
-0.155345
-0.146739
-0.162493
-0.150764
-0.135883
-0.14942
-0.135256
-0.123818
-0.13514
-0.1032
-0.091706
-0.071977
-0.096727
-0.100037
-0.118013
-0.110653
-0.114846
-0.100631
-0.101984
-0.125264
-0.130887
-0.124518
-0.123679
-0.127877
-0.113475
-0.128555
-0.13124
-0.13986
-0.141764
-0.136154
-0.117679
-0.085894
-0.07779
-0.072983
-0.0675
-0.102107
-0.111821
-0.123825
-0.152132
-0.136876
-0.151298
-0.149523
-0.135845
-0.129146
-0.132364
-0.111601
-0.132757
-0.127447
-0.114836
-0.087358
-0.105439
-0.105347
-0.08178
-0.080354
-0.089739
-0.100726
-0.104413
-0.095457
-0.119535
-0.103082
-0.11444
-0.143482
-0.149902
-0.137454
-0.139333
-0.117021
-0.120528
-0.119624
-0.097114
-0.092741
-0.11197
-0.123074
-0.105956
-0.115141
-0.110071
-0.107315
-0.127913
-0.118632
-0.141841
-0.12588
-0.141431
-0.15917
-0.164822
-0.163779
-0.165531
-0.150427
-0.141986
-0.120994
-0.096076
-0.092844
-0.108335
-0.106707
-0.103637
-0.117343
-0.159913
-0.160933
-0.092482
-0.09477
-0.133298
-0.145726
-0.148378
-0.144684
-0.137928
-0.143577
-0.158526
-0.147987
-0.147898
-0.116243
-0.095076
-0.151943
-0.134639
-0.100429
-0.104714
-0.092501
-0.088646
-0.09054
-0.092475
-0.12515
-0.128318
-0.147659
-0.171099
-0.168761
-0.161167
-0.14548
-0.144948
-0.144534
-0.153702
-0.160231
-0.115066
-0.125769
-0.097556
-0.085421
-0.079772
-0.088696
-0.073946
-0.093626
-0.108475
-0.125216
-0.128084
-0.133805
-0.13623
-0.14077
-0.135687
-0.134651
-0.127597
-0.133172
-0.128917
-0.134811
-0.112845
-0.077435
-0.106473
-0.109906
-0.101561
-0.107443
-0.103272
-0.121452
-0.130378
-0.10847
-0.124095
-0.133161
-0.132251
-0.153499
-0.149755
-0.150708
-0.149615
-0.136405
-0.110947
-0.109518
-0.14026
-0.140893
-0.115185
-0.100978
-0.068118
-0.128899
-0.141046
-0.117954
-0.112601
-0.113571
-0.128275
-0.14231
-0.150129
-0.150333
-0.133082
-0.160987
-0.148333
-0.132889
-0.128187
-0.169283
-0.203348
-0.175251
-0.153096
-0.141827
-0.125498
-0.114184
-0.124632
-0.112546
-0.10458
-0.111778
-0.113129
-0.136378
-0.144065
-0.142941
-0.135892
-0.162039
-0.169671
-0.129002
-0.118112
-0.112521
-0.108597
-0.112923
-0.116766
-0.116599
-0.115898
-0.118425
-0.159938
-0.171744
-0.16888
-0.158453
-0.147323
-0.145864
-0.144185
-0.141308
-0.149732
-0.134311
-0.135647
-0.112357
-0.135608
-0.133088
-0.123999
-0.136183
-0.138066
-0.108043
-0.098302
-0.085369
-0.089636
-0.099913
-0.113269
-0.133002
-0.150235
-0.139366
-0.117345
-0.14276
-0.143239
-0.139396
-0.140401
-0.121399
-0.112725
-0.129929
-0.129818
-0.113174
-0.115007
-0.121098
-0.127828
-0.124938
-0.110553
-0.105778
-0.099015
-0.120664
-0.138257
-0.14049
-0.110432
-0.140902
-0.172797
-0.152789
-0.149953
-0.137438
-0.126364
-0.126968
-0.12926
-0.129295
-0.113928
-0.107925
-0.09173
-0.109722
-0.109354
-0.099079
-0.103572
-0.104536
-0.107023
-0.102114
-0.116718
-0.123113
-0.13396
-0.138111
-0.141441
-0.123946
-0.163672
-0.162612
-0.142716
-0.125701
-0.096408
-0.081989
-0.063323
-0.043834
-0.040559
-0.038273
-0.061439
-0.081463
-0.060354
-0.076682
-0.079259
-0.096063
-0.088741
-0.094977
-0.099893
-0.088988
-0.08043
-0.086122
-0.101117
-0.092649
-0.070187
-0.074368
-0.052083
-0.032895
-0.01153
-0.046458
-0.056062
-0.050613
-0.070324
-0.096709
-0.068251
-0.071593
-0.07497
-0.089903
-0.088166
-0.071119
-0.078952
-0.056629
-0.005343
-0.012072
-0.027578
-0.014507
-0.004517
-0.014938
-0.023556
-0.013931
-0.014617
-0.007185
-0.00609
-0.00467
-0.039483
-0.079104
-0.082162
-0.05649
-0.052026
-0.066589
-0.073439
-0.072413
-0.091609
-0.072005
-0.05698
-0.057491
-0.022382
-0.012185
-0.028219
-0.053716
-0.077368
-0.094324
-0.086247
-0.12344
-0.151585
-0.147632
-0.136047
-0.138637
-0.139893
-0.135051
-0.145926
-0.168663
-0.151923
-0.120002
-0.100809
-0.082739
-0.091457
-0.124606
-0.124585
-0.120655
-0.135227
-0.149046
-0.158465
-0.171076
-0.165247
-0.15084
-0.151084
-0.15642
-0.143775
-0.135126
-0.14042
-0.144433
-0.142306
-0.129763
-0.1298
-0.120002
-0.105842
-0.138319
-0.139114
-0.121376
-0.142416
-0.162178
-0.147066
-0.146017
-0.167664
-0.167786
-0.173893
-0.159653
-0.138915
-0.158595
-0.134714
-0.123904
-0.142983
-0.136957
-0.127128
-0.143669
-0.112739
-0.123874
-0.146158
-0.14176
-0.124751
-0.145548
-0.154576
-0.16627
-0.1642
-0.159279
-0.174547
-0.177624
-0.158274
-0.13822
-0.126556
-0.124201
-0.121574
-0.116423
-0.101135
-0.114734
-0.144524
-0.143044
-0.139095
-0.135078
-0.153989
-0.15986
-0.195013
-0.177673
-0.173667
-0.176235
-0.176621
-0.171675
-0.158516
-0.152417
-0.139048
-0.126559
-0.098734
-0.053448
-0.020907
0.005817
0.038506
0.071753
0.091955
0.136974
0.148798
0.189013
0.224852
0.265637
0.294815
0.35059
0.40298
0.447428
0.493874
0.529602
0.56209
0.568489
0.583267
0.619719
0.634518
0.628751
0.55594
0.527716
0.486234
0.417219
0.379503
0.360982
0.338511
0.288321
0.25155
0.230578
0.168762
0.146049
0.099133
0.10875
0.103263
0.086759
0.057754
0.02832
-0.031107
-0.071212
-0.094983
-0.087361
-0.092934
-0.09847
-0.086676
-0.124344
-0.151039
-0.186381
-0.204561
-0.189662
-0.183179
-0.185293
-0.167039
-0.135582
-0.122477
-0.119552
-0.094718
-0.062638
-0.046805
-0.046254
-0.056808
-0.059271
-0.078802
-0.06938
-0.065327
-0.078116
-0.060887
-0.084887
-0.103445
-0.094285
-0.099505
-0.096523
-0.096019
-0.097512
-0.073647
-0.090583
-0.10648
-0.094242
-0.097358
-0.090267
-0.077084
-0.059618
-0.079605
-0.088768
-0.093264
-0.110256
-0.13347
-0.12094
-0.120159
