0.033626
-0.014161
-0.020933
-0.018819
-0.029677
-0.022737
-0.03788
-0.06089
-0.069224
-0.062861
-0.037776
-0.042647
-0.048454
-0.04248
-0.007651
-0.011497
-0.005342
-0.007011
-0.004663
-0.013911
0.009306
0.011012
-0.035508
-0.048289
-0.031255
-0.017588
-0.002318
-0.012154
-0.012292
-0.023138
-0.035269
-0.033571
-0.040949
-0.067118
-0.030492
-0.027159
-0.018091
-0.015127
-0.00245
0.009389
-0.025067
-0.033518
-0.001298
-0.008361
0.000492
0.007571
-0.054643
-0.0367
-0.045348
-0.025012
-0.032781
-0.030087
-0.023948
-0.04186
-0.02725
-0.011753
-0.011198
-0.012675
0.004615
0.01004
0.005321
-0.005105
0.006028
0.012966
-0.010072
-0.011503
-0.013085
0.002183
-0.00992
-0.002492
0.006217
0.001534
-0.012118
-0.019224
0.003833
0.016115
0.016069
0.010758
-0.008303
0.030345
0.032249
0.012841
0.041836
0.058579
0.017436
0.040247
0.009152
-0.029122
-0.017535
-0.011014
-0.013017
0.009531
0.022293
0.031148
0.05252
0.056041
0.05459
0.054864
0.075323
0.086142
0.082487
0.061723
0.065315
0.048971
0.067991
0.075979
0.044803
0.036327
0.053118
0.05396
0.047127
0.053745
0.048261
0.057173
0.069493
0.063013
0.069976
0.075292
0.077373
0.103561
0.114435
0.103054
0.092997
0.101611
0.091053
0.084745
0.060181
0.056944
0.050131
0.054542
0.057655
0.067751
0.073188
0.099963
0.10916
0.099854
0.121193
0.101366
0.114169
0.108429
0.073868
0.099061
0.10958
0.085979
0.077542
0.076709
0.082038
0.078042
0.034661
0.033933
0.053162
0.044227
0.036641
0.045185
0.059488
0.051237
0.066153
0.02706
0.059529
0.061607
0.048329
0.04505
0.056001
0.046988
0.040771
0.04066
0.042307
0.027166
0.021312
-0.0024
-0.021864
-0.023168
0.007411
0.009845
0.007977
0.009992
-0.005758
-0.013944
-0.007171
-0.002972
0.00546
0.014666
0.006407
-0.022083
-0.031735
-0.049844
-0.068696
-0.075502
-0.060664
-0.067944
-0.085633
-0.08722
-0.06523
-0.070508
-0.051161
-0.034979
-0.041713
-0.033535
-0.031305
-0.055274
-0.053833
-0.017674
-0.03299
-0.099566
-0.103443
-0.090868
-0.084892
-0.08928
-0.112526
-0.137156
-0.119734
-0.110186
-0.097925
-0.119143
-0.095404
-0.100212
-0.088372
-0.074999
-0.047937
-0.066409
-0.068618
-0.062504
-0.081143
-0.082143
-0.092626
-0.093196
-0.110964
-0.132044
-0.111312
-0.117084
-0.109746
-0.106566
-0.119656
-0.121404
-0.13319
-0.132973
-0.07765
-0.090152
-0.097119
-0.094378
-0.08482
-0.089219
-0.096547
-0.088164
-0.104714
-0.086174
-0.101677
-0.118289
-0.125063
-0.111463
-0.095646
-0.09804
-0.103125
-0.128399
-0.095737
-0.07677
-0.088093
-0.101807
-0.102525
-0.109865
-0.114928
-0.1042
-0.099334
-0.108934
-0.122391
-0.114554
-0.124595
-0.121417
-0.09086
-0.096066
-0.110871
-0.128427
-0.114801
-0.103943
-0.117878
-0.067377
-0.056344
-0.059599
-0.082818
-0.090498
-0.0976
-0.065853
-0.046295
-0.065977
-0.089523
-0.089245
-0.103856
-0.118865
-0.126195
-0.090339
-0.097326
-0.085203
-0.077695
-0.098174
-0.10075
-0.098922
-0.074382
-0.075651
-0.062344
-0.069194
-0.066138
-0.066214
-0.068428
-0.0765
-0.078485
-0.082706
-0.08359
-0.108982
-0.110305
-0.114926
-0.105225
-0.094981
-0.07425
-0.076813
-0.061634
-0.046992
-0.071052
-0.092419
-0.058657
-0.016894
-0.033609
-0.052892
-0.031587
-0.055601
-0.076294
-0.082732
-0.063886
-0.072154
-0.064155
-0.071057
-0.072342
-0.09339
-0.108191
-0.101282
-0.073067
-0.076361
-0.075916
-0.086277
-0.075604
-0.065001
-0.06851
-0.063792
-0.058521
-0.067618
-0.077971
-0.093277
-0.093502
-0.103627
-0.085653
-0.088447
-0.093635
-0.080697
-0.085038
-0.100923
-0.09167
-0.085903
-0.105509
-0.04477
-0.057892
-0.061425
-0.064835
-0.09663
-0.092607
-0.066233
-0.070872
-0.068119
-0.03888
-0.106486
-0.139681
-0.109576
-0.11115
-0.103668
-0.0723
-0.104434
-0.089938
-0.083707
-0.08258
-0.066025
-0.056152
-0.07795
-0.083964
-0.047092
-0.076427
-0.067277
-0.062754
-0.09061
-0.087404
-0.078165
-0.082251
-0.088788
-0.063595
-0.100691
-0.114261
-0.094923
-0.097629
-0.085238
-0.057833
-0.047537
-0.069273
-0.065317
-0.067004
-0.071412
-0.07256
-0.078385
-0.081191
-0.06767
-0.072199
-0.106907
-0.128793
-0.112285
-0.126847
-0.153845
-0.09991
-0.098458
-0.085418
-0.099525
-0.042274
-0.040675
-0.077452
-0.078726
-0.061044
-0.061548
-0.085931
-0.109025
-0.111832
-0.107607
-0.115165
-0.09955
-0.12147
-0.112622
-0.096301
-0.099933
-0.078053
-0.066599
-0.10397
-0.09533
-0.078848
-0.076397
-0.085819
-0.058007
-0.048341
-0.067621
-0.058594
-0.072682
-0.096119
-0.115704
-0.122791
-0.109601
-0.13386
-0.118893
-0.125817
-0.112829
-0.095472
-0.092148
-0.098697
-0.111534
-0.084654
-0.031865
-0.090419
-0.08918
-0.081336
-0.076469
-0.066984
-0.065765
-0.048305
-0.058516
-0.07657
-0.057569
-0.047703
-0.039851
-0.040268
-0.068708
-0.046434
-0.021427
-0.050414
-0.003683
-0.008201
-0.002508
-0.001271
-0.04217
-0.03558
-0.009203
-0.023056
-0.047494
-0.068829
-0.075744
-0.046775
-0.041315
-0.035594
-0.035264
-0.047118
-0.036333
-0.053534
-0.046638
-0.027978
-0.041741
-0.044186
-0.014957
-0.011238
-0.017178
0.005825
0.021693
0.036361
0.025556
0.022334
-0.013553
-0.012012
-0.023602
-0.002543
0.006635
-0.003646
-0.025599
-0.020799
-0.008183
0.003621
-0.031412
-0.021285
-0.028984
-0.029213
-0.023853
-0.018447
-0.03355
-0.04547
-0.039229
-0.05138
-0.052595
-0.053762
-0.060712
-0.091424
-0.099241
-0.109428
-0.090021
-0.071716
-0.075632
-0.075471
-0.074157
-0.066502
-0.036931
-0.035751
-0.052099
-0.08411
-0.086866
-0.075771
-0.073847
-0.074367
-0.081738
-0.128945
-0.166586
-0.135103
-0.130653
-0.14952
-0.166139
-0.141708
-0.135209
-0.133876
-0.103363
-0.101836
-0.127953
-0.139526
-0.120607
-0.084028
-0.084259
-0.083822
-0.081016
-0.099735
-0.094895
-0.132056
-0.170312
-0.163611
-0.150854
-0.127882
-0.145978
-0.180083
-0.132504
-0.100033
-0.092138
-0.101248
-0.106181
-0.113244
-0.105245
-0.100756
-0.120218
-0.111803
-0.112498
-0.130815
-0.144508
-0.145231
-0.131479
-0.129026
-0.137037
-0.137537
-0.158556
-0.141704
-0.150155
-0.124774
-0.100978
-0.09452
-0.101242
-0.084159
-0.100678
-0.110595
-0.100763
-0.099627
-0.103138
-0.151477
-0.190694
-0.19602
-0.191737
-0.186282
-0.18733
-0.180442
-0.160552
-0.136368
-0.146498
-0.130608
-0.119607
-0.115203
-0.101532
-0.086018
-0.059672
-0.050162
-0.025111
0.009374
0.019648
0.06821
0.075554
0.119152
0.163349
0.198244
0.240241
0.29266
0.324849
0.397726
0.451636
0.485014
0.53849
0.544586
0.594565
0.659687
0.668441
0.640019
0.619006
0.593856
0.554679
0.522704
0.479478
0.427993
0.388187
0.344473
0.292684
0.230495
0.208131
0.177035
0.153234
0.143975
0.107113
0.077158
0.082551
0.07057
0.027574
-0.024221
-0.062298
-0.076326
-0.095425
-0.110316
-0.119798
-0.148509
-0.156439
-0.146616
-0.135195
-0.150018
-0.145243
-0.132979
-0.1342
-0.128241
-0.10877
-0.068711
-0.046259
-0.074521
-0.084155
-0.101777
-0.10813
-0.069071
-0.076078
-0.090648
-0.111829
-0.112416
-0.112114
-0.107482
-0.091998
-0.090978
-0.097545
-0.075302
-0.076284
-0.098692
-0.068957
-0.071609
-0.051059
-0.037295
-0.057563
-0.062019
-0.068244
-0.069786
-0.087902
-0.103453
-0.147567
-0.119743
-0.10619
-0.106336
-0.119588
-0.135145
-0.119259
-0.102147
-0.09507
-0.101712
-0.081109
-0.08016
-0.074517
-0.050751
-0.048476
-0.058176
-0.069238
-0.077899
-0.075684
-0.103329
-0.104746
-0.110887
-0.103469
-0.101928
-0.112224
-0.112341
-0.111582
-0.089967
-0.071618
-0.04866
-0.050388
-0.070787
-0.076272
-0.030964
-0.056248
-0.062203
-0.061844
-0.064193
-0.065569
-0.086505
-0.096269
-0.085193
-0.111613
-0.109311
-0.105226
-0.108938
-0.106723
-0.080029
-0.083904
-0.066144
-0.064849
-0.037595
-0.046031
-0.063906
-0.065792
-0.05024
-0.067868
-0.072414
-0.074303
-0.064939
-0.068448
-0.086882
-0.093916
-0.124304
-0.106773
-0.085558
-0.082089
-0.070198
-0.064317
-0.077948
-0.066491
-0.051201
-0.063083
-0.047887
-0.047106
-0.047779
-0.045131
-0.056673
-0.078313
-0.068107
-0.072321
-0.075636
-0.086538
-0.100296
-0.094638
-0.089618
-0.083779
-0.077872
-0.048654
-0.044845
-0.053595
-0.063422
-0.053408
-0.053351
-0.057942
-0.053894
-0.019403
-0.03486
-0.052471
-0.061741
-0.05917
-0.066664
-0.068136
-0.06229
-0.072419
-0.067731
-0.02825
-0.032164
-0.060058
-0.015934
-0.024038
-0.052446
-0.068063
-0.0489
-0.045549
-0.058598
-0.048443
-0.037784
-0.04195
-0.035052
-0.031849
-0.045271
-0.044353
-0.029961
-0.012594
-0.045317
-0.041701
-0.012411
-0.016059
-0.023727
0.012277
0.027564
0.021581
0.042382
0.012535
-0.010887
0.009973
0.008231
-0.028882
-0.029299
-0.015382
-0.023302
0.021016
-0.000567
-0.013939
0.014026
0.027418
-0.001268
0.017063
0.038393
0.033153
0.038141
0.055239
0.055399
0.061353
0.0761
0.010856
0.017048
0.026579
0.02531
0.030789
0.026228
0.036163
0.058036
0.062415
0.046487
0.01562
0.00871
0.001502
0.010211
0.055053
0.066033
0.052077
0.023611
0.023744
0.072962
0.078516
0.044008
0.048176
0.061459
0.041042
0.01897
0.016754
0.000186
0.007157
0.024192
0.011775
0.026056
0.037127
0.010179
0.034556
0.040065
0.031864
0.012733
-0.018484
-0.007086
-0.009904
-0.018801
-0.021694
-0.009881
-0.045531
-0.033955
-0.030377
-0.034295
-0.019428
-0.010695
-0.011707
-0.030393
-0.034301
-0.039234
-0.040733
-0.051632
-0.068404
-0.040922
-0.025987
-0.028325
-0.036427
-0.02979
-0.069624
-0.076804
-0.093049
-0.094883
-0.09496
-0.108301
-0.114594
-0.106751
-0.114684
-0.095182
-0.088754
-0.068459
-0.065361
-0.064513
-0.115889
-0.08019
-0.050567
-0.0645
-0.093189
-0.11345
-0.102191
-0.122648
-0.114837
-0.128204
-0.125209
-0.134882
-0.124187
-0.1199
-0.127102
-0.140042
-0.111765
-0.108491
-0.121399
-0.099643
-0.10858
-0.114799
-0.1153
-0.106025
-0.109939
-0.130782
-0.150074
-0.131779
-0.122106
-0.135694
-0.129114
-0.143989
-0.117887
-0.099859
-0.127849
-0.124382
-0.120491
-0.108664
-0.118794
-0.159697
-0.142503
-0.100419
-0.110032
-0.133987
-0.127364
-0.142188
-0.135114
-0.132939
-0.163326
-0.175941
-0.173039
-0.168587
-0.141883
-0.134969
-0.132882
-0.12431
-0.087564
-0.091711
-0.103919
-0.107684
-0.129698
-0.118031
-0.12348
-0.136124
-0.137459
-0.1512
-0.135775
-0.115891
-0.156418
-0.147803
-0.140642
-0.153926
-0.152358
-0.126399
-0.12754
-0.122242
-0.133514
-0.123588
-0.127973
-0.122989
-0.119326
-0.106173
-0.101518
-0.102677
-0.097281
-0.129238
-0.13471
-0.150478
-0.170264
-0.17545
-0.148854
-0.132493
-0.128425
-0.127653
-0.138607
-0.110354
-0.091503
-0.089517
-0.101629
-0.094737
-0.106436
-0.108097
-0.114679
-0.112214
-0.115332
-0.105096
-0.126967
-0.135581
-0.137885
-0.130509
-0.13283
-0.129153
-0.113166
-0.11571
-0.117786
-0.111488
-0.104382
-0.093022
-0.07697
-0.085973
-0.100579
-0.074934
-0.092243
-0.107618
-0.101914
-0.110848
-0.106423
-0.090471
-0.106859
-0.127178
-0.110216
-0.089472
-0.078551
-0.082363
-0.105818
-0.118814
-0.113084
-0.090064
-0.104564
-0.099053
-0.093926
-0.085848
-0.052483
-0.040337
-0.042859
-0.112982
-0.109492
-0.107414
-0.114676
-0.115837
-0.113335
-0.101844
-0.114094
-0.116416
-0.116855
-0.119113
-0.104187
-0.106696
-0.089059
-0.074017
-0.076855
-0.070847
-0.082262
-0.089219
-0.081076
-0.081725
-0.101564
-0.120327
-0.120804
-0.115132
-0.116837
-0.145489
-0.157803
-0.140383
-0.123968
-0.141411
-0.128109
-0.12991
-0.113899
-0.126342
-0.112228
-0.097889
-0.081976
-0.066074
-0.102103
-0.123277
-0.107685
-0.090951
-0.103974
-0.116968
-0.145
-0.124881
-0.136146
-0.1138
-0.098706
-0.101165
-0.116907
-0.076741
-0.052214
-0.072393
-0.078538
-0.12059
-0.119026
-0.119894
-0.103614
-0.095669
-0.111609
-0.119877
-0.13018
-0.141308
-0.145994
-0.126249
-0.126073
-0.137646
-0.118743
-0.127311
-0.112355
-0.107053
-0.092231
-0.095977
-0.112654
-0.104586
-0.088753
-0.100003
-0.109835
-0.09178
-0.095767
-0.102731
-0.106707
-0.118646
-0.154348
-0.155555
-0.142024
-0.134124
-0.12132
-0.108017
-0.110328
-0.093271
-0.09154
-0.116909
-0.139684
-0.120722
-0.110635
-0.101431
-0.113866
-0.090478
-0.126106
-0.135777
-0.138071
-0.122402
-0.113517
-0.14579
-0.138151
-0.136851
-0.107082
-0.111541
-0.103446
-0.089704
-0.05185
-0.045896
-0.039966
-0.039345
-0.03458
-0.016258
-0.038117
-0.039922
-0.03975
-0.024407
-0.041941
-0.09136
-0.072819
-0.055353
-0.05816
-0.068182
-0.063786
-0.079271
-0.057173
-0.060797
-0.052114
-0.03802
-0.039798
-0.04317
-0.056973
-0.046733
-0.052868
-0.047622
-0.05865
-0.078842
-0.056381
-0.038813
-0.072911
-0.063775
-0.052546
-0.047026
-0.042462
-0.041517
-0.031991
-0.0347
-0.041308
-0.011761
0.010608
0.003447
-0.025851
-0.026815
-0.011125
-0.01243
-0.026701
-0.012056
-0.050398
-0.075272
-0.074595
-0.079651
-0.05816
-0.068829
-0.064014
-0.068208
-0.070584
-0.078363
-0.092539
-0.076123
-0.066855
-0.083289
-0.089347
-0.086496
-0.120103
-0.113344
-0.119643
-0.122575
-0.134884
-0.138308
-0.137301
-0.126111
-0.147077
-0.142513
-0.13424
-0.140912
-0.130748
-0.116114
-0.127528
-0.105159
-0.108086
-0.111894
-0.16503
-0.168575
-0.144435
-0.149177
-0.157658
-0.173479
-0.151918
-0.140617
-0.151369
-0.152066
-0.13921
-0.15144
-0.169687
-0.167356
-0.146971
-0.154219
-0.15343
-0.146504
-0.10375
-0.109075
-0.132082
-0.13089
-0.135449
-0.164178
-0.174783
-0.145334
-0.149059
-0.16209
-0.183435
-0.190314
-0.181952
-0.171745
-0.165714
-0.172192
-0.168498
-0.159221
-0.150187
-0.128417
-0.103439
-0.106185
-0.120921
-0.137638
-0.125956
-0.119089
-0.13165
-0.171655
-0.159494
-0.156588
-0.172872
-0.19456
-0.164538
-0.143526
-0.16908
-0.168242
-0.190626
-0.188154
-0.175137
-0.169006
-0.153664
-0.166993
-0.132549
-0.104447
-0.109706
-0.143288
-0.147667
-0.154022
-0.162432
-0.16448
-0.159456
-0.120932
-0.083328
-0.048084
0.001628
0.035797
0.071109
0.124284
0.169662
0.228563
0.272767
0.290911
0.334231
0.388069
0.436334
0.483907
0.50438
0.542744
0.573569
0.582064
0.606781
0.615179
0.619073
0.598119
0.566134
0.499608
0.477555
0.479555
0.45891
0.372133
0.335901
0.273171
0.222342
0.179045
0.169625
0.136736
0.081207
0.019474
0.001967
-0.024647
-0.072149
-0.100227
-0.118537
-0.12091
-0.129739
-0.14198
-0.157598
-0.169433
-0.171972
-0.167518
-0.175063
-0.17049
-0.150758
-0.159327
-0.162387
-0.151772
-0.12159
-0.113208
-0.138756
-0.124429
-0.11803
-0.102986
-0.0968
-0.118234
-0.114649
-0.10259
-0.11866
-0.093961
-0.090928
-0.087982
-0.070622
-0.05542
-0.057964
-0.072976
-0.055159
-0.081206
-0.074499
-0.08736
-0.09287
-0.140058
-0.134351
-0.132765
-0.116761
-0.105742
-0.119912
-0.123354
-0.117022
-0.05225
-0.054963
-0.077676
-0.101429
-0.091448
-0.096246
-0.107686
-0.120727
-0.110378
-0.104376
-0.10018
-0.117042
-0.138194
-0.143622
-0.120727
-0.119014
-0.122012
-0.120322
-0.114648
-0.112445
-0.082264
-0.080449
-0.07284
-0.067229
-0.087304
-0.070215
-0.070094
-0.086502
-0.086223
-0.096303
-0.090648
-0.121558
-0.092834
-0.086935
-0.116543
-0.124502
-0.12189
-0.112582
-0.109569
-0.098937
-0.070445
-0.049647
-0.051406
-0.069826
-0.067157
-0.065458
-0.099877
-0.104933
-0.108934
-0.11325
-0.116568
-0.141044
-0.137198
-0.118643
-0.123848
-0.105539
-0.090751
-0.097555
-0.069164
-0.064673
-0.045092
-0.044538
-0.056941
-0.060988
-0.051095
-0.023457
-0.045935
-0.091381
-0.092818
-0.089221
-0.076753
-0.086481
-0.087373
-0.101884
-0.094348
-0.08727
-0.096324
-0.083022
-0.086314
-0.087546
-0.065117
-0.047133
-0.055899
-0.040705
-0.037643
-0.048259
-0.069502
-0.0776
-0.084106
-0.087865
-0.071183
-0.093543
-0.083249
-0.077264
-0.09104
-0.075658
-0.073458
-0.061693
-0.076363
-0.04789
-0.032055
-0.036869
-0.049688
-0.034517
-0.028154
-0.016225
-0.061915
-0.054335
-0.045686
-0.045707
-0.071335
-0.090291
-0.072374
-0.092773
-0.087579
-0.050741
-0.0577
-0.043045
-0.013332
-0.014283
-0.001188
0.015294
0.004174
0.004427
0.013026
0.017962
-0.004707
-0.032804
-0.041272
-0.003466
-0.006295
-0.039323
-0.026183
-0.030348
-0.024553
-0.004063
0.020592
-0.013668
0.002123
0.023642
0.027797
0.020705
0.016617
0.04053
0.044414
0.016056
0.045804
0.030432
0.003888
0.031912
0.010782
0.02802
0.030853
0.012326
0.007649
0.014275
0.018159
0.026435
0.069502
0.048244
0.053325
0.048633
0.040464
0.065771
0.05976
0.071187
0.045497
0.038111
0.055276
0.041764
0.002445
0.035839
0.032928
0.025624
0.033313
0.042121
0.048118
0.043306
0.060168
0.042853
0.052663
0.061533
0.041132
0.02893
0.041751
0.045076
0.009613
0.017463
0.051159
0.056767
0.022895
-0.006329
-0.040758
-0.033931
0.002207
-0.003513
-0.037557
-0.010768
0.010836
0.000064
-0.006002
-0.009054
-0.004441
-0.003253
0.008446
0.007975
-0.027188
-0.035398
-0.061501
-0.047631
-0.038358
-0.070752
-0.077206
-0.083622
-0.070872
-0.066962
-0.061755
-0.083412
-0.097827
-0.07917
-0.072443
-0.084258
-0.06078
-0.058953
-0.072752
-0.059144
-0.056721
-0.072266
-0.085469
-0.121384
-0.127964
-0.11941
-0.135974
-0.157095
-0.129799
-0.140118
-0.108851
-0.121471
-0.135405
-0.129498
-0.118862
-0.102386
-0.100343
-0.085444
-0.080133
-0.103089
-0.099808
-0.100872
-0.098361
-0.106496
-0.141292
-0.148919
-0.153127
-0.153145
-0.163192
-0.146012
-0.131
-0.131952
-0.14274
-0.121616
-0.09864
-0.131087
-0.127572
-0.119273
-0.118795
-0.096874
-0.119915
-0.141459
-0.135674
-0.136334
-0.165131
-0.187478
-0.156677
-0.167515
-0.167721
-0.162098
-0.178778
-0.166927
-0.147726
-0.153026
-0.142742
-0.115415
-0.135058
-0.122695
-0.091572
-0.09497
-0.112735
-0.128646
-0.156073
-0.139937
-0.150207
-0.135476
-0.133063
-0.15024
-0.163017
-0.157963
-0.143001
-0.131889
-0.130913
-0.114176
-0.107474
-0.115055
-0.133345
-0.130196
-0.105812
-0.11344
-0.113409
-0.115812
-0.124093
-0.139607
-0.146474
-0.152845
-0.137534
-0.168527
-0.16759
-0.148578
-0.106062
-0.103105
-0.128807
-0.141962
-0.113843
-0.108114
-0.131582
-0.089779
-0.07396
-0.086292
-0.091866
-0.164355
-0.157767
-0.118225
-0.12491
-0.150479
-0.13126
-0.148237
-0.156863
-0.149561
-0.148925
-0.121199
-0.106768
-0.110394
-0.112661
-0.09602
-0.103988
-0.081009
-0.060936
-0.040254
-0.104818
-0.108909
-0.109951
-0.122455
-0.117797
-0.12334
-0.122973
-0.122236
-0.126563
-0.127674
-0.099505
-0.104357
-0.119807
-0.117348
-0.094283
-0.07898
-0.081647
-0.097872
-0.089851
-0.097023
-0.120242
-0.12045
-0.107891
-0.133812
-0.137422
-0.116515
-0.113813
-0.12242
-0.106792
-0.097377
-0.081856
-0.12895
-0.128464
-0.068001
-0.055981
-0.080437
-0.086969
-0.084932
-0.077181
-0.087026
-0.07684
-0.078911
-0.106908
-0.116007
-0.109227
-0.132908
-0.113359
-0.126659
-0.129625
-0.107548
-0.127369
-0.107864
-0.097326
-0.113642
-0.121342
-0.106602
-0.097684
-0.089926
-0.105135
-0.109225
-0.09224
-0.078642
-0.100593
-0.101295
-0.114098
-0.121265
-0.110728
-0.123517
-0.122767
-0.124081
-0.134193
-0.123121
-0.12414
-0.118714
-0.10376
-0.11587
-0.110697
-0.079673
-0.074226
-0.074076
-0.079914
-0.078147
-0.10823
-0.106484
-0.098552
-0.116686
-0.13549
-0.138511
-0.115064
-0.129978
-0.134879
-0.127417
-0.107081
-0.067093
-0.110272
-0.117221
-0.082678
-0.083192
-0.108026
-0.120057
-0.129011
-0.115664
-0.107053
-0.122437
-0.134223
-0.14077
-0.144034
-0.154358
-0.130526
-0.134558
-0.150864
-0.117741
-0.117057
-0.104232
-0.094833
-0.094727
-0.11679
-0.099421
-0.088272
-0.094637
-0.140431
-0.157313
-0.137027
-0.097249
-0.108597
-0.164074
-0.179091
-0.129852
-0.131404
-0.142427
-0.147705
-0.148404
-0.131278
-0.128497
-0.107268
-0.094907
-0.091393
-0.105893
-0.099342
-0.109659
-0.120954
-0.119112
-0.109102
-0.103026
-0.117755
-0.126309
-0.11391
-0.117151
-0.135893
-0.119819
-0.117756
-0.121158
-0.087303
-0.105473
-0.128096
-0.111794
-0.09067
-0.102931
-0.118658
-0.113459
-0.113362
-0.110653
-0.106876
-0.10629
-0.109687
-0.130119
-0.151096
-0.135537
-0.115478
-0.153573
-0.154144
-0.119123
-0.142116
-0.126381
-0.115397
-0.113968
-0.101204
-0.079724
-0.092146
-0.098928
-0.102786
-0.088598
-0.094208
-0.105263
-0.098057
-0.094015
-0.145155
-0.138117
-0.100119
-0.158042
-0.12583
-0.114397
-0.102019
-0.112735
-0.064988
-0.058955
-0.056668
-0.054416
-0.050279
-0.07429
-0.090372
-0.064288
-0.039669
-0.041276
-0.04043
-0.076834
-0.079113
-0.071789
-0.074737
-0.052796
-0.067584
-0.074622
-0.057226
-0.041658
-0.061139
-0.034727
-0.036441
-0.017589
-0.007979
-0.009708
-0.013467
-0.04483
-0.062928
-0.06355
-0.066662
-0.085317
-0.089115
-0.075143
-0.063607
-0.055167
-0.064205
-0.05865
-0.021748
0.017666
0.003228
-0.012255
0.001227
-0.001614
-0.000513
-0.006511
-0.005922
-0.008095
-0.057043
-0.058446
-0.051419
-0.070394
-0.064271
-0.076512
-0.057611
-0.067453
-0.05737
-0.051223
-0.071731
-0.071449
-0.05925
-0.054203
-0.057058
-0.039752
-0.066693
-0.10196
-0.081651
-0.080429
-0.09038
-0.122502
-0.138728
-0.133655
-0.132629
-0.108764
-0.128998
-0.131934
-0.11058
-0.09517
-0.088751
-0.08588
-0.088817
-0.105503
-0.100621
-0.11452
-0.101094
-0.115971
-0.138352
-0.157395
-0.130497
-0.148936
-0.14882
-0.167919
-0.158574
-0.138043
-0.140204
-0.139085
-0.12487
-0.126679
-0.125457
-0.162744
-0.139842
-0.112201
-0.136953
-0.118397
-0.127489
-0.134692
-0.117988
-0.145684
-0.159035
-0.157873
-0.159131
-0.147708
-0.156417
-0.158955
-0.16209
-0.158153
-0.144606
-0.141379
-0.142582
-0.135835
-0.129638
-0.113365
-0.114253
-0.124757
-0.128028
-0.125525
-0.122473
-0.104395
-0.118966
-0.138446
-0.150175
-0.164497
-0.156498
-0.15301
-0.180311
-0.181708
-0.158461
-0.159752
-0.160372
-0.146624
-0.16914
-0.171292
-0.138091
-0.159732
-0.179026
-0.149075
-0.130313
-0.151611
-0.164458
-0.163086
-0.170571
-0.151696
-0.121717
-0.104229
-0.106995
-0.097984
-0.092898
-0.043469
-0.008661
0.029774
0.078956
0.102752
0.12773
0.161632
0.223414
0.254931
0.290582
0.328378
0.38005
0.450105
0.50738
0.518345
0.529031
0.567629
0.592283
0.652642
0.660235
0.663264
0.653625
0.621507
0.582478
0.551236
0.524125
0.491296
0.442184
0.397182
0.308931
0.241374
0.200377
0.178499
0.146276
0.106949
0.084124
0.0515
0.025848
-0.003774
-0.042248
-0.073659
-0.112523
-0.110814
-0.11238
-0.10183
-0.122183
-0.135977
-0.138423
-0.128499
-0.111164
-0.142367
-0.151061
-0.154548
-0.143042
-0.118364
-0.113917
-0.126632
-0.110358
-0.11783
-0.114275
-0.081709
-0.107553
-0.104886
-0.073599
-0.062628
-0.045018
-0.043845
-0.047501
-0.05431
-0.068539
-0.097423
-0.102843
-0.088364
-0.091964
-0.094989
-0.095623
-0.100041
-0.102372
-0.100534
-0.109293
-0.096277
-0.093263
-0.096694
-0.083952
-0.068414
-0.073809
-0.046551
-0.062899
-0.076773
-0.094824
-0.082771
-0.091476
-0.079484
-0.090397
-0.099666
-0.092518
-0.067876
-0.112527
-0.10129
-0.113884
-0.07313
-0.058037
-0.071872
-0.059079
-0.072646
-0.081009
-0.083405
-0.098263
-0.091219
-0.078339
-0.072276
-0.077004
-0.102178
-0.111503
-0.114878
-0.112159
-0.123732
-0.109432
-0.091615
-0.078059
-0.056601
-0.077509
-0.06889
-0.071049
-0.056439
-0.068029
-0.061915
-0.07255
-0.087542
-0.096281
-0.070944
-0.051172
-0.097694
-0.124667
-0.114614
-0.121903
-0.118424
-0.082789
-0.090631
-0.102066
-0.087668
-0.092279
-0.055759
-0.047371
-0.056777
-0.045626
-0.061386
-0.067242
-0.057969
-0.068947
-0.077136
-0.08289
-0.088433
-0.0848
-0.082886
-0.08551
-0.078829
-0.057053
-0.088783
-0.072562
-0.058621
-0.060336
-0.049175
-0.0273
-0.028777
-0.034625
-0.051744
-0.070676
-0.067965
-0.052871
-0.065408
-0.068213
-0.055304
-0.045252
-0.070441
-0.080003
-0.100291
-0.062044
-0.064355
-0.038419
-0.06081
-0.090283
-0.048923
-0.017784
-0.035565
-0.023327
-0.016142
-0.030051
-0.014037
-0.01341
-0.031608
-0.049693
-0.036375
-0.037251
-0.044656
-0.034503
-0.034116
-0.056832
-0.086348
-0.065257
-0.039385
-0.026994
-0.041312
-0.025996
-0.019037
-0.014949
-0.00309
0.008026
-0.002915
-0.006648
-0.00265
-0.007095
-0.0227
-0.022382
-0.010551
-0.016255
-0.008645
-0.013744
-0.010677
-0.006274
-0.003858
0.027195
0.027826
0.01447
0.026556
0.037854
0.038197
0.023865
0.035103
0.039421
0.038407
0.013168
0.009206
0.008687
0.013845
0.021549
0.036161
0.020294
0.024705
0.040384
0.050742
0.042276
0.073426
0.089367
0.085527
0.083119
0.083525
0.079469
0.065655
0.073695
0.059539
0.042057
0.043933
0.034163
0.037997
0.019487
-0.004487
0.022847
0.03713
0.057158
0.053541
0.041456
0.071587
0.097504
0.136364
0.10164
0.097458
0.093938
0.08564
0.065067
0.038689
0.028918
0.031509
0.024575
0.02906
0.04137
0.034134
0.021723
0.006913
0.000059
0.024274
0.028466
0.028825
0.038531
0.014827
0.024464
0.033774
0.012735
0.012133
-0.006552
-0.0208
-0.025836
-0.032388
-0.045411
-0.043686
-0.03992
-0.028648
-0.030196
-0.025319
-0.043649
-0.036494
-0.013483
-0.019981
-0.045996
-0.043523
-0.033674
-0.072731
-0.073505
-0.079302
-0.085903
-0.096614
-0.103671
-0.117323
-0.086623
-0.087452
-0.096311
-0.101766
-0.096935
-0.083693
-0.093676
-0.08905
-0.089554
-0.082326
-0.092889
-0.092297
-0.081771
-0.085309
-0.117615
-0.109544
-0.096202
-0.102616
-0.139554
-0.129738
-0.124229
-0.128991
-0.10802
-0.119217
-0.12942
-0.136193
-0.132726
-0.125043
-0.113756
-0.10174
-0.115872
-0.08787
-0.080744
-0.077072
-0.085174
-0.0821
-0.092563
-0.098842
-0.102858
-0.091608
-0.125648
-0.137124
-0.166996
-0.147222
-0.116644
-0.121492
-0.144297
-0.138163
-0.129483
-0.105728
-0.107781
-0.134705
-0.127102
-0.100667
-0.106801
-0.098071
-0.107121
-0.115009
-0.108427
-0.107892
-0.125744
-0.131653
-0.145633
-0.148256
-0.143751
-0.106413
-0.117385
-0.109697
-0.145021
-0.12315
-0.09674
-0.09261
-0.098332
-0.097983
-0.10903
-0.129348
-0.124878
-0.115101
-0.139378
-0.155684
-0.142976
-0.130223
-0.129701
-0.148877
-0.130293
-0.119475
-0.127099
-0.086143
-0.089444
-0.08683
-0.070893
-0.081021
-0.105775
-0.086476
-0.082421
-0.080949
-0.10519
-0.124745
-0.127776
-0.126338
-0.123065
-0.119325
-0.127518
-0.105716
-0.094097
-0.1131
-0.116579
-0.10269
-0.078554
-0.086286
-0.074407
-0.085308
-0.065034
-0.076343
-0.097473
-0.097609
-0.103376
-0.087406
-0.092726
-0.098188
-0.09148
-0.103249
-0.090263
-0.076309
-0.098944
-0.128318
-0.114333
-0.086215
-0.073757
-0.080964
-0.087047
-0.088457
-0.074148
-0.051251
-0.045857
-0.053056
-0.077341
-0.093248
-0.095916
-0.113588
-0.111807
-0.094877
-0.105343
-0.124769
-0.091073
-0.118235
-0.105443
-0.085314
-0.068471
-0.077311
-0.090674
-0.080511
-0.084439
-0.07815
-0.058699
-0.091876
-0.069191
-0.053467
-0.066378
-0.103906
-0.123351
-0.126937
-0.08779
-0.106076
-0.132643
-0.118549
-0.079101
-0.059151
-0.087403
-0.108405
-0.118245
-0.107806
-0.107693
-0.096862
-0.072542
-0.064284
-0.096117
-0.088057
-0.097484
-0.106978
-0.081299
-0.107917
-0.130381
-0.133875
-0.117477
-0.11903
-0.095607
-0.090003
-0.088356
-0.083072
-0.100523
-0.0845
-0.077909
-0.075592
-0.080814
-0.090295
-0.107625
-0.115045
-0.100857
-0.115594
-0.104514
-0.113634
-0.103983
-0.090771
-0.123196
-0.110536
-0.099297
-0.100877
-0.090097
-0.089937
-0.100798
-0.079862
-0.072206
-0.078845
-0.088346
-0.077809
-0.084751
-0.095033
-0.097762
-0.126312
-0.140269
-0.138062
-0.109387
-0.087892
-0.11689
-0.130705
-0.14889
-0.130968
-0.088155
-0.081168
-0.086337
-0.076058
-0.085383
-0.099312
-0.116504
-0.09809
-0.076871
-0.085544
-0.125045
-0.108267
-0.098775
-0.117656
-0.122145
-0.113266
-0.11906
-0.110401
-0.09936
-0.105524
-0.089365
-0.115676
-0.080284
-0.092798
-0.095072
-0.083649
-0.104494
-0.114404
-0.109325
-0.124041
-0.119518
-0.110361
-0.137774
-0.161515
-0.163148
-0.128456
-0.095922
-0.099262
-0.125915
-0.116994
-0.116458
-0.110519
-0.088709
-0.062101
-0.075908
-0.070865
-0.087046
-0.09797
-0.1136
-0.118645
-0.115432
-0.126502
-0.148276
-0.125408
-0.119107
-0.143567
-0.130254
-0.116772
-0.102692
-0.08556
-0.066188
-0.074365
-0.074946
-0.073513
-0.079509
-0.107553
-0.112715
-0.096473
-0.096929
-0.108992
-0.113149
-0.123743
-0.124637
-0.129286
-0.12395
-0.143646
-0.140912
-0.126751
-0.134356
-0.120034
-0.089124
-0.083547
-0.100401
-0.093339
-0.061935
-0.07024
-0.084768
-0.074553
-0.101068
-0.112582
-0.110192
-0.112173
-0.111415
-0.104966
-0.113571
-0.139671
-0.109226
-0.098434
-0.11383
-0.11031
-0.091108
-0.092601
-0.093466
-0.082011
-0.071442
-0.075908
-0.071895
-0.088272
-0.12409
-0.138462
-0.120051
-0.137334
-0.128799
-0.133639
-0.133175
-0.152269
-0.139069
-0.130662
-0.11396
-0.094449
-0.08438
-0.082367
-0.063525
-0.061489
-0.06628
-0.084367
-0.071189
-0.110744
-0.125968
-0.123969
-0.138416
-0.151945
-0.151027
-0.142204
-0.125416
-0.112038
-0.133561
-0.132563
-0.101863
-0.098975
-0.080782
-0.085321
-0.097639
-0.101633
-0.089885
-0.100348
-0.12245
-0.104883
-0.122958
-0.099179
-0.110096
-0.121576
-0.113071
-0.159682
-0.137181
-0.133043
-0.113606
-0.09299
-0.115764
-0.12456
-0.07735
-0.074907
-0.068676
-0.074549
-0.066705
-0.084427
-0.089806
-0.112331
-0.10591
-0.094501
-0.084921
-0.09772
-0.10393
-0.109793
-0.092405
-0.093524
-0.067946
-0.064595
-0.063677
-0.037055
-0.013004
-0.012612
-0.025183
0.009037
-0.022787
-0.04249
-0.029646
-0.026123
-0.042778
-0.050621
-0.051553
-0.038724
-0.050572
-0.07787
-0.078757
-0.051292
-0.036043
-0.040921
-0.035215
-0.055859
-0.059349
-0.051706
-0.022194
-0.004818
-0.026956
-0.009708
-0.027816
-0.024759
-0.033037
-0.036667
-0.03807
-0.042646
-0.038364
-0.057865
-0.057558
-0.054277
-0.04298
-0.032264
-0.025156
-0.013605
-0.000881
-0.009541
-0.011165
-0.005652
-0.005735
-0.00075
-0.013304
-0.029649
-0.03656
-0.03209
-0.058228
-0.091607
-0.088566
-0.089884
-0.088264
-0.107959
-0.108653
-0.113636
-0.117
-0.092019
-0.060203
-0.069018
-0.047089
-0.05693
-0.090183
-0.098454
-0.127714
-0.138016
-0.136118
-0.123836
-0.10402
-0.129574
-0.134069
-0.121139
-0.135348
-0.130205
-0.134964
-0.132371
-0.094855
-0.110034
-0.112306
-0.090539
-0.115107
-0.10879
-0.093761
-0.102657
-0.103655
-0.096733
-0.114012
-0.127792
-0.116106
-0.119633
-0.124971
-0.177122
-0.185492
-0.144485
-0.147202
-0.145998
-0.135272
-0.096654
-0.111073
-0.098673
-0.118304
-0.133963
-0.131118
-0.119383
-0.139916
-0.145371
-0.154283
-0.137291
-0.1536
-0.160638
-0.149758
-0.141934
-0.153498
-0.154596
-0.173535
-0.15396
-0.136165
-0.120189
-0.104041
-0.090034
-0.127482
-0.104281
-0.093882
-0.076722
-0.102739
-0.09974
-0.098148
-0.129315
-0.15378
-0.18747
-0.180908
-0.16623
-0.180794
-0.178227
-0.197826
-0.16601
-0.175646
-0.192613
-0.151807
-0.13539
-0.155167
-0.122388
-0.107726
-0.090179
-0.082971
-0.06087
-0.065977
-0.058606
-0.034786
-0.00683
0.043263
0.044587
0.05962
0.1096
0.151947
0.216881
0.276699
0.325181
0.384975
0.42105
0.482993
0.498896
0.568731
0.620575
0.619824
0.649729
0.67804
0.67175
0.659192
0.619994
0.580484
0.54163
0.501745
0.45945
0.4068
0.366016
0.301542
0.236839
0.226419
0.219262
0.184086
0.151529
0.120173
0.106946
0.095871
0.022487
0.009635
-0.02918
-0.075368
-0.112032
-0.101211
-0.133011
-0.165845
-0.152749
-0.145714
-0.139719
-0.153021
-0.174211
-0.166426
-0.12022
-0.109382
-0.109079
-0.070471
-0.071978
-0.071245
-0.092187
-0.08479
-0.070547
-0.064866
-0.079689
-0.090587
-0.100312
-0.069919
-0.086349
-0.102693
-0.097399
-0.066853
-0.063173
-0.041701
-0.037606
-0.065018
-0.066739
-0.079205
-0.096401
-0.102095
-0.104905
-0.091526
-0.065798
-0.083399
-0.100476
-0.100196
-0.092078
-0.102291
-0.109975
-0.081641
-0.068445
-0.072977
-0.089821
-0.072161
-0.062689
-0.051426
-0.035341
-0.085414
-0.070698
-0.037044
-0.071225
-0.097522
-0.090812
-0.078502
-0.107008
-0.090964
-0.099563
-0.090396
-0.080414
-0.098506
-0.080276
-0.054866
-0.063836
-0.057705
-0.047318
-0.049994
-0.049981
-0.044706
-0.042981
-0.075273
-0.08626
-0.057382
-0.047682
-0.066107
-0.052961
-0.089988
-0.097298
-0.079361
-0.051789
-0.07366
-0.070248
-0.062162
-0.084844
-0.064704
-0.06843
-0.080386
-0.046997
-0.053627
-0.065572
-0.036614
-0.03421
-0.073599
-0.096675
-0.086354
-0.087895
-0.084264
-0.112439
-0.098003
-0.063295
-0.055318
-0.039987
-0.019969
-0.037954
-0.050794
-0.025228
-0.023244
-0.046528
-0.021972
-0.047794
-0.072358
-0.082522
-0.076739
-0.087212
-0.075143
-0.064929
-0.094569
-0.091256
-0.055923
-0.060028
-0.062235
-0.051817
-0.054166
-0.033505
-0.031722
-0.044575
-0.030282
-0.041435
-0.035638
-0.008701
-0.023078
-0.017259
-0.022617
-0.033334
-0.051708
-0.067464
-0.059971
-0.058266
-0.055542
-0.034324
-0.028657
-0.038838
-0.020052
-0.008726
-0.013802
-0.007385
-0.032668
-0.028762
-0.020154
-0.041448
-0.01203
-0.014471
-0.017892
-0.036606
-0.029975
-0.019661
-0.031482
-0.024946
-0.007754
-0.008974
-0.020856
-0.01926
-0.001954
-0.00768
0.01427
0.051051
0.030734
0.006192
0.010619
0.006614
0.033703
0.012889
0.00058
0.024899
0.034405
0.001249
-0.019917
-0.010625
-0.018334
-0.01245
-0.016704
0.005619
0.005479
0.036682
0.055774
0.054147
0.058775
0.070944
0.082961
0.076169
0.069114
0.068338
0.056108
0.043864
0.036311
0.033745
0.047559
0.057411
0.058814
0.04699
0.057553
0.069893
0.075626
0.069208
0.077403
0.063358
0.079068
0.083449
0.112282
0.103473
0.079622
0.086333
0.07933
0.04809
0.061225
0.04734
0.022679
0.015026
0.024845
0.039183
0.051188
0.040988
0.050498
0.063932
0.094088
0.104013
0.085996
0.074047
0.059063
0.062899
0.060677
0.069822
0.070133
0.033818
0.007662
0.019431
-0.003148
0.013976
0.001518
0.017553
0.02006
0.018102
0.041681
0.05213
0.020066
0.032807
0.030285
-0.000578
0.00323
0.017994
0.025703
0.014314
-0.043512
-0.050921
-0.043614
-0.066081
-0.080436
-0.105128
-0.06614
-0.050796
-0.05251
-0.052251
-0.045814
-0.050172
-0.041987
-0.035645
-0.012168
-0.015093
-0.019692
-0.014306
-0.023268
-0.053663
-0.063748
-0.097434
-0.113833
-0.115478
-0.100741
-0.11537
-0.112715
-0.076971
-0.078908
-0.085212
-0.082957
-0.06973
-0.070246
-0.067341
-0.060152
-0.044683
-0.060246
-0.070363
-0.09405
-0.090672
-0.092283
-0.111296
-0.117953
-0.100765
-0.093921
-0.09253
-0.104685
-0.113464
-0.119535
-0.12215
-0.098986
-0.094206
-0.096122
-0.094742
-0.091496
-0.095396
-0.078041
-0.086403
-0.096807
-0.09161
-0.091573
-0.103949
-0.138691
-0.119631
-0.089853
-0.078922
-0.104237
-0.131708
-0.13172
-0.102069
-0.098188
-0.079163
-0.06273
-0.065832
-0.074371
-0.073557
-0.085573
-0.080944
-0.093744
-0.087961
-0.086502
-0.10265
-0.121725
-0.11812
-0.098511
-0.092697
-0.087402
-0.091096
-0.105304
-0.144489
-0.131397
-0.108969
-0.084974
-0.082813
-0.054947
-0.059152
-0.086215
-0.075878
-0.07208
-0.091245
-0.121899
-0.09179
-0.105041
-0.108711
-0.087796
-0.092255
-0.119047
-0.109587
-0.073512
-0.083509
-0.083883
-0.081865
-0.074036
-0.079217
-0.068891
-0.071014
-0.049643
-0.036667
-0.065083
-0.056529
-0.051673
-0.063336
-0.089481
-0.089724
-0.08746
-0.088687
-0.098738
-0.081856
-0.058426
-0.060305
-0.060074
-0.053883
-0.048935
-0.050533
-0.055745
-0.077852
-0.072531
-0.074326
-0.101877
-0.065285
-0.10085
-0.116596
-0.128229
-0.102592
-0.128633
-0.11485
-0.071404
-0.065696
-0.066664
-0.050009
-0.064143
-0.054207
-0.045285
-0.053352
-0.045338
-0.028658
-0.032971
-0.045124
-0.042979
-0.04823
-0.052995
-0.062596
-0.071737
-0.099871
-0.115516
-0.093554
-0.084814
-0.096879
-0.091106
-0.091842
-0.079695
-0.052826
-0.042719
-0.037302
-0.038808
-0.041154
-0.050155
-0.067604
-0.086105
-0.096756
-0.092527
-0.108477
-0.07693
-0.072548
-0.090423
-0.087628
-0.07302
-0.085219
-0.077234
-0.079941
-0.090148
-0.08004
-0.077233
-0.065991
-0.062829
-0.057746
-0.040392
-0.055765
-0.076033
-0.107313
-0.094716
-0.104985
-0.107401
-0.099181
-0.113854
-0.102859
-0.080131
-0.068848
-0.098027
-0.094238
-0.095983
-0.074907
-0.05975
-0.086061
-0.069535
-0.070064
-0.050359
-0.06672
-0.055704
-0.030888
-0.073648
-0.078805
-0.102657
-0.094808
-0.08625
-0.11858
-0.103753
-0.103531
-0.082284
-0.091466
-0.070854
-0.078246
-0.096758
-0.060909
-0.056469
-0.06198
-0.067491
-0.06363
-0.050754
-0.058692
-0.090053
-0.100298
-0.103102
-0.111598
-0.081996
-0.108372
-0.14684
-0.137987
-0.118481
-0.109529
-0.087456
-0.086819
-0.096494
-0.100023
-0.083645
-0.0895
-0.091045
-0.078151
-0.06278
-0.074116
-0.091473
-0.09775
-0.101701
-0.088889
-0.109287
-0.094071
-0.08229
-0.07797
-0.086793
-0.102793
-0.087355
-0.09746
-0.104213
-0.072552
-0.067894
-0.082104
-0.067199
-0.071571
-0.089826
-0.079804
-0.070141
-0.073663
-0.103841
-0.114601
-0.134652
-0.119127
-0.100885
-0.081827
-0.07673
-0.098571
-0.091531
-0.096356
-0.104046
-0.083614
-0.088867
-0.078013
-0.065288
-0.076231
-0.071872
-0.086293
-0.096939
-0.108924
-0.133942
-0.120376
-0.122095
-0.107777
-0.114167
-0.102039
-0.101156
-0.105527
-0.085122
-0.075526
-0.063645
-0.071029
-0.08726
-0.090657
-0.068686
-0.061154
-0.08234
-0.105863
-0.098516
-0.068698
-0.070182
-0.085147
-0.08194
-0.092157
-0.094866
-0.100885
-0.105607
-0.109794
-0.110087
-0.095154
-0.087522
-0.058231
-0.060042
-0.088769
-0.106276
-0.087556
-0.062651
-0.092048
-0.132275
-0.127573
-0.111687
-0.106729
-0.109002
-0.112902
-0.104258
-0.134229
-0.141661
-0.143296
-0.11897
-0.088901
-0.070568
-0.060603
-0.045523
-0.056262
-0.055799
-0.060177
-0.082537
-0.075201
-0.096752
-0.122235
-0.098194
-0.107884
-0.100201
-0.105496
-0.082079
-0.078153
-0.105232
-0.122125
-0.114485
-0.089312
-0.078418
-0.076954
-0.074431
-0.057034
-0.055759
-0.082882
-0.079681
-0.074384
-0.093544
-0.108828
-0.131723
-0.145547
-0.108584
-0.100006
-0.085997
-0.095874
-0.101192
-0.093011
-0.091779
-0.071875
-0.049587
-0.068466
-0.070636
-0.065222
-0.06188
-0.086485
-0.080566
-0.085294
-0.072878
-0.094456
-0.087485
-0.088553
-0.089117
-0.133081
-0.115395
-0.106259
-0.07777
-0.060449
-0.073142
-0.084185
-0.067821
-0.068523
-0.060119
-0.053072
-0.070625
-0.065396
-0.055559
-0.097029
-0.08255
-0.074702
-0.094455
-0.09391
-0.096694
-0.091182
-0.07569
-0.081651
-0.06988
-0.053623
-0.04658
0.000858
-0.016958
-0.031467
-0.009187
-0.016963
-0.038829
-0.021335
-0.015879
-0.050287
-0.057107
-0.055669
-0.059945
-0.057669
-0.08153
-0.088192
-0.06852
-0.034422
-0.023579
-0.005347
-0.007448
0.007597
0.019738
0.018005
0.020742
0.006121
0.028898
0.004495
-0.022509
-0.024321
-0.024586
-0.042891
-0.051561
-0.046203
-0.048677
-0.022886
-0.023612
0.00246
-0.000024
0.012862
0.005436
0.039633
0.014311
0.019221
0.020735
0.030002
0.021784
0.001075
0.000389
0.005455
-0.010945
-0.029751
-0.036977
-0.044246
-0.053659
-0.022903
-0.012492
-0.020388
-0.045132
-0.028432
-0.015966
-0.00884
-0.008038
0.011185
-0.036177
-0.029523
-0.025407
-0.048432
-0.058868
-0.072887
-0.073999
-0.08067
-0.088534
-0.073994
-0.06925
-0.093496
-0.115292
-0.1114
-0.085784
-0.088193
-0.100333
-0.104376
-0.090827
-0.084504
-0.070361
-0.073493
-0.083405
-0.085774
-0.093335
-0.127937
-0.12587
-0.132888
-0.132875
-0.117832
-0.128264
-0.155942
-0.123903
-0.101757
-0.08023
-0.095233
-0.086219
-0.078738
-0.074784
-0.079591
-0.091095
-0.091004
-0.089981
-0.094901
-0.090307
-0.098884
-0.092814
-0.113543
-0.103653
-0.100412
-0.136159
-0.157739
-0.143622
-0.141737
-0.112832
-0.119701
-0.08649
-0.057485
-0.095594
-0.124902
-0.09333
-0.091868
-0.093751
-0.108343
-0.093744
-0.106825
-0.106614
-0.107969
-0.110601
-0.124001
-0.142257
-0.13726
-0.125967
-0.114462
-0.106065
-0.08317
-0.141689
-0.153536
-0.137039
-0.117623
-0.117899
-0.144788
-0.123813
-0.125065
-0.128899
-0.142424
-0.140635
-0.113838
-0.095426
-0.124981
-0.101699
-0.056481
-0.042969
-0.013197
-0.002423
0.047149
0.100005
0.133787
0.177661
0.212566
0.251084
0.284154
0.320594
0.35947
0.403898
0.458221
0.487887
0.515862
0.570343
0.585082
0.598118
0.627529
0.610033
0.628805
0.636119
0.646496
0.56534
0.556466
0.530818
0.485087
0.488847
0.431649
0.329732
0.262255
0.219591
0.209129
0.161638
0.138721
0.111824
0.091625
0.061792
0.021096
-0.006346
-0.006988
-0.056544
-0.084393
-0.097279
-0.118669
-0.087563
-0.068547
-0.085123
-0.076792
-0.090554
-0.098326
-0.074468
-0.072473
-0.073498
-0.097734
-0.094338
-0.092737
-0.114098
-0.089463
-0.068799
-0.062252
-0.03798
-0.046738
-0.064503
-0.052754
-0.036791
-0.038157
-0.021165
-0.022372
-0.023172
-0.038819
-0.077359
-0.049436
-0.05844
-0.037974
-0.067423
-0.068272
-0.064617
-0.061352
-0.066892
-0.065213
-0.059234
-0.027757
-0.03277
-0.034646
-0.022547
-0.02802
-0.01576
-0.040368
-0.053586
-0.047387
-0.027529
-0.046762
-0.055506
-0.07577
-0.100158
-0.077022
-0.066014
-0.046472
-0.038611
-0.024917
-0.045537
-0.041701
-0.054918
-0.047505
-0.047565
-0.027335
-0.028961
-0.03509
-0.028421
-0.028593
-0.031763
-0.027262
-0.020302
-0.025134
-0.033206
-0.052716
-0.058451
-0.062254
-0.046807
-0.04107
-0.042244
-0.021761
-0.022742
-0.021901
-0.041154
-0.021568
-0.003536
-0.017567
-0.038609
-0.014606
0.009386
-0.021982
-0.055657
-0.052744
-0.04604
-0.044424
-0.064202
-0.058809
-0.050968
-0.028161
-0.037195
-0.01991
-0.031309
-0.045919
-0.035692
-0.019575
-0.024142
-0.004129
0.01571
-0.006394
-0.026821
-0.0138
0.003905
-0.02961
-0.054781
-0.033198
-0.053273
-0.049962
-0.034054
-0.022969
-0.023697
-0.034293
-0.018992
-0.010243
-0.006258
0.007522
0.003974
-0.004319
0.009053
0.016022
-0.00604
0.000819
-0.008172
-0.01898
-0.074831
-0.049078
-0.016929
-0.010088
0.024837
0.0384
0.002089
-0.016442
0.009222
0.034095
-0.038199
-0.014559
-0.002033
0.012972
0.009848
0.005957
0.018753
0.014405
0.011551
0.002785
-0.018499
-0.013225
-0.023704
-0.039109
-0.017311
0.013214
-0.000053
0.009656
0.023631
0.045942
0.041154
0.048401
0.038724
0.054199
0.065648
0.055881
0.043238
0.037089
0.02649
0.026257
0.016354
0.012166
0.031533
0.039819
0.030351
0.023878
0.039325
0.055212
0.053387
0.077228
0.109295
0.09762
0.09331
0.101605
0.094976
0.081152
0.069129
0.063067
0.058946
0.054178
0.038722
0.039946
0.055291
0.088715
0.059573
0.061929
0.091977
0.094634
0.113355
0.12487
0.099183
0.11319
0.12536
0.107511
0.094179
0.09988
0.117491
0.07681
0.094702
0.120368
0.095871
0.08217
0.071215
0.071842
0.123594
0.106048
0.101164
0.088752
0.108763
0.111802
0.126212
0.126493
0.133129
0.113546
0.103353
0.102376
0.094182
0.08278
0.07088
0.063968
0.081894
0.0949
0.078981
0.06272
0.073448
0.078965
0.08513
0.122545
0.129491
0.113194
0.095809
0.054242
0.061597
0.06655
0.064997
0.077113
0.047982
0.046658
0.013978
-0.020359
-0.021889
-0.030948
-0.019705
-0.018644
-0.008457
-0.008076
0.032096
0.049122
0.016619
0.025638
0.037533
0.021704
0.029189
0.007693
0.018062
0.01191
-0.020218
-0.021539
-0.024594
-0.036321
-0.029893
-0.025573
-0.038915
-0.048626
-0.026837
-0.029591
-0.030021
-0.017024
-0.029814
-0.021858
-0.020484
-0.014884
-0.028223
-0.024253
-0.024943
-0.036975
-0.067157
-0.04839
-0.073968
-0.064541
-0.058581
-0.067336
-0.077244
-0.059771
-0.086338
-0.091122
-0.08148
-0.079468
-0.05301
-0.03711
-0.052255
-0.033226
-0.016935
-0.019227
-0.016877
-0.029732
-0.06075
-0.092403
-0.089199
-0.082597
-0.081337
-0.089749
-0.060031
-0.089282
-0.100284
-0.064824
-0.063469
-0.06472
-0.055907
-0.063504
-0.067923
-0.042401
-0.044785
-0.045816
-0.037029
-0.043032
-0.047988
-0.027382
-0.027969
-0.046308
-0.067063
-0.071702
-0.095532
-0.067495
-0.072781
-0.078926
-0.058491
-0.069494
-0.063602
-0.033651
-0.029739
-0.01205
-0.041567
-0.089687
-0.09425
-0.058693
-0.061651
-0.054694
-0.069704
-0.093651
-0.098454
-0.088662
-0.079137
-0.085812
-0.082673
-0.04478
0.013846
0.006161
-0.024703
-0.011703
0.013134
-0.023613
-0.023739
-0.017491
-0.027386
-0.033081
-0.041972
-0.05496
-0.065213
-0.036496
-0.053076
-0.04371
-0.037852
-0.08849
-0.025214
-0.025272
-0.02442
-0.035866
-0.027081
-0.032673
-0.032084
0.001111
0.010189
-0.034473
-0.037747
-0.028271
-0.030337
-0.045965
-0.060605
-0.061184
-0.034498
-0.028694
-0.03418
-0.029589
-0.033345
-0.009883
-0.029451
-0.03742
-0.038358
-0.025928
-0.028036
-0.018146
-0.005748
-0.012265
-0.024037
-0.032692
-0.036774
-0.036628
-0.019758
-0.036287
-0.036312
-0.032822
-0.03349
-0.025361
-0.035357
-0.010311
-0.024303
-0.005058
0.010386
0.007313
-0.007203
0.003505
-0.01494
-0.053512
-0.020149
-0.034706
-0.025759
-0.019283
-0.020024
-0.03832
-0.041838
-0.0294
-0.042737
-0.047697
-0.039216
-0.027554
-0.035366
-0.010544
-0.010394
-0.041858
-0.032459
0.017576
0.01722
-0.012471
-0.016917
-0.001385
-0.006099
-0.018483
-0.014556
-0.036813
-0.082152
-0.075959
-0.080503
-0.086749
-0.06437
-0.037919
-0.021678
-0.018094
-0.005782
-0.021184
-0.019249
0.001354
0.006333
0.005337
-0.018558
-0.016285
-0.024592
-0.046923
-0.065615
-0.074038
-0.060486
-0.044349
-0.029115
-0.044511
-0.06267
-0.043883
-0.02896
-0.031417
-0.016154
-0.018108
-0.008285
0.002582
0.023125
-0.007137
-0.064579
-0.07902
-0.047957
-0.037985
-0.04529
-0.040387
-0.058166
-0.05231
-0.062536
-0.061336
-0.044016
-0.027114
-0.050937
-0.026472
-0.012474
-0.001058
0.005368
-0.001529
-0.011793
-0.00102
0.005945
-0.035399
-0.05113
-0.032377
-0.030232
-0.045634
-0.034423
-0.051922
-0.060825
-0.070855
-0.029419
-0.039793
-0.042873
-0.065871
-0.029575
-0.034328
-0.024947
-0.004135
-0.012889
-0.027733
-0.013672
-0.032597
-0.045862
-0.042789
-0.042503
-0.028567
-0.026822
-0.066902
-0.075504
-0.031969
-0.055843
-0.042716
-0.03281
-0.025956
-0.043444
0.024732
0.020204
-0.003127
-0.031265
-0.042287
-0.022129
-0.035004
-0.042494
-0.04549
-0.038573
-0.067182
-0.071725
-0.056235
-0.041747
-0.033532
-0.017436
-0.023432
-0.017954
-0.043124
-0.02684
-0.037682
-0.020242
-0.011904
0.004132
-0.009307
-0.014982
-0.018112
-0.037917
-0.041542
-0.036345
-0.047541
-0.04873
-0.040693
-0.042491
-0.033718
-0.039309
-0.051395
-0.047297
-0.054579
-0.026299
-0.005129
-0.010453
-0.01293
0.005844
-0.005322
-0.037763
-0.026733
-0.02277
-0.029031
-0.050405
-0.042888
-0.066845
-0.086379
-0.056975
-0.0512
-0.044799
-0.049034
-0.038635
-0.028224
0.027887
-0.002126
-0.032579
0.006126
0.009242
-0.02326
-0.044105
-0.046508
-0.063998
-0.050306
-0.000583
-0.018229
-0.038181
-0.03946
-0.080666
-0.057351
-0.046746
-0.063579
-0.058922
-0.036109
-0.027414
-0.008946
-0.00056
-0.008072
-0.015198
-0.003397
-0.007805
-0.026309
-0.042611
-0.036925
-0.034521
-0.05331
-0.073467
-0.070169
-0.069015
-0.051417
-0.044007
-0.026306
-0.025519
-0.005336
-0.011959
-0.020204
-0.016751
0.000983
0.013375
0.003424
-0.020005
-0.019994
-0.036127
-0.01482
-0.036347
-0.040887
-0.038148
-0.045226
-0.047845
-0.060936
-0.068739
-0.050398
-0.051721
-0.042229
-0.026032
-0.022001
-0.037911
-0.036368
-0.027709
-0.029685
-0.035375
-0.022049
-0.029791
-0.040725
-0.038635
-0.050091
-0.033971
-0.045661
-0.043716
-0.027057
-0.035962
-0.033421
-0.013147
-0.010655
-0.010286
-0.033573
-0.036628
-0.03229
-0.030721
-0.033018
-0.017475
-0.008613
-0.00228
-0.033349
-0.058419
-0.0802
-0.07443
-0.057442
-0.052532
-0.018722
-0.022133
-0.010797
-0.041055
-0.052562
-0.007531
0.002124
-0.012318
-0.00603
0.000447
-0.003189
-0.040578
-0.031
-0.016037
-0.020325
-0.045589
-0.035564
-0.042221
-0.042125
-0.037057
-0.041464
-0.062061
-0.029763
-0.004258
-0.017776
-0.024711
-0.007988
-0.014285
-0.009782
-0.004992
-0.019209
-0.022674
-0.016406
-0.032691
-0.033495
-0.036059
-0.020574
-0.019713
-0.042257
-0.040631
-0.016827
-0.007308
-0.022839
-0.008679
0.000926
0.001297
0.019385
0.007942
0.036916
0.036533
0.045011
0.025027
0.0099
0.012487
0.017609
0.015743
0.013168
0.031027
0.018699
0.003084
0.031935
0.019233
0.009073
0.029172
0.055893
0.071212
0.051364
0.053223
0.060067
0.072451
0.061226
0.056907
0.045702
0.053124
0.073166
0.039975
0.024345
0.036655
0.026218
0.021488
0.03473
0.03487
0.034303
0.051831
0.066873
0.091784
0.112149
0.110758
0.069491
0.081319
0.0885
0.041382
0.050848
0.066607
0.068042
0.032673
0.012906
0.037035
0.040382
0.029265
0.004025
0.022962
0.017654
0.01111
0.053532
0.075432
0.033656
0.020163
0.044059
0.054263
0.017658
0.035946
0.021359
-0.007391
-0.021883
-0.021784
-0.02374
-0.039433
-0.032252
-0.024007
-0.034157
-0.016998
0.009643
-0.020698
-0.036383
-0.013231
0.003965
-0.003013
-0.009909
-0.00689
-0.036111
-0.03772
-0.030915
-0.022605
-0.036495
-0.066865
-0.073756
-0.068651
-0.074711
-0.058624
-0.05252
-0.028058
-0.021201
-0.0263
-0.002729
-0.042853
-0.047103
-0.041952
-0.038934
-0.028648
-0.024032
-0.010645
-0.027761
-0.037012
-0.043574
-0.049364
-0.065511
-0.065951
-0.077642
-0.045397
-0.047787
-0.045774
-0.02517
-0.052183
-0.037394
-0.044925
-0.046679
-0.044724
-0.040458
-0.018902
-0.048705
-0.022959
-0.043195
-0.037204
-0.038533
-0.059244
-0.068591
-0.058326
-0.060245
-0.083929
-0.056853
-0.036444
-0.037559
-0.03346
-0.050984
-0.048258
-0.049981
-0.037808
-0.06295
-0.070879
-0.076437
-0.077003
-0.075528
-0.060062
-0.05981
-0.050872
-0.056479
-0.051464
-0.049721
-0.024298
-0.015764
0.002849
0.03379
0.045172
0.088588
0.145645
0.193206
0.228766
0.243231
0.279194
0.340977
0.366266
0.399281
0.42944
0.478405
0.532419
0.570241
0.607375
0.629607
0.639689
0.665526
0.730011
0.76351
0.769286
0.773692
0.750378
0.751121
0.702193
0.640145
0.575475
0.53387
0.485684
0.402293
0.338623
0.266903
0.246108
0.227031
0.20046
0.173097
0.151725
0.109
0.071437
0.090003
0.060829
0.01989
-0.041177
-0.03287
-0.010638
0.001435
-0.014051
-0.037263
-0.055847
-0.059821
-0.045802
-0.05859
-0.06445
-0.054396
-0.059452
-0.048087
-0.021655
-0.044532
-0.032967
-0.016241
0.008939
0.052399
0.074234
0.042021
0.014646
-0.001917
0.023384
0.016702
0.01433
0.024
0.054272
0.007595
-0.024064
-0.000855
-0.006365
0.007177
-0.000191
-0.013552
-0.004438
0.007898
0.01082
0.035277
0.02638
0.024018
0.032744
0.018766
0.00001
0.008679
0.010757
0.018973
0.017826
-0.004497
-0.001198
-0.002355
0.008565
-0.025609
-0.018367
0.009169
0.013456
-0.001642
0.006349
0.014098
0.024044
-0.001952
-0.015977
-0.004753
0.027217
0.005488
0.029186
0.025687
0.023367
0.004526
-0.005059
0.008225
0.014097
0.023699
0.01258
-0.002199
0.007452
0.006479
0.011374
0.021974
0.036995
0.042836
0.048185
0.043618
0.045259
0.041777
0.035216
0.047304
0.018395
0.003036
0.012617
-0.000286
-0.005342
0.019574
0.007158
-0.013062
-0.01156
0.016385
0.006948
0.013605
0.040379
0.028234
0.023406
0.044093
0.041656
0.052343
0.054404
0.040212
0.019376
0.019906
0.024903
0.014618
-0.006242
0.00258
0.003825
-0.001127
0.004928
0.014785
0.030427
0.049895
0.064269
0.048305
0.065382
0.052405
0.036973
0.045254
0.048209
0.047013
0.023284
0.023522
0.013675
0.016274
0.016561
0.020212
0.037965
0.023245
0.025856
0.036734
0.061528
0.074734
0.087395
0.067497
0.073864
0.087264
0.081933
0.06101
0.049215
0.018187
0.026052
0.039147
0.035294
0.015833
0.033662
0.06133
0.033342
0.042551
0.067526
0.051072
0.073535
0.080119
0.112245
0.105862
0.075987
0.094129
0.085122
0.064393
0.067705
0.069379
0.098357
0.080718
0.079999
0.076624
0.089509
0.082553
0.084134
0.093549
0.099893
0.093686
0.100562
0.10037
0.124441
0.136483
0.1278
0.098343
0.109034
0.121468
0.133247
0.130524
0.129603
0.103293
0.129341
0.147505
0.141554
0.132396
0.117602
0.134294
0.154431
0.16764
0.15758
0.17129
0.176575
0.175686
0.184298
0.164924
0.142279
0.152549
0.164311
0.164027
0.152776
0.135148
0.134518
0.148044
0.149202
0.142464
0.118192
0.137784
0.136033
0.136657
0.147347
0.16573
0.178184
0.158607
0.156574
0.178649
0.179227
0.183527
0.191906
0.183954
0.173005
0.148972
0.142558
0.101278
0.098126
0.150632
0.155808
0.148251
0.111108
0.125432
0.152005
0.161714
0.142288
0.127394
0.136871
0.119473
0.117953
0.121858
0.128698
0.097093
0.092366
0.086349
0.102077
0.071631
0.087953
0.078856
0.07074
0.080876
0.047386
0.048687
0.072136
0.097934
0.082349
0.069104
0.094858
0.089526
0.070803
0.054155
0.055218
0.060496
0.051124
0.021407
0.003914
0.010652
-0.017737
-0.001506
0.018026
0.025253
0.012308
0.009095
0.005133
0.019914
0.027538
0.006961
0.039049
0.024653
-0.006029
0.01138
0.026518
0.0328
0.021663
0.000341
0.014026
-0.005403
-0.01027
-0.036702
-0.025305
-0.017791
-0.02665
-0.021916
-0.014267
0.001829
0.015191
0.003417
-0.017182
-0.016433
-0.0134
-0.011264
-0.017929
-0.015493
-0.004846
-0.021686
-0.034166
-0.036837
-0.042452
-0.036546
-0.03812
-0.034085
-0.047423
-0.01145
0.012503
0.000026
-0.002716
0.002752
0.002864
0.013803
0.022149
-0.005796
-0.007864
0.000256
0.00066
-0.00303
-0.022952
-0.039741
-0.023456
-0.04394
-0.043733
-0.066054
-0.020603
-0.008144
-0.01883
-0.022938
-0.010691
-0.012399
-0.011367
-0.022487
-0.022239
-0.031855
-0.03145
-0.01358
-0.01751
-0.026161
-0.034447
-0.021027
-0.003654
-0.026824
-0.034495
-0.019558
-0.024773
-0.030064
0.002573
0.000206
-0.015908
-0.016161
-0.001222
-0.002811
0.011615
0.000945
0.004862
-0.015514
-0.020404
-0.034285
-0.039128
-0.033092
-0.024655
-0.012994
-0.007599
-0.001619
0.011013
-0.006447
-0.005957
0.011346
0.008817
0.0185
0.011946
0.026832
0.028826
0.008505
0.00792
0.009052
0.011084
-0.004861
-0.026207
-0.033292
-0.034627
0.005605
0.031373
-0.000897
-0.008867
-0.015296
0.005591
0.013849
0.013277
0.006683
0.022608
0.025679
0.018545
0.028748
0.027725
0.016508
-0.008262
-0.007874
-0.002168
-0.042126
-0.048623
-0.0345
-0.016871
0.001908
-0.009467
0.00826
0.035974
0.046431
0.042929
0.029122
0.037978
0.019182
0.015115
0.009253
0.014921
0.018462
-0.000205
0.014896
0.01507
-0.03201
-0.020451
0.001485
-0.009354
-0.002881
0.004793
0.009219
0.021564
0.016514
0.012907
0.021853
0.038746
0.040121
0.053953
0.022898
0.015822
0.020543
0.01085
0.006365
0.000042
-0.001978
-0.018296
-0.024319
-0.024664
-0.008566
0.012999
0.011386
0.002301
-0.008513
0.010425
0.021808
0.022931
0.03274
0.012195
0.001706
0.009291
-0.015935
-0.04646
-0.025051
-0.01005
-0.021797
-0.025039
-0.012261
-0.006539
-0.004134
0.026344
0.027683
-0.015857
0.024542
0.042025
0.02627
0.023353
0.016808
0.031514
-0.024238
-0.019993
-0.018287
-0.012254
-0.01443
-0.044548
-0.039358
-0.009958
-0.022456
0.004155
0.016045
0.004747
-0.003489
0.022875
0.018306
0.020175
0.004566
0.028889
0.042656
0.019788
0.017437
0.02479
-0.001013
-0.007898
-0.022558
-0.026929
-0.041198
-0.02656
-0.033563
-0.012578
-0.015755
-0.029123
-0.029612
-0.019475
0.015038
0.040719
0.044683
0.047335
0.040939
0.028276
0.016378
0.010108
-0.003132
-0.009987
-0.024503
-0.039779
-0.032806
-0.037212
-0.023526
-0.01506
-0.016794
-0.01061
0.001339
0.006351
0.010408
0.026784
0.026033
0.012515
-0.008974
0.009063
0.023296
0.015124
0.004904
-0.026833
-0.031923
-0.025152
-0.036992
-0.037247
-0.00679
-0.00398
-0.00805
0.016126
0.001818
0.009557
0.010673
0.004501
0.012419
0.035009
0.050221
0.001979
-0.00847
0.005771
-0.008318
-0.019523
-0.014219
-0.007817
-0.023017
-0.035953
-0.017297
-0.011419
-0.00513
0.005886
0.00383
0.006445
0.016488
0.022188
0.020474
0.025993
0.022303
0.007709
0.002044
-0.007827
-0.023155
-0.026062
-0.014925
-0.023391
-0.024756
-0.038518
-0.050872
-0.012695
-0.043614
-0.040595
-0.011481
-0.005804
0.019623
0.053313
0.058035
0.026157
0.044994
0.024343
0.006846
-0.025509
-0.030318
-0.033216
-0.026359
-0.039977
-0.03888
-0.0401
-0.044048
-0.031848
0.003976
-0.010779
0.020097
0.008355
0.014421
0.003289
-0.003735
-0.004834
-0.019476
-0.003955
0.019528
-0.00392
-0.008656
-0.003296
-0.018829
-0.014364
-0.019862
-0.021972
-0.025705
-0.000748
0.012151
0.008899
0.000682
-0.000031
0.015655
0.014748
0.010399
-0.001403
0.00645
0.008197
0.008828
0.024291
0.019188
-0.012707
-0.011888
-0.035465
-0.045442
-0.020171
-0.027928
-0.036285
-0.013508
-0.026463
-0.030306
-0.016336
0.013205
-0.011965
-0.008794
0.012775
0.018575
0.008844
-0.019996
-0.010531
0.003315
-0.009138
-0.026963
-0.028822
-0.031085
-0.040106
-0.023192
-0.026585
-0.022882
-0.031201
0.000944
0.034036
0.026741
0.010646
-0.014991
-0.007198
0.023592
-0.009371
-0.020846
-0.039406
-0.003388
0.009537
-0.002774
-0.006301
-0.047365
-0.070375
-0.041842
-0.022903
0.003896
0.008838
0.005667
0.01895
0.03777
0.036694
0.024859
0.003666
-0.017831
-0.005728
0.000021
0.019751
0.020066
0.027784
-0.009086
-0.050488
-0.050398
-0.05488
-0.040557
-0.037276
-0.0093
-0.049974
-0.030583
-0.021125
-0.006779
0.014614
0.004308
0.001169
0.001544
-0.009
-0.000351
-0.015514
-0.026838
-0.028439
-0.034121
-0.035712
-0.037275
-0.038325
-0.031819
-0.027805
-0.015882
-0.006709
0.017773
0.027827
0.019789
0.017694
0.021426
0.032126
0.024418
0.002719
-0.015239
-0.03526
-0.027544
0.001202
-0.032188
-0.035737
-0.030717
-0.017765
-0.02641
-0.030586
-0.008489
0.002112
0.013534
0.010477
0.012274
-0.001277
0.022899
0.027737
0.026652
0.01339
0.011147
0.014535
0.027791
0.024258
0.017562
0.020911
0.020721
0.023409
0.036052
0.042632
0.074605
0.080152
0.06463
0.038836
0.071806
0.062543
0.062484
0.102124
0.084171
0.048567
0.069363
0.058525
0.055298
0.045343
0.005701
0.038413
0.041954
0.041864
0.050985
0.052642
0.04641
0.053414
0.065287
0.060004
0.071857
0.083142
0.087189
0.091141
0.099014
0.089923
0.103797
0.115797
0.084146
0.047776
0.055453
0.038404
0.037895
0.063378
0.083289
0.081824
0.037083
0.04878
0.053386
0.064481
0.058849
0.079942
0.054667
0.065596
0.053516
0.046426
0.064938
0.056756
0.005358
0.00641
0.023323
0.017298
-0.022951
-0.032231
0.003655
0.006787
-0.029822
-0.009226
0.013308
0.009848
-0.000027
0.015477
0.001977
-0.01536
-0.005129
-0.010518
-0.009333
-0.00351
-0.016624
-0.018636
-0.007094
-0.027074
-0.052819
-0.072564
-0.055472
-0.037907
-0.047208
-0.052253
-0.038962
-0.021361
-0.017277
-0.00177
0.019521
-0.00979
-0.03409
-0.027994
-0.020936
-0.033454
-0.029895
-0.061389
-0.065128
-0.066112
-0.057172
-0.064278
-0.052431
-0.057822
-0.042434
-0.022435
-0.026519
-0.009135
0.002035
-0.003493
-0.000974
-0.000579
-0.021625
-0.0368
-0.02451
-0.030578
-0.03126
-0.064295
-0.055583
-0.047481
-0.060102
-0.05848
-0.040713
-0.025802
-0.028184
-0.032146
-0.022315
-0.017845
-0.032889
-0.05482
-0.03115
-0.03483
-0.034202
-0.029739
-0.035653
-0.077168
-0.087208
-0.09717
-0.0959
-0.072607
-0.07416
-0.069194
-0.072208
-0.06136
-0.045453
-0.025792
0.020165
0.025914
0.045893
0.037623
0.067559
0.120731
0.162747
0.196
0.229594
0.254457
0.303512
0.354098
0.378756
0.406548
0.456529
0.522909
0.575549
0.593701
0.638531
0.702869
0.724167
0.768902
0.783495
0.767343
0.762448
0.743789
0.696639
0.681248
0.650111
0.609069
0.569222
0.492832
0.404509
0.349718
0.295876
0.27944
0.255411
0.23414
0.206863
0.193616
0.161815
0.126711
0.097503
0.052392
0.019855
0.018361
0.0258
0.023778
-0.016566
-0.031176
-0.045767
-0.043011
-0.04802
-0.033829
-0.017953
-0.04965
-0.061957
-0.054288
-0.007429
0.020943
0.02218
0.002467
0.010605
0.006879
0.062028
0.040353
0.021503
0.02904
0.012564
0.005004
0.001225
-0.00651
0.005949
0.002465
0.00644
0.005294
0.00225
0.006311
0.013106
0.015969
0.010932
0.014337
0.019525
0.024666
0.019631
0.025528
0.025417
0.018893
0.015498
0.017256
0.02372
0.026234
0.027154
-0.016917
-0.01853
-0.003814
-0.000704
-0.002615
0.021905
0.034063
0.034719
0.05746
0.066846
0.063744
0.034248
0.056591
0.060022
0.055555
0.042781
0.029352
0.001708
-0.002848
0.021816
0.005206
-0.017555
0.004213
0.006843
0.016249
0.02466
0.025031
0.012485
0.017572
0.031263
0.037698
0.029933
0.023722
0.039137
0.055263
0.047979
0.023251
0.009825
0.003958
-0.001163
0.018439
0.017867
0.03466
0.040072
0.015207
0.021224
0.049066
0.049123
0.052447
0.036973
0.05967
0.050609
0.038641
0.050152
0.056258
0.045724
0.051565
0.05574
0.015005
-0.001207
-0.00483
0.00686
0.005938
0.037432
0.044832
0.035347
0.034404
0.02707
0.056706
0.05551
0.057367
0.071942
0.07599
0.067935
0.047089
0.056897
0.057975
0.028245
0.02764
0.026312
0.032485
0.045492
0.014676
0.030188
0.04089
0.046914
0.062265
0.060324
0.043135
0.062215
0.06748
0.06805
0.054545
0.073297
0.092598
0.067264
0.044797
0.068492
0.070435
0.014726
0.003031
0.006727
0.027677
0.058457
0.056421
0.075461
0.094126
0.09508
0.076144
0.089856
0.054501
0.049378
0.08182
0.080608
0.105585
0.077505
0.072448
0.087589
0.094317
0.063858
0.092402
0.087912
0.095984
0.113022
0.103314
0.06577
0.090614
0.098004
0.099265
0.0985
0.124207
0.119061
0.121939
0.119626
0.117839
0.122446
0.128015
0.131666
0.113025
0.118232
0.106346
0.098474
0.122105
0.122224
0.116999
0.122111
0.147895
0.165159
0.175576
0.18783
0.183535
0.168233
0.169193
0.144547
0.144398
0.186471
0.172216
0.150117
0.152133
0.138774
0.131491
0.130424
0.139921
0.136619
0.151466
0.164324
0.161948
0.180272
0.192874
0.198909
0.20266
0.187791
0.199623
0.188114
0.182879
0.201703
0.165874
0.149541
0.142434
0.149972
0.13251
0.108957
0.132949
0.150991
0.159989
0.129704
0.138955
0.157651
0.160067
0.12864
0.15583
0.160714
0.165575
0.16315
0.156884
0.135378
0.10106
0.115168
0.119979
0.08337
0.068135
0.09519
0.089276
0.091953
0.113587
0.100015
0.084549
0.103101
0.089478
0.10176
0.10446
0.073234
0.053766
0.056231
0.070855
0.050436
0.046918
0.059997
0.051247
0.024565
0.040612
0.011198
0.003105
0.020974
0.031784
0.016857
0.026254
0.043944
0.044549
0.030772
0.019685
0.017565
0.028707
0.067556
0.028084
-0.002657
0.008181
0.011856
0.013554
0.00731
0.006043
-0.026076
-0.013184
-0.006425
0.009073
0.021545
0.030629
0.012944
0.000503
0.012368
0.021048
0.027975
0.015293
0.018283
-0.000719
-0.015182
0.011152
-0.007068
-0.034369
-0.031864
-0.030274
-0.026906
-0.041098
-0.046415
-0.033127
-0.03048
-0.017362
0.002756
-0.003555
0.002084
-0.009124
0.000305
0.009501
0.016567
0.016906
-0.005527
-0.03445
-0.024472
-0.034674
-0.018106
-0.040838
-0.05576
-0.066013
-0.041503
-0.041401
-0.030998
-0.032966
-0.020936
-0.004354
0.005214
0.018119
-0.002147
0.008511
-0.001442
-0.008607
-0.012562
-0.021809
-0.039163
-0.030564
-0.040898
-0.018513
-0.044441
-0.021212
-0.004859
-0.017633
-0.011277
-0.000658
0.001729
0.009938
0.018289
0.038128
0.022684
0.007097
0.022648
-0.01235
-0.000292
-0.020618
-0.032894
-0.021413
-0.044422
-0.040665
-0.033484
-0.038415
0.006783
0.000386
-0.024974
-0.009176
0.000631
0.011366
0.033951
0.027084
0.004114
0.007874
0.00975
0.019514
0.003368
-0.009504
-0.003784
-0.007614
-0.015337
0.002098
0.00926
-0.005185
-0.023807
-0.002739
-0.003292
-0.008945
0.001353
0.001128
0.004606
0.029967
0.040488
0.043974
0.016853
0.010986
0.016369
0.012851
0.016271
-0.003349
-0.013723
-0.007293
0.004492
-0.030415
-0.014316
-0.027886
-0.037093
-0.024633
-0.004335
0.018165
0.029963
0.02407
0.010677
0.030615
0.02887
0.003163
0.007098
0.013178
0.004956
-0.009727
0.006606
0.002142
-0.003805
-0.002669
0.010378
0.002058
-0.012991
-0.016349
0.010082
-0.000971
0.008195
0.034026
0.036216
0.015086
0.005854
-0.002945
-0.006748
0.013908
0.009689
-0.030397
-0.027068
-0.012501
-0.036024
-0.019755
-0.015483
-0.028762
-0.01393
0.005776
0.006572
0.000951
0.022934
0.016739
0.004623
0.023408
0.010629
0.012511
0.023612
0.005802
0.000193
-0.023353
-0.048279
-0.0277
-0.008236
-0.036852
-0.012034
-0.014267
0.01812
0.022663
-0.002366
0.004455
0.000829
0.009114
0.03364
0.011855
-0.001756
0.005208
-0.012017
-0.010092
-0.029415
-0.016106
-0.022716
-0.014172
-0.024995
-0.049689
-0.019082
-0.008619
-0.02412
0.00862
0.009035
-0.00869
-0.014509
0.014255
0.029781
0.012534
-0.002352
-0.006847
-0.005948
0.003866
-0.010951
-0.028119
-0.039074
-0.034506
-0.049286
-0.037593
-0.047525
-0.048417
-0.030739
-0.013129
0.009127
0.006013
-0.010699
-0.004405
0.006382
0.000718
-0.025509
-0.006396
-0.004265
-0.016804
-0.013746
-0.017984
-0.048068
-0.02731
-0.047346
-0.029806
-0.026189
-0.024797
-0.031649
-0.019236
-0.006866
-0.007948
-0.001532
0.023069
0.008059
0.000047
-0.000987
-0.00757
-0.016294
0.004252
0.01078
-0.034646
-0.044825
-0.039633
-0.032704
-0.030911
-0.044199
-0.037815
-0.004921
-0.014753
0.000773
0.031721
-0.007119
-0.006684
-0.00007
0.003372
-0.009391
-0.031598
-0.034763
-0.015805
-0.028789
-0.038429
-0.027398
-0.03391
-0.024068
-0.019146
-0.013958
-0.018175
-0.028392
-0.020614
-0.02009
-0.012198
-0.007255
-0.006595
0.000334
0.023802
0.005827
-0.00788
-0.029827
-0.012036
-0.013635
-0.033687
-0.025178
-0.002951
0.001059
-0.043553
-0.055102
-0.044943
-0.005428
-0.050992
-0.037377
-0.01986
-0.019493
0.000365
0.013231
0.005586
0.018551
-0.013565
-0.009546
-0.010497
-0.008007
-0.052979
-0.050096
-0.05937
-0.052135
-0.042119
-0.027854
-0.021362
0.004375
0.001243
-0.024122
-0.023087
-0.034349
-0.030277
-0.007478
0.00459
0.010869
-0.006467
-0.024706
-0.041578
-0.048461
-0.054425
-0.072932
-0.060096
-0.038152
-0.046251
-0.020868
-0.037619
-0.033347
-0.010156
0.018714
0.00575
0.015926
0.026792
0.016542
-0.007066
-0.009638
0.001566
0.000272
-0.02082
-0.042508
-0.055429
-0.030497
-0.064697
-0.058497
-0.045216
-0.038328
-0.041401
-0.054033
-0.051048
-0.039521
-0.007384
0.014923
0.006867
0.018207
0.011792
-0.000575
-0.010685
-0.019447
-0.011778
-0.021111
-0.044009
-0.046718
-0.017939
-0.016689
-0.0224
-0.061187
-0.048695
-0.013466
-0.001133
-0.010448
-0.02073
0.015977
0.008572
-0.002011
-0.011264
-0.007485
0.002855
-0.00528
-0.022516
-0.037249
-0.060783
-0.068089
-0.058139
-0.059757
-0.038009
-0.027076
-0.043191
-0.03083
-0.024379
-0.010312
-0.001721
0.007618
-0.000608
-0.003497
-0.010744
-0.032121
-0.039865
-0.040902
-0.029499
-0.024009
-0.055362
-0.061678
-0.04375
-0.04562
-0.024603
-0.030683
-0.041894
-0.011469
-0.009026
-0.008798
-0.032415
-0.029652
-0.012198
-0.023333
-0.016167
-0.035306
-0.045502
-0.036301
-0.011831
-0.009791
-0.042704
-0.028331
-0.038062
-0.050763
-0.026713
-0.019436
-0.031181
0.001575
-0.017827
-0.021378
-0.004695
0.008281
-0.017468
-0.018527
-0.030536
-0.021003
-0.034231
-0.0341
-0.028566
-0.017254
-0.030871
-0.05151
-0.061653
-0.050157
-0.040098
-0.042102
-0.038671
-0.027892
-0.010136
0.00852
0.015864
0.021041
0.010768
-0.011876
-0.014359
0.003927
-0.024361
-0.024943
-0.047948
-0.021423
-0.026328
-0.014629
-0.00581
-0.037585
-0.01979
-0.01047
-0.014075
0.019897
0.027649
0.077128
0.075943
0.043687
0.045597
0.050348
0.04475
0.062332
0.052126
0.031194
0.038006
0.037373
0.017783
0.031862
0.04335
0.035366
0.040778
0.010028
0.019926
0.035995
0.034321
0.075069
0.083261
0.090604
0.03093
0.014173
0.064145
0.051561
0.051246
0.045513
0.057714
0.040435
0.041879
0.061854
0.049251
0.060295
0.081136
0.0683
0.04789
0.0627
0.05369
0.089285
0.078784
0.052299
0.045844
0.059446
0.067943
0.066548
0.043072
0.04162
0.071416
0.055482
0.011553
-0.021406
-0.032833
-0.002277
0.009632
-0.00736
0.005686
0.015251
0.01684
0.00921
0.008133
0.006472
0.012066
0.011688
-0.009777
-0.011985
-0.025787
-0.05085
-0.048482
-0.02657
-0.036315
-0.07031
-0.037824
-0.031408
-0.043571
-0.025443
-0.022431
-0.021206
-0.022507
-0.022731
-0.022996
-0.012928
-0.023745
-0.018841
-0.036219
-0.052793
-0.066132
-0.064934
-0.039532
-0.025343
-0.057396
-0.059197
-0.069076
-0.065934
-0.074517
-0.06582
-0.036717
-0.047688
-0.064672
-0.074282
-0.058478
-0.044036
-0.040404
-0.046178
-0.043708
-0.047273
-0.040905
-0.042354
-0.017298
-0.039293
-0.066353
-0.06558
-0.066821
-0.084856
-0.0811
-0.066895
-0.055823
-0.039965
-0.038385
-0.043756
-0.051202
-0.038393
-0.011782
-0.038105
-0.01126
-0.052709
-0.04128
-0.041456
-0.066209
-0.088596
-0.098898
-0.10461
-0.115569
-0.11275
-0.099888
-0.074759
-0.093381
-0.090821
-0.067801
-0.045821
-0.049421
-0.017969
-0.001195
-0.012867
-0.016716
-0.011959
0.033144
0.067826
0.087668
0.08312
0.131103
0.183496
0.181459
0.222386
0.276771
0.325837
0.381519
0.45823
0.495808
0.534249
0.583646
0.619546
0.684755
0.712386
0.730437
0.743858
0.750744
0.756101
0.721934
0.712726
0.634567
0.582108
0.577239
0.519718
0.493943
0.454788
0.353889
0.303114
0.304271
0.270121
0.245677
0.226293
0.216775
0.174256
0.139769
0.112627
0.067542
0.035552
0.006368
-0.037801
-0.047714
-0.062435
-0.063699
-0.089312
-0.080021
-0.075621
-0.080087
-0.050789
-0.04614
-0.042733
-0.021013
-0.02137
-0.003163
-0.017288
-0.005549
0.00537
0.019433
0.019879
-0.011804
-0.023678
-0.024637
-0.017477
-0.01303
-0.01304
-0.00068
-0.008902
-0.018547
-0.00195
0.001678
0.016234
0.005463
0.024305
0.020739
0.022811
-0.020914
-0.035019
-0.019301
-0.011291
-0.02523
-0.020958
-0.002299
-0.022129
-0.008256
-0.025693
-0.038954
-0.038548
-0.033807
-0.022038
0.002963
0.000859
0.005529
0.002778
-0.009252
0.005096
0.016896
0.006813
0.011675
0.019489
-0.008837
-0.045171
-0.034059
-0.029007
-0.027043
-0.022416
-0.036943
-0.030702
-0.017562
-0.010952
0.01361
0.009649
0.002179
-0.014431
-0.022396
-0.000695
-0.004821
0.045808
0.034021
-0.006145
-0.004091
0.008485
-0.002763
-0.021457
-0.01366
0.007784
0.013229
-0.015762
-0.02744
-0.002087
-0.017957
-0.035299
-0.006259
0.007645
-0.000565
0.00805
0.035606
0.036499
0.037072
0.025539
-0.024793
-0.04123
-0.037169
-0.034538
-0.044292
-0.002159
0.002186
-0.006296
-0.015765
0.012486
0.006549
0.02666
0.007239
0.008057
0.032504
0.047328
0.046589
0.031341
-0.000228
0.005102
-0.004987
-0.017824
-0.043312
-0.062828
0.003487
0.01201
0.014421
0.017796
0.013969
0.024795
0.024208
0.027783
0.034144
0.038198
0.048249
0.05924
0.041083
0.010904
0.025874
0.015028
-0.018691
-0.028403
-0.003763
0.00393
0.002486
-0.004709
-0.002505
0.000652
0.005369
0.030582
0.060442
0.045822
0.037648
0.047636
0.069287
0.043535
0.049402
0.047237
0.032979
0.032052
0.034534
0.030304
0.028103
0.032525
0.040522
0.045263
0.042483
0.037706
0.0339
0.035818
0.054004
0.091776
0.084605
0.092145
0.082609
0.072823
0.070578
0.062429
0.061851
0.064643
0.088112
0.059274
0.071114
0.084158
0.076115
0.086026
0.083779
0.071924
0.07536
0.09548
0.086765
0.076086
0.079731
0.125058
0.139302
0.136566
0.112974
0.142094
0.132602
0.126738
0.095321
0.097583
0.111994
0.107461
0.099652
0.096176
0.09643
0.109297
0.147806
0.131718
0.12342
0.138532
0.15094
0.170939
0.154818
0.137317
0.14633
0.156458
0.155431
0.146234
0.135768
0.122136
0.127364
0.113098
0.118563
0.12837
0.135244
0.100862
0.107698
0.130007
0.137227
0.134815
0.135125
0.133174
0.161069
0.140175
0.124124
0.118353
0.108396
0.098616
0.080254
0.084601
0.090391
0.065606
0.059512
0.062833
0.069834
0.06513
0.072988
0.087122
0.067805
0.05691
0.064521
0.08808
0.0804
0.079903
0.048124
0.051155
0.034393
0.03302
0.022941
0.035767
-0.006599
-0.034522
-0.02071
-0.002403
0.008803
0.015993
0.008235
-0.005723
-0.021103
0.000008
0.035223
0.031585
0.008199
0.019239
0.010004
-0.01558
-0.034959
-0.039814
-0.025631
-0.033688
-0.048266
-0.058428
-0.0569
-0.044428
-0.034037
-0.044364
-0.038216
-0.045427
-0.029842
-0.015103
-0.042461
-0.027696
-0.014089
-0.010536
-0.036323
-0.05709
-0.071501
-0.059681
-0.082359
-0.086536
-0.10264
-0.090372
-0.080203
-0.071218
-0.068447
-0.098174
-0.087222
-0.078812
-0.072482
-0.069254
-0.068923
-0.051736
-0.047533
-0.030888
-0.042493
-0.050154
-0.041071
-0.055346
-0.069728
-0.074817
-0.071853
-0.075634
-0.084796
-0.083727
-0.068279
-0.056554
-0.046247
-0.05795
-0.061352
-0.065642
-0.059985
-0.055798
-0.05554
-0.062661
-0.066222
-0.063974
-0.077431
-0.086945
-0.083709
-0.063679
-0.100997
-0.112164
-0.102063
-0.079847
-0.075676
-0.061768
-0.062076
-0.077716
-0.047727
-0.05163
-0.047423
-0.058854
-0.08213
-0.065107
-0.05055
-0.05514
-0.052422
-0.060368
-0.075536
-0.077896
-0.070647
-0.090979
-0.099356
-0.07927
-0.073475
-0.086484
-0.083823
-0.043299
-0.052199
-0.032387
-0.061249
-0.045825
-0.018804
-0.045057
-0.05756
-0.051646
-0.061491
-0.073686
-0.083636
-0.0465
-0.063499
-0.082226
-0.060932
-0.089877
-0.080152
-0.068683
-0.048775
-0.041903
-0.02422
-0.020801
-0.022331
-0.024308
-0.029353
-0.02359
-0.019827
-0.027088
-0.031098
-0.047744
-0.04728
-0.054715
-0.064524
-0.110945
-0.081639
-0.063184
-0.044479
-0.033526
-0.039782
-0.04105
-0.042364
-0.02741
-0.033833
-0.031885
-0.036719
-0.04157
-0.031692
-0.026055
-0.016686
-0.017043
-0.050498
-0.060289
-0.059844
-0.070603
-0.075865
-0.072663
-0.06323
-0.063319
-0.03156
-0.025865
-0.03026
-0.040479
-0.048798
-0.033798
-0.027323
-0.048487
-0.048066
-0.044781
-0.046047
-0.041742
-0.058556
-0.063272
-0.057873
-0.080232
-0.088875
-0.087287
-0.081609
-0.072436
-0.063534
-0.060759
-0.046792
-0.034273
-0.02978
-0.036474
-0.036215
-0.04743
-0.04045
-0.046227
-0.078381
-0.066675
-0.076141
-0.078079
-0.073785
-0.063819
-0.072088
-0.074706
-0.06978
-0.076541
-0.075875
-0.054871
-0.038324
-0.047662
-0.062674
-0.062347
-0.041154
-0.06901
-0.061631
-0.03166
-0.042289
-0.051443
-0.078479
-0.086729
-0.091064
-0.077483
-0.089851
-0.101561
-0.061501
-0.053612
-0.065422
-0.085314
-0.063997
-0.060576
-0.050146
-0.040351
-0.051536
-0.072976
-0.070945
-0.053042
-0.047567
-0.063248
-0.088869
-0.09881
-0.091301
-0.083113
-0.106087
-0.079398
-0.063615
-0.059071
-0.049521
-0.044629
-0.068462
-0.067737
-0.066168
-0.050404
-0.057588
-0.06786
-0.07569
-0.067957
-0.083246
-0.073711
-0.088034
-0.110601
-0.091113
-0.101556
-0.094866
-0.093216
-0.095683
-0.106862
-0.077607
-0.073364
-0.074993
-0.076764
-0.038001
-0.070943
-0.056029
-0.043129
-0.044567
-0.054548
-0.049655
-0.07723
-0.080486
-0.070839
-0.080945
-0.099388
-0.114637
-0.09133
-0.089942
-0.090729
-0.093112
-0.082806
-0.078884
-0.053092
-0.044559
-0.043618
-0.046379
-0.06544
-0.073765
-0.069192
-0.051153
-0.072695
-0.105297
-0.120848
-0.098729
-0.095057
-0.09363
-0.095605
-0.103237
-0.087272
-0.054385
-0.058034
-0.056998
-0.056546
-0.054245
-0.048993
-0.06297
-0.069905
-0.084395
-0.092983
-0.112134
-0.106083
-0.096031
-0.078126
-0.041651
-0.09137
-0.112441
-0.082113
-0.089264
-0.074207
-0.071496
-0.074971
-0.07676
-0.049251
-0.034184
-0.036035
-0.065013
-0.097696
-0.092294
-0.084876
-0.09541
-0.106476
-0.120627
-0.114438
-0.103679
-0.114212
-0.109723
-0.101094
-0.117846
-0.109115
-0.070639
-0.081847
-0.090435
-0.072928
-0.051394
-0.069243
-0.070027
-0.062426
-0.061123
-0.066119
-0.071527
-0.06247
-0.075579
-0.079645
-0.08329
-0.087654
-0.088106
-0.099902
-0.101327
-0.095409
-0.101694
-0.114188
-0.097884
-0.078407
-0.064125
-0.051376
-0.042995
-0.062251
-0.071635
-0.08384
-0.094467
-0.088688
-0.103713
-0.097949
-0.103146
-0.097775
-0.079133
-0.092902
-0.094011
-0.106663
-0.093295
-0.08831
-0.093602
-0.076883
-0.053544
-0.066352
-0.061249
-0.060294
-0.072081
-0.078322
-0.098675
-0.109443
-0.098978
-0.123499
-0.104434
-0.105592
-0.115097
-0.117181
-0.076815
-0.072226
-0.083011
-0.106562
-0.108915
-0.105348
-0.07366
-0.062134
-0.070928
-0.080537
-0.093711
-0.060906
-0.086124
-0.083221
-0.098083
-0.114591
-0.103791
-0.115324
-0.09806
-0.093551
-0.092577
-0.096676
-0.051528
-0.046132
-0.078175
-0.080559
-0.066902
-0.077632
-0.066161
-0.058736
-0.058138
-0.078145
-0.099652
-0.089117
-0.095731
-0.111405
-0.113632
-0.117779
-0.125049
-0.107108
-0.108508
-0.090725
-0.088369
-0.075522
-0.07544
-0.061199
-0.066222
-0.072416
-0.075514
-0.075399
-0.066769
-0.063808
-0.080495
-0.082676
-0.098789
-0.103796
-0.103153
-0.12487
-0.122575
-0.100911
-0.100904
-0.115677
-0.120103
-0.108022
-0.068037
-0.090995
-0.051354
-0.039322
-0.080642
-0.076201
-0.064124
-0.0803
-0.087401
-0.09485
-0.111185
-0.115886
-0.112445
-0.111564
-0.11115
-0.100187
-0.078752
-0.089832
-0.085528
-0.065187
-0.063157
-0.056791
-0.049996
-0.055548
-0.052259
-0.050849
-0.040774
-0.063657
-0.06842
-0.067826
-0.070761
-0.073812
-0.058876
-0.069923
-0.065275
-0.051149
-0.065868
-0.051945
-0.05314
-0.032131
-0.028062
-0.02678
-0.02399
-0.028719
-0.01492
-0.02428
-0.022916
-0.032239
-0.018534
-0.021082
-0.039068
-0.024941
-0.027902
-0.035433
-0.029377
-0.039295
-0.033135
-0.02342
-0.034165
-0.008703
0.006451
-0.009253
-0.006037
-0.009649
-0.004938
0.016292
0.0263
0.021935
0.034283
0.028306
-0.025797
-0.020359
-0.002575
-0.003717
-0.025735
-0.016129
-0.015363
-0.007685
-0.018909
-0.050226
-0.016535
-0.03162
-0.017005
-0.012117
-0.021814
-0.005616
-0.018905
-0.031749
-0.03693
-0.067508
-0.077862
-0.04386
-0.058552
-0.090655
-0.075761
-0.076291
-0.098922
-0.099141
-0.080518
-0.069734
-0.066169
-0.081964
-0.049813
-0.044086
-0.096572
-0.075675
-0.064668
-0.07157
-0.082704
-0.103551
-0.112551
-0.105818
-0.110023
-0.112714
-0.142945
-0.124332
-0.11081
-0.100035
-0.083411
-0.088267
-0.140672
-0.09371
-0.093849
-0.104766
-0.103087
-0.123907
-0.098387
-0.103022
-0.132178
-0.102395
-0.152357
-0.140302
-0.125311
-0.125691
-0.129947
-0.143247
-0.125499
-0.104301
-0.092705
-0.090163
-0.093043
-0.106756
-0.106546
-0.092432
-0.118651
-0.128664
-0.09134
-0.093825
-0.135949
-0.147571
-0.126596
-0.123678
-0.145451
-0.141125
-0.124923
-0.09777
-0.117045
-0.126798
-0.126228
-0.103378
-0.090769
-0.094633
-0.101837
-0.112009
-0.124259
-0.110003
-0.142968
-0.136905
-0.123756
-0.150883
-0.174787
-0.180086
-0.181841
-0.183919
-0.19303
-0.181334
-0.163878
-0.160898
-0.131832
-0.12489
-0.110197
-0.0855
-0.073595
-0.06396
-0.013664
-0.023146
0.005606
0.026618
0.085929
0.081042
0.111643
0.149629
0.183523
0.239961
0.283009
0.326619
0.356519
0.420545
0.487722
0.527012
0.587525
0.616267
0.649267
0.686779
0.6879
0.671711
0.678342
0.658748
0.613445
0.570485
0.472972
0.42116
0.398069
0.33875
0.23688
0.19071
0.167304
0.163696
0.148578
0.128254
0.104378
0.10528
0.082164
0.068806
0.037654
-0.028933
-0.084375
-0.096705
-0.08975
-0.127405
-0.128681
-0.126117
-0.15485
-0.145794
-0.135679
-0.127182
-0.116744
-0.103223
-0.106257
-0.094235
-0.075472
-0.056476
-0.06437
-0.082654
-0.093601
-0.079144
-0.066372
-0.07041
-0.103638
-0.107609
-0.09568
-0.105169
-0.106961
-0.088003
-0.09142
-0.061998
-0.067462
-0.090203
-0.083941
-0.053271
-0.052836
-0.073062
-0.049868
-0.065699
-0.071718
-0.081377
-0.081463
-0.069891
-0.0824
-0.11361
-0.120711
-0.128779
-0.124698
-0.111281
-0.092925
-0.07965
-0.088207
-0.072885
-0.050262
-0.07805
-0.110556
-0.058809
-0.020581
-0.037736
-0.069623
-0.067878
-0.076985
-0.087909
-0.114458
-0.14712
-0.130629
-0.111168
-0.101835
-0.104782
-0.065282
-0.08079
-0.071282
-0.065176
-0.079655
-0.074452
-0.069987
-0.065652
-0.075595
-0.070245
-0.081561
-0.07344
-0.063865
-0.059115
-0.081157
-0.079256
-0.08342
-0.082587
-0.100066
-0.107401
-0.098518
-0.113808
-0.07194
-0.05674
-0.056566
-0.090728
-0.057153
-0.03391
-0.045055
-0.059942
-0.066982
-0.06799
-0.068907
-0.065109
-0.064137
-0.075606
-0.083959
-0.105218
-0.096048
-0.11218
-0.08377
-0.078436
-0.094855
-0.089148
-0.072703
-0.052992
-0.066435
-0.060997
-0.059333
-0.052986
-0.04034
-0.036631
-0.033689
-0.064448
-0.043461
-0.060561
-0.071773
-0.060852
-0.067952
-0.076987
-0.09588
-0.109777
-0.073503
-0.051289
-0.065781
-0.066487
-0.059832
-0.064779
-0.063341
-0.051073
-0.025543
-0.042222
-0.048281
-0.075701
-0.070889
-0.077377
-0.072191
-0.062774
-0.07129
-0.081348
-0.077243
-0.069698
-0.064449
-0.064481
-0.04279
-0.031503
-0.022627
-0.024721
-0.033904
-0.027774
-0.016282
-0.010423
-0.018217
-0.031104
-0.023053
-0.032873
-0.069737
-0.059802
-0.053334
-0.057318
-0.059859
-0.056377
-0.077142
-0.020657
-0.006287
0.009242
0.035986
0.042644
-0.011821
0.022292
0.016927
0.022882
0.015956
0.010349
0.021459
0.029711
0.010731
-0.00056
-0.019845
-0.025304
0.017306
0.025969
0.026377
0.045859
0.053039
0.074524
0.036034
0.056809
0.058673
0.057404
0.052212
0.0247
0.033242
0.050359
0.026025
0.027844
0.034567
0.02111
0.033465
0.025059
0.026404
0.038798
0.033193
0.056987
0.06846
0.071642
0.075585
0.080569
0.076971
0.056206
0.080742
0.079829
0.046901
0.035913
0.033086
0.045488
0.051184
0.040539
0.030297
0.025619
0.036432
0.027871
0.013642
0.033927
0.045889
0.041416
0.069291
0.072615
0.050254
0.067993
0.05679
0.037627
0.057125
0.03224
0.034419
0.022383
0.004952
0.001441
0.000668
-0.018736
-0.032832
-0.021054
-0.004291
-0.006477
-0.029276
-0.006597
-0.003763
-0.013925
0.015109
-0.00192
0.012883
-0.001055
-0.009203
-0.008496
-0.015561
-0.053956
-0.075441
-0.073945
-0.077595
-0.084048
-0.097105
-0.088805
-0.091082
-0.050538
-0.035194
-0.034631
-0.023814
-0.048837
-0.042495
-0.054259
-0.068409
-0.089483
-0.094732
-0.103184
-0.097415
-0.093065
-0.12279
-0.130684
-0.152967
-0.133563
-0.127361
-0.112081
-0.113883
-0.124419
-0.128736
-0.124155
-0.115942
-0.103459
-0.123422
-0.097472
-0.083912
-0.084782
-0.082027
-0.104979
-0.122537
-0.146208
-0.166431
-0.160291
-0.173548
-0.160658
-0.12716
-0.114022
-0.127544
-0.146205
-0.118075
-0.125115
-0.121279
-0.090921
-0.093456
-0.095678
-0.097402
-0.125092
-0.16111
-0.16686
-0.203018
-0.161184
-0.136969
-0.150251
-0.148506
-0.159583
-0.160871
-0.140115
-0.120608
-0.109707
-0.139966
-0.120992
-0.132019
-0.119059
-0.115463
-0.1121
-0.113488
-0.126957
-0.126966
-0.136206
-0.144509
-0.138219
-0.138166
-0.156594
-0.168981
-0.164408
-0.13755
-0.115007
-0.100643
-0.14032
-0.112468
-0.08312
-0.093019
-0.109614
-0.118825
-0.107328
-0.110312
-0.133306
-0.126636
-0.138987
-0.14956
-0.150192
-0.151593
-0.146107
-0.134826
-0.115321
-0.095069
-0.101914
-0.101137
-0.102822
-0.098048
-0.088987
-0.09571
-0.096768
-0.094153
-0.097975
-0.10917
-0.101894
-0.116439
-0.129497
-0.140482
-0.135454
-0.135665
-0.14295
-0.142506
-0.133354
-0.133287
-0.125947
-0.111048
-0.105903
-0.107578
-0.107165
-0.058402
-0.080733
-0.106558
-0.085296
-0.122579
-0.11244
-0.094275
-0.11452
-0.123595
-0.116931
-0.137879
-0.140888
-0.115907
-0.125044
-0.129331
-0.125316
-0.122809
-0.100201
-0.100294
-0.105586
-0.085933
-0.073063
-0.072016
-0.078699
-0.072798
-0.084714
-0.09308
-0.090363
-0.104245
-0.116945
-0.124073
-0.134242
-0.149678
-0.129602
-0.118323
-0.139686
-0.158425
-0.126209
-0.109459
-0.090996
-0.078442
-0.091283
-0.089638
-0.094537
-0.114698
-0.1072
-0.115778
-0.112281
-0.118983
-0.13674
-0.136907
-0.121183
-0.125112
-0.114375
-0.106856
-0.096241
-0.105449
-0.113096
-0.103283
-0.073962
-0.085406
-0.071639
-0.091583
-0.080521
-0.086231
-0.095006
-0.081135
-0.103578
-0.143247
-0.144849
-0.135389
-0.129724
-0.119742
-0.109326
-0.1122
-0.13615
-0.138572
-0.122787
-0.110484
-0.117657
-0.078788
-0.065061
-0.105009
-0.112039
-0.122819
-0.126301
-0.106428
-0.090865
-0.117654
-0.157348
-0.133932
-0.143812
-0.133431
-0.129258
-0.139702
-0.139591
-0.160332
-0.110652
-0.094136
-0.079668
-0.068799
-0.098467
-0.119241
-0.094393
-0.099818
-0.105396
-0.099855
-0.10895
-0.122811
-0.132688
-0.126058
-0.120205
-0.136832
-0.13771
-0.122862
-0.126508
-0.119141
-0.115536
-0.104837
-0.107721
-0.119813
-0.116184
-0.099548
-0.097151
-0.107861
-0.111604
-0.110242
-0.111931
-0.094319
-0.096692
-0.12709
-0.132474
-0.142199
-0.140845
-0.122205
-0.112765
-0.104867
-0.104174
-0.107731
-0.124987
-0.113542
-0.103348
-0.113858
-0.117145
-0.113737
-0.128702
-0.133745
-0.123584
-0.145879
-0.156638
-0.172176
-0.175037
-0.163725
-0.149498
-0.125348
-0.125274
-0.091176
-0.068197
-0.064646
-0.075721
-0.124341
-0.110814
-0.118788
-0.115317
-0.123651
-0.120924
-0.111065
-0.095018
-0.125139
-0.149553
-0.145865
-0.150653
-0.154311
-0.145625
-0.141662
-0.130865
-0.123753
-0.133832
-0.12466
-0.102589
-0.099882
-0.118369
-0.122626
-0.121665
-0.122135
-0.134978
-0.112292
-0.115585
-0.12764
-0.110495
-0.11134
-0.127544
-0.136682
-0.131515
-0.123768
-0.12641
-0.120311
-0.116662
-0.106706
-0.092856
-0.101366
-0.076764
-0.080686
-0.097744
-0.115514
-0.137889
-0.134736
-0.102767
-0.114467
-0.123461
-0.105228
-0.123527
-0.14583
-0.128928
-0.098485
-0.104788
-0.115444
-0.137613
-0.115799
-0.107582
-0.107086
-0.111044
-0.14
-0.113046
-0.108637
-0.11418
-0.115666
-0.144748
-0.135648
-0.116929
-0.111621
-0.114679
-0.13567
-0.142324
-0.16923
-0.158826
-0.132638
-0.12784
-0.10729
-0.115014
-0.13353
-0.10862
-0.093429
-0.082097
-0.087388
-0.098539
-0.099985
-0.120545
-0.131266
-0.155209
-0.147561
-0.152156
-0.151624
-0.147943
-0.134783
-0.132493
-0.127395
-0.140336
-0.121295
-0.091251
-0.076567
-0.085056
-0.104707
-0.119339
-0.109417
-0.092017
-0.122791
-0.136147
-0.136637
-0.153719
-0.138166
-0.14036
-0.13109
-0.114752
-0.11756
-0.116968
-0.105069
-0.123644
-0.132159
-0.125567
-0.124097
-0.123222
-0.103954
-0.109227
-0.108982
-0.118901
-0.110109
-0.114795
-0.134895
-0.127162
-0.122962
-0.134681
-0.146549
-0.127202
-0.115878
-0.129541
-0.122452
-0.126796
-0.099836
-0.101316
-0.10689
-0.096584
-0.100987
-0.094659
-0.099494
-0.089067
-0.099758
-0.109165
-0.111657
-0.092169
-0.064097
-0.097364
-0.113261
-0.08224
-0.06491
-0.066309
-0.044493
-0.03405
-0.049253
-0.030706
-0.02003
-0.01542
-0.060008
-0.075301
-0.076394
-0.068936
-0.076725
-0.074137
-0.067882
-0.081998
-0.089354
-0.091414
-0.07313
-0.046222
-0.042626
-0.046054
-0.045617
-0.028184
-0.033624
-0.012076
-0.010422
-0.011465
-0.00465
-0.039169
-0.065881
-0.016588
-0.027014
-0.041848
-0.057132
-0.060502
-0.068899
-0.069888
-0.060235
-0.027724
-0.023526
-0.02574
-0.002003
0.003049
0.021942
-0.014007
-0.028244
-0.041374
-0.036053
-0.043531
-0.040884
-0.067666
-0.082911
-0.067422
-0.06238
-0.081506
-0.078924
-0.085601
-0.068783
-0.06795
-0.067941
-0.075055
-0.070137
-0.072965
-0.081591
-0.084741
-0.099478
-0.074747
-0.064501
-0.082162
-0.083541
-0.075535
-0.100946
-0.103471
-0.11244
-0.116776
-0.125604
-0.145074
-0.126351
-0.13237
-0.143624
-0.135093
-0.128463
-0.129057
-0.112791
-0.103798
-0.104392
-0.111598
-0.114886
-0.125909
-0.114442
-0.094111
-0.112697
-0.150993
-0.142979
-0.131159
-0.126838
-0.151891
-0.138879
-0.14297
-0.133951
-0.138781
-0.149311
-0.127226
-0.126695
-0.132357
-0.114801
-0.116371
-0.129811
-0.137995
-0.159453
-0.137751
-0.105845
-0.135791
-0.139069
-0.160455
-0.16187
-0.143988
-0.157154
-0.159061
-0.138143
-0.125588
-0.101508
-0.106959
-0.132274
-0.103734
-0.092352
-0.111521
-0.118791
-0.113353
-0.128633
-0.158096
-0.145235
-0.143221
-0.171311
-0.173833
-0.180437
-0.191049
-0.18985
-0.19358
-0.197796
-0.174376
-0.144899
-0.170743
-0.161536
-0.136663
-0.121341
-0.10602
-0.069406
-0.06554
-0.067195
-0.07777
-0.039138
0.002697
0.019145
0.049459
0.082525
0.122428
0.165052
0.180373
0.242029
0.292305
0.346434
0.415017
0.403229
0.485578
0.516516
0.555857
0.586373
0.627698
0.639646
0.598948
0.617615
0.628966
0.586821
0.577373
0.543841
0.509942
0.467017
0.39207
0.31905
0.245245
0.214251
0.195743
0.164876
0.105666
0.100243
0.0927
0.082596
0.064312
0.042613
0.010148
-0.033233
-0.072793
-0.083459
-0.102294
-0.114953
-0.115403
-0.129846
-0.148049
-0.126413
-0.115901
-0.114738
-0.137009
-0.129867
-0.092537
-0.098057
-0.092323
-0.077256
-0.08936
-0.08227
-0.080647
-0.080788
-0.110626
-0.091082
-0.102228
-0.081123
-0.076399
-0.086341
-0.088037
-0.088324
-0.065077
-0.074198
-0.06337
-0.048485
-0.040994
-0.059688
-0.083493
-0.068828
-0.058004
-0.079646
-0.08966
-0.089152
-0.094846
-0.11671
-0.107471
-0.105893
-0.099326
-0.117055
-0.06972
-0.063075
-0.07955
-0.062246
-0.050121
-0.082165
-0.060339
-0.043995
-0.042817
-0.058272
-0.084361
-0.061001
-0.0491
-0.073641
-0.092093
-0.094799
-0.090466
-0.085607
-0.084986
-0.105457
-0.085083
-0.079413
-0.065365
-0.080852
-0.085809
-0.027067
-0.051832
-0.053486
-0.058162
-0.046127
-0.040346
-0.06002
-0.070732
-0.065175
-0.074075
-0.104799
-0.085706
-0.083999
-0.073534
-0.085308
-0.097602
-0.072628
-0.062286
-0.059893
-0.049862
-0.06263
-0.048237
-0.037965
-0.039483
-0.032382
-0.035372
-0.051441
-0.053427
-0.059452
-0.050684
-0.103218
-0.115775
-0.091633
-0.08834
-0.085423
-0.073005
-0.067604
-0.066146
-0.043628
-0.034071
-0.043128
-0.044215
-0.048026
-0.044128
-0.033874
-0.031382
-0.044057
-0.045081
-0.032904
-0.058203
-0.04798
-0.028128
-0.06046
-0.063992
-0.063417
-0.066311
-0.055411
-0.052507
-0.035072
-0.042824
-0.039138
-0.033413
-0.007822
-0.016457
-0.013273
-0.017011
-0.003632
-0.024613
-0.05621
-0.039008
-0.071927
-0.058831
-0.037431
-0.019886
0.003493
-0.02457
-0.046552
-0.029864
-0.00674
-0.006866
-0.021569
-0.010585
0.011476
-0.005039
-0.008665
-0.005577
0.014329
0.000462
-0.048781
-0.055052
-0.044084
-0.039709
-0.021345
-0.010117
-0.026947
-0.040471
-0.015433
-0.008617
0.021106
0.032797
0.030112
0.000803
-0.003816
0.004286
0.043691
0.051087
0.054375
0.057183
0.052805
0.006368
0.021175
0.024943
0.022832
0.027361
0.024771
0.057055
0.049251
0.043417
0.051567
0.06829
0.083962
0.063464
0.064273
0.085694
0.095675
0.105415
0.110539
0.102692
0.076515
0.045708
0.044245
0.061288
0.061827
0.057499
0.049554
0.050309
0.067715
0.086707
0.101712
0.103174
0.087499
0.103957
0.096153
0.119882
0.122714
0.117696
0.119668
0.103843
0.065342
0.065116
0.075464
0.080104
0.042357
0.049685
0.07988
0.105807
0.094853
0.063989
0.067611
0.083764
0.070089
0.099454
0.097464
0.107216
0.094384
0.069988
0.067621
0.076973
0.073323
0.048699
0.062302
0.047923
0.047139
0.039352
0.044681
0.051166
0.053632
0.03208
0.048149
0.060722
0.050247
0.049947
0.034268
0.033534
0.048638
0.036505
0.023879
-0.000569
-0.016596
-0.005089
-0.018129
-0.011321
-0.022333
-0.02201
-0.024099
-0.026684
-0.023039
-0.004296
-0.031597
-0.023862
0.01284
-0.01967
-0.025027
-0.04122
-0.049624
-0.035214
-0.021964
-0.038584
-0.068919
-0.094825
-0.074376
-0.073932
-0.058046
-0.071249
-0.080657
-0.066098
-0.071827
-0.055252
-0.066537
-0.061181
-0.053653
-0.055603
-0.040042
-0.037151
-0.049246
-0.047259
-0.06402
-0.072533
-0.062337
-0.071342
-0.090239
-0.097396
-0.107224
-0.099221
-0.094599
-0.096563
-0.090993
-0.084899
-0.09442
-0.04906
-0.045746
-0.068003
-0.084514
-0.068558
-0.050348
-0.074018
-0.078143
-0.078976
-0.071495
-0.091233
-0.084862
-0.100047
-0.127171
-0.104974
-0.08211
-0.06988
-0.087998
-0.073648
-0.094161
-0.093115
-0.088706
-0.083732
-0.06426
-0.047316
-0.065272
-0.054839
-0.078621
-0.109484
-0.094732
-0.080511
-0.090032
-0.093235
-0.105088
-0.103163
-0.086053
-0.092202
-0.107903
-0.072391
-0.053358
-0.05472
-0.045959
-0.058763
-0.06184
-0.047361
-0.057582
-0.080848
-0.068307
-0.062502
-0.044001
-0.054428
-0.115159
-0.098832
-0.105218
-0.084055
-0.079055
-0.084176
-0.077192
-0.047161
-0.041702
-0.04571
-0.036708
-0.036555
-0.038076
-0.042638
-0.03692
-0.041719
-0.031828
-0.075546
-0.091094
-0.072506
-0.070556
-0.066221
-0.061164
-0.091223
-0.087968
-0.089284
-0.067842
-0.045507
-0.066709
-0.039076
-0.072937
-0.041552
-0.023439
-0.022841
-0.029944
-0.033358
-0.050489
-0.053548
-0.049102
-0.050369
-0.067875
-0.090179
-0.085257
-0.093657
-0.087765
-0.071116
-0.072515
-0.050022
-0.049547
-0.061408
-0.046059
-0.012448
-0.01304
-0.016985
-0.037305
-0.043173
-0.019162
-0.023467
-0.064464
-0.062351
-0.050001
-0.039807
-0.054871
-0.07144
-0.066367
-0.091607
-0.085797
-0.062881
-0.061582
-0.04094
-0.039404
-0.034212
-0.018425
-0.017512
-0.02755
-0.032012
-0.03847
-0.067404
-0.060975
-0.075853
-0.091016
-0.08249
-0.062327
-0.082685
-0.067038
-0.046639
-0.058788
-0.069091
-0.057125
-0.060715
-0.052289
-0.040968
-0.008661
-0.025613
-0.045306
-0.029021
-0.020885
-0.047487
-0.058059
-0.068779
-0.077701
-0.079692
-0.07033
-0.084805
-0.077324
-0.08014
-0.071445
-0.082537
-0.029576
-0.011334
-0.03088
-0.021371
-0.023103
-0.04258
-0.040866
-0.055877
-0.056698
-0.059538
-0.052974
-0.057003
-0.079291
-0.084411
-0.099334
-0.090635
-0.082239
-0.053843
-0.038826
-0.04289
-0.059699
-0.055849
-0.042763
-0.038382
-0.041385
-0.033643
-0.032883
-0.04685
-0.030673
-0.054807
-0.049741
-0.059734
-0.082292
-0.081817
-0.082484
-0.093106
-0.090314
-0.077473
-0.066604
-0.045749
-0.037879
-0.025723
-0.03113
-0.025985
-0.026098
-0.036368
-0.035485
-0.043654
-0.049221
-0.05204
-0.047059
-0.063443
-0.095344
-0.092296
-0.090175
-0.091661
-0.069637
-0.074105
-0.077607
-0.0596
-0.052281
-0.041729
-0.040917
-0.034449
-0.043706
-0.051408
-0.050463
-0.043259
-0.043349
-0.056684
-0.070867
-0.079228
-0.070499
-0.065775
-0.071668
-0.080184
-0.087248
-0.073602
-0.075722
-0.061045
-0.053053
-0.044411
-0.053318
-0.047137
-0.037265
-0.043876
-0.032011
-0.052397
-0.068483
-0.050826
-0.072415
-0.101553
-0.096963
-0.069403
-0.062954
-0.073413
-0.062033
-0.065791
-0.070323
-0.075581
-0.058248
-0.049359
-0.053015
-0.05233
-0.030036
-0.028559
-0.03223
-0.074594
-0.058004
-0.028462
-0.070585
-0.087277
-0.068847
-0.067946
-0.071299
-0.071545
-0.076813
-0.091888
-0.062363
-0.043474
-0.055268
-0.050533
-0.027397
-0.051008
-0.058356
-0.05655
-0.055345
-0.059807
-0.067985
-0.070349
-0.061602
-0.08166
-0.090287
-0.063569
-0.062356
-0.059334
-0.076716
-0.079054
-0.043412
-0.036101
-0.060105
-0.058827
-0.051103
-0.037847
-0.044855
-0.070591
-0.067995
-0.050314
-0.041653
-0.054921
-0.066972
-0.073102
-0.091818
-0.097146
-0.064807
-0.044163
-0.057989
-0.072579
-0.039968
-0.032113
-0.035617
-0.046461
-0.047772
-0.046096
-0.054897
-0.046354
-0.028275
-0.042278
-0.047797
-0.042192
-0.053668
-0.077826
-0.087259
-0.091132
-0.078347
-0.064215
-0.067745
-0.080956
-0.07413
-0.065595
-0.058355
-0.056787
-0.039961
-0.031192
-0.02739
-0.040604
-0.057401
-0.060629
-0.063868
-0.055839
-0.0442
-0.051583
-0.07676
-0.064912
-0.041998
-0.087413
-0.120181
-0.073903
-0.043577
-0.054596
-0.055953
-0.042305
-0.052811
-0.0581
-0.041975
-0.036886
-0.037357
-0.033744
-0.046892
-0.054687
-0.042786
-0.048739
-0.076315
-0.095752
-0.053759
-0.012106
-0.063893
-0.083517
-0.060583
-0.021092
-0.002703
-0.007822
0.015585
0.027343
0.031013
0.052079
0.03224
0.011089
0.014826
-0.027066
-0.040724
-0.0327
-0.008519
-0.004999
-0.010953
-0.011135
-0.000932
0.002914
0.017033
0.008019
0.010491
0.031926
0.054301
0.047457
0.049526
0.04894
0.050333
0.047694
0.020461
0.002745
-0.00246
-0.003573
-0.013346
-0.006317
0.00936
0.000765
0.006284
0.032687
0.031311
0.027159
0.04031
0.055574
0.063638
0.042279
0.0306
0.027447
0.029998
0.051195
0.0622
0.042266
0.015049
0.011643
0.030283
0.013785
-0.007563
-0.001897
-0.002268
-0.019599
-0.010565
0.003741
0.003924
-0.006412
-0.002264
-0.015362
-0.019604
0.007923
0.007176
-0.081313
-0.041849
-0.028375
-0.051672
-0.081173
-0.058482
-0.047073
-0.044412
-0.05786
-0.059652
-0.050579
-0.045633
-0.044554
-0.02906
-0.044147
-0.03332
-0.016383
-0.041523
-0.04102
-0.048017
-0.053763
-0.060923
-0.080706
-0.05691
-0.074432
-0.069434
-0.085483
-0.111392
-0.123335
-0.089625
-0.093477
-0.092242
-0.085397
-0.073068
-0.05704
-0.065216
-0.051476
-0.056497
-0.036534
-0.041318
-0.044734
-0.041675
-0.060392
-0.099397
-0.12319
-0.092132
-0.097911
-0.101955
-0.089418
-0.066549
-0.090498
-0.082431
-0.08071
-0.061587
-0.05192
-0.058135
-0.047281
-0.026987
-0.044864
-0.066078
-0.05976
-0.064938
-0.089699
-0.097759
-0.091439
-0.082436
-0.100892
-0.098472
-0.098488
-0.103857
-0.108241
-0.110373
-0.092695
-0.103385
-0.099994
-0.097024
-0.080331
-0.095166
-0.082313
-0.05355
-0.053549
-0.044177
-0.037174
-0.042318
-0.043456
-0.020882
-0.001753
0.032486
0.055357
0.087616
0.155737
0.211017
0.232564
0.272321
0.315749
0.352083
0.376956
0.439338
0.482901
0.549453
0.558036
0.593726
0.661624
0.703146
0.710172
0.723416
0.706764
0.707242
0.714837
0.687121
0.657976
0.638618
0.601744
0.547174
0.49955
0.46177
0.368335
0.313302
0.274943
0.255991
0.242381
0.198474
0.174362
0.153882
0.10012
0.084531
0.037229
-0.003591
-0.032246
-0.047771
-0.060023
-0.067192
-0.065246
-0.047883
-0.038414
-0.078729
-0.076935
-0.032659
-0.01925
-0.016267
-0.056427
-0.075466
-0.022381
-0.04976
-0.04272
-0.03242
-0.026938
-0.040755
-0.043527
-0.037612
-0.026159
-0.026192
-0.004971
0.010234
0.00654
-0.018016
0.014574
0.030109
0.024584
0.032088
0.015556
-0.011404
-0.030625
-0.015649
-0.014512
-0.015275
-0.04293
-0.069598
-0.05082
-0.039067
-0.010771
-0.012235
-0.017448
0.000759
0.025346
0.039822
0.024995
0.009609
0.016368
0.000213
-0.015804
-0.019852
-0.013612
-0.053369
-0.037531
-0.030657
-0.030567
-0.042934
-0.037891
-0.006606
-0.019249
-0.000873
-0.005014
0.027638
0.012145
0.032034
0.044818
0.013514
0.023847
0.022881
0.023327
0.025588
0.00233
0.00011
-0.011392
-0.002561
-0.00862
-0.020056
-0.024585
-0.012097
0.018206
0.013148
-0.003548
0.013393
0.004457
0.013356
0.014729
0.022117
0.029287
0.027755
0.034248
0.015065
0.004853
-0.015126
-0.012
-0.001004
0.002972
0.012058
-0.006635
-0.001703
0.000422
0.019551
0.031113
0.022345
0.01375
0.009446
0.034042
0.039051
0.03816
0.028604
0.032212
0.030334
0.031115
0.022684
-0.008506
0.011234
0.000013
-0.005738
-0.009989
-0.013626
-0.005919
0.021968
-0.000477
-0.001918
0.031089
0.04678
0.05897
0.049709
0.033944
0.037017
0.047189
0.029062
0.034555
0.031054
0.027035
0.031394
0.022564
-0.003486
0.0105
0.025732
0.033606
0.02972
0.008264
0.017289
0.05796
0.070467
0.058472
0.086042
0.086752
0.048761
0.043451
0.074727
0.046856
0.033962
0.057707
0.052431
0.033016
0.047854
0.024602
0.036735
0.044247
0.077916
0.084628
0.106952
0.102085
0.086525
0.089042
0.082511
0.084259
0.089733
0.076638
0.090687
0.080625
0.075155
0.074673
0.068912
0.074785
0.087138
0.084694
0.089281
0.098188
0.101325
0.105921
0.120743
0.130828
0.126424
0.125065
0.141488
0.140962
0.13812
0.137906
0.134402
0.138944
0.112274
0.110042
0.122046
0.119272
0.109189
0.127223
0.147097
0.140153
0.150634
0.161145
0.17647
0.186835
0.194495
0.207899
0.149565
0.152456
0.159652
0.154742
0.165254
0.14305
0.135785
0.14865
0.190881
0.178942
0.148958
0.116005
0.14145
0.18204
0.166624
0.16631
0.175646
0.17478
0.175544
0.16586
0.179641
0.17974
0.177325
0.171358
0.158547
0.130782
0.127097
0.160113
0.157683
0.141386
0.12524
0.112335
0.132802
0.134217
0.135794
0.133907
0.136685
0.125705
0.13036
0.132313
0.124433
0.101438
0.107854
0.104393
0.100109
0.099572
0.084645
0.065926
0.060672
0.052665
0.048608
0.041946
0.03779
0.054082
0.056893
0.042664
0.050547
0.050082
0.051077
0.044346
0.051646
0.049836
0.015202
0.008411
0.037305
0.034851
0.034939
0.009674
0.014888
-0.008803
-0.02012
0.009543
0.003721
-0.019153
-0.006372
-0.000823
-0.0034
0.006824
0.017823
0.018914
0.018796
0.017222
0.006586
-0.013285
0.002347
-0.012275
-0.043052
-0.030967
-0.021497
-0.032336
-0.008383
-0.031946
-0.038716
-0.018418
-0.016465
-0.002261
0.006045
0.000294
-0.005701
0.004176
-0.016042
-0.021949
-0.023125
-0.017589
-0.016546
-0.048758
-0.055943
-0.068349
-0.041695
-0.048084
-0.075898
-0.052015
-0.026458
-0.027715
-0.031146
-0.033014
-0.007622
0.00225
-0.002192
-0.011576
-0.019243
0.001156
-0.009949
-0.011721
-0.025315
-0.03316
-0.031703
-0.018954
-0.021829
-0.044575
-0.034104
-0.028687
-0.008215
0.015767
-0.027381
-0.039048
-0.020172
0.009316
-0.020219
0.00217
-0.008529
-0.013128
-0.006133
-0.00821
-0.036028
-0.064099
-0.061636
-0.035752
-0.052071
-0.050574
-0.051502
-0.024248
-0.019937
-0.034667
-0.035897
0.007193
-0.002456
-0.002612
-0.013338
-0.030963
0.018524
-0.005159
0.007492
-0.012378
0.001432
-0.004596
-0.033545
-0.029779
-0.032911
-0.024726
-0.017711
-0.022777
-0.006518
0.000912
-0.001703
-0.035989
-0.002754
-0.002256
0.013787
0.02534
0.012976
0.005204
0.027127
0.01334
-0.00975
-0.01561
-0.006915
-0.015417
-0.031141
-0.032297
-0.035014
-0.040408
-0.018985
-0.018316
-0.006472
-0.006337
-0.000156
0.009842
0.012161
0.030557
0.027666
0.020749
0.015966
0.036719
0.044385
-0.002979
-0.02926
-0.016588
-0.033398
-0.0349
-0.030604
0.015086
0.012275
-0.002127
0.013091
-0.00224
0.014128
-0.000712
0.021894
0.003212
0.02
0.025406
0.03497
0.032312
-0.000203
-0.006174
-0.007481
-0.02701
-0.028183
-0.025086
-0.011244
0.003392
-0.00681
0.001672
-0.00599
0.007685
0.023391
0.033177
0.008782
0.018919
0.046279
0.02464
0.001485
0.004719
-0.000777
-0.00405
-0.008248
-0.008598
-0.011804
-0.032163
-0.024774
-0.01869
-0.003242
0.005085
0.004569
0.02562
0.026377
0.017944
0.060019
0.058775
0.018808
-0.010921
-0.015529
-0.012423
-0.010161
-0.024961
-0.020254
0.001633
-0.037169
-0.041033
-0.027481
-0.017497
-0.034456
-0.025746
0.007174
0.017803
0.02533
0.029157
0.01238
0.023281
0.018778
-0.007144
-0.004743
0.011267
0.01588
-0.015018
-0.011709
-0.0138
-0.019066
-0.025974
-0.030125
-0.023355
-0.011575
-0.005071
-0.001544
0.010462
0.019202
0.010795
0.008354
0.013618
0.014899
0.032933
0.009647
0.000688
0.004925
-0.007101
-0.000467
-0.020878
-0.039843
-0.017281
-0.021921
-0.026517
-0.022922
-0.000081
-0.005337
-0.01543
0.003784
0.025114
0.019576
0.031516
0.020987
0.007717
0.000196
0.006334
-0.017203
-0.037455
-0.032276
-0.022655
-0.02998
-0.037811
-0.005165
0.002676
-0.01992
-0.001608
-0.004101
0.008179
0.012597
0.003732
-0.005136
0.011534
0.014287
-0.004467
0.006428
-0.003499
-0.006874
-0.002276
-0.010083
-0.030996
-0.036983
-0.042452
-0.036335
-0.02711
-0.018582
0.000404
0.016194
0.037324
0.019892
-0.025816
-0.004712
0.007562
0.017242
0.002436
0.000223
-0.01996
-0.020139
-0.0244
-0.017389
-0.028029
-0.042171
-0.026494
-0.015008
-0.021591
-0.020585
-0.006883
0.006161
-0.003086
0.006014
0.006672
0.010903
0.010098
0.001342
-0.000335
-0.016577
-0.012242
-0.012545
-0.018016
-0.028357
-0.024508
-0.011878
-0.024008
-0.026025
-0.019362
-0.01284
-0.003145
0.007932
0.007459
0.013814
-0.006268
0.013579
0.023788
0.014059
0.009935
0.003604
-0.00652
-0.02707
-0.028942
-0.022353
-0.026557
-0.029797
-0.03097
-0.020462
-0.00053
-0.009666
-0.032733
-0.031659
-0.006498
0.013298
0.019365
0.016792
0.029591
0.034467
0.004527
0.007198
0.003641
-0.00762
-0.009838
0.021254
0.012782
0.004274
-0.032455
-0.050229
-0.031493
-0.040925
-0.004809
-0.017845
-0.007577
0.005265
-0.006778
-0.000274
0.044147
0.027223
0.002777
0.003985
-0.025849
-0.036643
-0.028603
-0.050661
-0.043283
-0.032708
-0.007638
-0.004272
0.002682
-0.00304
-0.019614
-0.016041
0.009245
0.032184
0.040398
0.029831
0.000835
0.022896
0.02963
0.024331
0.000669
0.006173
-0.017723
-0.026268
-0.018536
-0.02541
-0.037088
-0.015342
-0.024683
-0.015126
-0.00271
0.005261
0.008478
0.032447
0.032102
0.050068
0.015225
0.00917
0.000351
0.001842
0.000769
-0.00506
-0.019012
-0.051364
-0.022009
-0.032992
-0.038114
-0.014757
0.011008
0.012078
0.019972
0.020227
0.02007
0.026414
0.014721
0.017522
0.026721
0.029577
0.027517
0.024351
0.020009
0.005701
-0.01588
0.004419
0.013599
0.024203
0.04557
0.047992
0.031042
0.038615
0.038807
0.031557
0.063811
0.087382
0.064555
0.063069
0.069849
0.076509
0.070069
0.074361
0.083065
0.067983
0.079914
0.034391
0.056693
0.065536
0.057555
0.052602
0.075284
0.093146
0.081185
0.068006
0.081207
0.087265
0.09824
0.101743
0.101941
0.095107
0.083279
0.089853
0.068811
0.041737
0.05952
0.08596
0.094529
0.09394
0.088376
0.065399
0.073208
0.085735
0.108059
0.074544
0.089824
0.116818
0.112363
0.078888
0.065132
0.082537
0.088219
0.070462
0.048144
0.042673
0.054104
0.052657
0.036526
0.02224
0.007885
0.035653
0.049274
0.046495
0.037534
0.05002
0.034407
0.031285
0.025433
0.038653
0.038123
0.036199
0.033262
0.0378
0.036803
-0.011505
-0.003751
-0.019021
-0.016549
-0.019103
-0.00923
0.00131
-0.010079
-0.005322
0.003046
-0.001951
0.008973
0.031386
0.032083
0.033318
-0.002283
-0.012566
-0.01526
-0.007743
-0.013374
-0.020358
-0.029962
-0.022898
-0.032008
-0.033979
-0.025097
-0.006334
0.003575
-0.053654
-0.040271
-0.019852
-0.002174
0.018249
0.005787
0.00885
0.004259
0.012398
0.005695
-0.018939
-0.004311
-0.008822
-0.040046
-0.031178
-0.030157
-0.022065
-0.028169
-0.026366
-0.034902
-0.018398
0.003724
0.008162
-0.000389
0.011188
0.0094
0.017492
0.018911
0.008285
-0.011139
0.004489
-0.003508
-0.016153
-0.031982
-0.052783
-0.058032
-0.045984
-0.06175
-0.048981
-0.049184
-0.053234
-0.028632
-0.022275
-0.027971
-0.007004
-0.007779
0.04239
0.06031
0.027901
0.041174
0.084416
0.10608
0.117642
0.164914
0.199553
0.233724
0.252935
0.315272
0.351947
0.36988
0.431596
0.495846
0.532277
0.59291
0.663188
0.697425
0.75053
0.787376
0.8052
0.821475
0.803597
0.811195
0.788052
0.732563
0.694008
0.639822
0.61086
0.580604
0.537717
0.485078
0.407084
0.371836
0.333953
0.296741
0.297097
0.269888
0.261979
0.233616
0.176307
0.150313
0.1201
0.044227
0.008788
0.002944
-0.037872
-0.036103
-0.010128
-0.03466
-0.020672
0.003194
-0.02023
-0.02448
0.031552
0.021866
0.023251
0.053129
0.039149
0.046091
0.075327
0.077934
0.076947
0.044176
0.038296
0.02559
0.011573
0.028815
0.024975
0.035171
0.039236
0.038487
0.045212
0.066605
0.075211
0.071017
0.042204
0.04659
0.070801
0.067558
0.063644
0.057414
0.059369
0.059804
0.05843
0.039235
0.02859
0.023605
0.023835
0.022509
0.031057
0.028585
0.040895
0.033732
0.046578
0.063384
0.071495
0.035612
0.044906
0.050878
0.063854
0.081772
0.074246
0.070214
0.068526
0.04541
0.041648
0.058782
0.035936
0.018914
0.021401
0.045336
0.056496
0.058823
0.0554
0.058676
0.080702
0.079633
0.074059
0.051126
0.067107
0.08017
0.058014
0.049844
0.056968
0.052224
0.027535
0.003892
0.005783
0.017564
0.0353
0.030399
0.035413
0.055111
0.070848
0.079209
0.06849
0.08732
0.086107
0.083817
0.0828
0.075269
0.077225
0.079748
0.089383
0.084636
0.065117
0.045335
0.032424
0.051849
0.0566
0.063442
0.070266
0.076541
0.1063
0.108995
0.074221
0.065255
0.078555
0.075042
0.059204
0.072437
0.064944
0.069258
0.062206
0.047539
0.038207
0.045287
0.050376
0.054732
0.056075
0.051015
0.069562
0.077062
0.074216
0.107595
0.089293
0.106621
0.096389
0.09656
0.101264
0.116573
0.110673
0.10462
0.093021
0.082332
0.077939
0.079731
0.074891
0.076798
0.088506
0.081624
0.097374
0.117229
0.14079
0.121196
0.118336
0.109404
0.124075
0.117979
0.131928
0.147837
0.146227
0.116031
0.092674
0.095771
0.101876
0.101151
0.094268
0.115406
0.105131
0.110791
0.121097
0.14067
0.140386
0.150419
0.154208
0.170022
0.168649
0.169493
0.164283
0.192727
0.175713
0.159917
0.138648
0.142757
0.158815
0.146953
0.146334
0.147092
0.162417
0.160668
0.162389
0.185602
0.19989
0.201394
0.213008
0.214152
0.216354
0.218826
0.217412
0.221516
0.203322
0.203798
0.209936
0.199121
0.195407
0.196453
0.202691
0.215406
0.210257
0.205688
0.186859
0.207174
0.242419
0.259204
0.246299
0.249098
0.244743
0.238671
0.229394
0.233233
0.241418
0.23887
0.218673
0.210809
0.218357
0.213585
0.209756
0.225314
0.222641
0.218801
0.200164
0.19468
0.235922
0.247884
0.249982
0.243674
0.240103
0.203759
0.209357
0.23245
0.201953
0.17688
0.171932
0.172042
0.164631
0.162937
0.166755
0.184317
0.173
0.169545
0.162662
0.17237
0.184282
0.185285
0.172096
0.173855
0.161548
0.150157
0.141245
0.140233
0.137775
0.115532
0.115804
0.112819
0.117052
0.094902
0.083999
0.076848
0.087424
0.078594
0.087859
0.069384
0.088472
0.098064
0.101463
0.099976
0.100093
0.092584
0.096307
0.087322
0.08728
0.076321
0.064137
0.064904
0.035633
0.046508
0.037532
0.041064
0.041143
0.034711
0.021067
0.024468
0.033634
0.046269
0.062223
0.082278
0.079559
0.060245
0.056676
0.046441
0.037278
0.021875
0.020695
0.028188
0.03762
0.004225
0.00452
0.013342
0.010179
0.011622
0.005518
0.01605
0.03253
0.080319
0.064417
0.051656
0.040526
0.019523
0.04829
0.062866
0.029245
0.033683
0.018328
0.010093
0.021827
-0.003732
-0.008751
0.01708
0.022592
0.022847
0.039986
0.024511
0.044692
0.047956
0.040655
0.067877
0.061011
0.03853
0.031109
0.027534
0.027922
0.020701
0.035976
0.001656
0.008123
0.015692
-0.002998
-0.008196
0.029223
0.029599
0.027635
0.030342
0.051014
0.05036
0.011737
0.031263
0.026472
0.034369
0.033343
0.029973
0.035077
0.040661
0.018014
0.010638
0.019201
0.00567
-0.005487
0.035925
0.026516
0.038464
0.047236
0.040969
0.034492
0.055589
0.057409
0.05179
0.040702
0.03485
0.03754
0.036232
0.045825
0.043867
0.038267
0.022348
0.026471
-0.009146
0.004555
0.01404
0.033781
0.036884
0.040527
0.033309
0.046911
0.053328
0.040674
0.058774
0.089764
0.071787
0.040158
0.051224
0.05237
0.041513
0.024948
0.028425
0.012708
0.017453
0.026416
0.03878
0.027597
0.03107
0.016763
0.046679
0.04868
0.062279
0.059233
0.05958
0.075149
0.066845
0.062514
0.062917
0.068428
0.067851
0.047038
0.044694
0.040592
0.027341
0.03169
0.022393
0.018543
0.020293
0.032877
0.059787
0.051232
0.063481
0.093038
0.08828
0.073126
0.055688
0.045568
0.035507
0.042617
0.049932
0.038525
0.029003
0.035056
0.080033
0.026987
0.022389
0.00324
-0.009583
0.029674
0.060005
0.076762
0.08255
0.090029
0.094184
0.070901
0.096476
0.073703
0.036989
0.03343
0.048548
0.028254
0.017377
0.014039
0.003384
0.031398
0.047282
0.06128
0.062825
0.067181
0.059346
0.040915
0.063057
0.053431
0.057663
0.051501
0.055921
0.069336
0.052672
0.069642
0.040369
0.041129
0.038692
0.050375
0.018948
0.013946
0.013406
0.032963
0.044893
0.047381
0.011568
0.034925
0.047498
0.039164
0.024613
0.068498
0.070921
0.060295
0.064912
0.053316
0.0357
0.024341
0.012346
0.017489
0.024331
0.014668
0.007629
0.014637
0.029847
0.0266
0.052739
0.064525
0.057317
0.058213
0.046003
0.044289
0.03663
0.036208
0.043645
0.035308
0.025531
0.016521
0.014985
0.014201
0.011659
0.022179
0.034928
0.032141
0.043503
0.034622
0.043
0.055838
0.056741
0.048518
0.038764
0.045927
0.032841
0.04293
0.0408
0.033609
0.052606
0.012266
0.000015
0.00219
0.009517
0.008663
0.029253
0.014505
0.018882
0.035287
0.028248
0.043503
0.057162
0.058252
0.038971
0.03902
0.059948
0.061157
0.046912
0.039436
0.04176
0.027107
0.054819
0.023
0.002729
0.002975
0.021813
0.025555
0.022029
0.035382
0.025842
0.042478
0.07649
0.048533
0.02639
0.029849
0.0267
0.043268
0.025955
0.011521
0.009519
0.011839
0.0335
0.022543
-0.007105
-0.003227
0.023781
-0.012938
0.004731
0.033145
0.025141
-0.00128
0.056162
0.07426
0.025539
0.042867
0.045309
0.04084
0.01989
0.032966
0.014409
0.013287
0.000992
-0.010119
0.02046
-0.002375
-0.010053
0.007343
0.008464
0.02341
0.033651
0.043142
0.040618
0.049134
0.04452
0.039274
0.052975
0.064075
0.016498
0.015366
0.029649
0.023535
0.013386
0.024259
-0.005826
-0.00009
0.025611
0.021322
0.02008
0.022531
0.023908
0.026202
0.035488
0.043083
0.049263
0.046583
0.030974
0.029574
0.025584
0.020005
0.006942
0.020355
0.020774
0.009479
-0.02573
-0.007803
0.020336
0.005905
0.010812
0.025746
0.024917
0.020976
0.027039
0.050593
0.048878
0.044136
0.038326
0.02723
0.024504
0.003141
-0.004527
0.019278
0.029271
0.002034
-0.003993
-0.005835
0.015804
-0.003782
0.018684
0.020272
0.025913
0.024858
0.049533
0.051062
0.030958
0.030573
0.012104
0.016684
0.036875
0.0191
-0.008769
0.02615
0.020308
-0.000567
-0.003066
-0.002701
0.038846
0.028457
0.014005
-0.00955
-0.021382
0.003172
0.026164
0.043864
0.034679
0.011443
0.050469
0.055012
0.042266
0.007973
0.004626
0.001508
0.003486
0.004398
-0.001798
-0.019763
-0.010507
-0.000209
0.015618
0.00698
0.000461
0.008178
0.040695
0.060425
0.059618
0.048344
0.036129
0.019619
0.019378
0.025112
0.023457
0.020252
-0.000046
-0.00776
0.000577
0.003318
0.00912
0.014447
0.029289
0.067449
0.052633
0.064005
0.0853
0.077606
0.073547
0.103069
0.081325
0.080032
0.077311
0.061387
0.048861
0.077369
0.081024
0.077184
0.054039
0.039753
0.055935
0.067255
0.072548
0.083124
0.116358
0.130416
0.089153
0.09016
0.095175
0.086088
0.07924
0.095748
0.094832
0.078545
0.074644
0.064107
0.055009
0.05836
0.054719
0.075074
0.071449
0.080019
0.107329
0.099217
0.115792
0.116919
0.131959
0.144666
0.135074
0.10604
0.098181
0.096929
0.103586
0.097826
0.084087
0.069591
0.079362
0.055831
0.053576
0.047892
0.049226
0.042136
0.060167
0.066952
0.055301
0.06367
0.062536
0.06574
0.090427
0.065608
0.05632
0.040689
0.033632
0.031014
0.016634
0.018348
0.002271
-0.004924
0.012964
0.016875
-0.001999
0.00153
0.020987
-0.00691
-0.003341
0.024482
0.0336
0.025918
0.019141
0.014923
0.027184
0.013412
0.00987
-0.007036
-0.010947
-0.025936
-0.008317
-0.0133
-0.022907
-0.028854
-0.032085
-0.034739
-0.016397
-0.008665
-0.001867
0.009342
0.008611
0.019651
0.022385
0.012072
0.006485
0.012408
-0.007807
-0.02391
-0.001941
-0.047619
-0.036647
-0.027199
-0.048755
-0.048981
0.001093
0.03681
0.000348
-0.010914
-0.001586
-0.005327
0.001829
0.002656
-0.000613
0.013108
-0.008321
-0.022753
-0.000237
-0.018107
-0.060738
-0.041085
-0.022001
-0.005646
-0.000968
0.001211
-0.02089
-0.036978
-0.016441
-0.010555
-0.017793
-0.011957
-0.01352
-0.020843
-0.025718
-0.033743
-0.028191
-0.028801
-0.046994
-0.047367
-0.031838
-0.03096
-0.019355
-0.007525
0.027456
0.048962
0.061843
0.086146
0.135082
0.182592
0.207071
0.258322
0.315022
0.35921
0.407187
0.435433
0.491567
0.540513
0.573843
0.606818
0.623423
0.662854
0.701014
0.732647
0.740714
0.715699
0.718658
0.722103
0.707288
0.665385
0.666261
0.65996
0.599548
0.537291
0.486527
0.409723
0.346917
0.316111
0.294166
0.2505
0.231828
0.183872
0.185137
0.132354
0.108994
0.068061
