-0.029679
-0.016668
-0.035426
-0.036013
-0.024043
-0.026167
0
-0.015866
-0.008271
-0.009242
-0.001509
0.023098
0.025302
0.0202
0.001076
-0.01395
-0.026124
-0.007887
-0.023598
-0.010135
-0.006202
-0.014134
-0.027783
-0.038402
-0.039502
-0.01537
-0.003032
0.008837
0.005589
0.004303
0.025994
0.037074
0.021823
0.023081
0.018116
0.009513
-0.004334
0.010748
-0.005497
-0.000273
-0.013336
-0.013397
-0.014842
-0.006885
0.006659
-0.002783
0.008977
0.007435
0.009761
0.007174
0.017653
0.021681
0.021062
0.03045
0.039653
0.034037
0.012846
0.010223
0.019016
0.00763
0.002086
-0.00427
-0.009752
0.013136
0.021605
0.023048
0.024123
0.04564
0.052141
0.060807
0.059211
0.068118
0.063682
0.040788
0.034486
0.053559
0.026351
0.006167
0.013241
0.002648
0.028019
0.032548
0.033908
0.029413
0.035201
0.043324
0.039355
0.037053
0.04977
0.074333
0.072188
0.067027
0.079282
0.072892
0.073276
0.06081
0.046368
0.054099
0.036456
0.043807
0.036235
0.053159
0.049072
0.076138
0.04639
0.053464
0.07505
0.068949
0.091207
0.102173
0.109455
0.110516
0.113398
0.096617
0.105662
0.106175
0.087177
0.080572
0.074845
0.074485
0.072283
0.060843
0.061769
0.066411
0.087885
0.111828
0.118272
0.11394
0.125618
0.119155
0.119024
0.146365
0.14451
0.120954
0.122877
0.120713
0.105394
0.103272
0.114564
0.128622
0.121234
0.114271
0.10798
0.11034
0.093742
0.115741
0.112625
0.122511
0.132155
0.153284
0.146913
0.137179
0.160733
0.141347
0.151369
0.139938
0.122281
0.120002
0.112226
0.108427
0.097162
0.112231
0.116123
0.081188
0.098155
0.099806
0.099424
0.132834
0.147037
0.152319
0.15578
0.120263
0.114349
0.115729
0.094736
0.10243
0.075493
0.070289
0.056653
0.052156
0.057905
0.060123
0.064908
0.071854
0.050727
0.056918
0.055668
0.046777
0.052661
0.07851
0.084823
0.042383
0.036481
0.034835
0.050423
0.05105
0.015199
0.036768
0.038387
-0.006114
-0.002556
-0.004871
-0.006488
-0.005521
-0.016369
-0.021059
0.000314
-0.009749
0.001934
0.008658
0.015431
0.00967
0.008592
0.017076
0.011732
0.000535
-0.013479
-0.001112
-0.005053
-0.022939
-0.034084
-0.032079
-0.04049
-0.038177
-0.019624
-0.016707
-0.018175
-0.0117
-0.011028
-0.000805
0.012598
-0.000221
-0.033804
0.001412
-0.020131
-0.02787
-0.02836
-0.023943
-0.034478
-0.043283
-0.047367
-0.045908
-0.045942
-0.041512
-0.035553
-0.028699
-0.024461
-0.028093
-0.017486
-0.00563
0.003248
-0.004042
-0.006114
0.001107
0.013521
-0.002628
-0.01655
-0.006514
-0.025262
-0.055322
-0.05199
-0.049811
-0.052042
-0.053431
-0.050406
-0.012093
-0.021535
-0.030553
-0.028029
-0.017443
-0.016626
-0.005978
-0.00388
0.0045
0.009997
-0.016921
-0.019043
-0.038116
-0.041495
-0.03281
-0.035673
-0.042155
-0.032959
-0.029557
-0.03815
-0.025516
-0.020188
-0.007492
-0.008193
-0.010012
-0.001167
-0.004872
-0.013768
-0.007199
-0.025305
-0.018684
-0.025447
-0.00669
-0.021612
-0.040935
-0.031884
-0.072222
-0.028493
-0.030955
-0.026355
-0.026715
-0.03772
-0.012291
-0.023465
-0.014758
-0.00074
0.002864
0.007788
0.007827
-0.010905
-0.022995
-0.024874
-0.035217
-0.022739
-0.036813
-0.044133
-0.040775
-0.031689
-0.03402
-0.044735
-0.034267
-0.019837
-0.00753
-0.007211
0.003038
-0.00167
0.002973
0.01675
-0.000982
0.006046
0.004435
0.013448
-0.020213
-0.034256
-0.026477
-0.037375
-0.038007
-0.030311
-0.04229
-0.038789
-0.041047
-0.05956
-0.045781
-0.025979
-0.033652
-0.018025
-0.001354
0.014249
0.022946
0.018345
0.030392
0.002585
-0.012584
-0.015935
-0.04198
-0.034099
-0.027478
-0.044448
-0.049723
-0.045504
-0.035501
-0.031706
-0.030838
-0.014437
-0.003376
0.000597
-0.004028
-0.014213
-0.013266
-0.004961
0.007672
-0.024534
-0.014986
-0.004859
-0.00997
-0.033373
-0.035939
-0.027531
-0.040389
-0.038646
-0.041569
-0.026499
-0.023419
-0.022073
-0.015286
-0.024465
-0.014519
-0.000909
0.002319
-0.006482
-0.003299
-0.014096
-0.020828
-0.026304
-0.028741
-0.022209
-0.028803
-0.038707
-0.034654
-0.050294
-0.039457
-0.027863
-0.02593
-0.019905
-0.024446
-0.012827
0.001652
0.009729
-0.021534
-0.014778
0.004438
-0.006397
-0.014425
-0.034874
-0.041587
-0.03391
-0.054223
-0.035976
-0.032502
-0.026182
-0.045978
-0.025488
-0.045948
-0.029299
-0.015548
-0.015519
-0.019141
-0.012855
-0.012068
-0.001625
-0.004652
-0.021671
-0.0228
-0.034261
-0.046297
-0.033635
-0.03738
-0.055651
-0.041356
-0.045368
-0.05022
-0.03293
-0.028099
-0.023893
-0.025059
-0.021439
0.00785
0.000098
-0.013266
-0.025175
-0.022447
-0.012108
-0.020512
-0.028744
-0.040755
-0.044787
-0.043374
-0.042317
-0.056801
-0.04921
-0.044114
-0.034158
-0.030675
-0.02276
-0.022618
-0.014646
-0.002665
-0.003302
0.009908
0.009779
0.008861
-0.001868
-0.012191
-0.018083
-0.022494
-0.038669
-0.040523
-0.035049
-0.02989
-0.042585
-0.026975
-0.00568
-0.03348
-0.037033
-0.01645
-0.01397
-0.018756
-0.005944
-0.013398
-0.016194
-0.005145
-0.011715
-0.034668
-0.014538
-0.032072
-0.037598
-0.058229
-0.050185
-0.047563
-0.063817
-0.069538
-0.041098
-0.040187
-0.021171
-0.011292
-0.017284
-0.011205
-0.007321
-0.000043
-0.004755
-0.013622
-0.026166
-0.01945
-0.044387
-0.021197
-0.033118
-0.03865
-0.035698
-0.040332
-0.046732
-0.033447
-0.035885
-0.013048
-0.019867
-0.01772
-0.015738
-0.020443
-0.013786
-0.010088
-0.010974
-0.019318
-0.030295
-0.024139
-0.025977
-0.038651
-0.028624
-0.040209
-0.046584
-0.056155
-0.055325
-0.056041
-0.038938
-0.018801
-0.014079
-0.020205
-0.019951
-0.000704
0.009385
0.010914
0.02013
0.005347
-0.007998
-0.023302
-0.024305
-0.034913
-0.034217
-0.02346
-0.016273
-0.027604
-0.030579
-0.017916
-0.017255
-0.012944
0.010134
0.007718
0.008724
0.00667
0.004654
-0.013693
-0.018966
-0.007711
-0.0019
-0.000735
-0.004975
-0.009975
-0.01693
-0.024781
-0.046101
-0.034622
-0.014481
-0.01993
-0.00929
-0.00608
0.006997
0.004304
0.022118
0.017572
0.02176
0.021286
0.029221
0.034883
0.045117
0.012546
-0.014716
-0.007576
-0.00681
0.000418
-0.010597
-0.016949
-0.001865
-0.000202
0.004648
0.006716
0.014732
0.016205
0.012406
0.019453
0.038625
0.031638
0.035013
0.045685
0.044808
0.033295
0.018124
-0.011517
0.000794
0.001317
-0.014788
-0.013458
-0.022984
-0.028851
-0.034058
-0.026326
-0.017891
-0.017716
-0.012205
-0.000871
0.015716
-0.013479
0.002004
0.016051
0.001487
-0.003062
-0.034403
-0.037149
-0.068585
-0.05108
-0.035625
-0.045691
-0.04025
-0.035159
-0.029394
-0.019382
-0.013915
-0.018663
0.004688
-0.006301
-0.010764
-0.023531
-0.023394
-0.028574
-0.020231
-0.018991
-0.025983
-0.027903
-0.044502
-0.048853
-0.058284
-0.067687
-0.05772
-0.049504
-0.036311
-0.020389
-0.03575
-0.030714
-0.025721
-0.028987
-0.021692
-0.025604
-0.030482
-0.042279
-0.038817
-0.044694
-0.043701
-0.045504
-0.04941
-0.059259
-0.064175
-0.055504
-0.055304
-0.052766
-0.048719
-0.045905
-0.029319
-0.031966
-0.019394
-0.02031
-0.017669
-0.021794
-0.005709
-0.012656
-0.018974
-0.00688
-0.010249
-0.031128
-0.054147
-0.066957
-0.063473
-0.055195
-0.072695
-0.06593
-0.077918
-0.066636
-0.053845
-0.037118
-0.025328
-0.02041
-0.026913
-0.025034
-0.010148
-0.009295
-0.030839
-0.035199
-0.035322
-0.041239
-0.044433
-0.040053
-0.061828
-0.063401
-0.054446
-0.049867
-0.052064
-0.04045
-0.02125
-0.011777
0.006634
0.003895
-0.006768
0.018603
0.031382
0.022866
0.060067
0.07873
0.076452
0.087107
0.114591
0.128651
0.145009
0.164819
0.191414
0.220545
0.225775
0.244037
0.262563
0.278711
0.285416
0.309413
0.316789
0.299385
0.294502
0.288526
0.272157
0.230152
0.205684
0.214399
0.182509
0.181119
0.183931
0.162882
0.114382
0.067907
0.064428
0.040613
0.006459
0.007688
-0.021804
-0.042073
-0.062256
-0.103552
-0.103826
-0.110927
-0.117026
-0.12936
-0.138656
-0.12765
-0.14827
-0.131054
-0.111594
-0.09464
-0.091527
-0.07842
-0.061684
-0.047563
-0.04672
-0.033211
-0.021773
-0.012129
-0.007797
0.008605
0.036678
0.013298
0.005795
0.005511
0.011039
-0.008994
-0.027035
-0.043352
-0.041319
-0.047365
-0.041017
-0.019817
-0.024455
-0.035252
-0.029378
-0.030871
-0.011651
-0.009325
-0.00888
0.015516
0.010074
0.011634
0.015257
-0.002966
-0.018857
-0.019186
-0.039985
-0.055519
-0.049524
-0.026912
-0.038993
-0.048833
-0.040076
-0.027063
-0.01115
0.013334
0.004725
-0.00264
-0.004674
0.007754
0.004228
0.002603
-0.021118
-0.01997
-0.014059
-0.033183
-0.03296
-0.029934
-0.011372
-0.009893
-0.022952
-0.027065
-0.036378
-0.028409
-0.00415
0.004489
0.010161
0.020386
0.030883
0.020665
0.019135
0.002127
0.01637
0.029904
-0.014459
-0.014809
-0.015423
-0.007362
-0.020769
-0.011623
-0.027061
-0.028918
-0.014958
-0.016128
-0.00262
-0.003266
-0.000136
0.015352
0.038361
0.017805
0.012377
0.005254
0.005395
-0.004284
-0.005536
-0.007972
-0.002618
0.00533
-0.019998
-0.026461
-0.009472
-0.006178
-0.006442
-0.010109
-0.005934
0.0073
0.03434
0.042428
0.040224
0.034907
0.043791
0.032271
0.028908
0.010055
0.005916
0.004624
0.014874
-0.004098
0.000043
0.011907
-0.000007
-0.021521
-0.01429
-0.003563
0.016743
0.060553
0.030126
0.006426
0.032062
0.035726
0.040313
0.039869
0.023678
0.023586
0.023148
0.03564
0.021634
0.019195
0.020577
0.020285
0.033367
0.019384
0.003136
0.00289
0.018148
0.027017
0.042559
0.050263
0.050802
0.067504
0.069036
0.075206
0.062462
0.049523
0.063195
0.055287
0.034209
0.022375
0.026289
0.029771
0.041696
0.045208
0.042089
0.048022
0.059733
0.074034
0.079443
0.081998
0.079734
0.080513
0.082137
0.057331
0.063773
0.07509
0.07935
0.094049
0.07606
0.071441
0.029681
0.064238
0.065904
0.059504
0.055585
0.056693
0.075973
0.082287
0.095011
0.109598
0.102255
0.110416
0.116604
0.127186
0.128806
0.124814
0.123618
0.102491
0.089645
0.091624
0.08823
0.096288
0.089867
0.102778
0.108218
0.127365
0.120084
0.117298
0.117681
0.131099
0.143239
0.133687
0.123334
0.16122
0.132959
0.122323
0.118973
0.122307
0.099868
0.112942
0.11706
0.099847
0.10013
0.113198
0.127154
0.133328
0.130578
0.112631
0.14632
0.15142
0.165614
0.179528
0.182106
0.172561
0.18122
0.155977
0.142694
0.135706
0.090684
0.11325
0.112126
0.119051
0.100101
0.104209
0.112831
0.10512
0.106275
0.128158
0.127616
0.123217
0.136618
0.140969
0.129958
0.125211
0.111618
0.109056
0.110242
0.096357
0.085761
0.079341
0.066405
0.062957
0.062138
0.05458
0.060636
0.05611
0.057254
0.063884
0.055038
0.041558
0.045513
0.048763
0.058507
0.052665
0.036202
0.045804
0.02243
0.016195
-0.003235
-0.006498
-0.009367
-0.007797
-0.011003
0.015301
-0.002089
0.002257
0.004822
0.014357
0.008787
0.003883
0.007966
0.008414
0.005629
0.002951
0.020136
0.017174
-0.007499
-0.015674
-0.010134
-0.003119
-0.032706
-0.027274
-0.005756
-0.005897
0.001885
0.00078
-0.012666
-0.001541
0.007427
-0.002407
-0.000188
-0.003473
-0.004452
0.012168
-0.017732
-0.010245
-0.004918
-0.002132
-0.030356
-0.037245
-0.021493
-0.025596
-0.016394
-0.008704
-0.005655
-0.025246
-0.015104
-0.034117
-0.026059
-0.008294
-0.001736
0.014785
0.009582
0.01863
0.00707
-0.007746
-0.014626
-0.01824
-0.011297
-0.02519
-0.036859
-0.030746
-0.03314
-0.034327
-0.027016
-0.025711
-0.02536
-0.016605
-0.037592
-0.033234
-0.00595
-0.005515
0.007269
0.014861
0.007655
-0.000867
-0.00254
-0.003545
-0.023408
-0.026204
-0.034114
-0.012779
-0.006285
-0.022332
-0.02043
-0.020419
-0.02703
-0.023051
-0.016141
-0.000277
0.005906
0.019254
-0.003115
0.002961
0.02312
0.008487
-0.00706
-0.029995
-0.011234
-0.02219
-0.042234
-0.038687
-0.037347
-0.026493
-0.034443
-0.018806
-0.010796
0.004449
-0.004844
0.006955
0.029992
0.02195
0.02002
0.020078
0.029282
0.005918
0.002473
-0.011169
-0.007563
-0.026436
-0.018454
-0.013034
-0.02153
-0.022582
-0.008128
-0.007525
-0.015146
-0.009368
-0.012358
0.002174
0.003377
0.006586
0.019299
0.029351
0.011832
0.022598
0.010617
0.011872
-0.000447
-0.015528
-0.020961
-0.021265
-0.032411
-0.024162
-0.019668
-0.023569
-0.015694
-0.00468
0.000764
0.00623
-0.000335
0.00316
0.006545
0.017727
0.019725
0.009271
-0.00443
-0.001366
-0.01027
-0.020493
-0.021726
-0.0253
-0.039156
-0.014428
-0.020954
-0.042398
-0.037293
-0.016376
-0.009363
0.000975
0.012884
0.028736
0.031649
0.018226
-0.000816
0.010567
-0.001152
-0.014974
-0.032186
-0.037576
-0.042155
-0.028058
-0.033642
-0.031806
-0.034659
-0.022034
-0.022376
-0.017023
-0.002676
0.004997
0.001748
0.010528
0.014846
0.021527
0.005272
0.015174
0.007714
-0.008099
-0.007035
-0.015967
-0.028363
-0.02983
-0.023775
-0.026913
-0.018255
-0.031707
-0.020387
-0.010091
0.004919
0.006092
0.014474
0.020121
0.027265
0.04217
0.018073
0.013197
-0.01298
-0.013215
-0.005457
-0.024916
-0.031697
-0.031792
-0.036742
-0.041065
-0.040395
-0.034837
-0.029958
-0.044956
-0.031678
-0.024681
-0.000198
0.021056
-0.005846
0.006361
-0.004696
-0.007052
-0.02143
-0.024007
-0.014774
-0.014005
-0.039649
-0.047215
-0.035918
-0.041467
-0.037896
-0.04538
-0.036142
0.00599
0.001704
-0.002215
-0.003148
-0.01214
-0.007423
-0.010501
0.018768
-0.001856
0.002233
-0.004384
-0.020302
-0.013715
-0.03842
-0.048428
-0.042104
-0.044242
-0.060149
-0.049246
-0.011338
-0.004188
-0.01021
-0.003522
0.020097
0.016112
0.007205
-0.00544
-0.005735
0.006217
-0.004321
-0.019318
-0.029515
-0.050182
-0.036932
-0.031513
-0.033811
-0.033623
-0.04458
-0.032089
-0.029836
-0.0161
-0.011492
0.004523
0.01505
0.001407
0.017472
0.003274
0.00558
0.014001
-0.001336
0.006755
-0.004787
-0.031247
-0.019672
-0.033581
-0.054227
-0.055638
-0.047789
-0.03671
-0.036354
-0.028809
-0.020832
-0.004785
0.00439
-0.001089
0.006161
0.001156
-0.002125
-0.006095
-0.014824
-0.012018
0.016433
0.001159
-0.026362
-0.030231
-0.034743
-0.042526
-0.053423
-0.035758
-0.034735
-0.01965
-0.011889
0.008159
-0.000425
0.001959
-0.010575
-0.004244
0.003995
0.005442
-0.017227
-0.032947
-0.046262
-0.03087
-0.043069
-0.041744
-0.034481
-0.050843
-0.037581
-0.043391
-0.020791
-0.018679
-0.012199
0.007184
0.00716
-0.007782
-0.007086
0.006616
-0.005343
0.005754
-0.007032
-0.002995
-0.007376
-0.00425
0.002812
-0.008488
-0.015298
-0.013705
-0.013818
-0.018754
-0.004452
-0.002151
0.010018
0.00725
0.023143
0.018076
0.016039
0.010492
0.016018
0.023216
0.01025
0.002006
0.002038
-0.006531
-0.00645
-0.004485
-0.009112
0.022134
0.020975
-0.000989
0.014991
0.006799
0.011068
0.025662
0.014723
0.027674
0.031639
0.02677
0.02819
0.04588
0.037979
0.03114
0.013712
0.00138
0.004109
0.002305
0.005763
0.005731
-0.006501
-0.000335
-0.003891
-0.000681
0.01249
0.017705
0.028552
0.032524
0.037377
0.044432
0.053791
0.03106
0.021207
0.020671
0.007278
-0.007513
-0.009351
-0.004318
-0.022041
-0.027127
-0.030793
-0.017893
-0.01615
-0.01412
-0.02063
0.004119
0.011039
0.004681
-0.00013
0.006206
0.006143
-0.002661
-0.006574
-0.01008
-0.020285
-0.024899
-0.025633
-0.033402
-0.039928
-0.059085
-0.04929
-0.018898
-0.048643
-0.057955
-0.040121
-0.0367
-0.022151
-0.011775
0.000962
-0.00243
0.022073
0.003881
-0.027277
-0.017206
-0.01779
-0.036276
-0.053202
-0.051974
-0.051097
-0.052908
-0.050683
-0.035956
-0.044684
-0.035375
-0.042713
-0.039073
-0.020166
-0.029202
-0.005014
-0.010225
-0.008657
-0.012875
-0.01894
-0.017307
-0.035827
-0.059115
-0.058093
-0.045923
-0.040463
-0.042738
-0.05827
-0.05084
-0.035095
-0.023085
-0.031972
-0.025575
-0.020858
-0.031057
-0.032935
-0.022973
-0.014784
-0.020804
-0.017451
-0.025987
-0.014516
-0.020887
-0.059118
-0.048628
-0.045559
-0.054923
-0.055502
-0.054029
-0.035725
-0.031133
-0.02084
-0.008699
-0.014704
-0.022489
-0.005279
-0.019476
-0.019394
-0.012473
-0.015542
-0.014625
-0.028156
-0.026666
-0.048805
-0.051274
-0.038678
-0.044782
-0.030637
-0.0288
-0.030165
-0.025058
-0.014094
0.031285
0.051279
0.038488
0.0724
0.109014
0.136265
0.175294
0.178247
0.192232
0.204732
0.230465
0.247995
0.258287
0.257796
0.266434
0.282794
0.314264
0.315122
0.315082
0.308433
0.290362
0.286929
0.277867
0.263174
0.260116
0.261251
0.240949
0.217702
0.189736
0.150325
0.136432
0.104465
0.082486
0.04766
0.002959
-0.009654
-0.0496
-0.063438
-0.101767
-0.112712
-0.087543
-0.101554
-0.096295
-0.088407
-0.095198
-0.087945
-0.073175
-0.07066
-0.063139
-0.067911
-0.062427
-0.049587
-0.070977
-0.043844
-0.045635
-0.043647
-0.025358
-0.019068
-0.040366
-0.024752
-0.023163
-0.016689
-0.015311
-0.011124
0.007685
0.012997
0.00763
0.003639
-0.012977
-0.01418
-0.003038
-0.008876
-0.033799
-0.04182
-0.025433
-0.02465
-0.018888
-0.029323
-0.023679
-0.004244
-0.004653
-0.008321
0.005687
0.001563
-0.001191
0.001892
0.000965
0.003272
0.00319
0.00292
-0.001213
-0.009087
-0.015984
-0.032497
-0.046203
-0.032856
-0.042244
-0.02358
-0.027498
0.008907
0.029016
0.015373
-0.000367
0.003817
-0.000935
0.007356
0.008469
0.002295
0.004726
0.006771
0.005747
-0.014033
-0.019902
-0.008509
-0.005477
-0.003078
-0.018076
-0.02374
-0.006849
0.019173
0.018045
-0.001653
0.004544
0.018974
0.016786
0.019557
0.01297
0.011941
0.021461
0.014519
0.006128
-0.005398
0.000567
-0.013078
-0.02951
-0.014604
-0.015867
-0.012631
0.002207
0.000637
0.017413
0.015101
0.009742
0.012986
0.017114
0.011204
0.026758
0.035925
0.031102
0.01144
0.005406
-0.011316
-0.000746
-0.004489
-0.006705
0.000819
-0.003936
-0.00307
0.009236
0.025359
0.024182
0.028674
0.052766
0.05815
0.061946
0.06068
0.033741
0.030976
0.022313
0.047792
0.016094
0.013128
0.012717
0.008555
-0.000803
-0.004278
0.001034
0.012035
0.007502
0.011135
0.016836
0.032992
0.048752
0.055534
0.043559
0.045725
0.057667
0.048391
0.050389
0.036613
0.032574
0.023872
-0.001854
-0.002654
0.0235
0.019269
0.003451
0.03717
0.061727
0.073924
0.06159
0.077958
0.076795
0.068706
0.069258
0.067531
0.065037
0.053707
0.050961
0.052538
0.054798
0.04394
0.050105
0.053256
0.057372
0.060998
0.05266
0.042608
0.046828
0.051513
0.065706
0.071337
0.07872
0.099129
0.098064
0.094453
0.098761
0.10541
0.091954
0.096199
0.091319
0.084532
0.084179
0.097584
0.054272
0.072838
0.093387
0.097563
0.104089
0.103163
0.096495
0.113953
0.118098
0.119181
0.113871
0.119083
0.12182
0.123972
0.124687
0.115417
0.111385
0.127693
0.102437
0.097325
0.100344
0.10017
0.113339
0.119359
0.119707
0.12306
0.138303
0.146979
0.141216
0.143364
0.150173
0.146392
0.140667
0.161053
0.150401
0.14078
0.139694
0.12205
0.120621
0.123716
0.107549
0.106875
0.10877
0.117985
0.122824
0.150937
0.158835
0.149521
0.156129
0.180569
0.166993
0.166668
0.166159
0.15754
0.157887
0.154733
0.150135
0.14758
0.135222
0.126397
0.106246
0.114111
0.114513
0.123526
0.117287
0.119657
0.136289
0.121178
0.116887
0.126496
0.126122
0.118816
0.119886
0.076033
0.076575
0.072354
0.058806
0.060018
0.060775
0.051934
0.032059
0.028254
0.028492
0.031782
0.043154
0.061663
0.066208
0.063971
0.065369
0.064587
0.056093
0.057368
0.042938
0.033914
0.020707
0.013907
0.001083
0.013722
0.019693
0.008266
0.01686
-0.011605
-0.010294
-0.012641
-0.023718
0.004398
0.001793
0.007155
0.018695
0.01774
0.035051
0.016534
0.02172
0.022097
0.000134
-0.000987
-0.01362
0.004539
-0.022459
-0.035778
-0.033586
-0.020892
-0.026599
-0.022268
-0.02919
-0.025227
-0.022747
0.014127
-0.001232
-0.029972
-0.004117
0.02904
0.028722
0.006795
0.014243
0.00116
0.00106
0.00262
-0.010221
-0.032808
-0.015721
-0.031987
-0.051474
-0.050218
-0.025138
-0.016373
0.000417
0.003477
0.0056
-0.001642
0.0074
0.018914
0.005498
0.012675
0.011706
0.005579
-0.0071
-0.01753
-0.024022
-0.015033
-0.018419
-0.011729
-0.026733
-0.041235
-0.029941
-0.032429
0.002839
0.003239
0.003435
0.00722
0.009493
0.01731
0.019765
0.008
0.004655
0.01029
0.001799
-0.005543
-0.017313
-0.01828
-0.019229
-0.026396
-0.017951
-0.027035
-0.02815
-0.039958
-0.040703
-0.025634
-0.005555
0.014226
0.017608
0.024815
0.027674
0.019524
0.010253
0.01171
0.006438
0.003232
-0.030136
-0.032627
-0.03796
-0.055782
-0.036593
-0.039719
-0.03546
-0.016872
0.004517
0.012773
0.013737
0.021206
0.002078
0.004139
0.005265
-0.003272
-0.01153
-0.025233
-0.021764
-0.020173
-0.027178
-0.008848
-0.012158
-0.035694
-0.038458
-0.025711
-0.021641
-0.012082
-0.003868
0.025889
0.027232
0.01656
0.017037
0.015521
0.007466
0.021742
0.014335
-0.007674
-0.013763
-0.016095
-0.010278
-0.030418
-0.026038
-0.035419
-0.028915
-0.009809
-0.021833
-0.021249
-0.004797
0.004188
0.012711
0.011236
0.010855
0.003268
0.015245
0.01389
0.005541
0.008662
0.00915
0.012222
-0.026451
-0.030131
-0.037498
-0.039519
-0.039467
-0.031342
-0.036638
-0.026411
-0.009701
0.00503
0.010436
0.023406
0.032398
0.01983
0.007558
-0.00132
0.002241
-0.007087
-0.011324
-0.016529
-0.006189
-0.00748
-0.027005
-0.032007
-0.03691
-0.034212
-0.017018
-0.012516
0.003007
0.011959
0.017239
0.032366
0.020458
0.021156
0.00398
-0.004587
0.007328
-0.007624
-0.022743
-0.027358
-0.042355
-0.042224
-0.040906
-0.05603
-0.056177
-0.044919
-0.03513
-0.012111
-0.008135
-0.025426
-0.002634
0.006118
0.012252
0.017182
0.016028
0.013561
0.008687
-0.015635
-0.022085
-0.027081
-0.025906
-0.015707
-0.040275
-0.04512
-0.041547
-0.037918
-0.037549
-0.009729
-0.021834
-0.016561
0.009812
-0.000574
0.008692
0.022231
0.014144
-0.004828
-0.014584
-0.018393
-0.022908
-0.035555
-0.029998
-0.030533
-0.027354
-0.026376
-0.034453
-0.024254
-0.025815
-0.046657
-0.01501
-0.025631
-0.014234
-0.008621
-0.004672
-0.01187
-0.005276
-0.000732
-0.016411
-0.010072
-0.017756
-0.021107
-0.02905
-0.034762
-0.051715
-0.048812
-0.050398
-0.047189
-0.035632
-0.02086
-0.011378
-0.012381
0.000103
-0.000592
0.00654
0.005498
-0.007061
-0.001806
-0.008335
-0.01397
-0.019079
0.0014
-0.028857
-0.050356
-0.051242
-0.037301
-0.020151
-0.009806
-0.031268
-0.036738
-0.015169
-0.009293
0.012204
0.015358
0.03366
0.017237
-0.005805
0.004434
0.005068
-0.013808
-0.009603
-0.030322
-0.044911
-0.034298
-0.044508
-0.056153
-0.044066
-0.041833
-0.029145
-0.016089
0.001169
-0.006798
-0.015895
-0.008617
0.000932
0.020306
0.005839
-0.003666
-0.005919
-0.025741
-0.032253
-0.023158
-0.026985
-0.035246
-0.057439
-0.055067
-0.053439
-0.030919
-0.038672
-0.042404
-0.031549
-0.020171
-0.010058
-0.009111
-0.010135
-0.009562
-0.016896
-0.019753
-0.020005
-0.029056
-0.036665
-0.033113
-0.029652
-0.023751
-0.033755
-0.036948
-0.045532
-0.03546
-0.026284
-0.030008
-0.02525
-0.030368
-0.023982
-0.00756
-0.002939
-0.0118
0.008018
-0.005344
-0.011319
0.002618
-0.004657
-0.018082
-0.036228
-0.043611
-0.051021
-0.037301
-0.040269
-0.055068
-0.062493
-0.038902
-0.019201
-0.007592
-0.019099
-0.012561
-0.008946
-0.007895
-0.005256
0.011605
-0.014025
-0.024276
-0.023292
-0.029315
-0.039196
-0.049448
-0.039684
-0.026692
-0.030457
-0.042821
-0.047611
-0.037625
-0.0182
-0.021505
-0.015364
-0.00804
0.013386
0.021991
0.020413
0.006805
-0.020361
-0.0294
-0.015971
-0.023353
-0.033246
-0.018881
-0.026444
-0.047343
-0.035608
-0.043121
-0.04096
-0.027382
-0.022486
-0.005811
0.004588
0.021196
0.014276
0.006131
-0.00465
-0.008672
-0.013489
-0.001275
-0.000795
-0.026406
-0.035044
-0.01553
-0.021029
-0.017231
-0.017074
-0.02155
-0.004614
-0.005234
-0.002133
0.005337
0.018569
0.042044
0.015225
0.018015
0.019893
0.02784
0.040834
0.035326
0.017184
0.006953
0.020231
-0.003878
0.002931
-0.008669
-0.008866
-0.008521
0.003586
0.013036
0.006714
0.017464
0.040452
0.037025
0.019684
0.026199
0.025683
0.038179
0.038602
0.011244
0.007757
0.014423
0.006986
0.005835
-0.026229
-0.020757
-0.010799
-0.031842
-0.018538
-0.009255
-0.005989
-0.006152
-0.00228
0.020142
0.017645
0.026483
0.023607
0.014727
0.007977
-0.001354
-0.017952
0.027983
-0.029844
-0.04622
-0.035736
-0.038961
-0.035804
-0.028266
-0.025595
-0.042072
-0.031588
-0.026489
-0.017465
-0.031135
-0.014897
-0.019301
-0.014148
-0.036081
-0.024121
-0.028127
-0.043024
-0.041507
-0.051772
-0.056375
-0.065707
-0.062906
-0.063568
-0.048631
-0.052386
-0.050005
-0.052075
-0.030516
-0.028645
-0.025151
-0.025006
-0.025709
-0.016147
-0.007313
-0.000374
0.00454
-0.036355
-0.036574
-0.053649
-0.060372
-0.061119
-0.055198
-0.054551
-0.050293
-0.054175
-0.051836
-0.044246
-0.035824
-0.030724
-0.032077
-0.005634
-0.027491
-0.039599
-0.039531
-0.0533
-0.048602
-0.045901
-0.056479
-0.057298
-0.064269
-0.046791
-0.051689
-0.0522
-0.069077
-0.055858
-0.037692
-0.035312
-0.030334
-0.026725
-0.031272
-0.026174
-0.015918
-0.013484
-0.028861
-0.029429
-0.013482
-0.024718
-0.037025
-0.036255
-0.043624
-0.036204
-0.060844
-0.06375
-0.06234
-0.054474
-0.035831
-0.032126
-0.034746
-0.026156
-0.025279
-0.025009
-0.013875
-0.005135
0.009279
-0.008752
0.015696
0.011795
0.032675
0.055982
0.082888
0.101046
0.129836
0.161811
0.152855
0.183513
0.211164
0.246058
0.2631
0.282407
0.285712
0.293035
0.316408
0.320931
0.317782
0.317047
0.298607
0.289976
0.271524
0.229022
0.223997
0.222196
0.209014
0.18216
0.156091
0.121617
0.095968
0.059958
0.044856
0.053492
0.037225
0.005659
-0.007402
-0.04947
-0.070466
-0.090553
-0.097096
-0.125476
-0.136652
-0.153241
-0.142077
-0.134879
-0.119152
-0.11302
-0.104543
-0.089521
-0.070736
-0.073052
-0.061303
-0.031363
-0.014371
-0.005992
-0.000889
-0.006295
-0.021053
-0.026256
-0.026101
-0.001752
-0.001672
-0.008614
-0.051627
-0.043247
-0.040636
-0.050111
-0.058807
-0.051022
-0.031976
-0.043312
-0.030535
-0.019061
-0.021228
-0.017806
-0.007029
-0.008001
0.011685
0.008987
-0.012538
-0.002688
-0.022725
-0.014977
-0.036533
-0.054342
-0.037166
-0.027534
-0.035701
-0.024654
-0.029594
-0.039478
-0.023814
-0.018469
0.001435
0.003045
0.01674
0.004233
0.008982
-0.012561
-0.006599
0.004624
-0.001884
-0.026671
-0.047023
-0.044125
-0.044026
-0.03224
-0.036215
-0.037857
-0.035161
-0.015815
-0.019545
-0.019903
-0.024373
-0.026366
0.006425
0.020367
0.011817
0.023429
0.01869
0.016823
0.003213
-0.015196
-0.04088
-0.03601
-0.029293
-0.034297
-0.033481
-0.025236
-0.018543
-0.012172
-0.005829
-0.016487
-0.008921
0.001615
-0.001081
0.010174
0.011689
0.008294
0.008086
-0.015447
-0.011654
-0.005671
0.001489
0.011969
-0.024197
-0.027208
-0.035571
-0.033549
-0.026602
-0.005901
0.006542
-0.003248
-0.005286
-0.00341
0.008752
0.013426
0.009416
0.00789
0.008985
0.014694
0.005676
-0.008328
-0.012847
-0.005044
0.00478
-0.004305
0.001692
0.003682
0.00775
-0.001422
-0.007245
0.021328
0.03313
0.016642
0.020277
0.030671
0.023309
0.032206
0.014925
0.020193
0.025473
0.011041
0.011661
0.013992
0.006932
-0.001666
0.003289
0.010647
0.015993
0.010978
0.019194
0.029187
0.024628
0.061193
0.060635
0.068673
0.066183
0.062571
0.065878
0.057909
0.031656
0.006447
0.018803
0.008152
0.012689
0.014246
0.011391
0.013123
0.011631
0.021118
0.030024
0.042616
0.058228
0.055804
0.071748
0.085005
0.080399
0.059084
0.07055
0.05305
0.059651
0.053431
0.052391
0.062842
0.064811
0.069603
0.057
0.050981
0.048118
0.059542
0.058345
0.063869
0.064086
0.101522
0.112666
0.105649
0.093215
0.099361
0.085696
0.098239
0.096489
0.085531
0.080859
0.079921
0.090622
0.106731
0.07542
0.068759
0.078655
0.086168
0.118389
0.120713
0.129409
0.151247
0.126164
0.132563
0.121276
0.129485
0.13293
0.137331
0.113109
0.108031
0.107715
0.097093
0.114431
0.102303
0.096099
0.106839
0.108187
0.104821
0.114748
0.138289
0.121438
0.133478
0.119135
0.133683
0.148651
0.163399
0.174623
0.167507
0.143923
0.119619
0.13321
0.122864
0.104737
0.09713
0.092087
0.10298
0.105425
0.096756
0.094764
0.109762
0.129559
0.131299
0.131116
0.118429
0.115916
0.125909
0.142089
0.138056
0.128567
0.110094
0.09023
0.072071
0.067044
0.056793
0.05777
0.078706
0.066763
0.06431
0.067099
0.0694
0.077886
0.088391
0.073243
0.048714
0.045733
0.04227
0.05172
0.044492
0.042888
0.02526
0.046802
0.027435
0.012069
0.001846
-0.00198
-0.000005
-0.004274
-0.011228
-0.019917
-0.020712
-0.014407
0.007904
0.021091
0.010238
0.006326
0.015358
0.01415
0.007786
0.020065
-0.001708
0.000779
-0.029217
-0.007171
-0.024267
-0.033609
-0.032369
-0.035771
-0.023727
-0.024833
-0.024864
-0.02218
-0.026094
-0.007713
0.001302
-0.004241
-0.018269
-0.010097
-0.00672
-0.002641
-0.013454
-0.011035
-0.019101
-0.025252
-0.025915
-0.038087
-0.029234
-0.031679
-0.037916
-0.023115
-0.016115
-0.022858
-0.021086
-0.015842
-0.002617
-0.007173
0.004978
-0.014882
-0.017043
-0.018073
-0.015457
-0.019894
-0.031609
-0.035129
-0.040151
-0.057781
-0.043234
-0.045151
-0.051705
-0.040044
-0.012315
-0.00179
0.002916
0.006977
0.003179
0.004797
-0.000271
-0.001062
-0.01046
-0.017412
-0.026182
-0.041692
-0.034078
-0.043492
-0.054115
-0.03059
-0.03289
-0.037682
-0.037648
-0.032907
-0.004311
-0.000146
-0.000253
-0.002669
0.004134
-0.001891
0.001127
-0.018188
-0.006709
-0.024262
-0.020051
-0.017661
-0.030122
-0.042387
-0.048256
-0.03333
-0.014561
-0.025489
-0.032768
-0.018861
-0.003348
-0.000217
0.000501
-0.006684
-0.004258
-0.005005
-0.001007
-0.003614
-0.007157
-0.010801
-0.007356
-0.018158
-0.01813
-0.018614
-0.014405
-0.019813
-0.033504
-0.04772
-0.021576
-0.038828
-0.040071
-0.023384
-0.009584
0.001195
-0.005838
0.014306
0.02019
-0.001266
-0.011667
-0.007653
-0.027882
-0.016619
-0.025447
-0.028211
-0.036356
-0.032734
-0.02261
-0.014074
-0.020605
-0.018472
-0.013616
-0.005838
0.000457
0.004935
0.002062
-0.001979
-0.006103
-0.000492
-0.013319
-0.024438
-0.020485
-0.021274
-0.029097
-0.023691
-0.061041
-0.041637
-0.045375
-0.053416
-0.034163
-0.034116
-0.018514
-0.036106
-0.01371
-0.002019
-0.009746
-0.014067
0.003896
0.002727
-0.00382
0.009454
-0.015004
-0.018514
-0.03446
-0.043819
-0.03604
-0.042422
-0.029895
-0.04941
-0.048664
-0.028318
-0.018863
-0.020223
-0.013097
-0.015987
-0.019146
-0.00226
0.008571
0.008083
0.016611
0.021292
-0.007906
-0.006687
-0.029641
-0.030434
-0.045798
-0.050466
-0.025767
-0.045111
-0.047292
-0.040383
-0.018702
-0.019242
-0.014997
-0.010315
-0.016205
-0.018011
-0.009714
-0.00143
-0.002196
0.002933
-0.002868
-0.010746
-0.041549
-0.033225
-0.034761
-0.035046
-0.031656
-0.034652
-0.035612
-0.033997
-0.04975
-0.047112
-0.033658
-0.025811
-0.019476
-0.01229
-0.00837
0.004169
-0.011268
-0.025564
-0.013126
-0.022303
-0.019819
-0.021023
-0.031137
-0.026088
-0.037155
-0.052481
-0.024667
-0.025548
-0.028817
-0.024759
-0.033325
-0.030251
-0.00599
0.001932
0.001328
0.006351
0.003186
0.000389
-0.008089
-0.041145
-0.031624
-0.025548
-0.024227
-0.050685
-0.059747
-0.047974
-0.029874
-0.033695
-0.023444
-0.030486
-0.017799
-0.030307
-0.007699
-0.011329
-0.011187
-0.005574
-0.003565
-0.014635
-0.014139
-0.025239
-0.023436
-0.028689
-0.031779
-0.035154
-0.043567
-0.033491
-0.03113
-0.024807
-0.045273
-0.029995
-0.026741
-0.019685
-0.03087
-0.018209
-0.012137
-0.012135
-0.022527
-0.033271
-0.022714
-0.035663
-0.03849
-0.039737
-0.040307
-0.037496
-0.03876
-0.056273
-0.068213
-0.043276
-0.038157
-0.025442
-0.021801
-0.020089
-0.016113
-0.006786
-0.006826
-0.012039
-0.010311
-0.003936
-0.01744
-0.025995
-0.04222
-0.04735
-0.033836
-0.035322
-0.053231
-0.048119
-0.04643
-0.035415
-0.028342
-0.040149
-0.043414
-0.026905
0.008534
0.003729
-0.014862
0.001562
-0.009995
-0.021839
-0.019511
-0.018497
-0.023836
-0.042805
-0.055329
-0.03378
-0.051516
-0.043317
-0.035733
-0.039321
-0.01854
-0.020335
-0.016824
-0.020933
-0.020371
0.002266
0.008969
0.016933
-0.018346
-0.02297
-0.039327
-0.041604
-0.036094
-0.032338
-0.030563
-0.043527
-0.050637
-0.040813
-0.031501
-0.018143
-0.020067
-0.016499
0.008433
-0.007975
0.003797
0.009645
-0.009804
-0.016739
0.009816
0.006296
-0.01905
-0.04337
-0.050758
-0.062592
-0.04798
-0.050667
-0.047348
-0.05502
-0.064419
-0.049639
-0.010468
-0.0307
-0.023431
-0.001375
0.002292
-0.010713
-0.028611
-0.018984
-0.00962
-0.019347
-0.019027
-0.018819
-0.023485
-0.025279
-0.032201
-0.044725
-0.055817
-0.068093
-0.06573
-0.056323
-0.041011
-0.047725
-0.035868
-0.019112
-0.01361
-0.015281
-0.011419
-0.001883
0.001675
0.016772
-0.007124
-0.01984
-0.021627
-0.017725
-0.026231
-0.025284
-0.015866
-0.018424
-0.047768
-0.027064
-0.01836
-0.013199
-0.001638
-0.00936
-0.00506
-0.007645
0.00116
-0.002002
-0.00112
-0.009783
-0.011
-0.02111
-0.014362
-0.004617
-0.018101
-0.023875
-0.009298
-0.029202
-0.015747
-0.011431
-0.000359
0.00386
-0.001263
-0.001865
0.004342
0.019489
0.022922
0.024642
0.031141
0.036906
0.026568
0.018803
-0.003707
0.004865
-0.014601
-0.011452
-0.005742
-0.005744
-0.007401
0.018287
0.035008
0.049672
0.026633
0.030136
0.023862
0.050501
0.034277
0.025936
0.030083
0.033209
0.006587
0.019654
0.013633
0.021817
0.013694
0.004461
-0.004368
0.000417
0.003621
0.007559
0.010086
0.008621
0.00495
0.006938
0.020265
0.001158
0.007099
0.000984
-0.020806
0.000897
-0.007608
-0.032476
-0.012688
-0.017593
-0.019497
-0.021135
-0.030773
-0.04127
-0.041624
-0.036293
-0.039351
-0.03765
-0.01681
0.002011
-0.00299
-0.026028
-0.017221
-0.012406
-0.003773
-0.02013
-0.016702
-0.021236
-0.019627
-0.041237
-0.038902
-0.056449
-0.070805
-0.051535
-0.029887
-0.052955
-0.057198
-0.041688
-0.012136
-0.003802
-0.038065
-0.023728
-0.019411
-0.039603
-0.04128
-0.034912
-0.031772
-0.055498
-0.045797
-0.048087
-0.036117
-0.047158
-0.056181
-0.049215
-0.052804
-0.052024
-0.040684
-0.03489
-0.063827
-0.039829
-0.028698
-0.025833
-0.009918
-0.022417
-0.027035
-0.021625
-0.034586
-0.054853
-0.035389
-0.044316
-0.05322
-0.045971
-0.054282
-0.052427
-0.043666
-0.05974
-0.049941
-0.044118
-0.048746
-0.029855
-0.021083
-0.01826
-0.031684
-0.011226
-0.002783
-0.007075
-0.025807
-0.034514
-0.010487
-0.057733
-0.076271
-0.061309
-0.066886
-0.057073
-0.062585
-0.064046
-0.059256
-0.049684
-0.038225
-0.022471
-0.035682
-0.022902
-0.036745
0.008521
-0.003261
-0.02976
-0.025999
-0.002729
0.007434
0.007142
0.026594
0.03639
0.055238
0.079777
0.111421
0.132342
0.158057
0.206794
0.221654
0.254843
0.285107
0.293173
0.294378
0.297295
0.312174
0.330111
0.322217
0.293514
0.284929
0.264892
0.238875
0.218593
0.214939
0.186898
0.176495
0.194579
0.185081
0.147171
0.122976
0.09579
0.068532
0.054834
0.016164
-0.013231
-0.044608
-0.073062
-0.098835
-0.114746
-0.121907
-0.135891
-0.166059
-0.175499
-0.156125
-0.154147
-0.143081
-0.122427
-0.114197
-0.079763
-0.056763
-0.023207
-0.019485
-0.043226
-0.020135
-0.006171
-0.02299
-0.018104
-0.002827
-0.022117
-0.020552
-0.020918
-0.042157
-0.034007
-0.033754
-0.033319
-0.031659
-0.060617
-0.043833
-0.040119
-0.019963
-0.014622
-0.029139
-0.032092
-0.019889
-0.024889
-0.011058
-0.028451
-0.015727
-0.01994
-0.016696
-0.015671
-0.032808
-0.011863
-0.0362
-0.043674
-0.033137
-0.036982
-0.037699
-0.026003
-0.030568
-0.016334
-0.013939
-0.0348
-0.016982
-0.001625
-0.00201
-0.002423
-0.01084
-0.014686
-0.016281
-0.022876
-0.029065
-0.038885
-0.031578
-0.030467
-0.032784
-0.031696
-0.027974
-0.014771
-0.011782
-0.008868
-0.036636
-0.017315
0.004976
0.005495
0.008945
0.003853
0.000615
-0.011374
-0.003483
-0.004807
-0.032133
-0.023848
-0.029531
-0.017593
-0.021871
-0.041275
-0.032885
-0.031805
-0.031406
-0.007226
0.016667
0.026886
0.013713
0.003246
0.011953
-0.001752
-0.020563
0.003257
0.009677
-0.004569
-0.011156
-0.026132
-0.03806
-0.045975
-0.013595
-0.025918
-0.017897
-0.016626
-0.014677
0.002777
0.021565
0.009307
0.01578
0.015168
0.007422
0.006022
-0.012999
-0.023221
-0.032154
-0.039924
-0.042124
-0.022514
-0.018717
-0.01718
-0.000345
0.023848
0.024858
0.023874
0.023361
0.027115
0.037785
0.037854
0.046855
0.029161
0.042273
0.034064
0.027026
0.024922
0.011957
-0.010044
0.004326
-0.018892
-0.020664
-0.003093
-0.009496
-0.011101
0.006429
0.021928
0.017833
0.029423
0.067384
0.05519
0.037392
0.029883
0.050984
0.059174
0.052719
0.027404
0.023948
0.020344
0.014937
0.006004
0.033506
0.025695
0.007588
0.027888
0.035514
0.025776
0.024887
0.040978
0.055968
0.074812
0.074783
0.0866
0.069141
0.059614
0.051747
0.0583
0.054624
0.040382
0.031172
0.026523
0.035273
0.051925
0.063768
0.059652
0.050596
0.054649
0.063746
0.072018
0.066715
0.080762
0.085396
0.081135
0.119303
0.099283
0.096075
0.097725
0.084197
0.07465
0.05348
0.04824
0.07514
0.075491
0.069539
0.070749
0.079272
0.093448
0.097514
0.104143
0.116644
0.11205
0.111614
0.131237
0.140849
0.149516
0.137233
0.11894
0.1124
0.116041
0.121327
0.078047
0.076852
0.08822
0.117574
0.117983
0.114627
0.115846
0.131595
0.133946
0.139846
0.139025
0.131749
0.141759
0.154385
0.143133
0.158576
0.123575
0.125835
0.124295
0.117696
0.12495
0.145269
0.124113
0.120877
0.126898
0.116948
0.134911
0.129428
0.156139
0.150812
0.134855
0.141099
0.138895
0.145037
0.12546
0.12108
0.11421
0.097091
0.097076
0.08726
0.08604
0.068021
0.060705
0.070022
0.068551
0.070612
0.078296
0.072009
0.075111
0.067054
0.0772
0.070202
0.065955
0.060536
0.062037
0.070562
0.06533
0.036386
0.009684
0.005844
0.005065
-0.002038
0.006111
-0.005647
0.011028
0.016819
0.004807
0.016432
-0.000346
0.035744
0.037675
0.018159
0.008344
0.025412
0.005914
0.006181
0.002546
0.018724
-0.002528
-0.019046
-0.018233
-0.031272
-0.031602
-0.031355
-0.027154
-0.018223
-0.027855
-0.019244
-0.015043
-0.008072
-0.004435
0.00217
-0.016288
-0.007258
0.006971
-0.00269
-0.001161
-0.017445
-0.017457
-0.016749
-0.030942
-0.022567
-0.002314
-0.035068
-0.043509
-0.055426
-0.035158
-0.028465
-0.027574
-0.011934
-0.020344
0.001339
-0.011732
-0.01765
-0.004684
-0.01736
-0.027592
-0.015302
-0.014863
-0.040644
-0.049543
-0.062354
-0.061988
-0.039639
-0.025205
-0.031549
-0.013273
0.00354
-0.021638
-0.015499
-0.019026
-0.003344
0.015649
-0.01501
-0.009363
-0.024343
-0.015745
-0.020801
-0.031362
-0.039353
-0.025701
-0.034726
-0.038889
-0.038954
-0.029567
-0.047265
-0.038762
-0.015303
-0.011611
0.008599
-0.017236
-0.02536
-0.028644
-0.008154
-0.009833
0.004113
-0.015677
-0.021275
-0.03952
-0.03232
-0.023295
-0.024142
-0.030832
-0.031112
-0.027112
-0.034869
-0.007217
-0.002892
-0.016278
-0.002491
-0.005593
-0.011697
-0.015942
-0.007132
-0.033061
-0.034905
-0.010865
-0.031249
-0.026934
-0.032866
-0.032501
-0.025548
-0.041402
-0.037004
-0.032926
-0.021549
-0.023024
-0.029714
-0.00853
-0.000132
-0.000686
0.005829
-0.009912
-0.010057
0.007972
-0.018325
0.004787
-0.005099
-0.006821
-0.037003
-0.042526
-0.047666
-0.020584
-0.030444
-0.027742
-0.025591
-0.010266
-0.011417
-0.027244
-0.014376
-0.002439
-0.011379
-0.009972
0.011977
0.018046
0.01829
-0.003547
-0.020495
-0.028865
-0.032742
-0.032552
-0.038554
-0.052782
-0.031071
-0.050172
-0.052513
-0.019725
-0.002747
-0.003138
0.009079
-0.007239
-0.006865
-0.000897
0.003687
-0.007127
-0.011605
-0.011585
-0.012753
-0.018329
-0.027577
-0.034557
-0.025447
-0.044621
-0.041521
-0.008361
-0.026044
-0.038827
-0.026389
-0.012395
-0.017303
-0.014545
-0.012182
0.003808
0.004598
0.002813
-0.001134
-0.013194
-0.015183
-0.009551
-0.029239
-0.040434
-0.034962
-0.043651
-0.041634
-0.03861
-0.033677
-0.038399
-0.0208
-0.018848
-0.015726
-0.02293
-0.014355
-0.012474
-0.003946
-0.006068
0.007092
-0.004578
-0.025347
-0.017568
-0.01662
-0.030544
-0.027869
-0.022984
-0.035459
-0.035555
-0.031199
-0.032986
-0.023968
-0.01889
-0.009077
-0.020846
-0.011398
0.001634
-0.022857
-0.010872
-0.039686
-0.019999
-0.030372
-0.024408
-0.018638
-0.029274
-0.038826
-0.04473
-0.033861
-0.025698
-0.049984
-0.02781
-0.015345
-0.028637
-0.02401
-0.020948
-0.020586
-0.013923
-0.026463
-0.004687
-0.003227
-0.015901
-0.013147
-0.015558
-0.015309
-0.025857
-0.040813
-0.052796
-0.059255
-0.079882
-0.037886
-0.026705
-0.03671
-0.019411
-0.026
-0.027404
-0.017131
-0.017366
-0.022108
-0.020422
-0.015556
-0.026297
-0.020857
-0.036053
-0.046188
-0.058188
-0.058784
-0.057582
-0.039475
-0.032553
-0.035106
-0.037718
-0.048089
-0.043632
-0.004242
-0.006405
0.004241
0.017236
0.008056
-0.009181
-0.010737
-0.01622
-0.015958
-0.029854
-0.030582
-0.02057
-0.052311
-0.054466
-0.055919
-0.052667
-0.043253
-0.020501
-0.023842
-0.027279
-0.021259
-0.022473
-0.015053
0.003877
-0.013345
-0.029626
-0.017639
-0.026856
-0.042641
-0.043504
-0.063766
-0.058299
-0.047837
-0.048897
-0.046671
-0.055454
-0.047707
-0.037287
-0.022201
-0.014148
-0.023575
-0.013487
-0.011751
-0.027202
-0.00941
-0.012857
-0.009958
-0.005512
-0.006116
-0.016809
-0.032844
-0.027354
-0.034441
-0.054678
-0.045562
-0.038337
-0.041692
-0.042897
-0.031045
-0.020802
-0.019871
-0.006644
-0.012023
-0.014233
0.006631
0.007709
-0.032822
-0.025553
-0.017829
-0.035752
-0.0357
-0.038071
-0.048134
-0.050849
-0.045642
-0.045398
-0.041926
-0.041874
-0.03071
-0.029141
-0.020745
-0.021718
-0.023236
-0.037303
-0.014776
-0.027637
-0.022582
-0.006377
0.012285
-0.000664
-0.029197
-0.039108
-0.046268
-0.041998
-0.053704
-0.050029
-0.04942
-0.02627
-0.020223
-0.01458
-0.004509
-0.007316
-0.004955
-0.009369
0.015956
0.022496
0.016838
0.002325
-0.010095
-0.002021
-0.016333
-0.037289
-0.036402
-0.041999
-0.037389
-0.038451
-0.02713
-0.028764
-0.027243
-0.003012
0.008854
0.023307
0.019552
0.027405
0.023141
0.012709
0.000543
0.005442
0.009832
0.001688
-0.001023
0.008358
0.01249
0.008618
-0.021321
-0.017923
-0.002838
-0.016753
0.011529
0.00933
0.016374
0.025396
0.037226
0.031954
0.031114
0.035322
0.036907
0.038471
0.02477
0.007917
0.001871
-0.006685
-0.011691
-0.015608
-0.012943
-0.017099
-0.00971
-0.007077
-0.015069
-0.009269
-0.002722
0.010008
-0.005099
0.0043
0.009906
0.02065
-0.007809
-0.002737
-0.01071
-0.041411
-0.029679
-0.029896
-0.024011
-0.038628
-0.045178
-0.057809
-0.046437
-0.039101
-0.027229
-0.034381
-0.025413
-0.014837
-0.008768
-0.018407
-0.019383
-0.017742
-0.010935
-0.020976
-0.039751
-0.039392
-0.036733
-0.045045
-0.046835
-0.046248
-0.03929
-0.055084
-0.051301
-0.047724
-0.059027
-0.046907
-0.03654
-0.035768
-0.018307
-0.014738
-0.027144
-0.035296
-0.018585
-0.018953
-0.025178
-0.032744
-0.03858
-0.049155
-0.053438
-0.056705
-0.067659
-0.071111
-0.061554
-0.05237
-0.05155
-0.045288
-0.030607
0.000808
-0.017636
-0.026272
-0.008528
-0.00347
-0.017605
-0.011757
-0.02701
-0.031195
-0.040742
-0.053784
-0.058622
-0.07271
-0.060563
-0.062365
-0.066438
-0.059353
-0.054885
-0.030645
-0.036099
-0.048038
-0.021155
0.008024
0.003268
-0.009547
-0.007997
-0.014392
-0.030547
-0.03878
-0.043567
-0.05931
-0.064937
-0.064303
-0.064401
-0.074526
-0.078536
-0.046081
-0.056906
-0.050243
-0.025107
-0.024423
-0.031684
-0.005782
-0.036836
-0.030843
-0.012337
-0.024246
-0.006663
-0.021071
-0.011395
0.01063
0.029232
0.036943
0.057129
0.096099
0.106915
0.141135
0.189858
0.210249
0.234718
0.257662
0.284215
0.30197
0.288594
0.298866
0.304617
0.314052
0.301215
0.276001
0.27012
0.243485
0.238332
0.227455
0.210687
0.185441
0.168839
0.15487
0.135074
0.106798
0.105699
0.086125
0.07368
0.027435
0.024164
-0.00254
-0.052606
-0.086314
-0.119342
-0.123534
-0.12877
-0.145891
-0.166735
-0.175136
-0.165985
-0.154764
-0.137112
-0.114659
-0.081603
-0.066764
-0.047545
-0.031348
-0.023328
-0.0288
-0.013585
-0.025346
-0.013676
-0.012604
-0.017715
-0.024492
-0.036651
-0.029897
-0.038418
-0.045714
-0.030355
-0.022586
-0.050772
-0.051965
-0.042221
-0.040602
-0.044587
-0.032221
-0.043682
-0.009797
-0.007861
-0.005625
-0.002604
-0.018886
-0.031314
-0.043785
-0.021835
-0.024653
-0.034236
-0.046873
-0.032969
-0.054157
-0.050524
-0.040654
-0.024668
-0.020342
-0.022914
-0.000428
-0.003889
0.003161
-0.002888
0.007427
0.009603
-0.028632
-0.031265
-0.040482
-0.044239
-0.044294
-0.03575
-0.053035
-0.050438
-0.040754
-0.051013
-0.046645
-0.024981
-0.016889
-0.02301
-0.012162
-0.003954
-0.016637
-0.017429
-0.007627
-0.020536
-0.015488
-0.025396
-0.004171
-0.008233
-0.006195
-0.006433
-0.026667
-0.024699
-0.022711
-0.036128
-0.034354
-0.010364
-0.016138
-0.01753
-0.007004
0.00379
0.008459
-0.010017
-0.000341
0.002385
0.019818
0.010538
-0.004438
-0.006291
-0.023799
-0.020278
-0.040176
-0.052984
-0.036155
-0.029189
-0.026876
-0.008548
0.003109
0.016907
0.011659
-0.000115
0.010343
0.016109
0.016424
0.033747
0.037451
0.043591
0.007417
0.000078
0.014147
0.000348
-0.002978
-0.008238
-0.003705
0.001239
-0.024326
-0.022723
-0.005154
0.013305
0.026536
0.041524
0.03598
0.027055
0.018662
0.022997
0.017955
0.013649
0.007055
0.009468
0.019604
0.004082
0.016901
-0.001622
0.014667
0.019722
0.010391
0.003703
0.021762
0.029144
0.03748
0.025868
0.050719
0.058747
0.048175
0.036961
0.033279
0.033105
0.044419
0.013262
0.000053
0.00009
0.003454
0.011947
0.033116
0.033082
0.038051
0.049527
0.043318
0.049766
0.070881
0.067959
0.073471
0.085617
0.079729
0.069772
0.069137
0.072399
0.071959
0.082916
0.078428
0.047736
0.038476
0.043703
0.027768
0.016258
0.044195
0.045535
0.069654
0.06588
0.071092
0.093619
0.086651
0.09488
0.088902
0.095765
0.090307
0.093558
0.086191
0.095195
0.085815
0.070326
0.081669
0.09825
0.093593
0.085667
0.085581
0.098135
0.109858
0.094192
0.100116
0.102654
0.119524
0.117549
0.126078
0.122329
0.111815
0.113633
0.108014
0.102103
0.11339
0.103071
0.088372
0.086973
0.101138
0.097039
0.09365
0.092732
0.119159
0.129647
0.126025
0.149473
0.130655
0.136056
0.142393
0.153726
0.14148
0.123266
0.122781
0.12143
0.104359
0.107005
0.105255
0.094239
0.083824
0.092611
0.08846
0.096892
0.095339
0.099822
0.123248
0.150666
0.147808
0.13781
0.13187
0.12952
0.143256
0.140502
0.113845
0.083587
0.081573
0.080744
0.085456
0.055566
0.054058
0.059657
0.049476
0.057995
0.06713
0.062273
0.056796
0.06772
0.063037
0.048606
0.04663
0.048853
0.040616
0.026285
0.030672
0.030195
0.012246
-0.00731
0.000847
0.013099
0.007516
0.002322
0.019833
0.007869
-0.002029
0.000823
0.019266
0.016259
0.019942
0.023441
0.012059
-0.009084
-0.00665
-0.001854
-0.011335
-0.016806
-0.016767
0.010732
-0.020337
-0.057417
-0.052004
-0.035003
-0.03375
-0.049976
-0.054766
-0.047102
-0.037085
-0.032172
-0.022063
0.002702
0.012659
-0.005012
-0.030829
-0.027611
-0.037519
-0.028661
-0.023554
-0.035102
-0.063444
-0.045171
-0.038883
-0.040309
-0.048817
-0.040243
-0.031089
-0.029255
-0.027483
-0.012676
-0.013798
-0.01845
-0.017309
0.00318
-0.010759
-0.025358
-0.02382
-0.039545
-0.048055
-0.044741
-0.040297
-0.054398
-0.057108
-0.044956
-0.043609
-0.068747
-0.04787
-0.016713
-0.020148
-0.018893
-0.025468
-0.021379
-0.004013
-0.010111
-0.01322
-0.015938
-0.018335
-0.024015
-0.020167
-0.049813
-0.056266
-0.064827
-0.06774
-0.060066
-0.042497
-0.051578
-0.042223
-0.039974
-0.023196
-0.004245
-0.002787
-0.020091
-0.012032
-0.030865
-0.021773
-0.015698
-0.003286
-0.005368
-0.026926
-0.039189
-0.042025
-0.04045
-0.040697
-0.036179
-0.043999
-0.050002
-0.060341
-0.042647
-0.006284
-0.014121
-0.011626
-0.019776
-0.026814
-0.019254
-0.015573
-0.031827
-0.026154
-0.038836
-0.033864
-0.034224
-0.042891
-0.043413
-0.04836
-0.056179
-0.052509
-0.045785
-0.034004
-0.026472
-0.029558
-0.020484
-0.021944
-0.017127
-0.013791
-0.007546
-0.006538
-0.004041
-0.025732
-0.024701
-0.018444
-0.043237
-0.055405
-0.048571
-0.02615
-0.050356
-0.058837
-0.045904
-0.028984
-0.015544
-0.007216
0.009574
-0.012308
-0.007059
-0.006956
-0.023708
-0.023355
-0.021191
-0.008975
-0.00625
-0.030485
-0.055285
-0.040168
-0.046859
-0.045868
-0.073695
-0.071301
-0.064043
-0.053873
-0.028022
-0.018017
-0.011697
-0.002649
0.034181
-0.004625
-0.02865
-0.02239
-0.007217
-0.011575
-0.02686
-0.031777
-0.04696
-0.050984
-0.058746
-0.05632
-0.060292
-0.0483
-0.050968
-0.035441
-0.03302
-0.02452
-0.014141
-0.011021
-0.010948
0.001151
0.0086
-0.006029
0.002617
-0.038747
-0.044007
-0.03976
-0.068737
-0.054034
-0.051568
-0.058876
-0.046948
-0.03475
-0.03838
-0.031653
-0.029289
-0.038964
-0.017825
-0.007486
-0.005641
-0.011928
-0.01602
-0.044256
-0.03072
-0.037595
-0.038824
-0.047684
-0.048771
-0.05019
-0.052813
-0.044432
-0.04374
-0.045683
-0.057863
-0.045039
-0.05034
-0.018683
-0.016146
-0.028689
-0.013738
-0.033972
-0.026494
-0.033953
-0.027083
-0.034718
-0.04721
-0.040059
-0.048565
-0.052394
-0.0551
-0.056396
-0.054231
-0.049718
-0.049842
-0.032991
-0.028766
-0.012268
-0.012304
-0.006246
-0.000387
0.020678
0.018745
-0.006215
-0.032658
-0.03447
-0.054799
-0.047287
-0.055809
-0.066967
-0.062541
-0.065716
-0.066114
-0.051481
-0.039257
-0.036368
-0.026526
-0.031003
-0.033862
-0.025539
-0.03197
-0.028146
-0.007495
-0.019211
-0.036766
-0.042535
-0.048169
-0.042001
-0.059868
-0.057486
-0.064864
-0.056746
-0.067395
-0.063318
-0.053761
-0.042619
-0.035566
-0.037221
-0.040826
-0.044217
-0.015085
-0.001885
-0.010083
-0.031008
-0.034041
-0.034454
-0.037515
-0.033139
-0.081679
-0.059209
-0.060415
-0.059636
-0.036931
-0.034025
-0.03891
-0.04526
-0.058405
-0.057125
-0.044511
-0.031841
-0.019426
-0.018851
-0.036282
-0.02989
-0.013333
-0.033187
-0.06061
-0.048755
-0.056369
-0.05361
-0.066738
-0.061674
-0.06512
-0.061109
-0.064368
-0.057463
-0.054249
-0.050758
-0.039891
-0.032959
-0.033744
-0.019353
-0.013808
-0.025031
-0.041173
-0.02627
-0.035683
-0.032318
-0.03305
-0.039879
-0.055926
-0.054409
-0.050375
-0.050038
-0.034666
-0.035301
-0.026584
-0.02219
-0.028201
-0.013393
-0.005258
-0.013068
-0.016727
-0.014109
-0.02188
-0.035363
-0.064379
-0.06815
-0.065223
-0.03783
-0.042114
-0.069418
-0.06708
-0.060088
-0.036216
-0.03529
-0.029277
-0.033735
-0.010122
-0.012475
-0.02362
-0.009604
-0.007095
-0.011976
-0.000837
-0.006017
-0.029327
-0.037669
-0.033757
-0.057919
-0.046938
-0.038836
-0.027378
-0.027553
-0.020773
-0.034163
-0.033019
-0.036288
-0.024197
-0.019003
-0.0087
-0.018759
-0.001625
-0.002957
-0.01175
-0.001717
0.000575
-0.00245
-0.007966
-0.012638
-0.014749
-0.01268
-0.01359
-0.023629
-0.014799
-0.021244
-0.012771
-0.02116
-0.001163
0.003825
0.025909
0.026189
0.025411
0.018175
0.019051
0.006036
-0.025712
-0.046373
-0.020377
-0.015521
-0.011542
-0.018307
-0.010538
-0.015403
-0.034555
-0.005204
-0.000127
-0.012639
-0.009248
-0.000489
0.011016
0.015016
0.007456
-0.016616
-0.001918
-0.014231
-0.017555
-0.021852
-0.024504
-0.041537
-0.056802
-0.050374
-0.045739
-0.066794
-0.048575
-0.030333
-0.029956
-0.033517
-0.021597
-0.030383
-0.028395
-0.017865
-0.022506
-0.028324
-0.040572
-0.04196
-0.042862
-0.048723
-0.058275
-0.075637
-0.078611
-0.080661
-0.073906
-0.058137
-0.070964
-0.077857
-0.068315
-0.065053
-0.033059
-0.033805
-0.04835
-0.039956
-0.037574
-0.022435
-0.030023
-0.055613
-0.069708
-0.060199
-0.064765
-0.060244
-0.079929
-0.060994
-0.060264
-0.081425
-0.067059
-0.06819
-0.073322
-0.058624
-0.043787
-0.041691
-0.049985
-0.034881
-0.023965
-0.029614
-0.050648
-0.048337
-0.060504
-0.058516
-0.064435
-0.053726
-0.086411
-0.082068
-0.093252
-0.08639
-0.069316
-0.064086
-0.060441
-0.062437
-0.067927
-0.067072
-0.05584
-0.050881
-0.053564
-0.039591
-0.024893
-0.02315
-0.046825
-0.068618
-0.060286
-0.061688
-0.062303
-0.065085
-0.063851
-0.071758
-0.067446
-0.06769
-0.034214
-0.034418
-0.045702
-0.04575
-0.05513
-0.034776
-0.042593
-0.057887
-0.057103
-0.046425
-0.057735
-0.058995
-0.060524
-0.047593
-0.047326
-0.046667
-0.028771
-0.012503
-0.006288
0.037748
0.065878
0.121711
0.140559
0.187835
0.210953
0.205523
0.230585
0.253324
0.271953
0.278204
0.281383
0.282185
0.275329
0.268679
0.263282
0.240235
0.24817
0.251603
0.226896
0.199078
0.183401
0.168613
0.175094
0.178158
0.158457
0.131849
0.10567
0.087417
0.067165
0.032574
0.003198
-0.028703
-0.061028
-0.11026
-0.138231
-0.165112
-0.167471
-0.166511
-0.177685
-0.172044
-0.135583
-0.116252
-0.129195
-0.116367
-0.094395
-0.073306
-0.071258
-0.05488
-0.05926
-0.042542
-0.03949
-0.040744
-0.059592
-0.049729
-0.044241
-0.059196
-0.082878
-0.069804
-0.06887
-0.065511
-0.027401
-0.036567
-0.035604
-0.043281
-0.023543
-0.018868
-0.027529
-0.02052
-0.021533
-0.045443
-0.031042
-0.044624
-0.042285
-0.039683
-0.059775
-0.062068
-0.053375
-0.044252
-0.052233
-0.0556
-0.051672
-0.044081
-0.024505
-0.022173
-0.026126
-0.034168
-0.02782
-0.014898
-0.016097
-0.013104
-0.014494
-0.033473
-0.041367
-0.043637
-0.064263
-0.061177
-0.067944
-0.068726
-0.064745
-0.061002
-0.042682
-0.033227
-0.039097
-0.026155
-0.026554
-0.014299
-0.018545
-0.017289
-0.026746
-0.029336
-0.030032
-0.034886
-0.063148
-0.061495
-0.059349
-0.057275
-0.060105
-0.066496
-0.035904
-0.031321
-0.020285
-0.031327
-0.025367
-0.016128
-0.015843
-0.006675
-0.008983
-0.010499
-0.012953
0.006399
-0.026337
-0.041701
-0.039302
-0.030841
-0.039988
-0.0426
-0.043566
-0.031918
-0.042126
-0.035281
-0.024045
-0.011276
-0.010099
-0.004918
-0.004563
-0.010332
-0.0031
0.003742
-0.010408
-0.005098
-0.009858
-0.006308
-0.03321
-0.032929
-0.035527
-0.045594
-0.052145
-0.032752
-0.026939
-0.013009
0.005076
0.016084
-0.005622
0.015253
0.004713
0.004186
-0.000897
0.018371
0.014579
0.007425
0.005405
0.008111
-0.000933
-0.019009
-0.029564
-0.034178
-0.026927
-0.003861
-0.009044
-0.017521
-0.00039
0.04652
0.012842
0.014996
0.011307
0.031651
0.010196
0.009236
0.012928
0.010266
0.003191
-0.002066
-0.007551
-0.006513
-0.011085
-0.008817
-0.019959
-0.016359
-0.0032
0.003
0.000757
0.021755
0.025669
0.032132
0.028459
0.039741
0.03119
0.036205
0.032764
0.035358
0.022377
0.02952
0.04714
0.042578
0.039119
0.020943
0.029402
0.033019
0.007394
0.027801
0.043343
0.051872
0.065855
0.069647
0.077056
0.081264
0.074755
0.072937
0.073773
0.05677
0.06408
0.052852
0.062097
0.037796
0.044245
0.041834
0.040047
0.04945
0.06891
0.068869
0.075213
0.061004
0.072924
0.078808
0.108008
0.105636
0.116943
0.095543
0.099517
0.108656
0.10713
0.09782
0.091257
0.098227
0.081096
0.07719
0.061927
0.063377
0.077749
0.077576
0.076643
0.109432
0.129306
0.131755
0.131437
0.140937
0.11865
0.126959
0.13954
0.131074
0.137104
0.118085
0.106485
0.116455
0.101255
0.101932
0.107606
0.105714
0.087928
0.088387
0.099741
0.108619
0.118631
0.116202
0.123345
0.133323
0.125822
0.12759
0.140325
0.131252
0.098476
0.079902
0.074221
0.070605
0.053857
0.046878
0.052166
0.061947
0.05982
0.061987
0.053454
0.056603
0.090249
0.074042
0.07659
0.06858
0.051967
0.040941
0.046564
0.059218
0.035515
0.025072
0.013059
0.016414
0.015834
0.01904
0.014296
-0.001782
-0.012854
-0.00244
-0.013203
0.00027
0.024815
0.010622
0.004421
0.030042
0.021733
0.019833
0.010594
0.010336
-0.006345
-0.027412
-0.027453
-0.030835
-0.051507
-0.053693
-0.055086
-0.053156
-0.059452
-0.05538
-0.026788
-0.019926
-0.018615
-0.0067
-0.006042
0.008113
-0.007735
-0.022204
-0.02902
-0.021152
-0.011735
-0.017289
-0.041808
-0.059295
-0.055431
-0.030105
-0.042382
-0.065831
-0.067875
-0.056533
-0.045326
-0.049531
-0.038809
-0.028202
-0.029746
-0.026551
0.003728
-0.02186
-0.024218
-0.021701
-0.029852
-0.029318
-0.037881
-0.048374
-0.052936
-0.064669
-0.071895
-0.071385
-0.076444
-0.077443
-0.064919
-0.046154
-0.055644
-0.0394
-0.029103
-0.001936
-0.004218
-0.012877
-0.009155
-0.01822
-0.013483
-0.035541
-0.035194
-0.031578
-0.047797
-0.066558
-0.051871
-0.063997
-0.048837
-0.055336
-0.050151
-0.049408
-0.050958
-0.025168
-0.033392
-0.032821
-0.029701
-0.038935
-0.040516
-0.023329
-0.027388
-0.028751
-0.033622
-0.034343
-0.037211
-0.046648
-0.06349
-0.079087
-0.062732
-0.066204
-0.049579
-0.040074
-0.032803
-0.025962
-0.015582
-0.028918
-0.022825
-0.012535
-0.003
0.000564
-0.03794
-0.040443
-0.047442
-0.042972
-0.048456
-0.056967
-0.060364
-0.053932
-0.053907
-0.059017
-0.027006
-0.027642
-0.037823
-0.029586
-0.019914
-0.042215
-0.034485
-0.027802
-0.014228
-0.011744
-0.024261
-0.045781
-0.034559
-0.061382
-0.055588
-0.040627
-0.039304
-0.047179
-0.067602
-0.057
-0.047629
-0.034219
-0.028506
-0.023633
-0.029928
-0.032986
-0.020167
-0.017514
-0.009251
-0.015638
-0.011109
-0.001554
-0.040905
-0.033176
-0.025947
-0.046303
-0.059713
-0.048753
-0.055326
-0.050515
-0.027039
-0.029932
-0.016745
-0.030018
-0.024551
-0.013314
-0.01786
-0.015415
-0.021446
-0.002746
-0.003357
-0.028996
-0.039592
-0.032671
-0.012964
-0.03745
-0.079969
-0.075953
-0.070977
-0.064744
-0.06114
-0.046236
-0.020172
-0.011488
-0.010002
-0.016981
-0.01255
-0.007061
-0.023488
-0.040402
-0.050219
-0.036879
-0.041601
-0.056141
-0.045805
-0.039905
-0.054368
-0.066664
-0.059235
-0.043586
-0.044025
-0.037694
-0.027138
-0.028792
-0.02743
-0.02033
-0.01538
-0.007044
-0.014397
-0.025642
-0.011717
-0.03221
-0.049875
-0.056024
-0.071655
-0.067791
-0.063123
-0.052899
-0.059583
-0.06779
-0.052622
-0.059276
-0.043239
-0.039807
-0.031361
-0.016703
-0.010813
-0.006409
-0.005748
-0.019164
-0.036044
-0.046946
-0.046135
-0.045244
-0.054542
-0.05447
-0.071835
-0.052111
-0.040869
-0.033719
-0.049944
-0.033774
-0.033967
-0.026366
-0.022555
-0.033863
-0.027629
-0.041592
-0.028174
-0.0305
-0.032751
-0.037795
-0.061296
-0.06175
-0.063768
-0.056377
-0.059826
-0.062725
-0.066045
-0.031549
-0.067202
-0.049078
-0.044381
-0.02801
-0.018049
-0.026196
-0.022444
-0.008525
-0.012462
-0.012268
-0.050323
-0.045949
-0.050842
-0.063222
-0.069152
-0.06355
-0.073061
-0.07895
-0.067994
-0.048407
-0.063513
-0.065691
-0.044498
-0.029664
-0.047931
-0.040435
-0.032672
-0.033803
-0.030974
-0.022004
-0.031994
-0.046102
-0.040765
-0.043275
-0.055618
-0.061172
-0.075918
-0.079885
-0.08279
-0.0743
-0.064544
-0.045527
-0.040578
-0.035395
-0.033328
-0.019984
-0.021041
-0.015883
-0.022609
-0.021402
-0.024766
-0.032915
-0.039066
-0.044835
-0.045395
-0.052907
-0.051442
-0.064375
-0.061336
-0.066991
-0.048583
-0.052085
-0.041852
-0.03481
-0.027744
-0.027992
-0.018834
-0.024541
-0.019644
-0.032305
-0.029531
-0.047426
-0.055077
-0.060792
-0.054021
-0.062443
-0.070821
-0.07747
-0.078042
-0.061175
-0.045023
-0.034297
-0.046966
-0.044779
-0.041667
-0.03316
-0.029372
-0.016366
-0.015485
-0.034572
-0.038507
-0.054286
-0.055749
-0.057089
-0.057209
-0.047703
-0.054319
-0.050741
-0.060092
-0.066071
-0.073551
-0.07628
-0.056188
-0.048747
-0.041656
-0.036196
-0.015801
-0.003225
-0.002961
-0.02905
-0.02317
-0.058619
-0.083934
-0.070962
-0.089802
-0.06019
-0.054276
-0.048553
-0.052892
-0.04143
-0.02891
-0.021821
-0.034782
-0.017077
-0.021312
-0.028395
-0.020812
-0.010626
-0.009162
-0.024701
-0.020143
-0.022035
-0.022525
-0.03629
-0.043566
-0.058063
-0.051837
-0.043142
-0.052749
-0.057678
-0.058147
-0.027944
-0.016063
0.003256
-0.008372
-0.013239
0.00292
0.003674
0.002458
0.007241
-0.007451
-0.008168
-0.019048
-0.00729
-0.001315
-0.019667
-0.028306
-0.03336
-0.027336
-0.034793
-0.037909
-0.038999
-0.035473
-0.012091
-0.004016
-0.000175
0.013984
0.026786
0.030622
0.026716
0.018209
0.003365
0.009817
0.007005
-0.00515
-0.017356
-0.022349
-0.004375
-0.01357
-0.030174
-0.017886
-0.017275
-0.003844
0.012576
0.008046
0.001048
0.009216
0.010374
0.00245
0.003209
-0.007412
-0.024375
-0.027476
-0.013037
-0.031869
-0.047279
-0.035403
-0.025267
-0.041471
-0.027335
-0.043697
-0.063208
-0.050453
-0.039917
-0.023889
-0.031761
-0.028768
-0.022772
-0.031134
-0.023142
-0.0038
-0.005305
-0.033527
-0.042077
-0.058422
-0.074255
-0.082668
-0.087391
-0.08455
-0.07113
-0.074632
-0.071313
-0.047762
-0.023885
-0.05145
-0.05805
-0.043662
-0.030839
-0.025186
-0.041079
-0.022458
-0.035103
-0.044163
-0.046929
-0.050941
-0.056219
-0.064378
-0.055482
-0.076189
-0.081257
-0.064369
-0.070062
-0.061359
-0.049955
-0.029723
-0.013417
-0.033494
-0.034247
-0.021263
-0.037421
-0.037021
-0.03596
-0.026204
-0.072958
-0.07007
-0.053767
-0.066765
-0.062706
-0.060139
-0.081142
-0.06665
-0.073489
-0.064778
-0.047308
-0.046966
-0.049778
-0.033343
-0.038797
-0.02674
-0.011084
-0.029832
-0.025059
-0.041275
-0.064372
-0.062217
-0.071705
-0.054472
-0.053599
-0.053204
-0.062211
-0.056761
-0.052134
-0.059938
-0.050031
-0.050863
-0.052005
-0.044796
-0.057574
-0.054477
-0.048726
-0.052452
-0.051676
-0.048039
-0.053505
-0.077401
-0.074969
-0.071796
-0.083704
-0.0566
-0.052439
-0.029999
-0.028838
-0.011619
0.013213
0.026519
0.048044
0.084593
0.117843
0.135382
0.153078
0.176712
0.196937
0.20028
0.208943
0.243029
0.240312
0.243312
0.267442
0.266341
0.308922
0.282047
0.277178
0.289121
0.293611
0.286671
0.27725
0.254344
0.238429
0.216109
0.211741
0.195158
0.14098
0.118788
0.098009
0.058827
0.033048
-0.009343
-0.038746
-0.052538
-0.097452
-0.121542
-0.139564
-0.119781
-0.151835
-0.150903
-0.139459
-0.129465
-0.116043
-0.117555
-0.103474
-0.082593
-0.067046
-0.077572
-0.068056
-0.062012
-0.060519
-0.069301
-0.06293
-0.070116
-0.067804
-0.059581
-0.050627
-0.022083
-0.031735
-0.026378
-0.022934
-0.022745
-0.026686
-0.022188
-0.023117
-0.021196
-0.045433
-0.041021
-0.028629
-0.049293
-0.045998
-0.055512
-0.068382
-0.045098
-0.046227
-0.041788
-0.019855
-0.016921
-0.016012
-0.029186
-0.032
-0.025552
-0.015246
-0.025933
-0.021035
-0.01872
-0.011475
-0.023399
-0.046531
-0.045104
-0.030791
-0.034914
-0.042566
-0.031962
-0.027752
-0.038937
-0.045831
-0.037248
-0.021909
-0.0327
-0.023921
-0.010868
-0.015228
-0.016565
-0.008229
-0.024381
-0.010564
0.005358
-0.008873
-0.024932
-0.035037
-0.036865
-0.028273
-0.029028
-0.031824
-0.045038
-0.031678
-0.015103
-0.021567
-0.022225
-0.017619
-0.014295
-0.008473
-0.00546
-0.020999
-0.016254
-0.014397
-0.022781
-0.014001
-0.033698
-0.02752
-0.027038
-0.036432
-0.034099
-0.024474
-0.029202
-0.016304
-0.018636
-0.004382
-0.010577
-0.013889
-0.002307
0.024175
0.018624
0.014555
0.016198
0.008117
-0.009653
-0.036714
-0.032345
-0.028809
-0.026333
-0.038556
-0.040555
-0.038868
-0.038412
-0.024881
0.011816
0.007993
0.006142
-0.000429
0.002711
0.022753
0.044582
0.006944
0.012741
0.022174
0.015576
0.000325
-0.000986
0.004636
0.010949
-0.004845
-0.015947
-0.020481
-0.010029
-0.004002
-0.003701
0.005867
0.011363
0.017204
0.022616
0.065763
0.046484
0.035335
0.045086
0.025661
0.024185
0.010322
0.001824
0.003035
-0.025647
-0.042822
-0.023183
-0.000199
0.007114
0.013974
0.039491
0.044571
0.049391
0.054914
0.05319
0.061044
0.05069
0.048588
0.049035
0.047571
0.036012
0.037112
0.034728
0.035176
0.028747
0.022238
0.02084
0.031375
0.029716
0.045499
0.038637
0.051615
0.06607
0.059863
0.055631
0.070472
0.075301
0.067044
0.076892
0.076517
0.055416
0.067735
0.052293
0.047556
0.051674
0.053363
0.068474
0.059403
0.05527
0.069797
0.089641
0.085461
0.094669
0.089259
0.104128
0.100672
0.102052
0.102296
0.109439
0.105935
0.095817
0.082616
0.066382
0.091157
0.103532
0.084566
0.066901
0.084896
0.096464
0.108353
0.103596
0.106919
0.12265
0.137544
0.128342
0.121908
0.135691
0.132639
0.128805
0.138123
0.12896
0.135379
0.118067
0.124995
0.117787
0.09874
0.092412
0.091801
0.096538
0.100432
0.091413
0.111226
0.136533
0.142821
0.153143
0.138418
0.128506
0.140581
0.150741
0.138983
0.119542
0.135469
0.115753
0.121205
0.109312
0.098313
0.09632
0.088666
0.089855
0.09768
0.117654
0.112268
0.106911
0.111513
0.110148
0.110038
0.112337
0.09362
0.085273
0.088994
0.08186
0.060908
0.037325
0.02919
0.035039
0.026325
0.026459
0.035177
0.024894
0.014943
0.01445
0.028042
0.03479
0.029031
0.019056
0.029622
0.019115
0.022874
0.029464
0.030942
0.020224
-0.009763
-0.007868
-0.017145
-0.024708
-0.026663
-0.0285
-0.043438
-0.027233
-0.004762
-0.028835
-0.013824
0.002516
0.002929
0.011861
0.011543
0.01005
0.005493
-0.003977
-0.002571
-0.006917
-0.024157
-0.021256
-0.030538
-0.047898
-0.051501
-0.057334
-0.061469
-0.043757
-0.023531
-0.020905
-0.034907
-0.01612
-0.003585
-0.006013
-0.014633
0.005448
-0.007123
-0.016522
-0.024363
-0.028337
-0.025716
-0.022491
-0.026275
-0.046155
-0.048317
-0.063949
-0.0588
-0.067826
-0.052705
-0.047192
-0.046678
-0.037077
-0.023564
-0.014947
-0.002065
-0.018389
-0.007999
0.007203
0.005067
-0.00011
-0.011774
-0.021542
-0.031008
-0.03395
-0.047853
-0.045846
-0.053372
-0.064574
-0.039934
-0.052319
-0.02885
-0.03268
-0.021636
0.004304
0.011342
-0.005715
-0.014187
-0.005724
-0.010845
-0.013441
-0.032466
-0.03155
-0.050725
-0.033692
-0.015801
-0.066553
-0.086213
-0.073136
-0.067955
-0.053114
-0.048616
-0.017511
-0.011122
-0.014938
0.002347
0.000918
0.000612
-0.010934
-0.001312
-0.034629
-0.044537
-0.033539
-0.034222
-0.042894
-0.043866
-0.035824
-0.043104
-0.055133
-0.050507
-0.041072
-0.016801
-0.013056
-0.002127
-0.011705
-0.009306
-0.003268
-0.011088
-0.025773
-0.028277
-0.021221
-0.026265
-0.036198
-0.044677
-0.062733
-0.048404
-0.049659
-0.038529
-0.044668
-0.031595
-0.019632
-0.033151
-0.031386
-0.007786
-0.0228
-0.008928
0.002698
0.006293
-0.000494
-0.001011
-0.020483
-0.028305
-0.046367
-0.039979
-0.04846
-0.047777
-0.041656
-0.056071
-0.047582
-0.039616
-0.036961
-0.029706
-0.038823
-0.012183
-0.019834
0.000003
0.023582
0.015671
-0.005466
-0.015556
-0.013571
-0.014858
-0.014622
-0.048429
-0.048482
-0.047698
-0.054523
-0.063639
-0.047761
-0.040353
-0.021013
-0.02105
-0.028393
-0.01732
-0.032114
-0.010561
-0.01205
-0.013681
-0.022239
-0.027951
-0.031523
-0.019177
-0.016749
-0.035833
-0.03718
-0.036869
-0.035121
-0.044294
-0.047548
-0.048651
-0.033511
-0.039599
-0.03052
-0.02777
-0.027329
-0.007098
-0.014778
-0.014576
-0.009893
-0.014245
-0.020175
-0.038163
-0.036631
-0.024161
-0.035507
-0.049968
-0.052157
-0.045649
-0.037478
-0.02773
-0.015812
-0.028864
-0.021478
-0.024316
-0.007735
-0.005584
-0.013553
-0.01503
-0.016901
-0.026317
-0.037747
-0.034147
-0.026381
-0.054012
-0.03201
-0.040191
-0.070348
-0.060739
-0.04344
-0.040848
-0.051607
-0.035351
0.002528
-0.012144
-0.011563
-0.023805
-0.01779
-0.022966
-0.020415
-0.018997
-0.019503
-0.034329
-0.034937
-0.045488
-0.055525
-0.075704
-0.047437
-0.040291
-0.051563
-0.053807
-0.038297
-0.015187
-0.017061
-0.015644
-0.019546
-0.014965
-0.021892
-0.014387
-0.018454
-0.016349
-0.02285
-0.026536
-0.034608
-0.054212
-0.048911
-0.052968
-0.053859
-0.055839
-0.053696
-0.054677
-0.052248
-0.053984
-0.038979
-0.017693
-0.011074
0.003881
0.005072
-0.003181
-0.01212
-0.007698
-0.01201
-0.035478
-0.031591
-0.053463
-0.045759
-0.04863
-0.058802
-0.048834
-0.034944
-0.047792
-0.03187
-0.038492
-0.027962
-0.018618
-0.036883
-0.014394
-0.001605
-0.006922
-0.017591
-0.021731
-0.02384
-0.030953
-0.014624
-0.00867
-0.036947
-0.043798
-0.050421
-0.054488
-0.062844
-0.047634
-0.033817
-0.027082
-0.030401
-0.016056
-0.01128
-0.018049
0.000272
-0.018716
-0.02001
-0.01098
-0.014039
-0.028288
-0.039023
-0.047772
-0.060778
-0.070606
-0.066914
-0.051458
-0.057625
-0.040102
-0.047542
-0.035424
-0.023406
-0.027329
-0.022845
-0.021721
-0.021804
-0.024954
-0.014815
-0.015709
-0.01631
-0.028708
-0.024032
-0.042679
-0.055368
-0.052024
-0.043947
-0.047987
-0.04856
-0.046755
-0.032462
-0.045031
-0.035294
-0.028121
-0.032747
-0.019999
-0.009241
-0.009336
-0.016297
-0.015434
-0.016513
-0.010652
-0.032791
-0.039514
-0.062348
-0.060471
-0.0735
-0.069719
-0.061999
-0.043071
-0.028462
-0.024403
-0.017348
0.000758
0.016
-0.001618
0.009202
-0.001543
-0.002865
-0.017849
-0.015415
-0.015665
-0.025791
-0.027355
-0.031067
-0.037302
-0.043943
-0.047651
-0.036048
-0.033178
-0.025091
-0.012223
-0.0205
0.000063
-0.002135
-0.002039
0.006183
-0.002612
-0.001287
0.010209
-0.000161
0.000826
0.004638
-0.007894
-0.024688
-0.001903
0.003436
0.00745
-0.007611
-0.010956
0.00632
0.012107
0.000987
0.005285
0.007763
0.040219
0.046525
0.019747
0.022539
0.034695
0.032332
0.024168
0.007029
-0.001692
-0.010004
0.00135
-0.008993
-0.011975
-0.013427
0.004683
0.002084
0.01115
0.018107
0.007587
0.023147
0.013996
0.007561
0.0148
0.008419
0.006253
-0.000617
-0.015436
-0.025288
-0.030681
-0.041592
-0.044303
-0.029696
-0.039505
-0.046447
-0.025975
-0.015038
-0.013348
-0.021978
-0.022221
-0.018574
-0.010247
-0.015517
-0.001368
0.004022
-0.014145
-0.013226
-0.033528
-0.044753
-0.053527
-0.056109
-0.052648
-0.055806
-0.053642
-0.052007
-0.043463
-0.042492
-0.042876
-0.064336
-0.040615
-0.030011
-0.023496
-0.029991
-0.029253
-0.027034
-0.03263
-0.037915
-0.041527
-0.042004
-0.05357
-0.061904
-0.053816
-0.048633
-0.061487
-0.053069
-0.061175
-0.055396
-0.049982
-0.033835
-0.037845
-0.04797
-0.024411
-0.033828
-0.027762
-0.035145
-0.026022
-0.020558
-0.021549
-0.031383
-0.037328
-0.04767
-0.054525
-0.067294
-0.076028
-0.071524
-0.061638
-0.05415
-0.026193
-0.03138
-0.020366
-0.025248
-0.035041
-0.021643
-0.034799
-0.020301
-0.032044
-0.030998
-0.035314
-0.044513
-0.057814
-0.061013
-0.039059
-0.040474
-0.052641
-0.052933
-0.053374
-0.045819
-0.037765
-0.030127
-0.028747
-0.015581
-0.013105
-0.010264
-0.01069
-0.019785
-0.045308
-0.015205
-0.021326
-0.057424
-0.071986
-0.06878
-0.063445
-0.068776
-0.069565
-0.073034
-0.049522
-0.05107
-0.038409
-0.011108
-0.013718
0.010748
0.046705
0.094745
0.127832
0.162011
0.188383
0.19013
0.21391
0.232162
0.24022
0.23952
0.239901
0.240692
0.248952
0.278853
0.28341
0.291735
0.274355
0.273956
0.302638
0.278235
0.270794
0.240689
0.218757
0.206067
0.205503
0.180252
0.152863
0.131651
0.083215
0.070648
0.037708
0.007652
-0.020714
-0.063845
-0.072493
-0.109686
-0.120727
-0.124787
-0.133783
-0.137379
-0.139291
-0.114166
-0.114545
-0.094801
-0.084582
-0.106225
-0.083109
-0.06152
-0.049573
-0.050836
-0.069653
-0.059942
-0.060321
-0.059091
-0.049435
-0.060611
-0.059216
-0.040734
-0.035891
-0.013008
-0.004982
0.00168
-0.008288
-0.000263
0.008028
-0.006126
0.001336
-0.011625
-0.015305
-0.039867
-0.046179
-0.053222
-0.039402
-0.047238
-0.046307
-0.056987
-0.048892
-0.028593
-0.015746
-0.013819
-0.002354
-0.008667
-0.007784
-0.000881
0.00183
-0.008761
-0.009644
-0.014974
-0.019014
-0.024
-0.041133
-0.040014
-0.039105
-0.03298
-0.039278
-0.032257
-0.034961
-0.037718
-0.024453
-0.008381
-0.008008
-0.02075
0.001963
0.00511
-0.001333
0.004683
-0.000017
-0.02044
-0.009548
-0.021681
-0.015887
-0.033942
-0.033137
-0.030192
-0.022311
-0.008266
0.006905
0.007267
-0.006595
0.017432
0.009198
0.012321
0.018152
0.027745
0.024245
0.012782
0.007041
0.007922
0.006133
0.008737
-0.017012
-0.020541
-0.036765
-0.021601
-0.02665
-0.012343
-0.001752
0.006645
0.011053
0.001437
-0.008727
-0.007196
0.020805
0.016271
0.029253
0.016692
0.010698
0.006566
-0.008449
-0.024392
-0.009765
-0.00662
-0.00706
-0.01864
-0.015043
0.00197
0.00565
0.019794
0.016035
0.019005
0.007963
0.038756
0.039985
0.011168
0.016635
-0.001176
0.017984
0.009628
-0.006241
-0.006797
0.004577
-0.006658
0.002223
0.012192
-0.002153
0.001943
0.008535
0.005304
0.010335
0.019662
0.017122
0.038996
0.048636
0.046464
0.044974
0.060375
0.020572
0.030283
0.022181
0.03368
0.020934
0.006376
0.004443
0.00424
0.008125
0.024532
0.029023
0.037894
0.046606
0.059285
0.066833
0.073533
0.073654
0.073237
0.063533
0.063242
0.057571
0.040302
0.021558
0.025775
0.031828
0.028073
0.028929
0.029193
0.033554
0.042298
0.04289
0.06668
0.065608
0.081459
0.085016
0.088691
0.089488
0.105037
0.089972
0.104416
0.11484
0.070742
0.089918
0.098984
0.074746
0.0468
0.052946
0.068694
0.036818
0.052429
0.086436
0.096523
0.087008
0.093028
0.096952
0.102074
0.114076
0.124352
0.136222
0.139972
0.116979
0.125228
0.119016
0.08942
0.099769
0.10613
0.094569
0.09177
0.101262
0.105106
0.118168
0.125941
0.124076
0.13207
0.139897
0.153017
0.143505
0.139177
0.146478
0.154034
0.152783
0.118018
0.127254
0.130165
0.116849
0.117845
0.106829
0.106314
0.093275
0.12641
0.136161
0.134904
0.143796
0.160276
0.141991
0.146934
0.15526
0.162487
0.153357
0.159087
0.145732
0.127896
0.124267
0.118319
0.115893
0.120186
0.100755
0.095106
0.109125
0.108411
0.098886
0.099808
0.090596
0.117977
0.102705
0.099382
0.126572
0.104466
0.101699
0.100974
0.101395
0.097165
0.080087
0.070486
0.058517
0.046377
0.057387
0.048952
0.039317
0.031327
0.062214
0.040875
0.022537
0.03347
0.040447
0.038941
0.068077
0.036196
0.036505
0.035918
0.029079
-0.005797
0.001769
-0.008866
-0.016578
-0.013154
-0.012246
-0.021163
-0.00753
-0.00592
-0.002761
-0.005379
-0.000395
0.008672
0.010196
0.020785
0.033549
0.032166
0.021795
0.019494
0.012251
-0.032029
-0.034678
-0.026766
-0.024791
-0.02934
-0.018823
-0.033403
-0.047913
-0.032991
-0.008317
-0.007415
-0.023878
0.005244
-0.00841
-0.003845
0.007409
0.026201
0.007206
0.00464
-0.002238
-0.008433
-0.013502
-0.030607
-0.028672
-0.024824
-0.031078
-0.03166
-0.038891
-0.036538
-0.030316
-0.021123
-0.019655
0.000777
-0.008773
-0.033719
-0.012796
-0.008173
0.003731
-0.005381
-0.019061
-0.01994
-0.024516
-0.033291
-0.023876
-0.046111
-0.0466
-0.05018
-0.058178
-0.042503
-0.031998
-0.023379
-0.017067
-0.008713
0.016682
0.022568
0.022969
0.017134
0.017266
0.003265
-0.013992
-0.017351
-0.027204
-0.025926
-0.026743
-0.034456
-0.036106
-0.040817
-0.042487
-0.041673
-0.036339
-0.020543
-0.013793
-0.026888
0.005109
0.005265
0.016172
0.012657
-0.002986
0.007427
0.000746
-0.012071
-0.024776
-0.024233
-0.035179
-0.033861
-0.020735
-0.023382
-0.00394
0.00126
-0.017543
-0.0293
-0.014662
-0.022455
-0.017501
-0.002779
0.008021
0.017764
0.008914
0.017498
0.011998
0.001006
-0.020916
-0.023259
-0.019459
-0.024296
-0.026111
-0.037355
-0.018469
-0.034352
-0.024609
-0.016311
-0.008965
-0.013348
-0.007251
-0.002283
-0.008475
-0.006819
-0.010132
0.004757
0.012878
-0.024078
-0.022541
-0.009305
-0.011329
-0.015787
-0.025714
-0.022049
-0.032226
-0.028334
-0.036236
-0.028381
-0.020503
-0.011422
-0.007505
-0.00398
-0.020042
-0.014263
0.00196
0.003578
0.002561
0.000518
-0.001732
-0.006927
-0.019892
-0.002748
-0.030513
-0.02538
-0.031893
-0.036903
-0.028943
-0.02295
-0.0097
-0.002785
-0.003863
-0.000212
-0.002013
0.016285
-0.000618
-0.004867
-0.009216
-0.001166
-0.003207
-0.037626
-0.029014
-0.013654
-0.049614
-0.029783
-0.019162
-0.014606
-0.010662
0
0.00566
0.002487
0.008717
-0.018437
-0.005732
0.014961
0.009491
0.006602
-0.001899
-0.011679
-0.01917
-0.007136
-0.024888
-0.02271
-0.031045
-0.04714
-0.044838
-0.028379
-0.02922
-0.028279
-0.015235
-0.010357
-0.015516
0.000171
-0.001938
-0.006246
-0.012089
-0.017049
-0.005069
-0.011161
-0.03893
-0.015188
-0.025364
-0.032863
-0.040806
-0.034908
-0.04918
-0.044938
-0.027696
-0.011877
-0.01797
-0.006884
0.010496
0.019141
0.009417
0.010535
0.013022
-0.005817
0.00019
-0.003265
-0.011598
-0.031407
-0.043682
-0.046042
-0.047797
-0.045461
-0.039877
-0.027486
-0.023525
-0.024687
-0.003091
-0.011651
-0.016232
-0.018831
0.00072
-0.008099
0.001533
0.005759
-0.005507
-0.016617
-0.024554
-0.043575
-0.056972
-0.042194
-0.046009
-0.049398
-0.048184
-0.03508
-0.019935
-0.033904
-0.015866
0.003099
0.013365
0.007313
0.007629
0.004304
-0.010723
-0.000813
0.021516
0.002544
-0.00464
-0.013006
-0.031813
-0.031391
-0.034551
-0.027129
-0.024537
-0.016762
-0.016744
-0.013953
-0.02431
-0.01722
-0.030159
-0.017956
-0.006536
-0.02404
-0.015803
-0.014462
-0.00637
-0.014619
-0.041898
-0.043269
-0.018614
-0.03551
-0.044677
-0.053146
-0.034767
-0.037101
-0.030835
-0.031547
-0.019245
-0.009302
0.005517
0.010502
0.008508
0.012452
0.01361
0.003689
-0.023625
-0.018412
-0.019834
-0.034898
-0.051842
-0.057206
-0.064602
-0.059099
-0.034788
-0.051661
-0.040971
-0.017709
-0.021431
-0.010742
-0.018845
-0.004623
-0.004433
-0.020394
-0.016013
0.012118
0.00631
-0.005273
-0.004047
-0.01516
-0.028635
-0.04254
-0.036269
-0.030732
-0.028662
-0.028991
-0.038479
-0.041507
-0.01614
-0.017806
-0.003326
-0.008617
-0.010664
-0.013589
-0.005792
-0.003311
-0.003966
0.008735
-0.019119
-0.008781
-0.023927
-0.008711
0.000219
-0.025608
-0.019692
-0.036282
-0.00394
-0.006322
-0.005944
0.00366
0.022791
0.011239
0.008605
0.027536
0.03825
0.012789
0.010515
-0.003082
0.006637
0.004827
0.006089
-0.015619
-0.000361
0.003517
-0.006955
-0.006747
-0.008876
-0.003646
-0.003682
0.010997
0.012175
0.024618
0.029393
0.04302
0.033336
0.035354
0.036149
0.020231
0.004416
0.00303
0.002406
0.003155
-0.010784
-0.024266
-0.032679
-0.007244
-0.002303
-0.004844
0.02234
0.011248
0.0167
0.017837
0.014538
0.00966
0.013346
0.006027
0.007216
0.002858
-0.004762
-0.018985
-0.029365
-0.038104
-0.029145
-0.011129
-0.01851
-0.077592
-0.055463
-0.046135
-0.037627
-0.016302
-0.001398
-0.012809
-0.00622
-0.002339
-0.014364
-0.001389
-0.001806
-0.006413
-0.023044
-0.034832
-0.042839
-0.029218
-0.038469
-0.043086
-0.074039
-0.052414
-0.04356
-0.041294
-0.027096
-0.019624
-0.005952
-0.009321
-0.010545
-0.0008
-0.008335
-0.023738
-0.013103
-0.01517
-0.028723
-0.024382
-0.04815
-0.050466
-0.032041
-0.052028
-0.061088
-0.057213
-0.054508
-0.057969
-0.030976
-0.034119
-0.014233
-0.010616
-0.010899
-0.005316
-0.008334
-0.009301
-0.013049
-0.026389
-0.037817
-0.0332
-0.035564
-0.053286
-0.056784
-0.064354
-0.048839
-0.046965
-0.050383
-0.054816
-0.043886
-0.039454
-0.017693
-0.006665
-0.003162
-0.014244
-0.018927
-0.022592
-0.033913
-0.010151
-0.008604
-0.008195
-0.037112
-0.040691
-0.034705
-0.051585
-0.064206
-0.065184
-0.061713
-0.041047
-0.030163
-0.016954
-0.001906
-0.01492
-0.017659
-0.015564
-0.023164
-0.008178
-0.015804
-0.018227
-0.023134
-0.042209
-0.042333
-0.041188
-0.052707
-0.037815
-0.0093
-0.008269
0.010762
0.050947
0.082023
0.098613
0.135281
0.177209
0.194944
0.22641
0.245059
0.284862
0.277192
0.280656
0.285079
0.291242
0.294042
0.30122
0.288412
0.291207
0.291583
0.293757
0.271605
0.25199
0.226168
0.221375
0.207754
0.208026
0.193096
0.160602
0.137089
0.127867
0.103325
0.067235
0.02791
0.001701
-0.021283
-0.056426
-0.092119
-0.10562
-0.129219
-0.140401
-0.134066
-0.133379
-0.128793
-0.119101
-0.094325
-0.088376
-0.072986
-0.0491
-0.044408
-0.02187
-0.04122
-0.012629
-0.020485
-0.052022
-0.041544
-0.029857
-0.030095
-0.021269
-0.025872
-0.045977
-0.045608
-0.039517
-0.026215
-0.013992
-0.005662
-0.003579
-0.010232
0.005817
0.00519
0.009923
0.000051
0.000889
-0.00841
-0.019859
-0.009213
-0.015703
-0.025419
-0.028135
-0.046538
-0.033402
-0.031678
-0.020339
-0.010059
-0.021223
-0.026109
-0.007558
0.004661
0.016499
0.014498
0.03524
0.009905
0.002435
0.002481
-0.008762
-0.009559
-0.022624
-0.038941
-0.033015
-0.030053
-0.034794
-0.02331
-0.030789
-0.000823
-0.009349
-0.026862
-0.01269
0.004748
0.013689
0.008926
0.009836
0.011804
0.007072
-0.001484
-0.006439
-0.02172
-0.025877
-0.019236
-0.023032
-0.019384
-0.012078
-0.016303
-0.002561
-0.012819
-0.012077
-0.002344
0.009247
-0.00345
0.036029
0.030565
0.010738
0.030258
0.031375
0.022677
0.016606
0.002045
-0.020302
0.008833
-0.004566
-0.033352
-0.047091
-0.025147
0.011494
0.016861
0.011796
0.016143
0.017132
0.015747
0.025482
0.027802
0.030293
0.038131
0.026145
0.017534
0.017693
0.009681
0.002664
0.024943
-0.008155
-0.004147
-0.009423
-0.015216
-0.012882
-0.000825
0.012546
0.013976
0.030669
0.026689
0.039148
0.048714
0.045212
0.041286
0.037951
0.021237
0.012802
-0.004988
-0.002297
0.017903
0.007921
-0.00381
0.008874
0.021152
0.007635
0.026914
0.038618
0.02429
0.017036
0.026047
0.034826
0.047064
0.042338
0.047653
0.045991
0.029904
0.033847
0.025009
0.02849
0.027713
0.025154
0.029279
0.035574
0.040722
0.0273
0.028509
0.063486
0.071889
0.061169
0.068918
0.072135
0.093794
0.100898
0.093283
0.091416
0.049736
0.063393
0.07476
0.056772
0.05544
0.049163
0.071433
0.031075
0.066251
0.064997
0.064094
0.06271
0.062586
0.07864
0.090288
0.083795
0.084447
0.095237
0.099271
0.106382
0.088328
0.100964
0.090359
0.069204
0.087129
0.08122
0.070461
0.08816
0.075004
0.089353
0.086781
0.102727
0.11264
0.116686
0.11474
0.127479
0.127139
0.118345
0.12484
0.129245
0.147867
0.109423
0.104411
0.086754
0.105486
0.118264
0.11899
0.120629
0.115723
0.126972
0.13998
0.110817
0.122579
0.14919
0.146073
0.164624
0.159712
0.144094
0.160457
0.164615
0.160775
0.144941
0.138247
0.134573
0.139733
0.130224
0.11831
0.115665
0.123972
0.139019
0.152491
0.140999
0.138973
0.142944
0.154318
0.157551
0.156723
0.157771
0.135098
0.127822
0.133366
0.122172
0.104481
0.087596
0.083039
0.083348
0.085934
0.08353
0.077969
0.091379
0.099138
0.099851
0.113005
0.092237
0.08327
0.098218
0.130726
0.113705
0.077625
0.07954
0.081747
0.062459
0.031147
0.038668
0.044038
0.032
0.030362
0.037951
0.023433
0.01314
0.012783
0.025694
0.02797
0.025354
0.024173
0.046328
0.028458
0.028643
0.027519
0.015884
0.008253
0.008589
-0.021949
-0.027403
-0.02291
-0.019684
-0.014064
-0.030613
-0.020761
-0.016242
-0.010683
-0.024551
-0.002979
0.010963
0.006793
0.005518
0.02177
0.018303
0.007814
0.001593
0.012929
-0.006711
-0.016414
-0.018366
-0.045267
-0.059685
-0.051728
-0.034071
-0.028309
-0.030346
-0.024828
0.009565
-0.003154
0.004889
0.0093
0.024141
0.025689
0.007578
0.003301
-0.006295
0.004411
0.007785
-0.013368
-0.018184
-0.015091
-0.021335
-0.022972
-0.008586
-0.033917
-0.034393
-0.020392
0.007979
0.002156
-0.02097
-0.015298
-0.010839
-0.001762
0.018905
0.028674
0.007057
-0.004626
-0.01269
-0.019073
-0.017039
-0.023786
-0.013489
-0.022815
-0.03399
-0.039201
-0.043756
-0.016313
-0.012056
0.007714
0.008732
0.001432
0.006224
0.01946
0.019428
0.001624
-0.0037
-0.008049
-0.010903
-0.005625
-0.018865
-0.013625
-0.04473
-0.037513
-0.033506
-0.018532
-0.01258
-0.002551
-0.006135
-0.027441
-0.015162
0.010528
-0.012
-0.001605
0.006122
0.003222
0.006811
0.02527
-0.025761
-0.036572
-0.040414
-0.026124
-0.024765
-0.027051
-0.037668
-0.054867
-0.053015
-0.018507
0.003388
0.010702
-0.013605
-0.006656
-0.001405
0.002689
0.00569
0.007981
0.002031
-0.014449
-0.010839
-0.010933
-0.019837
-0.025776
-0.038804
-0.033917
-0.018377
-0.003268
-0.024217
-0.025486
-0.008899
0.006645
-0.017048
-0.004417
0.017431
0.009904
0.003202
0.005169
-0.010982
-0.010899
0.000094
-0.001124
-0.022705
-0.023551
-0.033602
-0.031848
-0.032995
-0.028791
-0.024098
0.003648
0.012492
0.005753
0.007392
0.021399
0.040013
0.044886
0.011954
0.000082
0.009721
0.011289
0.002176
-0.02364
-0.034581
-0.029854
-0.021514
-0.027019
-0.017661
-0.014015
-0.019194
-0.010521
-0.003637
-0.000724
0.000603
-0.006504
0.005471
-0.003695
0.010649
-0.005223
0.009973
0.001384
-0.003946
-0.022143
-0.055214
-0.020809
-0.042875
-0.037583
-0.042803
-0.039701
-0.022971
-0.024994
-0.026763
-0.013754
0.002576
0.002738
0.015673
0.014602
0.027112
0.004545
-0.005288
-0.001596
-0.018762
-0.018767
-0.023987
-0.014106
-0.033974
-0.038752
-0.040892
-0.039184
-0.035308
-0.023898
-0.027684
-0.012977
-0.004518
-0.001496
-0.018459
-0.023018
-0.010419
0.00283
0.010957
-0.002914
-0.020057
-0.033055
-0.024297
-0.028225
-0.031959
-0.038722
-0.042505
-0.056891
-0.050955
-0.048197
-0.028925
-0.009306
-0.000845
0.009905
0.014421
0.002281
-0.006638
0.000039
0.009703
0.003959
-0.005987
-0.016268
-0.020909
-0.030958
-0.032828
-0.043519
-0.037138
-0.044507
-0.039424
-0.040068
-0.031358
-0.019407
0.00206
-0.01823
-0.002392
-0.006217
-0.022873
-0.004377
-0.004117
-0.019327
-0.022969
-0.01942
-0.01494
-0.043596
-0.04489
-0.038765
-0.051924
-0.040347
-0.036987
-0.030695
-0.030631
-0.027686
-0.027317
-0.012491
-0.008304
0.023617
0.017316
0.003428
-0.016708
-0.012492
-0.02868
-0.027587
-0.030192
-0.038572
-0.033589
-0.042775
-0.042811
-0.06764
-0.04149
-0.014201
-0.019169
-0.027821
-0.033268
-0.009052
-0.002969
-0.014104
-0.016291
-0.00332
-0.009217
-0.013188
-0.000914
-0.036709
-0.033453
-0.023863
-0.041937
-0.04189
-0.036853
-0.050029
-0.046716
-0.0376
-0.021405
-0.020879
-0.024258
-0.002733
-0.029321
-0.015042
-0.020451
-0.001529
-0.00496
-0.034065
-0.022481
-0.028829
-0.035721
-0.047948
-0.038946
-0.042429
-0.055143
-0.056921
-0.048604
-0.038249
-0.04799
-0.023297
-0.014202
-0.007529
-0.017509
-0.020501
-0.007241
0.003678
0.006386
0.016876
-0.000972
-0.006501
-0.01556
-0.03187
-0.029724
-0.03318
-0.04259
-0.047889
-0.047007
-0.022905
-0.016437
-0.022324
-0.018654
0.005169
0.007209
0.011999
-0.003929
0.012113
0.016077
0.017331
-0.005643
-0.005585
-0.009077
-0.028469
-0.020952
-0.043377
-0.028185
-0.023381
-0.027831
-0.022163
-0.007166
0.006144
0.026314
0.027234
0.025182
0.020822
0.014214
0.016936
0.021078
0.034508
0.04194
0.004004
-0.007831
-0.022362
-0.024787
0.004067
0.002217
-0.00597
-0.009228
0.000389
-0.006454
0.001448
0.011109
0.01932
0.02458
0.035626
0.026054
0.018589
0.021879
0.027595
0.017524
0.019804
0.015364
-0.005325
-0.002332
-0.004417
-0.010147
-0.021233
-0.03262
-0.035267
-0.025153
-0.015171
0.002957
0.000827
-0.017052
-0.022335
-0.021118
-0.016612
-0.012159
-0.015489
-0.007615
-0.008413
-0.039299
-0.043557
-0.057883
-0.050555
-0.051848
-0.062727
-0.039977
-0.05221
-0.039443
-0.034424
-0.012334
-0.001219
-0.015269
-0.003312
-0.007694
-0.019022
-0.025896
-0.04514
-0.046822
-0.039398
-0.067275
-0.057489
-0.048948
-0.053683
-0.041469
-0.051423
-0.044727
-0.046609
-0.051192
-0.042708
-0.047011
-0.03215
-0.024462
-0.010447
-0.01351
-0.019178
-0.023007
-0.029969
-0.039027
-0.036062
-0.066511
-0.071461
-0.060824
-0.055917
-0.059384
-0.055715
-0.049215
-0.074282
-0.071269
-0.047152
-0.034127
-0.029703
-0.012109
0.001022
-0.009472
-0.014059
-0.029496
-0.027194
-0.028706
-0.048077
-0.052616
-0.054714
-0.055351
-0.062235
-0.070013
-0.067477
-0.056811
-0.051481
-0.038483
-0.035674
-0.019005
-0.025044
-0.0378
-0.021754
-0.017804
-0.015491
-0.025147
-0.01752
-0.022408
-0.041918
-0.026851
-0.049964
-0.054549
-0.066416
-0.071007
-0.069982
-0.059487
-0.048925
-0.036231
-0.02994
-0.040479
-0.041104
-0.030612
-0.025778
-0.016447
-0.00864
-0.013896
0.015036
0.021466
0.003628
0.034185
0.074461
0.086011
0.097034
0.109171
0.127376
0.157522
0.187325
0.213345
0.247687
0.267861
0.295184
0.306879
0.317188
0.335934
0.333182
0.338863
0.316561
0.301147
0.288128
0.245523
0.216406
0.221038
0.199126
0.19984
0.193706
0.166472
0.149887
0.123286
0.102315
0.089554
0.063622
0.011179
0.016537
-0.002874
-0.046805
-0.065778
-0.074124
-0.109627
-0.129167
-0.117836
-0.133141
-0.131278
-0.125527
-0.116676
-0.109146
-0.102054
-0.080697
-0.057052
-0.047199
-0.040771
-0.032013
-0.018265
0.011367
0.00426
-0.011321
-0.003484
-0.016815
-0.003838
-0.019356
-0.014158
-0.023194
-0.029581
-0.038958
-0.058546
-0.067086
-0.054878
-0.058768
-0.043758
-0.039068
-0.036322
-0.010423
-0.01001
-0.011493
-0.010172
0.005829
0.002245
-0.005499
-0.01803
-0.009383
-0.01968
-0.035407
-0.02822
-0.030878
-0.024301
-0.034829
-0.033214
-0.024418
-0.019594
-0.022597
-0.001419
-0.010886
-0.017198
-0.009753
0.009404
0.011734
-0.016489
-0.023731
-0.011369
-0.024559
-0.028
-0.024357
-0.032112
-0.033071
-0.024237
-0.04466
-0.021202
-0.031808
-0.031492
-0.019036
-0.02041
0.011213
0.007626
-0.01207
-0.002154
0.008603
0.024159
0.005816
-0.00341
0.004239
0.015851
0.017497
-0.007547
-0.040044
-0.039861
-0.030434
-0.022459
-0.014173
-0.011646
-0.003109
-0.007327
0.020886
0.011799
0.004628
0.008989
0.007766
-0.000622
0.004003
-0.000814
0.001467
-0.012637
-0.005548
0.005234
0.000227
-0.000941
-0.019498
-0.008918
-0.008523
-0.006413
-0.000187
0.01106
0.020438
0.03434
0.02799
0.023194
0.01446
0.021103
0.009456
0.003761
-0.002577
-0.005632
-0.013765
-0.01994
-0.014255
-0.007706
-0.005334
-0.007126
-0.008508
0.007736
0.011472
0.030286
0.037516
0.024139
0.041134
0.042663
0.025092
0.028915
0.038818
0.01877
0.013865
0.014897
-0.0061
0.011701
0.002469
-0.00166
-0.008067
-0.009015
0.000778
0.009494
0.023784
0.024752
0.02041
0.02913
0.036172
0.027793
0.039773
0.050777
0.042561
0.043957
0.033564
0.030938
0.035512
0.028186
0.054686
0.025774
0.040348
0.039883
0.030371
0.06786
0.058122
0.05165
0.06079
0.073953
0.062997
0.062474
0.058407
0.061835
0.063216
0.070506
0.066329
0.057307
0.057671
0.058136
0.052536
0.05099
0.038416
0.054775
0.056967
0.064552
0.067404
0.082361
0.092557
0.098959
0.106043
0.101887
0.108955
0.104484
0.11011
0.099509
0.090484
0.099543
0.08115
0.092646
0.092025
0.068791
0.071785
0.079092
0.083222
0.078449
0.089823
0.089148
0.120895
0.125778
0.126855
0.129297
0.130235
0.124507
0.108336
0.110562
0.147955
0.129294
0.10147
0.109463
0.103733
0.113833
0.113367
0.107281
0.103589
0.105879
0.130389
0.138165
0.142851
0.151368
0.141164
0.141436
0.165225
0.15874
0.15584
0.135635
0.138052
0.136501
0.128719
0.129506
0.107635
0.111657
0.106444
0.114814
0.11639
0.103108
0.115571
0.123166
0.138772
0.143401
0.139368
0.12837
0.128426
0.123996
0.129799
0.10613
0.106196
0.111394
0.100566
0.070985
0.062386
0.050784
0.05718
0.059644
0.059029
0.05122
0.051429
0.069347
0.079615
0.072256
0.072103
0.068187
0.070454
0.061457
0.051333
0.051944
0.034978
0.015708
0.014676
0.015377
0.01288
0.005597
0.014859
-0.000936
-0.021177
-0.010683
-0.005159
0.000374
0.017682
0.010386
0.009961
0.013067
0.017341
0.012755
-0.0162
-0.004019
-0.014055
-0.015275
-0.036255
-0.029818
-0.023149
-0.031619
-0.037736
-0.03302
-0.037244
-0.035197
-0.020924
-0.013695
-0.002399
-0.001832
-0.003093
0.005273
0.007915
0.003853
0.002123
-0.023323
-0.032531
-0.031518
-0.037626
-0.033433
-0.035688
-0.049505
-0.047549
-0.030584
-0.032558
-0.044497
-0.034262
-0.029962
-0.006756
0.007944
0.002923
-0.007236
-0.00005
0.015644
-0.014122
-0.003365
0.00994
-0.012188
-0.037219
-0.038083
-0.046258
-0.035514
-0.032118
-0.038052
-0.043116
-0.039911
-0.024976
-0.002216
-0.002795
-0.006596
-0.004318
0.01262
0.013316
0.007528
0.008267
0.004705
-0.009929
-0.008457
-0.003612
-0.017225
-0.023918
-0.036676
-0.047314
-0.046424
-0.031371
-0.033097
-0.032313
-0.0198
-0.003867
-0.008357
-0.00726
0.020154
0.02062
0.006221
0.015023
0.01172
-0.009623
-0.030353
-0.03897
-0.039458
-0.042713
-0.04696
-0.044256
-0.063545
-0.078127
-0.033798
-0.033129
-0.022741
-0.01941
-0.014034
-0.013836
0.003914
0.008543
0.010359
-0.001035
-0.00122
0.010333
-0.004248
-0.041515
-0.035717
-0.033019
-0.044509
-0.034611
-0.031333
-0.039597
-0.031949
-0.016668
-0.037356
-0.014916
-0.009522
-0.00551
-0.011155
-0.011448
-0.021038
-0.00596
-0.006748
0.000407
-0.015189
-0.020159
-0.011894
-0.045736
-0.037825
-0.032951
-0.034635
-0.025413
-0.035102
-0.019455
0.005982
-0.006866
0.007171
0.00198
-0.011081
-0.008804
-0.016799
-0.019457
-0.008758
-0.004465
-0.008446
-0.011185
-0.031638
-0.025072
-0.033993
-0.032337
-0.024625
-0.031609
-0.034726
-0.017907
-0.01846
-0.02354
-0.01699
-0.013516
0.002047
0.012419
-0.006959
0.006852
-0.008093
-0.014571
-0.024461
-0.025555
-0.034539
-0.035532
-0.045608
-0.035916
-0.037023
-0.03455
-0.04805
-0.03014
-0.01774
0.000268
0.003109
-0.001921
-0.000879
-0.00058
-0.002947
0.000131
-0.004002
-0.01627
-0.013176
-0.012201
-0.02352
-0.041745
-0.023767
-0.020779
-0.039755
-0.035581
-0.013142
-0.024238
-0.008451
-0.015235
-0.020469
-0.02426
0.005844
-0.000586
-0.000479
-0.016718
-0.012198
-0.020976
-0.035361
-0.042844
-0.050162
-0.054247
-0.030686
-0.035831
-0.039747
-0.061805
-0.051075
-0.032617
-0.019261
-0.022542
-0.00716
-0.002213
0.001596
-0.005539
-0.007943
-0.002099
-0.004485
-0.021221
-0.032836
-0.029796
-0.038229
-0.022226
-0.025517
-0.037538
-0.040902
-0.045526
-0.041976
-0.032587
-0.017288
-0.022871
-0.015628
-0.023445
-0.019529
-0.012492
-0.012086
-0.012439
-0.009316
-0.015644
-0.048245
-0.046367
-0.039956
-0.044707
-0.046207
-0.015007
-0.04612
-0.037431
-0.034664
-0.037569
-0.030577
-0.016049
-0.003516
-0.009587
0.002007
0.003831
0.009545
-0.022162
-0.038679
-0.027449
-0.024791
-0.033717
-0.037691
-0.035377
-0.041996
-0.03004
-0.046418
-0.072525
-0.070529
-0.056488
-0.027933
-0.010057
-0.013743
-0.007896
0.006256
-0.006813
-0.008688
-0.012154
-0.010096
-0.014874
-0.036325
-0.045795
-0.030838
-0.044603
-0.058229
-0.060092
-0.060519
-0.047451
-0.047277
-0.039283
-0.039317
-0.028412
-0.012707
-0.010937
0.00078
-0.009229
-0.008611
0.006555
-0.004995
-0.004348
-0.011052
-0.027194
-0.031443
-0.044351
-0.026767
-0.049991
-0.05651
-0.062935
-0.062905
-0.04766
-0.034106
-0.04599
-0.018814
-0.016349
-0.002534
-0.008871
-0.006414
-0.01825
-0.014521
-0.026864
-0.024932
-0.016378
-0.034179
-0.025291
-0.036535
-0.048106
-0.038101
-0.021464
-0.04062
-0.041877
-0.042761
-0.041192
-0.025138
-0.007282
0.018838
0.003764
-0.009683
-0.031055
-0.021673
-0.020397
-0.045662
-0.050508
-0.049387
-0.053147
-0.038491
-0.027539
-0.033959
-0.044224
-0.046037
-0.024631
-0.030411
-0.033753
-0.01165
-0.001317
-0.027527
-0.030209
-0.015067
-0.011967
-0.014676
0.000076
-0.021602
-0.042579
-0.029825
-0.04151
-0.045408
-0.043406
-0.036767
-0.042165
-0.054376
-0.027538
-0.014541
-0.005927
-0.012363
-0.014688
-0.011897
-0.024136
-0.01222
-0.016754
0.012047
0.003165
0.01392
0.017891
-0.019286
-0.025872
-0.015302
-0.022802
-0.014235
-0.038414
-0.025659
-0.018417
0.005414
0.011124
0.015582
0.023342
0.040814
0.033941
0.035263
0.042751
0.040185
0.034167
0.017042
0.013151
0.002487
0.003482
0.012204
0.009089
-0.002193
-0.008988
-0.014478
-0.000616
-0.019159
-0.009463
0.017789
0.012467
0.025112
0.027755
0.031688
0.028932
0.027081
0.021317
0.015882
0.028351
-0.000587
-0.0077
-0.024415
-0.02465
-0.013742
-0.011811
-0.012918
-0.017163
-0.023859
-0.027614
-0.017201
-0.013613
-0.01264
0.013006
0.02029
0.009301
0.010895
0.010818
-0.017172
-0.025361
-0.024057
-0.047733
-0.051622
-0.061647
-0.068538
-0.040817
-0.053342
-0.052702
-0.048454
-0.0516
-0.02319
-0.036045
-0.048881
-0.022144
0.008202
-0.022963
-0.035628
-0.046794
-0.050343
-0.056592
-0.058013
-0.05382
-0.055364
-0.057972
-0.066895
-0.051115
-0.033524
-0.024721
-0.03152
-0.033797
-0.026703
-0.030192
-0.022138
-0.010039
-0.008868
-0.010473
-0.026892
-0.045106
-0.052124
-0.048122
-0.052802
-0.049978
-0.044375
-0.056185
-0.050584
-0.066591
-0.045293
-0.03597
-0.027746
-0.021526
-0.029894
-0.018633
-0.029787
-0.03078
-0.020742
-0.012318
-0.013807
-0.030685
-0.028109
-0.042723
-0.051141
-0.053801
-0.050819
-0.048166
-0.039391
-0.061816
-0.057849
-0.051204
-0.04842
-0.037851
-0.04658
-0.029385
-0.025795
-0.014129
-0.003082
-0.016418
-0.031001
-0.036696
-0.030772
-0.03326
-0.044406
-0.053999
-0.059691
-0.061275
-0.06386
-0.061246
-0.061432
-0.060403
-0.066087
-0.054817
-0.037758
-0.032555
-0.010873
-0.009051
-0.021331
-0.005541
0.011029
0.028903
0.04814
0.075794
0.085195
0.103631
0.11768
0.126876
0.149204
0.181874
0.197596
0.215423
0.250744
0.272278
0.28332
0.299497
0.308717
0.311901
0.329906
0.320731
0.325797
0.306929
0.264344
0.251963
0.246171
0.240891
0.215614
0.1932
0.174551
0.152199
0.130612
0.108678
0.075478
0.042533
0.028943
0.006548
-0.029027
-0.026937
-0.046882
-0.062718
-0.097661
-0.106553
-0.116554
-0.138832
-0.149993
-0.14567
-0.128404
-0.133832
-0.117926
-0.086562
-0.067106
-0.044345
-0.049207
-0.036102
-0.01775
-0.025894
-0.001794
-0.013076
-0.006105
0.012613
-0.00418
-0.004241
-0.025176
-0.037245
-0.039303
-0.041054
-0.044776
-0.037397
-0.032708
-0.040155
-0.044496
-0.042267
-0.036311
-0.028846
-0.016147
-0.011406
-0.009272
-0.017785
-0.029804
-0.010127
-0.008181
-0.00661
-0.018431
-0.02805
-0.045683
-0.033552
-0.018218
-0.033934
-0.034149
-0.034998
-0.042706
-0.031743
-0.024883
-0.00849
0.005445
-0.000062
0.009258
0.001391
0.01718
0.009842
0.001293
-0.021353
-0.025852
-0.02243
-0.018493
-0.030912
-0.042191
-0.042015
-0.052127
-0.048834
-0.036397
-0.047161
-0.036296
-0.0095
0.002372
0.005333
0.00465
-0.004229
0.003764
0.009327
-0.011255
-0.005356
0.014509
-0.004951
-0.010521
-0.017619
-0.02517
-0.01756
-0.022276
-0.016548
-0.023558
-0.008198
-0.014778
-0.004769
-0.008016
-0.001022
0.011549
0.019984
0.001078
-0.018152
-0.003932
0.02448
0.025873
0.014657
0.013224
0.002517
0.006728
-0.002954
-0.024224
-0.019384
0.01187
-0.001295
-0.017939
-0.016078
-0.004699
-0.012734
0.008222
0.038789
0.024878
0.023353
0.022159
0.018981
0.009053
0.009519
-0.00294
0.006307
-0.015323
-0.019651
-0.015059
-0.022404
-0.024872
-0.013139
0.013394
0.013824
0.022284
0.021096
0.016084
0.024637
0.031028
0.022691
0.029245
0.034407
0.015133
0.002296
0.024708
0.004736
-0.000899
0.00295
0.004102
-0.004383
0.009906
0.003859
0.010129
0.03018
0.039565
0.037378
0.039125
0.054073
0.051974
0.063193
0.045819
0.050104
0.050103
0.059346
0.053955
0.031749
0.006815
0.023667
0.013368
-0.000158
0.026596
0.016621
0.032306
0.051015
0.056602
0.054976
0.064454
0.057852
0.065684
0.076852
0.090477
0.063889
0.068467
0.057309
0.048865
0.056633
0.05009
0.060527
0.041683
0.048007
0.051226
0.059907
0.071892
0.104766
0.09222
0.080984
0.113423
0.115811
0.11819
0.127001
0.106002
0.117342
0.074615
0.071388
0.092687
0.10308
0.091176
0.070832
0.08032
0.085192
0.088076
0.098128
0.110914
0.121026
0.127977
0.136749
0.133322
0.125772
0.12789
0.131989
0.14128
0.120425
0.122769
0.11548
0.109065
0.099761
0.104556
0.114668
0.093741
0.091122
0.09576
0.107606
0.118885
0.144597
0.144535
0.140246
0.142113
0.151084
0.167944
0.179581
0.16434
0.170666
0.152331
0.137199
0.132969
0.123763
0.111246
0.113573
0.097179
0.123517
0.120008
0.111043
0.131551
0.127662
0.146822
0.164061
0.164094
0.172827
0.130211
0.120846
0.125634
0.113175
0.090684
0.083838
0.090709
0.069578
0.059814
0.061363
0.063944
0.058699
0.052212
0.064456
0.048976
0.061795
0.069358
0.07458
0.060485
0.075808
0.072257
0.059978
0.041039
0.043744
0.044282
0.02027
0.020989
0.023159
0.002012
0.000291
-0.004299
-0.010119
-0.001979
-0.005625
-0.00404
0.005291
0.006919
0.001242
0.000688
0.018433
0.033156
0.025981
0.030105
0.027526
0.024913
0.008951
0.005292
-0.03327
-0.026199
-0.030388
-0.030569
-0.034894
-0.036501
-0.01113
-0.036058
-0.030163
-0.02411
-0.014252
-0.008925
-0.008896
0.00583
0.006343
0.013098
0.013748
-0.007239
-0.022549
-0.029895
-0.024737
-0.035225
-0.030498
-0.040005
-0.027795
-0.018648
-0.037523
-0.033637
-0.013027
0.000333
-0.005377
-0.009485
-0.007373
0.003258
0.00392
-0.000623
0.009936
0.001056
-0.01036
-0.03334
-0.033904
-0.029653
-0.041544
-0.038694
-0.049055
-0.062309
-0.044621
-0.040511
-0.027944
-0.012028
-0.009454
0.003665
-0.003857
0.006286
0.022331
0.02744
-0.002329
-0.010086
-0.015978
-0.006341
-0.016293
-0.015574
-0.01785
-0.033621
-0.03002
-0.031093
-0.018787
-0.013207
0.00402
-0.020276
-0.031518
-0.029144
-0.010795
-0.008358
-0.013507
0.003993
0.001486
-0.003365
0.008871
-0.010082
-0.017402
-0.015749
-0.013764
-0.016931
0.000947
-0.030009
-0.044193
-0.032164
-0.017842
-0.008019
0.002513
-0.014564
0.001967
0.019368
0.009971
-0.004541
0.000344
-0.017658
-0.016957
-0.027819
-0.027222
-0.038116
-0.020339
-0.03218
-0.03807
-0.047833
-0.02588
-0.013221
-0.008499
0.008142
0.00041
-0.009732
0.008305
0.004857
0.009585
0.007637
-0.007946
-0.005303
-0.006377
-0.01953
-0.026393
-0.039365
-0.032507
-0.020362
-0.014217
-0.011755
-0.039219
-0.02298
-0.020527
-0.008737
-0.009611
0.002862
0.015565
0.015353
0.006553
-0.004659
-0.002682
0.001773
-0.014624
-0.009623
-0.027471
-0.023286
-0.038629
-0.046477
-0.046069
-0.041161
-0.035931
-0.023211
-0.020238
-0.011727
-0.00215
0.002229
0.000725
-0.011526
-0.001784
0.011169
0.023024
-0.014733
-0.024569
-0.015586
-0.005234
-0.019151
-0.018437
-0.030699
-0.038825
-0.035462
-0.049125
-0.042544
-0.022664
-0.010895
-0.014533
-0.000095
0.018671
0.001891
0.011256
0.014919
0.012025
-0.002039
-0.018862
-0.012057
-0.01554
-0.034442
-0.026348
-0.041791
-0.046597
-0.04454
-0.042642
-0.035037
-0.02624
-0.011179
-0.003211
-0.007696
0.00261
0.004608
-0.000538
0.007512
0.011363
0.005616
0.003198
-0.012752
0.008528
-0.027419
-0.03806
-0.032117
-0.030971
-0.038993
-0.037778
-0.022595
-0.02474
-0.030591
-0.024165
-0.012725
-0.000097
0.003753
-0.009442
-0.007098
-0.00775
0.003446
0.02461
0.002254
-0.033859
-0.044775
-0.033245
-0.050925
-0.049235
-0.039172
-0.037397
-0.013657
-0.023055
-0.023235
-0.020476
-0.011555
0.013724
0.011176
-0.003535
-0.0048
-0.002788
0.001448
0.009834
-0.025158
-0.050972
-0.053383
-0.042076
-0.054605
-0.053992
-0.057478
-0.066175
-0.05291
-0.034289
-0.041139
-0.021594
-0.013336
-0.014494
-0.001408
0.0015
0.002103
-0.007962
-0.004329
-0.00172
-0.011228
-0.024057
-0.037217
-0.03043
-0.03033
-0.004288
-0.037946
-0.043426
-0.019147
-0.017057
-0.023378
0.00056
-0.009686
-0.004391
-0.014516
-0.012747
-0.009774
-0.018671
-0.017316
-0.019205
-0.009396
-0.027538
-0.049873
-0.053603
-0.031044
-0.03027
-0.028732
-0.026973
-0.024316
-0.013056
-0.008251
-0.020831
-0.019364
-0.015248
-0.008535
-0.006584
-0.009031
-0.004358
-0.009272
-0.011973
-0.019215
-0.038708
-0.021714
-0.031975
-0.041752
-0.036428
-0.033152
-0.03718
-0.032158
-0.014104
-0.023926
-0.005983
-0.001388
-0.025698
-0.014742
-0.023888
-0.02586
-0.007305
0.000802
-0.013256
-0.011089
-0.01767
-0.009694
-0.026024
-0.040438
-0.039344
-0.039339
-0.025458
-0.034609
-0.048814
-0.039336
-0.025446
-0.018804
-0.016687
0.006614
0.008172
0.004372
0.009437
0.002541
-0.002655
-0.016367
-0.024059
-0.018741
-0.021992
-0.022853
-0.02413
-0.031463
-0.019501
-0.013016
-0.011217
-0.001423
-0.00521
-0.001971
0.009038
0.033962
0.020064
0.01666
0.013009
0.032327
0.025002
0.011631
-0.006658
-0.000292
-0.008853
-0.013748
-0.009031
-0.008969
-0.01586
-0.004654
0.003071
0.002809
0.028414
0.038349
0.062697
0.046022
0.04083
0.046671
0.043638
0.025367
0.011009
0.003814
0.018398
-0.002053
0.009376
-0.005008
-0.010399
-0.002798
-0.005223
-0.008453
-0.008315
0.015869
0.025149
0.021646
0.00698
0.0128
0.018803
0.013256
0.01774
-0.001637
0.003169
0.000721
-0.006896
-0.008022
-0.01595
-0.028205
-0.026024
-0.031555
-0.026101
-0.038851
-0.033453
-0.03225
-0.024049
-0.008389
-0.019182
-0.010624
-0.022495
0.007005
0.007358
-0.006878
-0.02377
-0.045651
-0.048955
-0.039434
-0.054827
-0.051492
-0.044968
-0.061027
-0.05577
-0.049452
-0.036493
-0.035562
-0.032876
0.006845
0.003625
-0.01991
-0.026441
-0.017392
-0.018157
-0.025261
-0.037787
-0.027553
-0.041184
-0.034368
-0.027618
-0.034045
-0.048062
-0.0532
-0.054019
-0.026877
-0.03056
-0.036939
-0.049617
-0.032316
-0.025244
-0.000951
0.010074
-0.001063
-0.008421
-0.020986
-0.035633
-0.040189
-0.034553
-0.026011
-0.040522
-0.044584
-0.052315
-0.047343
-0.043995
-0.037704
-0.034962
-0.030068
-0.020854
-0.025019
-0.031577
-0.005629
0.008178
-0.017004
-0.021942
-0.03421
-0.027599
-0.039641
-0.038418
-0.02926
-0.031046
-0.067794
-0.048999
-0.065295
-0.071081
-0.054853
-0.059335
-0.033717
-0.021642
-0.02273
-0.020265
-0.019882
-0.024119
-0.01969
-0.014508
-0.016437
-0.021659
-0.017056
-0.020391
-0.034905
-0.035076
-0.055799
-0.053494
-0.045033
-0.045475
-0.038989
-0.020979
-0.008122
0.006213
0.043142
0.06444
0.086823
0.108204
0.135403
0.155806
0.18564
0.209223
0.227634
0.232308
0.232151
0.247518
0.262401
0.257913
0.275469
0.276637
0.261603
0.273487
0.280455
0.281399
0.289056
0.278807
0.258166
0.249248
0.233873
0.222442
0.218172
0.209092
0.16082
0.136547
0.109257
0.081097
0.026511
0.000882
-0.052617
-0.073395
-0.100671
-0.115442
-0.121937
-0.119701
-0.106106
-0.119468
-0.123186
-0.108692
-0.109742
-0.096303
-0.079386
-0.069823
-0.048591
-0.051729
-0.065162
-0.059636
-0.042174
-0.033954
-0.040145
-0.024541
-0.018385
0.004314
0.003288
-0.011286
-0.025137
-0.001396
0.012338
0.008176
-0.002069
-0.016247
-0.022855
-0.009981
-0.029869
-0.042338
-0.030834
-0.035177
-0.033016
-0.035469
-0.030123
-0.031402
-0.01936
-0.013029
0.001827
0.000901
0.009053
-0.002578
-0.002991
-0.013802
-0.002981
-0.011626
-0.007918
-0.006465
-0.011887
-0.011704
-0.019058
-0.014506
-0.027948
-0.011527
-0.029366
-0.040919
-0.039057
-0.030678
-0.028974
-0.005332
-0.01384
-0.004981
0.00606
0.009425
0.014613
0.017493
0.019394
-0.001382
0.021583
0.009469
-0.020379
-0.025574
-0.039743
-0.02784
-0.028619
-0.015456
-0.013826
-0.040572
-0.008195
0.001909
-0.008959
0.021837
0.03872
0.021065
0.011423
0.003665
0.000136
0.003079
-0.005147
0.00071
-0.030317
-0.011434
-0.007389
-0.004179
-0.034933
-0.020665
-0.00755
0.001666
0.00833
0.004779
-0.001254
0.007349
0.012768
0.019126
0.031927
0.015961
-0.002271
0.010199
0.020013
0.008686
-0.006585
-0.006529
-0.006057
-0.023586
-0.015491
-0.020154
-0.005692
0.002513
0.011239
0.002931
0.040746
0.019244
0.01362
0.011986
0.001866
0.013267
0.031549
0.036268
0.038592
0.010404
0.001668
-0.001864
0.006099
0.000282
0.012962
0.024935
0.031735
0.031607
0.034518
0.044058
0.036544
0.049273
0.041356
0.045933
0.036865
0.05567
0.050238
0.036562
0.034275
0.037321
0.037944
0.028946
0.006842
0.011891
0.021409
0.009009
0.022781
0.015614
0.038672
0.047482
0.051901
0.064533
0.064867
0.058093
0.046034
0.068061
0.044881
0.034146
0.028944
0.050625
0.039839
0.055007
0.058853
0.050052
0.057802
0.058587
0.042491
0.042366
0.078595
0.066131
0.057386
0.083032
0.099762
0.094365
0.079395
0.101289
0.094005
0.087489
0.088623
0.076956
0.070228
0.070677
0.071654
0.070314
0.077116
0.076802
0.082875
0.084895
0.084096
0.105426
0.107321
0.102746
0.120212
0.121509
0.156821
0.14523
0.122875
0.118544
0.125783
0.127145
0.117926
0.103996
0.095481
0.099812
0.097828
0.108365
0.113849
0.103689
0.139074
0.126834
0.121195
0.121816
0.127643
0.148719
0.158576
0.142128
0.140142
0.148815
0.139879
0.119899
0.122177
0.118297
0.113922
0.11927
0.120591
0.133027
0.12823
0.104771
0.114378
0.132837
0.148832
0.146604
0.149723
0.161058
0.156318
0.14152
0.152215
0.140379
0.142734
0.126541
0.125008
0.11571
0.106729
0.101865
0.103834
0.073314
0.081038
0.092817
0.0924
0.106366
0.101829
0.103372
0.088047
0.112124
0.104731
0.097538
0.084298
0.102171
0.105175
0.085319
0.071386
0.051655
0.039841
0.032587
0.037855
0.056483
0.049203
0.051287
0.063068
0.0522
0.042641
0.049723
0.028826
0.046159
0.027559
0.047241
0.022962
0.013775
0.015129
0.016422
0.020678
0.010057
-0.005114
-0.008431
-0.017376
-0.004163
0.002835
-0.014043
-0.031408
-0.013072
-0.006932
0.011413
0.012006
0.000354
0.006444
0.006909
0.001255
0.010107
0.002988
-0.013062
-0.005654
-0.025267
-0.017703
-0.021019
-0.038128
-0.019592
-0.021131
-0.023293
-0.018646
-0.022459
-0.009171
-0.009035
-0.01078
0.023367
0.021913
0.007638
-0.003731
-0.013091
-0.017142
-0.020509
0.006609
-0.022988
-0.026731
-0.028764
-0.033714
-0.035593
-0.062286
-0.047019
-0.045221
-0.029255
-0.009404
-0.021999
-0.012876
0.008179
-0.009198
-0.007011
-0.016638
-0.00739
-0.002989
-0.014378
-0.0162
-0.032275
-0.027812
-0.029892
-0.039528
-0.038533
-0.03077
-0.035474
-0.016819
-0.010058
0.000306
0.02413
0.016111
-0.003709
-0.005848
-0.010752
-0.020431
-0.023468
-0.024971
-0.006959
-0.015319
-0.033759
-0.03917
-0.048747
-0.055754
-0.02747
-0.021272
-0.018285
-0.009315
0.006436
0.024651
-0.005743
-0.004675
-0.001979
-0.001664
0.007162
0.000335
-0.009872
-0.012127
-0.02829
-0.023037
-0.010348
-0.035232
-0.038276
-0.046277
-0.039035
-0.028418
-0.032824
-0.028731
-0.011175
-0.008219
0.00033
0.009503
-0.008062
0.011026
0.016061
0.009966
-0.009427
-0.006268
-0.015998
-0.000336
-0.012944
-0.020997
-0.03306
-0.03414
-0.041104
-0.029702
-0.02563
-0.023629
-0.008785
-0.016514
-0.006807
-0.003008
0.004341
0.006601
0.009003
0.004349
0.024669
0.027909
0.005567
-0.016909
-0.017392
-0.0171
-0.027192
-0.028063
-0.034378
-0.033264
-0.037818
-0.020543
-0.002112
-0.00965
0.001906
0.004892
0.00984
0.005474
0.029681
0.021528
-0.014279
-0.032018
-0.009934
-0.009027
-0.025674
-0.0285
-0.032709
-0.031747
-0.024397
-0.010721
-0.009598
-0.004402
-0.000187
0.014203
0.029406
0.016598
-0.008399
-0.008605
0.01335
0.024471
0.021689
0.012718
-0.02534
-0.03113
-0.018446
-0.02873
-0.027103
-0.03122
-0.048379
-0.045291
-0.055042
-0.036236
-0.012377
-0.012577
-0.002369
-0.005413
0.004121
0.003784
0.010557
0.010227
0.006547
-0.004729
-0.014634
-0.020795
-0.051165
-0.022877
-0.01773
-0.017464
-0.022685
-0.024957
-0.034791
-0.04046
-0.028069
-0.027105
-0.013446
-0.007663
0.010492
0.01119
0.018158
-0.009926
-0.023789
-0.006195
-0.0267
-0.045748
-0.05741
-0.040883
-0.046988
-0.041663
-0.033262
-0.030079
-0.021607
-0.019138
-0.025257
-0.033467
-0.014666
-0.019621
-0.00747
0.009722
0.000504
-0.002939
-0.006924
-0.013255
-0.014653
-0.017914
-0.023793
-0.020568
-0.027011
-0.034954
-0.038366
-0.031281
-0.029069
-0.016301
-0.020531
-0.029909
-0.023284
-0.001615
-0.002991
-0.005271
-0.005017
-0.014724
-0.021663
-0.014548
-0.013566
-0.010965
-0.03157
-0.032665
-0.029562
-0.029035
-0.022738
-0.025505
-0.044738
-0.037326
-0.025576
-0.013831
-0.00529
-0.001707
-0.007034
-0.018956
-0.005836
0.008198
-0.015621
-0.010937
-0.01456
-0.018049
-0.03381
-0.054817
-0.032298
-0.013881
-0.054102
-0.056873
-0.040101
-0.021252
-0.01815
-0.019386
-0.02627
0.003343
0.019589
0.017084
0.008727
0.00823
-0.001336
-0.022027
-0.019517
-0.012918
-0.025612
-0.030748
-0.035196
-0.045912
-0.047705
-0.045911
-0.056345
-0.061459
-0.037314
-0.010842
0.003995
0.001328
-0.026012
0.006191
0.010504
0.00053
0.013109
-0.021187
0.005535
-0.006029
-0.019114
-0.029351
-0.04187
-0.044772
-0.023133
-0.032337
-0.030733
-0.022906
-0.024983
-0.010549
0.014629
0.001387
0.001828
0.012945
0.019448
0.022274
-0.005282
-0.010963
0.004099
-0.006389
-0.016009
-0.032345
-0.037922
-0.037718
-0.026773
-0.025463
-0.011441
-0.024393
-0.011907
-0.001838
0.015745
0.014096
0.016578
0.028479
0.014722
0.013235
0.016239
0.021646
0.027551
0.004475
0.012518
0.006996
-0.009998
-0.011731
-0.000936
0.00166
-0.000711
0.005715
0.002693
0.006957
0.027434
0.016476
0.019604
0.033852
0.028967
0.032992
0.043859
0.032761
0.011323
0.004868
0.000117
-0.011594
-0.011328
0.003826
0.005184
-0.024612
0.001413
0.002691
-0.008301
0.005169
-0.003362
0.007117
0.004948
0.010116
0.00906
0.026983
-0.01025
-0.009924
-0.01149
-0.025295
-0.018529
-0.031383
-0.014601
-0.022083
-0.031791
-0.036559
-0.029543
-0.022813
-0.026041
-0.023806
-0.021908
-0.028276
-0.021512
-0.014967
-0.015048
0.000254
-0.011045
-0.014249
-0.030686
-0.017501
-0.032623
-0.034859
-0.031827
-0.04496
-0.040257
-0.031849
-0.057282
-0.046366
-0.040183
-0.034941
-0.030958
-0.025966
-0.023006
-0.02005
-0.027283
-0.030336
-0.028307
-0.018272
-0.020925
-0.043472
-0.053107
-0.032526
-0.026263
-0.028258
-0.058406
-0.0618
-0.049132
-0.02092
-0.038662
-0.026594
-0.02062
-0.023408
-0.022614
-0.021919
-0.024308
-0.008147
-0.016126
-0.003081
-0.024215
-0.044023
-0.046182
-0.044632
-0.049264
-0.048074
-0.051023
-0.057988
-0.059368
-0.051269
-0.032715
-0.040799
-0.041158
-0.027758
-0.031205
-0.015258
-0.024225
-0.024527
-0.023279
-0.037551
-0.046786
-0.034645
-0.021611
-0.037478
-0.055138
-0.050549
-0.05324
-0.040267
-0.022811
-0.031963
-0.040448
-0.027563
-0.015925
-0.011428
-0.004373
-0.009715
-0.006869
-0.003865
-0.000838
-0.020445
-0.012324
-0.014154
-0.01559
-0.015261
-0.019352
-0.000971
0.014358
0.022984
0.054044
0.089265
0.124984
0.156832
0.17542
0.202307
0.250312
0.25861
0.257966
0.266539
0.285021
0.292553
0.309286
0.325901
0.304069
0.289326
0.270305
0.272765
0.256597
0.239387
0.218345
0.204291
0.20685
0.208942
0.201335
0.189181
0.157547
0.133611
0.11144
0.077731
0.046346
0.004392
-0.016595
-0.048698
-0.082928
-0.107151
-0.102221
-0.12299
-0.123091
-0.150004
-0.172159
-0.141946
-0.119684
-0.096133
-0.081359
-0.060865
-0.052998
-0.040654
-0.019878
-0.022929
-0.015358
-0.019849
-0.025119
-0.0055
-0.003544
-0.026663
-0.02413
-0.036374
-0.040557
-0.029334
-0.009867
-0.004839
-0.014227
-0.00301
-0.007968
0.008071
0.019093
0.020059
-0.002349
-0.0047
-0.0167
-0.000345
-0.010153
-0.013296
-0.011522
-0.026133
-0.028889
-0.028105
-0.033227
-0.038483
-0.043691
-0.026025
-0.016015
-0.012793
-0.007426
-0.006458
0.011566
0.001998
-0.000159
0.00485
0.003317
0.007549
-0.007352
-0.008775
0.007003
-0.024356
-0.007353
-0.006552
-0.026251
-0.01689
-0.046201
-0.035327
-0.018258
-0.008186
-0.015017
-0.011366
-0.017477
0.009901
0.025335
0.019126
-0.000369
0.016932
0.011451
-0.006188
-0.017717
-0.021686
-0.029852
-0.033257
-0.014066
-0.014134
-0.01809
-0.017033
-0.011644
-0.008033
-0.010833
0.01956
0.020465
0.019881
0.030454
0.007728
0.025231
0.02518
0.003757
0.000112
-0.010804
-0.015167
-0.011633
-0.01989
-0.024527
-0.013334
-0.0091
-0.006635
-0.005491
0.019925
0.017915
0.017499
0.013419
0.02431
0.025643
0.029213
0.02644
0.024166
0.015935
0.016936
0.024118
0.003978
-0.012587
-0.006284
0.008902
0.008322
-0.00811
0.013153
0.015145
0.028789
0.00381
0.013952
0.027693
0.04511
0.037138
0.044266
0.041056
0.025165
0.004606
0.014648
0.012757
0.032173
0.01715
