0.004244
-0.006871
-0.009741
-0.023856
-0.04459
-0.039103
-0.034753
-0.04294
-0.045888
-0.022264
-0.030996
-0.031996
-0.024331
-0.029462
-0.023248
-0.030056
-0.024608
0.00698
0.00083
-0.013051
-0.010982
-0.012837
0.001008
-0.047753
-0.065425
-0.041773
-0.050545
-0.041589
-0.064066
-0.052087
-0.053838
-0.048519
-0.037266
-0.026484
-0.027856
-0.011157
-0.006953
0.004937
0.015392
0.006617
-0.019314
-0.006034
-0.019448
-0.019392
-0.037316
-0.036987
-0.038865
-0.024746
-0.041111
-0.025435
-0.036337
-0.041191
-0.013724
-0.009882
-0.001614
0.001519
0.002516
-0.002477
-0.005337
-0.015067
-0.026752
-0.016348
-0.032179
-0.055908
-0.057253
-0.031261
-0.026199
-0.030395
-0.037972
-0.055757
-0.046156
-0.035886
-0.021105
-0.02482
-0.014238
-0.016594
-0.010961
0.002477
-0.000187
-0.018721
-0.014813
0.001144
-0.011435
-0.016532
-0.031982
-0.041116
-0.024558
-0.029533
-0.024253
-0.046096
-0.045316
-0.038933
-0.014263
-0.019507
0.002351
0.004612
0.005912
-0.002423
-0.004658
-0.004616
-0.013936
-0.029025
-0.037177
-0.029573
-0.025234
-0.031328
-0.066801
-0.04859
-0.039654
-0.040733
-0.042303
-0.032338
-0.021905
-0.031233
-0.041416
-0.029828
-0.021304
-0.021947
-0.012991
0.00298
0.007618
0.003486
-0.0297
-0.018009
-0.023582
-0.027008
-0.040662
-0.044499
-0.044713
-0.027677
-0.057033
-0.057468
-0.032593
0.002029
-0.018048
-0.010444
-0.001708
0.016251
0.009342
-0.007454
-0.008421
-0.016261
-0.022754
-0.027
-0.041036
-0.032247
-0.017288
-0.031958
-0.0285
-0.017492
-0.027198
-0.026327
-0.028138
-0.054031
-0.035625
-0.023532
-0.041425
-0.01977
-0.008424
-0.027998
-0.006088
-0.026523
-0.033689
-0.027399
-0.042865
-0.047174
-0.036676
-0.045583
-0.048482
-0.051447
-0.047124
-0.043789
-0.049408
-0.027354
-0.012504
-0.001744
-0.024142
-0.030624
-0.017735
-0.006516
-0.010141
-0.010253
-0.029444
-0.023738
-0.038909
-0.048097
-0.055729
-0.043905
-0.048135
-0.078421
-0.068651
-0.055527
-0.043237
-0.024203
-0.011198
-0.007021
-0.028254
-0.02731
-0.022268
-0.010645
-0.02459
-0.014249
-0.023554
-0.048139
-0.034188
-0.027639
-0.05466
-0.050358
-0.046375
-0.066634
-0.044018
-0.046739
-0.040037
-0.020734
-0.031706
-0.03506
-0.017413
-0.005906
0.000375
0.001024
-0.011143
-0.004198
-0.026899
-0.024913
-0.031354
-0.019246
-0.038129
-0.072565
-0.070958
-0.045285
-0.029902
-0.031145
0.013993
-0.001331
-0.016209
-0.007778
0.009928
-0.02508
-0.001877
0.007117
-0.009444
-0.009883
-0.024153
-0.024082
-0.029024
-0.027018
-0.029074
-0.037678
-0.023175
-0.024913
-0.01115
-0.023447
-0.018555
-0.021904
-0.014205
0.000482
0.004917
0.014931
0.011349
0.0114
0.000011
0.01526
-0.000687
-0.00371
0.007911
-0.012674
-0.019487
-0.004696
-0.028737
-0.019397
-0.024873
-0.024505
-0.022099
0.00139
0.004183
0.009536
0.010055
0.024507
0.032276
0.02805
0.024137
0.00475
0.001481
0.006937
-0.005874
-0.005593
-0.026765
-0.025331
-0.026787
-0.011575
-0.015565
-0.009228
0.004124
-0.01341
-0.014429
-0.001918
-0.002082
0.004502
0.009074
0.001509
-0.015775
-0.005987
-0.017366
-0.027614
-0.039934
-0.048457
-0.056196
-0.051596
-0.033246
-0.03819
-0.044161
-0.037164
-0.035176
-0.032787
-0.020406
-0.013814
-0.002233
-0.016769
-0.02556
-0.013979
-0.012735
-0.008983
-0.033445
-0.034713
-0.047116
-0.077155
-0.064664
-0.062613
-0.046129
-0.052883
-0.055892
-0.050222
-0.039731
-0.053687
-0.040985
-0.034965
-0.033655
-0.029579
-0.013804
-0.006088
-0.01053
-0.024217
-0.040256
-0.038069
-0.041226
-0.048367
-0.041866
-0.06254
-0.071771
-0.060194
-0.071723
-0.075109
-0.053234
-0.032452
-0.024018
-0.013435
-0.033988
-0.025733
-0.01266
-0.017536
-0.027598
-0.04032
-0.060801
-0.043021
-0.054639
-0.046156
-0.059232
-0.028627
-0.043157
-0.045381
-0.052106
-0.058653
-0.031336
-0.038782
-0.027274
-0.010669
-0.026605
-0.037146
-0.041058
-0.036475
-0.004869
-0.042291
-0.060458
-0.045089
-0.047039
-0.060817
-0.060924
-0.045767
-0.067297
-0.062925
-0.059005
-0.06741
-0.049072
-0.026962
-0.033192
-0.021413
-0.021082
-0.022378
-0.018526
-0.025903
-0.019318
-0.033857
-0.053591
-0.053046
-0.051309
-0.055116
-0.06767
-0.087702
-0.075531
-0.07183
-0.057117
-0.058766
-0.051472
-0.019773
-0.008352
0.020609
0.07516
0.071749
0.097742
0.136186
0.147262
0.169133
0.191705
0.199507
0.206399
0.217285
0.23255
0.255748
0.246673
0.236025
0.249237
0.26462
0.25452
0.241397
0.262004
0.264561
0.234044
0.230866
0.231911
0.226045
0.224917
0.217337
0.193494
0.138058
0.105309
0.086985
0.049611
0.030534
-0.005072
-0.05021
-0.079147
-0.116867
-0.126173
-0.134468
-0.128619
-0.125163
-0.130975
-0.146322
-0.137022
-0.120927
-0.10633
-0.103588
-0.110637
-0.089871
-0.07759
-0.074623
-0.069183
-0.058413
-0.04931
-0.061178
-0.046894
-0.024251
-0.011936
-0.01999
-0.00638
-0.010851
-0.024377
-0.023862
-0.005998
0.000714
0.026095
-0.003489
-0.029407
-0.039791
-0.054258
-0.037512
-0.047976
-0.048318
-0.05543
-0.046178
-0.04634
-0.041188
-0.035374
-0.035181
-0.005709
-0.004197
-0.012269
0.005783
-0.016107
-0.002156
-0.004826
-0.019698
-0.033014
-0.029097
-0.049539
-0.058055
-0.062976
-0.062914
-0.049702
-0.05306
-0.057135
-0.0381
-0.022051
-0.013395
0.010797
-0.01679
-0.006491
0.016937
0.018162
0.012752
0.01821
-0.011669
-0.017167
-0.017139
-0.013296
-0.036289
-0.033409
-0.061621
-0.050415
-0.050254
-0.043402
-0.025787
-0.018461
-0.012727
-0.012181
-0.008268
-0.001296
0.003319
-0.000363
0.011094
0.010865
0.006536
-0.000788
-0.028989
-0.022771
-0.011261
-0.010513
-0.028482
-0.028423
-0.031306
-0.023569
-0.024491
-0.014108
-0.009899
-0.006414
0.010943
0.010809
0.009543
0.015957
0.035181
0.027288
-0.000268
-0.019036
-0.003618
-0.02632
-0.038686
-0.014038
-0.023516
-0.015191
-0.013788
-0.023282
-0.021742
-0.014143
-0.018804
0.004947
0.015183
0.019334
0.024638
0.023951
0.025436
0.029262
0.014558
0.000542
-0.003152
-0.003585
-0.000683
-0.016173
-0.038563
-0.034301
-0.020508
0.004739
0.006915
-0.010259
-0.026405
-0.008784
-0.001611
0.014032
0.029063
0.058895
0.053368
0.047841
0.005934
0.004827
-0.000044
0.006422
-0.009085
0.001795
0.000248
0.002532
0.00421
0.011497
0.007043
0.025779
0.056763
0.056311
0.051954
0.074244
0.08316
0.051397
0.043316
0.055028
0.070929
0.067428
0.064541
0.029715
0.045682
0.025225
0.005044
0.018694
0.037601
0.033198
0.034839
0.045157
0.047474
0.045117
0.05507
0.076059
0.092413
0.082084
0.112581
0.093965
0.079203
0.078001
0.076081
0.090186
0.059268
0.035828
0.043377
0.06338
0.071891
0.069565
0.071331
0.090085
0.078484
0.077377
0.085816
0.09975
0.107392
0.099051
0.107706
0.109186
0.101665
0.10808
0.100182
0.085451
0.085265
0.081826
0.080506
0.084865
0.08304
0.10488
0.095641
0.100995
0.100596
0.107561
0.112574
0.11096
0.127646
0.135227
0.139879
0.156758
0.134666
0.129549
0.13645
0.12269
0.112457
0.113944
0.093333
0.114605
0.121527
0.112948
0.113448
0.119167
0.12413
0.111032
0.129123
0.123966
0.13057
0.16675
0.174526
0.167116
0.161889
0.15477
0.127813
0.112314
0.103802
0.109945
0.092698
0.103322
0.088143
0.098044
0.103
0.105908
0.104565
0.103787
0.093402
0.099126
0.103502
0.094481
0.107414
0.09578
0.08054
0.085602
0.096056
0.059611
0.054538
0.033669
0.040248
0.011041
0.004556
0.012396
0.00661
0.017799
0.02036
0.038634
0.03001
0.031959
0.045932
0.039143
0.043817
0.034732
0.028771
0.016854
0.019356
0.013703
0.01368
-0.004241
-0.022337
-0.024935
-0.030006
-0.037803
-0.027598
-0.009775
-0.011098
-0.012549
-0.013386
-0.013685
-0.000614
-0.008427
-0.007976
-0.00435
-0.002448
-0.004517
0.005522
-0.012291
-0.025034
-0.029048
-0.040904
-0.046375
-0.048986
-0.014709
-0.012873
-0.006303
-0.029814
-0.019145
-0.030655
-0.022174
-0.009304
-0.014095
-0.002562
-0.000631
-0.003103
0.002409
-0.017175
0.003684
-0.029063
-0.045185
-0.042985
-0.034398
-0.050233
-0.042858
-0.02222
0.000067
-0.008614
-0.020199
-0.040108
-0.025892
-0.013875
-0.00747
-0.013307
-0.014824
-0.013312
-0.022681
-0.04056
-0.039597
-0.038918
-0.045271
-0.073272
-0.054361
-0.04974
-0.066027
-0.04769
-0.034215
-0.033661
-0.038548
-0.020535
-0.017612
-0.017983
0.001079
0.010069
0.018959
0.033526
-0.012194
-0.028321
-0.042499
-0.045459
-0.034775
-0.052761
-0.054618
-0.041008
-0.036056
-0.041379
-0.03065
-0.030386
-0.037715
-0.025203
-0.000757
-0.006782
0.008145
-0.009197
-0.007732
-0.025043
-0.028048
-0.054491
-0.056781
-0.069486
-0.069642
-0.05112
-0.039397
-0.054136
-0.058424
-0.048493
-0.039479
-0.030249
-0.022772
-0.020254
-0.012643
0.018995
0.014298
0.021058
0.023134
-0.00227
-0.001426
-0.038656
-0.018893
-0.007317
-0.030929
-0.042912
-0.03954
-0.026935
-0.055653
-0.03248
-0.039749
-0.041966
-0.030408
-0.015983
-0.008061
0.008337
0.01131
0.012215
0.007604
0.004756
0.001117
-0.009417
-0.0138
-0.02506
-0.021719
-0.040147
-0.051109
-0.055246
-0.020998
-0.03972
-0.047286
-0.017267
-0.016054
-0.003105
0.033468
0.006853
-0.011829
-0.016437
-0.015112
-0.016289
-0.008976
-0.011464
-0.023326
-0.035006
-0.028618
-0.029275
-0.037227
-0.066229
-0.053317
-0.046459
-0.038483
-0.024738
-0.005327
0.009184
0.010408
0.00261
0.002121
0.008082
0.00356
-0.003981
-0.009945
-0.014226
-0.008175
-0.028225
-0.043796
-0.022796
-0.059281
-0.052482
-0.049662
-0.041027
-0.031405
-0.032216
-0.004622
0.001221
-0.004287
-0.010478
-0.011639
-0.017921
-0.014615
-0.015831
-0.03501
-0.025045
-0.044915
-0.061122
-0.058606
-0.056295
-0.044132
-0.043128
-0.032795
-0.063189
-0.048517
-0.054006
-0.042582
-0.027586
-0.012508
-0.022212
-0.012482
0.003806
0.009566
0.002417
-0.007818
-0.014377
-0.035001
-0.02376
-0.01574
-0.028044
-0.045263
-0.038929
-0.031037
-0.047174
-0.050362
-0.014868
-0.016702
-0.018371
0.005968
0.004895
0.006086
-0.003712
-0.007069
-0.012372
-0.006951
-0.012012
-0.030702
-0.038092
-0.03852
-0.039982
-0.034174
-0.039928
-0.044941
-0.050896
-0.060955
-0.034268
-0.025842
-0.02159
-0.029109
-0.013196
-0.013921
-0.013066
-0.013474
-0.003025
-0.000498
-0.005026
-0.002273
-0.021199
-0.02103
-0.033245
-0.04073
-0.050279
-0.060974
-0.071117
-0.057099
-0.024997
-0.028969
0.00019
-0.017266
-0.026576
-0.023751
-0.01177
-0.002134
-0.004943
-0.010852
-0.00598
-0.046335
-0.059561
-0.063368
-0.057419
-0.054323
-0.058535
-0.058081
-0.045807
-0.034994
-0.035311
-0.0289
-0.03448
-0.03577
-0.028904
-0.038101
-0.018199
-0.028928
-0.027412
-0.013469
-0.003976
-0.006569
-0.026194
-0.034897
-0.035272
-0.02275
-0.017789
-0.046294
-0.015023
-0.021844
0.000084
-0.013175
-0.016014
0.004129
0.015215
0.022633
0.000143
0.009691
0.010096
-0.00215
-0.005166
-0.033271
-0.0307
-0.04671
-0.014593
0.002831
-0.02272
-0.025401
-0.017419
-0.001545
-0.000469
0.015143
0.015767
0.015726
0.022574
0.034221
0.028469
0.026548
0.034722
0.037668
0.016169
0.019918
0.008408
-0.003011
0.012501
0.00994
-0.008898
-0.016894
-0.020525
-0.010384
-0.008403
-0.005941
-0.00054
0.010205
0.010218
0.019789
0.002585
0.012911
0.018703
0.01208
0.002487
-0.009275
-0.015765
-0.025896
-0.046989
-0.043432
-0.04445
-0.038853
-0.026945
-0.039406
-0.02836
-0.023488
-0.025106
-0.022705
-0.008078
-0.017696
-0.008249
-0.007965
-0.004985
-0.003665
0.010669
-0.033698
-0.051263
-0.058603
-0.044602
-0.053986
-0.065539
-0.058015
-0.048914
-0.050309
-0.043154
-0.05699
-0.041027
-0.036134
-0.026021
-0.029693
-0.029138
-0.03199
-0.028674
-0.037865
-0.020475
-0.029114
-0.051991
-0.061722
-0.068797
-0.059856
-0.048954
-0.051921
-0.073221
-0.066861
-0.038925
-0.029085
-0.024177
-0.025049
-0.028715
-0.023776
-0.024994
-0.039404
-0.016444
-0.025733
-0.041889
-0.042333
-0.053961
-0.085204
-0.086029
-0.059002
-0.064909
-0.065113
-0.064079
-0.032247
-0.018869
-0.045763
-0.026612
0.002141
-0.012523
-0.030959
-0.030601
-0.025862
-0.055379
-0.056806
-0.049191
-0.045832
-0.063583
-0.06763
-0.073896
-0.0686
-0.064159
-0.07578
-0.05213
-0.031887
-0.034578
-0.039436
-0.014206
-0.008334
-0.00412
-0.013609
-0.022311
-0.015265
-0.033213
-0.031606
-0.053823
-0.033512
-0.044436
-0.06367
-0.070795
-0.063595
-0.056791
-0.059993
-0.074
-0.065855
-0.059866
-0.062948
-0.058024
-0.02836
-0.036033
-0.021206
-0.018901
0.010392
0.002987
0.008554
0.020297
0.056058
0.074977
0.0633
0.096274
0.121219
0.136159
0.167232
0.188265
0.221203
0.257379
0.266467
0.275655
0.286881
0.310057
0.324641
0.338502
0.358135
0.329133
0.312655
0.309383
0.267377
0.243865
0.253966
0.239645
0.204357
0.180825
0.144268
0.128395
0.079563
0.070489
0.048286
0.021258
0.000979
-0.024776
-0.036835
-0.057028
-0.080055
-0.092935
-0.118079
-0.132847
-0.128377
-0.13691
-0.138056
-0.12811
-0.129478
-0.121684
-0.107824
-0.099879
-0.072619
-0.04442
-0.033895
-0.020866
-0.009713
-0.021155
-0.000375
-0.007502
-0.002597
-0.011927
-0.005609
-0.013179
-0.020124
-0.028033
-0.026973
-0.029965
-0.04426
-0.043202
-0.030505
-0.044554
-0.043738
-0.036776
-0.026536
-0.028668
-0.017285
-0.020342
0.000388
-0.005473
-0.014539
-0.023261
-0.015785
-0.023263
-0.01858
-0.020431
-0.036652
-0.03242
-0.045037
-0.054784
-0.063301
-0.057004
-0.051294
-0.051068
-0.027155
-0.009929
-0.004221
-0.000158
-0.0172
-0.026908
-0.018407
-0.015082
-0.02561
-0.018532
-0.017825
-0.03807
-0.016845
-0.022062
-0.036234
-0.017294
-0.017694
-0.065583
-0.042169
-0.039621
-0.018669
-0.00517
-0.009177
0.011431
0.012293
0.017024
-0.001863
0.010999
0.01229
0.004281
0.004316
0.006916
-0.008626
-0.008754
-0.022149
-0.016872
-0.026048
-0.020251
-0.02718
-0.010892
0.006127
0.001149
0.002083
0.000311
0.017397
0.024492
0.006056
0.006746
0.00703
0.001589
-0.006988
-0.022515
-0.018472
-0.032094
-0.031633
-0.010355
-0.038935
-0.029789
-0.050154
-0.016938
-0.043915
-0.016798
-0.000608
0.012424
0.033408
0.036432
0.025391
0.00708
0.000272
-0.0077
0.006857
0.006462
-0.003796
-0.006746
-0.019513
-0.017258
-0.015917
0.004816
-0.013215
-0.000372
0.010553
0.001464
0.030179
0.017427
0.027175
0.043403
0.039857
0.030548
0.018723
0.021483
0.023731
-0.00037
0.007079
0.000799
-0.008873
-0.009206
-0.003589
0.00174
-0.007374
-0.007657
0.020812
0.034979
0.029875
0.031908
0.049789
0.049793
0.06825
0.059989
0.047461
0.039717
0.051708
0.053787
0.035703
0.029082
0.019251
0.027311
0.029152
0.018749
0.042123
0.048323
0.04908
0.052538
0.048307
0.066333
0.073458
0.07789
0.080264
0.060348
0.072493
0.067893
0.04282
0.032052
0.033382
0.034441
0.052995
0.035819
0.036834
0.035289
0.052126
0.06055
0.067697
0.068108
0.061329
0.073989
0.102693
0.106391
0.119311
0.09696
0.105324
0.094746
0.083379
0.087061
0.06806
0.089188
0.104405
0.09233
0.082389
0.068152
0.069452
0.080689
0.114645
0.089097
0.108193
0.122703
0.126252
0.115525
0.124613
0.117416
0.098144
0.109167
0.110926
0.113572
0.087444
0.112934
0.073313
0.076075
0.074334
0.08704
0.094214
0.122001
0.148643
0.140236
0.13953
0.153902
0.162802
0.152827
0.158095
0.160867
0.15299
0.159413
0.127963
0.117854
0.138691
0.125558
0.101298
0.091291
0.084668
0.110908
0.114071
0.121431
0.117475
0.138249
0.131762
0.119889
0.129958
0.121786
0.110201
0.112725
0.1177
0.105914
0.085091
0.072449
0.07797
0.077453
0.05181
0.050759
0.020311
0.01743
0.042625
0.056952
0.070373
0.049777
0.048073
0.043653
0.066348
0.022724
0.010711
0.049582
0.050609
0.033045
0.023719
-0.000158
-0.000101
-0.007212
-0.005088
-0.01198
-0.00054
-0.012578
-0.031518
-0.005843
0.026852
0.011595
0.005647
0.014697
0.000216
0.008421
0.005951
0.009551
-0.003905
-0.003176
-0.018888
-0.005292
-0.00592
-0.014672
-0.027919
-0.034091
-0.049377
-0.061739
-0.038492
-0.028386
-0.016031
-0.025393
-0.024691
-0.004646
0.003768
0.00904
0.005057
-0.002207
-0.003906
0.002668
-0.017837
-0.030682
-0.027983
-0.036493
-0.035782
-0.047711
-0.061741
-0.034593
-0.031049
-0.047684
-0.061554
-0.055721
-0.030109
0.004501
-0.009225
0.002129
0.011185
-0.001451
-0.005738
-0.006441
-0.007907
-0.011107
-0.037832
-0.047114
-0.069863
-0.063228
-0.056984
-0.063846
-0.047778
-0.025637
-0.015486
-0.043245
-0.023665
-0.020411
-0.021174
-0.020725
-0.022041
-0.023249
-0.029302
-0.026699
-0.031058
-0.036572
-0.041364
-0.058297
-0.067972
-0.047384
-0.035389
-0.034744
-0.016876
-0.027689
-0.023733
-0.019779
-0.022632
-0.025275
-0.014155
0.003899
-0.008354
-0.013019
-0.007232
-0.016667
-0.000713
-0.00619
-0.045611
-0.023081
-0.031363
-0.062279
-0.039563
-0.041177
-0.046084
-0.044211
-0.037229
-0.032812
-0.015599
-0.024906
-0.01786
-0.014825
-0.015122
-0.003186
0.009704
0.009535
-0.017419
-0.00673
-0.019811
-0.038583
-0.045266
-0.055494
-0.059208
-0.046807
-0.017956
-0.021378
-0.01942
-0.006606
0.011235
0.011419
0.009665
-0.00216
-0.006977
-0.008359
-0.007634
-0.014552
-0.028451
-0.009683
-0.036451
-0.026305
-0.058483
-0.040585
-0.025512
-0.054736
-0.060645
-0.049508
-0.04551
-0.023253
-0.028749
-0.0209
-0.022141
-0.015209
-0.020817
-0.005015
0.006885
0.004422
-0.007082
0.003093
-0.048101
-0.042296
-0.05073
-0.054623
-0.060123
-0.06309
-0.057317
-0.082543
-0.042369
-0.041912
-0.021057
-0.013621
0.008907
-0.000082
-0.012818
-0.013818
-0.017922
-0.022918
-0.025904
-0.023063
-0.027867
-0.048428
-0.042063
-0.0507
-0.047599
-0.045142
-0.039032
-0.025849
-0.012333
-0.040194
-0.021617
-0.039129
-0.00355
-0.004467
-0.016386
-0.012432
-0.011894
-0.018434
-0.02561
-0.012096
0.000125
0.003033
-0.039808
-0.048718
-0.029297
-0.030081
-0.055478
-0.043241
-0.019078
-0.0145
-0.015016
-0.027026
-0.031072
-0.020005
-0.024394
-0.024406
-0.019868
-0.039071
-0.033783
-0.026575
-0.026876
-0.02863
-0.04326
-0.052771
-0.066489
-0.058268
-0.053818
-0.056233
-0.039537
-0.02898
-0.023615
-0.016432
0.011121
-0.010279
-0.024774
-0.013892
-0.011546
-0.025461
-0.034442
-0.03839
-0.035187
-0.034716
-0.049219
-0.06015
-0.063172
-0.054148
-0.040374
-0.047876
-0.034484
-0.039105
-0.045411
-0.027712
-0.001521
-0.002681
-0.006288
-0.012927
-0.007769
-0.031529
-0.044665
-0.041499
-0.039044
-0.062939
-0.086055
-0.054684
-0.046746
-0.066541
-0.058059
-0.028361
-0.001552
0.000302
-0.004301
-0.010433
-0.028519
-0.043434
-0.035048
-0.01231
-0.022224
-0.033258
-0.043626
-0.046231
-0.067553
-0.052851
-0.02588
-0.022415
-0.041415
-0.048267
-0.056479
-0.060059
-0.031076
-0.030148
-0.006742
-0.009856
-0.033037
-0.042241
-0.010933
-0.016799
-0.013983
-0.019185
-0.028541
-0.033381
-0.038357
-0.035545
-0.037988
-0.046608
-0.051685
-0.068343
-0.038772
-0.036017
-0.017702
-0.011746
-0.012352
-0.015564
-0.014154
-0.015273
-0.014148
-0.022193
-0.019064
-0.007883
-0.002105
-0.018018
-0.031205
-0.023948
-0.045811
-0.057817
-0.059138
-0.048696
-0.088522
-0.090254
-0.057825
-0.027363
-0.028375
-0.025975
-0.010702
-0.000363
-0.000584
-0.006516
-0.011506
-0.016271
-0.025312
-0.037791
-0.032538
-0.025276
-0.018615
-0.034047
-0.027797
-0.021751
-0.031368
-0.012786
-0.01074
-0.004393
0.007595
-0.002042
-0.017152
-0.006184
0.000149
-0.002356
0.013014
0.012049
0.002269
0.008404
-0.00306
-0.006371
-0.012425
-0.023453
-0.026698
-0.028148
-0.006026
-0.006083
-0.006651
-0.013227
0.022211
0.047487
0.051922
0.02574
0.019249
0.017503
0.020849
0.011408
0.017998
0.003864
-0.012733
-0.026157
-0.019393
-0.021236
-0.020587
-0.05223
-0.027141
-0.010751
-0.02236
-0.034117
-0.005279
0.029895
0.031135
0.025604
0.011121
0.010252
0.014577
0.01089
-0.01176
-0.007343
-0.02043
-0.018784
-0.037961
-0.054249
-0.053626
-0.037624
-0.055501
-0.034029
-0.030763
-0.051673
-0.001299
-0.014754
0.000506
-0.031548
-0.028751
-0.00967
-0.006866
-0.004062
-0.024362
-0.04038
-0.042245
-0.050194
-0.068297
-0.091533
-0.073851
-0.082559
-0.075096
-0.074923
-0.050372
-0.036136
-0.034226
-0.02112
-0.024775
-0.024304
-0.054571
-0.057733
-0.044772
-0.032813
-0.033935
-0.016016
-0.034315
-0.046148
-0.037963
-0.059435
-0.073086
-0.067117
-0.061678
-0.072359
-0.085284
-0.059074
-0.038196
-0.053398
-0.048095
-0.012545
-0.020987
-0.041966
-0.044064
-0.022693
-0.042006
-0.053383
-0.069806
-0.059551
-0.059973
-0.042784
-0.045896
-0.048387
-0.060247
-0.084783
-0.077974
-0.060802
-0.041467
-0.050913
-0.056768
-0.065165
-0.029397
-0.01967
-0.044169
-0.030444
-0.017073
-0.052473
-0.073374
-0.057439
-0.060927
-0.079156
-0.08751
-0.075157
-0.079787
-0.054727
-0.057558
-0.049194
-0.059982
-0.019462
0.018433
-0.002383
-0.036932
-0.024279
-0.040097
-0.049428
-0.053968
-0.06259
-0.049604
-0.065336
-0.072977
-0.079031
-0.079045
-0.067665
-0.069629
-0.070019
-0.08037
-0.080664
-0.039538
-0.021903
-0.022383
-0.00749
0.016252
0.060664
0.076611
0.061622
0.093557
0.120366
0.130633
0.153227
0.168352
0.201616
0.235323
0.243123
0.24032
0.285243
0.283245
0.26858
0.294617
0.307766
0.302054
0.293078
0.309524
0.28954
0.278319
0.25093
0.239486
0.239093
0.216614
0.185085
0.170848
0.139272
0.109201
0.077062
0.049034
0.008437
-0.013593
-0.022281
-0.019826
-0.065687
-0.085367
-0.070782
-0.089524
-0.114037
-0.135581
-0.123524
-0.116287
-0.137149
-0.12801
-0.132988
-0.129154
-0.109438
-0.100035
-0.087826
-0.081725
-0.06655
-0.048692
-0.036656
-0.033666
-0.035207
-0.026762
-0.024835
-0.026373
-0.00952
-0.006311
-0.017438
-0.026693
-0.048053
-0.039253
-0.038386
-0.033518
-0.036316
-0.074084
-0.064272
-0.071444
-0.070049
-0.059809
-0.049048
-0.031519
-0.01812
-0.002948
-0.009479
-0.008138
-0.008579
-0.004701
0.001941
-0.014406
-0.028338
-0.034931
-0.035339
-0.045118
-0.057729
-0.062095
-0.059883
-0.037646
-0.03499
-0.042672
-0.055073
-0.038357
-0.02521
-0.013212
-0.005753
-0.021329
-0.009159
-0.014073
-0.014564
-0.031442
-0.017966
-0.008261
-0.023233
-0.020143
-0.045723
-0.042921
-0.047335
-0.041701
-0.038539
-0.018221
-0.029035
-0.020835
-0.029902
-0.026978
-0.005327
-0.002315
-0.01514
-0.005305
-0.012064
-0.009432
-0.008363
-0.042943
-0.041313
-0.052603
-0.047444
-0.0426
-0.050402
-0.040583
-0.040588
-0.041583
-0.03113
-0.03048
0.018154
-0.005097
0.007455
-0.003781
0.007334
0.00624
0.019818
0.020763
-0.005583
-0.015181
-0.025551
-0.036917
-0.025253
-0.026507
-0.026613
-0.032403
-0.018454
0.001301
0.008063
-0.007452
0.004013
-0.005059
0.00491
0.017522
0.023338
0.017092
0.015126
0.026671
0.030472
0.019664
0.015412
-0.013574
-0.034955
-0.033718
-0.034551
-0.033015
-0.02151
-0.008753
-0.007545
0.017745
0.024525
0.030656
0.027377
0.030665
0.02661
0.016254
0.036728
0.020649
0.023301
-0.011146
-0.008897
0.000342
-0.007215
-0.005331
-0.007445
0.000931
0.016844
0.032621
0.037123
0.049594
0.051418
0.026151
0.035064
0.038476
0.036292
0.025764
0.015827
0.022802
0.025783
0.033288
0.001121
-0.00575
-0.006115
-0.00662
-0.01643
-0.009842
0.009284
0.028091
0.048952
0.062481
0.075894
0.080835
0.086504
0.07671
0.065119
0.062041
0.053822
0.060465
0.063598
0.068099
0.075762
0.044606
0.030728
0.039668
0.042298
0.028731
0.040226
0.037686
0.05382
0.077195
0.082361
0.078394
0.087198
0.093777
0.101161
0.129046
0.120983
0.105095
0.089109
0.109524
0.112637
0.104161
0.088918
0.081412
0.077457
0.074716
0.078842
0.080101
0.098832
0.100391
0.128085
0.118241
0.110592
0.121627
0.129509
0.132552
0.11557
0.116789
0.125504
0.101202
0.128888
0.123962
0.092853
0.083546
0.086395
0.095396
0.109379
0.090598
0.090854
0.096512
0.134692
0.165712
0.166362
0.145464
0.137464
0.124933
0.146578
0.144829
0.135059
0.088326
0.107188
0.113352
0.097909
0.098179
0.103024
0.100966
0.072448
0.079996
0.081085
0.095403
0.095861
0.096814
0.093261
0.110588
0.117257
0.138186
0.121518
0.088587
0.06109
0.072321
0.086274
0.05998
0.047185
0.018602
0.025895
0.027984
0.069264
0.060384
0.026511
0.039811
0.036752
0.030643
0.053408
0.077325
0.078718
0.052846
0.037695
0.031305
0.026299
0.022687
0.002933
-0.011552
-0.011191
-0.015643
-0.031878
-0.039343
-0.049954
-0.041268
-0.039231
-0.020673
-0.012572
-0.003015
-0.003652
0.006228
0.004783
0.005016
0.004814
0.006488
-0.002243
-0.007472
-0.043861
-0.04567
-0.050053
-0.032316
-0.044386
-0.0495
-0.050944
-0.041697
-0.036632
-0.025677
-0.023221
-0.025984
-0.040027
-0.03783
-0.002251
-0.023998
-0.020905
-0.022039
-0.048563
-0.028179
-0.036039
-0.035981
-0.038203
-0.034494
-0.026026
-0.040184
-0.020116
-0.030777
-0.028697
-0.046399
-0.026045
-0.031172
-0.030809
-0.024102
-0.011003
0.003473
-0.011804
-0.028715
-0.019255
-0.026847
-0.045576
-0.044037
-0.045843
-0.054081
-0.052951
-0.058954
-0.064027
-0.037474
-0.051594
-0.045183
-0.018469
-0.007061
-0.002173
-0.002932
-0.01964
-0.022283
-0.028148
-0.014349
-0.02516
-0.035689
-0.008825
-0.021474
-0.043462
-0.055429
-0.054594
-0.067096
-0.071065
-0.054338
-0.049199
-0.046749
-0.038205
-0.030387
0.011632
0.014006
-0.038687
-0.012994
-0.009468
0.001971
-0.004165
-0.025769
-0.031457
-0.051624
-0.033294
-0.051494
-0.061877
-0.048447
-0.05806
-0.070565
-0.056584
-0.043923
-0.029216
-0.018018
0.001385
-0.007927
-0.015833
-0.03682
-0.002039
-0.007337
-0.013129
-0.023627
-0.039455
-0.042654
-0.047031
-0.044782
-0.044617
-0.046445
-0.056696
-0.050018
-0.036907
-0.024909
-0.031056
-0.016038
-0.003398
-0.006382
0.002453
0.004968
-0.019559
-0.015538
-0.02437
-0.023659
-0.039242
-0.044629
-0.04188
-0.063057
-0.074014
-0.052148
-0.061032
-0.058462
-0.052718
-0.03703
-0.0206
0.00347
-0.026081
-0.024194
-0.021238
-0.00393
-0.002978
-0.009481
-0.028561
-0.033084
-0.041729
-0.065528
-0.055459
-0.05036
-0.060093
-0.063024
-0.051757
-0.049877
-0.052104
-0.041789
-0.029416
-0.019857
-0.013294
-0.003737
0.006907
0.003214
0.022455
0.006561
-0.030952
-0.038009
-0.035678
-0.048987
-0.039668
-0.042024
-0.044629
-0.054808
-0.039889
-0.073404
-0.051666
-0.04283
-0.033671
-0.026898
-0.01488
0.006307
0.019885
0.011706
0.018719
-0.009063
-0.002131
-0.014369
-0.044169
-0.049617
-0.048896
-0.052849
-0.077304
-0.077095
-0.090722
-0.086464
-0.065093
-0.055358
-0.042089
-0.021969
-0.020372
-0.015626
-0.003337
-0.007458
-0.032593
-0.029292
-0.017312
-0.03575
-0.044753
-0.056122
-0.053699
-0.058732
-0.059846
-0.050609
-0.065729
-0.053369
-0.037507
-0.068058
-0.031481
-0.010288
-0.018018
-0.032197
-0.033661
-0.03601
-0.029455
-0.021002
-0.035796
-0.042921
-0.048836
-0.050319
-0.017213
-0.044028
-0.058762
-0.077599
-0.049662
-0.048936
-0.040191
-0.011453
-0.020216
-0.043884
-0.026533
-0.002562
-0.025948
-0.011507
-0.023828
-0.034349
-0.047424
-0.049359
-0.051386
-0.060675
-0.051872
-0.075598
-0.082558
-0.074254
-0.065032
-0.059915
-0.042623
-0.081092
-0.037718
-0.028751
-0.041515
-0.036348
-0.023558
0.012516
0.001221
-0.000341
-0.016908
-0.010473
-0.029856
-0.052752
-0.094772
-0.072131
-0.046445
-0.039979
-0.050884
-0.062715
-0.057857
-0.037199
-0.042875
-0.01878
-0.016386
-0.013231
-0.002076
-0.016947
-0.004918
-0.03158
-0.044871
-0.049096
-0.04903
-0.062168
-0.055899
-0.054527
-0.058251
-0.062701
-0.057557
-0.042538
-0.043692
-0.02078
-0.022988
-0.019016
-0.000286
-0.003941
-0.005983
-0.002687
-0.014055
-0.018157
-0.014158
-0.019688
-0.027301
-0.066345
-0.065435
-0.055453
-0.039839
-0.042217
-0.050799
-0.036014
-0.040617
-0.008956
-0.023379
0.005068
0.011983
-0.004069
0.004939
0.017082
0.008666
-0.007809
-0.019115
-0.033282
-0.02833
-0.024963
-0.012732
-0.01948
-0.030761
-0.012479
-0.048117
-0.030765
-0.023463
-0.002324
-0.009983
-0.01851
-0.003792
0.008734
0.020037
0.006255
-0.000378
0.007121
0.016353
-0.005323
-0.001982
-0.007261
-0.035454
-0.024826
-0.011462
-0.014106
-0.015697
-0.0023
-0.01474
-0.02373
-0.035133
-0.030252
-0.009666
-0.003752
0.015845
0.012921
-0.004148
-0.006892
-0.032482
-0.048928
-0.021952
-0.037346
-0.041438
-0.042001
-0.051703
-0.044375
-0.055264
-0.06459
-0.038612
-0.022492
-0.031163
-0.029465
-0.009342
0.002293
-0.023069
-0.024506
-0.016841
-0.024846
-0.021216
-0.020811
-0.037341
-0.065011
-0.044154
-0.054977
-0.048745
-0.068797
-0.09177
-0.069945
-0.049898
-0.053978
-0.051891
-0.040928
-0.026719
-0.020458
-0.028108
-0.002253
-0.005028
-0.015241
-0.032775
-0.05695
-0.060882
-0.058543
-0.057038
-0.075175
-0.083245
-0.066376
-0.060702
-0.049348
-0.068624
-0.048689
-0.038392
-0.042295
-0.032826
-0.011082
-0.01772
-0.02662
-0.01618
0.000486
-0.032366
-0.053301
-0.046698
-0.059319
-0.04656
-0.020641
-0.051607
-0.072029
-0.085281
-0.09853
-0.085434
-0.06488
-0.043294
-0.051345
-0.083186
-0.056461
-0.061834
-0.052711
-0.042385
-0.034827
-0.029501
-0.038635
-0.037185
-0.071017
-0.068904
-0.069267
-0.066955
-0.077755
-0.076258
-0.07193
-0.062853
-0.046952
-0.039463
-0.040643
-0.02593
-0.033736
-0.013766
-0.034936
-0.034261
-0.040649
-0.056419
-0.05941
-0.053364
-0.05755
-0.084105
-0.083362
-0.09071
-0.109866
-0.089244
-0.084337
-0.074677
-0.052893
-0.047644
-0.046867
-0.031449
-0.009248
0.00779
0.028818
0.028162
0.019028
0.026015
0.070506
0.106899
0.102904
0.109529
0.104486
0.152947
0.190229
0.217224
0.220926
0.242072
0.262098
0.294004
0.295997
0.306232
0.290644
0.293681
0.279219
0.296867
0.237687
0.216527
0.208736
0.216857
0.199454
0.190559
0.157686
0.12283
0.102593
0.084703
0.053336
0.044574
0.019324
0.000578
-0.010961
-0.025813
-0.070487
-0.100158
-0.132529
-0.129061
-0.12635
-0.138198
-0.143712
-0.133124
-0.144164
-0.146409
-0.113943
-0.105613
-0.089439
-0.074638
-0.075412
-0.062806
-0.053812
-0.05065
-0.067513
-0.056917
-0.040365
-0.017217
-0.018608
-0.019533
-0.02617
-0.017895
-0.024534
-0.030445
-0.043572
-0.046288
-0.05246
-0.037286
-0.033977
-0.049238
-0.075291
-0.085107
-0.060472
-0.048415
-0.049286
-0.022391
-0.022896
-0.016289
-0.008651
-0.007687
-0.025246
-0.028496
-0.02406
-0.036431
-0.0437
-0.054389
-0.067489
-0.057567
-0.05091
-0.030323
-0.038205
-0.038317
-0.027134
-0.035236
-0.017495
-0.024562
0.000699
0.028228
0.016248
0.009466
0.018631
0.008181
0.001543
-0.017507
-0.043249
-0.042084
-0.02647
-0.030853
-0.047749
-0.056812
-0.054771
-0.050197
-0.026128
-0.017991
-0.030215
-0.022629
0.012762
0.003925
0.015636
0.02796
0.0295
0.005177
-0.006277
-0.009442
-0.036194
-0.035761
-0.053858
-0.033627
-0.029315
-0.038555
-0.05449
-0.024307
-0.018334
-0.01171
0.010403
0.01128
-0.001761
-0.013653
-0.011218
-0.021265
-0.005177
0.000801
-0.002112
-0.002967
-0.012195
-0.012561
-0.019561
-0.021198
-0.043645
-0.056342
-0.042722
-0.008859
-0.021237
0.012578
0.010819
0.006185
0.007566
0.022202
0.032842
0.002709
0.009825
0.017385
0.009133
-0.008471
-0.017514
-0.022561
-0.04959
-0.044023
-0.03805
-0.040382
-0.023009
-0.015912
-0.019105
-0.003016
0.034093
0.047349
0.051892
0.015123
0.021054
0.027958
0.023943
0.030021
0.024026
0.019548
0.022925
0.026094
0.005654
0.002842
-0.00212
0.002621
0.017486
0.020372
0.026591
0.02182
0.00272
0.013449
0.030429
0.042416
0.064883
0.046641
0.029963
0.032351
0.035506
0.042523
0.036229
0.014548
0.012906
0.014151
0.012382
0.035312
0.022275
0.028391
0.024051
0.039726
0.039556
0.063176
0.088925
0.089341
0.082607
0.065258
0.060429
0.047644
0.062342
0.055398
0.04476
0.050646
0.029074
0.032549
0.015979
0.029946
0.037715
0.056288
0.066164
0.059101
0.058474
0.055237
0.086192
0.057859
0.09212
0.106864
0.113042
0.087776
0.095446
0.089535
0.088195
0.072302
0.081393
0.083776
0.082261
0.070273
0.084292
0.099658
0.096003
0.100709
0.119421
0.136439
0.137506
0.132828
0.111648
0.1231
0.139513
0.101781
0.104249
0.108072
0.095557
0.101046
0.107794
0.102116
0.083761
0.075616
0.076852
0.103501
0.112683
0.134297
0.134198
0.127917
0.140235
0.156409
0.150332
0.156519
0.156813
0.161124
0.143757
0.13892
0.127563
0.10282
0.128359
0.136928
0.075125
0.111241
0.093065
0.092013
0.108212
0.106966
0.099272
0.110979
0.109101
0.110315
0.102004
0.096902
0.092575
0.098829
0.098029
0.110916
0.08359
0.053821
0.052124
0.029477
0.059847
0.051748
0.031568
0.041026
0.043784
0.05175
0.039767
0.038375
0.029024
0.016819
0.000027
0.012178
0.017827
0.025285
0.00187
-0.001224
-0.007927
-0.016804
-0.005286
-0.012243
0.001506
-0.021907
-0.02404
-0.016291
-0.011155
0.006082
0.018829
0.014695
-0.028922
-0.018252
0.004029
0.016118
0.008618
-0.001293
-0.015344
-0.041271
-0.039811
-0.042002
-0.020968
-0.019327
-0.019019
-0.038695
-0.042939
-0.050336
-0.044003
-0.07058
-0.047702
-0.024521
-0.038212
-0.046603
-0.016535
-0.014748
-0.014619
-0.005545
-0.015699
-0.020669
-0.036451
-0.039891
-0.049633
-0.024694
-0.037122
-0.069343
-0.045237
-0.04078
-0.033757
-0.018763
-0.009253
-0.013293
-0.03682
-0.012825
-0.035953
-0.021894
0.003761
0.011576
0.001685
-0.015703
-0.034133
-0.040169
-0.054533
-0.066845
-0.074777
-0.047954
-0.040652
-0.057052
-0.057638
-0.047024
-0.010027
0.001432
0.004411
-0.02277
-0.009928
-0.011643
-0.008481
-0.037932
-0.053085
-0.044079
-0.027805
-0.020495
-0.030451
-0.051986
-0.048064
-0.042862
-0.050172
-0.058857
-0.051112
-0.039782
-0.031706
-0.027022
-0.025676
0.005222
0.00495
-0.001577
-0.011038
-0.031032
-0.027162
-0.046002
-0.032747
-0.02821
-0.046204
-0.055282
-0.053413
-0.063842
-0.045487
-0.064806
-0.055922
-0.038258
-0.024129
-0.016185
-0.011493
-0.02038
-0.023371
-0.022081
-0.012728
0.006326
-0.018456
-0.023876
-0.023488
-0.030155
-0.026607
-0.047358
-0.052263
-0.053804
-0.065757
-0.063591
-0.053245
-0.03946
-0.033991
-0.034712
-0.040622
-0.03455
-0.042035
-0.010021
0.006202
-0.002022
-0.02248
-0.045543
-0.059969
-0.042395
-0.045967
-0.027651
-0.031773
-0.034293
-0.016035
-0.012142
-0.042392
-0.030804
-0.011612
-0.013827
-0.01493
-0.002294
-0.002712
-0.02166
-0.021263
-0.035196
-0.00914
-0.015079
-0.027897
-0.032654
-0.055196
-0.066668
-0.06529
-0.038846
-0.044285
-0.063459
-0.045575
-0.032489
-0.033901
-0.035996
-0.034727
-0.015684
-0.029709
-0.027481
-0.010514
-0.020476
0.001349
-0.01111
-0.040797
-0.042104
-0.054146
-0.0412
-0.04641
-0.045203
-0.032012
-0.033697
-0.068948
-0.054383
-0.038369
-0.012109
-0.017545
0.009554
-0.021256
-0.016725
-0.004901
-0.0137
-0.018739
-0.01135
-0.031259
-0.041138
-0.052281
-0.052715
-0.042582
-0.038361
-0.057533
-0.043904
-0.035569
-0.032665
-0.038122
-0.044684
-0.03605
-0.015414
-0.011522
-0.021494
-0.004676
-0.003891
-0.026876
-0.032967
-0.043387
-0.048823
-0.053076
-0.04677
-0.061864
-0.03977
-0.064941
-0.054615
-0.071174
-0.063406
-0.067079
-0.043776
-0.054461
-0.028991
-0.027658
-0.011279
-0.018476
-0.00657
-0.025161
-0.037328
-0.037836
-0.040279
-0.066872
-0.055655
-0.042336
-0.023553
-0.050406
-0.08398
-0.054468
-0.043924
-0.04915
-0.032952
-0.01122
-0.017468
0.000206
-0.026937
-0.032069
-0.019556
-0.027881
-0.047036
-0.042298
-0.041586
-0.023216
-0.05834
-0.059441
-0.057379
-0.052705
-0.060846
-0.051979
-0.074459
-0.060068
-0.053891
-0.022226
-0.003872
-0.002607
-0.019797
-0.014636
-0.017224
-0.020045
-0.017849
-0.019721
-0.050444
-0.051309
-0.056343
-0.065106
-0.053785
-0.047293
-0.048875
-0.044737
-0.017316
-0.023578
-0.040368
-0.034337
-0.030434
-0.017297
-0.022064
-0.017608
-0.017154
-0.009013
-0.027654
-0.040791
-0.037677
-0.037356
-0.041798
-0.047961
-0.034818
-0.054422
-0.051167
-0.017842
-0.014581
-0.022768
-0.000874
-0.014938
0.001655
0.012671
0.014193
0.013228
0.005421
-0.015305
-0.025465
-0.020251
-0.025381
-0.020156
-0.031119
-0.041089
-0.038989
-0.03771
-0.035921
-0.037736
-0.037765
-0.015443
-0.004009
-0.001227
0.014187
0.021999
0.010702
0.005461
0.027445
0.029395
0.04657
0.022417
0.012203
0.018178
0.005441
-0.021286
-0.047986
-0.045832
-0.039489
-0.036055
-0.015764
0.011664
0.000444
0.019979
0.00514
0.007594
0.008277
-0.000874
-0.01057
-0.030297
-0.035935
-0.033524
-0.057825
-0.059405
-0.057673
-0.037256
-0.036416
-0.045407
-0.049665
-0.071899
-0.061131
-0.030351
-0.025532
-0.023529
-0.014705
-0.013064
-0.009543
-0.014431
-0.031946
-0.035027
-0.017656
-0.034343
-0.048354
-0.077384
-0.081951
-0.061115
-0.041163
-0.068909
-0.089215
-0.068787
-0.07342
-0.063096
-0.053261
-0.035025
-0.028355
-0.0344
-0.025766
-0.03832
-0.016883
-0.022602
-0.043448
-0.034165
-0.055696
-0.074356
-0.085661
-0.092838
-0.078654
-0.101323
-0.078547
-0.077124
-0.063561
-0.054615
-0.046176
-0.035891
-0.023791
-0.032136
-0.038882
-0.046034
-0.034322
-0.054598
-0.081617
-0.091619
-0.075765
-0.074173
-0.071875
-0.081477
-0.091694
-0.08679
-0.088548
-0.059253
-0.063658
-0.057026
-0.03405
-0.035415
-0.055939
-0.045652
-0.049627
-0.037198
-0.019463
-0.019243
-0.048023
-0.027646
-0.044644
-0.079296
-0.072321
-0.076335
-0.090492
-0.07342
-0.079077
-0.071846
-0.036014
-0.05908
-0.066818
-0.036555
-0.03014
-0.028234
-0.037988
-0.047405
-0.054476
-0.04902
-0.065131
-0.053249
-0.043267
-0.054412
-0.047726
-0.065773
-0.087037
-0.083045
-0.076824
-0.080213
-0.069104
-0.071437
-0.058045
-0.062593
-0.033451
-0.009423
-0.012191
0.036557
0.03705
0.079559
0.086774
0.114579
0.150102
0.138939
0.148019
0.16497
0.185602
0.218496
0.236266
0.261636
0.29032
0.288344
0.314832
0.319829
0.314836
0.284156
0.290754
0.285669
0.288622
0.255192
0.235393
0.209098
0.206182
0.161406
0.149547
0.136534
0.063764
0.032715
0.022927
-0.002412
-0.013739
-0.042309
-0.05037
-0.08006
-0.090236
-0.107596
-0.131504
-0.125527
-0.118015
-0.156325
-0.145602
-0.117726
-0.129594
-0.132549
-0.121268
-0.121094
-0.095821
-0.067189
-0.058051
-0.070691
-0.064232
-0.046156
-0.042844
-0.036745
-0.024829
-0.023759
-0.027718
-0.020308
-0.011002
-0.022324
-0.018913
-0.044998
-0.044813
-0.039667
-0.040262
-0.039615
-0.049156
-0.067089
-0.04656
-0.037438
-0.027341
-0.042136
-0.030602
-0.028488
-0.011111
0.000692
0.001166
-0.009593
-0.009363
-0.045823
-0.039009
-0.051926
-0.039301
-0.047447
-0.062968
-0.079255
-0.082774
-0.059076
-0.051732
-0.04829
-0.039612
-0.025708
-0.030747
-0.01533
-0.003227
0.012209
0.002645
-0.002669
-0.022305
-0.0245
-0.030487
-0.028112
-0.054529
-0.046772
-0.040781
-0.029356
-0.027251
-0.019723
-0.042499
-0.046092
-0.028072
-0.016438
-0.030966
-0.015416
-0.005642
-0.006487
-0.008453
-0.001091
-0.000996
0.004589
-0.029349
-0.019027
-0.010298
-0.028905
-0.031721
-0.02452
-0.028195
-0.04688
-0.040346
-0.031638
-0.031847
-0.012304
-0.005895
-0.019099
-0.01328
0.010984
0.018677
-0.000803
-0.004881
0.011611
-0.012991
-0.003031
-0.03366
-0.026035
-0.026861
-0.042907
-0.046754
-0.04665
-0.04438
-0.040035
0.001352
-0.021455
-0.026614
-0.011871
-0.021817
-0.007138
-0.006432
0.010962
0.017647
0.019422
0.008502
0.007178
0.014296
0.011115
-0.03345
-0.035156
-0.019442
-0.009206
-0.011102
-0.009518
0.003978
0.026421
0.011569
0.012312
0.031374
0.036861
0.020821
0.034062
0.026111
0.024194
0.010488
-0.007187
-0.013498
-0.006883
0.009282
-0.02966
-0.025499
-0.018168
-0.005598
0.008041
0.010973
0.030884
0.043835
0.031812
0.048282
0.02527
0.032336
0.03634
0.047155
0.046526
0.025329
0.026892
-0.004379
-0.00809
0.012905
0.019631
-0.010637
0.001721
0.019569
0.030978
0.043714
0.048993
0.051256
0.051593
0.057513
0.069012
0.056942
0.081559
0.081107
0.086752
0.100051
0.077176
0.07034
0.055635
0.052027
0.035727
0.031854
0.026333
0.036172
0.075014
0.09118
0.060138
0.066149
0.075951
0.084753
0.09103
0.124479
0.081413
0.082286
0.088759
0.091887
0.09362
0.073358
0.062295
0.065545
0.060112
0.055536
0.048252
0.052518
0.078055
0.082465
0.09764
0.106121
0.117697
0.109939
0.111286
0.142118
0.12522
0.114527
0.132164
0.131349
0.126501
0.114704
0.097008
0.112119
0.092367
0.092549
0.095281
0.111582
0.091411
0.097672
0.130399
0.122145
0.127878
0.144704
0.133457
0.141657
0.141774
0.153661
0.152815
0.121543
0.106657
0.124663
0.104798
0.0991
0.076657
0.078948
0.080352
0.100381
0.103331
0.09507
0.118968
0.121876
0.112822
0.125923
0.128149
0.103695
0.106224
0.097948
0.094627
0.073612
0.07079
0.035506
0.032856
0.047617
0.037736
0.021797
0.012085
0.001161
0.011363
0.018173
0.025016
0.022983
0.02801
0.04226
0.052009
0.049961
0.051424
0.051293
0.050144
0.032158
-0.006191
-0.005882
-0.009015
-0.020716
-0.052596
-0.062106
-0.055372
-0.062351
-0.027864
-0.032895
-0.023921
0.007607
0.004871
-0.004804
-0.004319
-0.001611
0.003065
-0.004482
-0.003993
-0.0145
-0.020486
-0.020716
-0.04123
-0.032779
-0.04736
-0.044381
-0.068185
-0.061936
-0.069669
-0.038002
-0.011525
-0.030411
0.000479
-0.018126
-0.001046
-0.027681
-0.019441
-0.011358
-0.010553
-0.037374
-0.036618
-0.046713
-0.044232
-0.042625
-0.055809
-0.064829
-0.052137
-0.038758
-0.039161
-0.048703
-0.056897
-0.038221
-0.03658
-0.0351
-0.019973
-0.000439
0.005735
-0.00416
-0.005164
0.008836
-0.03844
-0.049205
-0.074096
-0.069067
-0.048718
-0.050144
-0.059608
-0.065151
-0.074851
-0.066201
-0.042335
-0.032049
-0.015267
-0.0096
-0.015182
-0.020147
-0.036771
-0.008293
0.00922
-0.034623
-0.062704
-0.066962
-0.06996
-0.042036
-0.050272
-0.052113
-0.059256
-0.064841
-0.0606
-0.04539
-0.051408
-0.046922
-0.035412
-0.016809
-0.014459
-0.024174
-0.008129
0.000751
-0.001452
-0.013695
-0.021726
-0.04075
-0.04209
-0.057217
-0.049238
-0.05864
-0.070224
-0.05261
-0.015698
-0.050354
-0.040752
-0.031731
-0.023475
-0.008333
0.004559
-0.007387
-0.009023
0.007167
0.008419
-0.042984
-0.032609
-0.038067
-0.032911
-0.036963
-0.028181
-0.042296
-0.047249
-0.045133
-0.033743
-0.030663
-0.030398
-0.023428
-0.03155
0.004707
0.006686
-0.030737
-0.03769
-0.017892
-0.024949
-0.046865
-0.04698
-0.04291
-0.045601
-0.066342
-0.063507
-0.052062
-0.0546
-0.031115
-0.052621
-0.069734
-0.038822
-0.026236
-0.013245
-0.039127
-0.048421
-0.04471
-0.012658
-0.00947
-0.030043
-0.026456
-0.056826
-0.060842
-0.02692
-0.031447
-0.044145
-0.03633
-0.044965
-0.062959
-0.038737
-0.03444
-0.018253
-0.025584
-0.031982
-0.010619
-0.019083
-0.019311
0.008001
0.002868
-0.002454
-0.014339
-0.028417
-0.018675
-0.018335
-0.030508
-0.03415
-0.039042
-0.05429
-0.042034
-0.047237
-0.043884
-0.033195
-0.038762
-0.044027
-0.022878
-0.02701
-0.00772
-0.024722
-0.013591
-0.014416
-0.022801
-0.016455
-0.048367
-0.058643
-0.078365
-0.068849
-0.055853
-0.040447
-0.031214
-0.042791
-0.058124
-0.043332
-0.048983
-0.044885
-0.0518
-0.037409
-0.026725
-0.013432
0.001849
0.009334
-0.009155
-0.019427
-0.017027
-0.016845
-0.039616
-0.066591
-0.063573
-0.058516
-0.066888
-0.044638
-0.022124
-0.054796
-0.051816
-0.029516
-0.021585
-0.000418
-0.023666
-0.049176
-0.057547
-0.040843
-0.053088
-0.028844
-0.062075
-0.071634
-0.038406
-0.067579
-0.074199
-0.051181
-0.047013
-0.067882
-0.07302
-0.055275
-0.034604
-0.036068
-0.042898
-0.026266
-0.037945
-0.028481
-0.025226
0.000397
-0.027097
-0.021531
-0.032827
-0.047384
-0.054693
-0.053571
-0.084933
-0.055752
-0.048248
-0.057379
-0.033202
-0.058699
-0.060569
-0.025078
-0.029987
-0.023787
-0.029064
-0.013937
-0.014805
-0.000694
-0.029954
-0.035049
-0.036719
-0.046934
-0.061694
-0.073561
-0.054472
-0.054346
-0.055474
-0.046468
-0.031633
-0.038474
-0.023248
-0.01403
-0.023827
-0.023952
-0.033287
-0.035741
-0.02093
-0.026598
-0.033098
-0.039253
-0.041252
-0.047789
-0.044637
-0.058925
-0.053879
-0.05917
-0.07698
-0.059764
-0.050401
-0.050732
-0.028195
-0.02594
-0.028251
-0.04583
-0.041106
-0.045602
-0.038604
-0.056919
-0.043746
-0.045745
-0.027616
-0.032975
-0.032858
-0.032253
-0.035386
-0.031567
-0.023489
-0.042471
-0.052044
-0.030642
-0.043862
-0.050035
-0.03562
-0.031687
-0.03625
-0.039051
-0.035098
-0.018701
-0.019354
-0.003872
-0.016271
-0.0297
-0.021869
-0.024088
-0.05491
-0.074533
-0.072059
-0.05892
-0.047327
-0.042959
-0.026714
0.000143
-0.002106
-0.012818
-0.000733
0.018164
0.004187
-0.022483
-0.005029
0.001963
-0.017209
-0.030022
-0.045516
-0.059718
-0.060403
-0.054059
-0.055108
-0.031552
-0.0355
-0.041859
-0.020318
0.001471
0.010268
-0.00054
0.017986
0.026772
0.019738
0.040718
0.048762
0.032954
0.016601
0.001763
0.003639
0.01015
0.004887
-0.037127
-0.043527
-0.043877
-0.01208
-0.0175
-0.01629
-0.007197
-0.000139
-0.007262
0.008558
0.01167
0.026415
0.011097
0.0016
0.008416
-0.005548
-0.022227
-0.02817
-0.04605
-0.06023
-0.063152
-0.038141
-0.020019
-0.019912
-0.029268
-0.018888
0.000956
-0.009977
0.008172
0.009523
0.001332
0.028449
0.007189
-0.0172
-0.026177
-0.020122
-0.042861
-0.054858
-0.063801
-0.054414
-0.058884
-0.075859
-0.050587
-0.062157
-0.052654
-0.052367
-0.040785
-0.03001
-0.02453
-0.013194
-0.019258
-0.022288
-0.018899
-0.026023
-0.055614
-0.054475
-0.04746
-0.077307
-0.06452
-0.061975
-0.043008
-0.04636
-0.039779
-0.045707
-0.057864
-0.047271
-0.044827
-0.043695
-0.075867
-0.054634
-0.027541
-0.038427
-0.038098
-0.0518
-0.064237
-0.061493
-0.069651
-0.068352
-0.061487
-0.055653
-0.081527
-0.083444
-0.099149
-0.084516
-0.067397
-0.046751
-0.026768
-0.027844
-0.019837
-0.02559
-0.013782
-0.033823
-0.030824
-0.031689
-0.034911
-0.031102
-0.04072
-0.058666
-0.070386
-0.096583
-0.082902
-0.075391
-0.084179
-0.081002
-0.084098
-0.07232
-0.069453
-0.049055
-0.037935
-0.014501
-0.010601
-0.019242
-0.0465
-0.043893
-0.058074
-0.072578
-0.076595
-0.067834
-0.069093
-0.091152
-0.091298
-0.086626
-0.071093
-0.068926
-0.061293
-0.062929
-0.03225
-0.056491
-0.053118
-0.039305
-0.04666
-0.033603
-0.026565
-0.045913
-0.050212
-0.048896
-0.054024
-0.045093
-0.042294
-0.019075
-0.001612
0.019059
0.03368
0.068726
0.091681
0.11999
0.145205
0.178299
0.203561
0.244059
0.275664
0.284998
0.298257
0.290782
0.304337
0.306266
0.27562
0.28865
0.292784
0.285347
0.264264
0.245213
0.240179
0.235333
0.213955
0.177814
0.177986
0.172638
0.165156
0.142919
0.120034
0.086146
0.049365
0.019552
0.001728
-0.049242
-0.088464
-0.10948
-0.118409
-0.117555
-0.131596
-0.15713
-0.179291
-0.180865
-0.164105
-0.131838
-0.094534
-0.083479
-0.086162
-0.075948
-0.037119
-0.020393
-0.031466
-0.036301
-0.027972
-0.02438
-0.032436
-0.03672
-0.050667
-0.063436
-0.077054
-0.071612
-0.059244
-0.036238
-0.029188
-0.054682
-0.040193
-0.034868
-0.038934
-0.03026
-0.007188
-0.021228
-0.019817
-0.025116
-0.020819
-0.040042
-0.042184
-0.052594
-0.045632
-0.055449
-0.058319
-0.062982
-0.069387
-0.08197
-0.098098
-0.043429
-0.019193
-0.029035
-0.021991
-0.01734
0.012853
0.026567
0.011468
-0.031353
-0.025931
-0.033393
-0.041953
-0.06055
-0.060588
-0.051578
-0.042541
-0.03757
-0.068906
-0.071736
-0.057446
-0.012469
0.012219
0.01368
0.014334
-0.007925
-0.018913
0.018603
-0.015829
-0.003939
-0.019679
-0.031415
-0.02404
-0.017684
-0.034682
-0.05135
-0.03465
-0.050817
-0.042959
-0.025049
-0.028499
-0.018749
-0.018403
-0.003074
0.017223
-0.00709
-0.017314
-0.00699
-0.003266
-0.000269
-0.026187
-0.020125
-0.047471
-0.066654
-0.052448
-0.051845
-0.036802
-0.029476
-0.028632
-0.050005
-0.027293
-0.025886
-0.031556
-0.014032
-0.007621
0.001307
0.017725
0.015733
0.011456
0.005157
-0.004374
-0.021314
-0.030908
-0.016298
-0.012875
-0.012017
-0.022144
-0.016307
-0.025723
-0.022623
-0.028598
-0.008639
0.007882
-0.002617
-0.010157
-0.00724
-0.014259
-0.009084
-0.005802
-0.004822
-0.019256
-0.01254
-0.024829
-0.02779
-0.017216
-0.022096
-0.046498
-0.034285
-0.025892
-0.022077
-0.004004
-0.017178
0.014625
0.019132
0.01762
0.032747
0.05096
0.054924
0.081649
0.066632
0.042481
0.028509
0.040273
0.040163
0.035502
0.019805
-0.006833
-0.005727
0.008065
0.002861
0.009704
0.013327
0.02679
0.050975
0.038218
0.050917
0.039508
0.044914
0.04798
0.052983
0.051307
0.04853
0.057831
0.024248
0.021035
0.024739
0.03791
0.025926
0.022863
0.044176
0.046977
0.047709
0.054647
0.065475
0.04926
0.070968
0.084879
0.067357
0.065475
0.081629
0.061513
0.052891
0.046518
0.059562
0.081886
0.04055
0.054167
0.067029
0.070632
0.063864
0.062127
0.075542
0.070184
0.083033
0.108704
0.124851
0.124941
0.103643
0.108025
0.117313
0.100247
0.10127
0.092815
0.088175
0.095591
0.081918
0.063087
0.051502
0.047143
0.060535
0.058707
0.080295
0.093563
0.107753
0.12155
0.133531
0.128907
0.163416
0.145097
0.137908
0.134045
0.123702
0.1093
0.1074
0.088227
0.089667
0.089188
0.120323
0.115465
0.11638
0.114183
0.122765
0.117994
0.119915
0.113953
0.121195
0.129767
0.127311
0.138529
0.138262
0.122107
0.120214
0.103755
0.084845
0.094855
0.091612
0.065604
0.050474
0.060559
0.058896
0.060946
0.063635
0.077153
0.075901
0.076898
0.071244
0.060344
0.068148
0.075192
0.06062
0.030256
0.036646
0.009309
0.023126
0.023267
-0.007215
-0.017397
-0.01061
0.004522
0.005632
0.003011
-0.017004
-0.008877
0.028812
0.020323
-0.004457
0.004781
0.035657
0.015327
0.010816
-0.002084
-0.010303
-0.00885
-0.019343
-0.03697
-0.070078
-0.070034
-0.063959
-0.059261
-0.041945
-0.034778
-0.020436
-0.007611
-0.000675
0.006576
0.006708
0.009122
0.018895
0.013113
-0.013503
-0.012705
-0.019442
-0.043553
-0.043269
-0.033734
-0.052311
-0.058398
-0.063629
-0.062358
-0.048947
-0.050226
-0.022081
-0.039822
-0.03306
-0.028145
-0.008122
-0.007946
-0.007313
-0.002079
-0.014817
-0.028963
-0.050554
-0.049953
-0.046629
-0.032589
-0.048528
-0.074795
-0.072774
-0.065663
-0.043571
-0.025921
-0.038778
-0.028416
-0.037349
-0.003698
-0.002678
-0.010144
-0.010583
-0.026448
-0.022218
-0.014092
-0.03611
-0.037732
-0.058448
-0.045309
-0.053391
-0.075304
-0.06629
-0.052813
-0.058558
-0.032812
-0.044732
-0.043867
-0.030143
-0.004938
-0.03688
-0.024201
-0.004849
-0.03139
-0.024961
-0.016133
-0.013787
-0.02911
-0.033591
-0.02888
-0.045645
-0.037557
-0.049936
-0.043079
-0.039763
-0.043751
-0.046546
-0.043227
-0.031942
-0.042664
-0.023906
-0.006603
-0.018222
-0.003601
-0.003998
-0.014484
-0.032481
-0.033655
-0.054429
-0.057885
-0.036845
-0.025623
-0.05992
-0.071382
-0.06363
-0.062465
-0.055036
-0.03414
-0.022699
-0.000799
0.008821
0.019623
-0.026949
-0.027346
-0.040204
-0.008939
-0.00997
-0.055974
-0.047854
-0.023189
-0.049662
-0.063646
-0.066899
-0.059856
-0.058707
-0.037142
-0.021125
-0.037901
0.005407
0.003523
-0.002098
-0.011062
-0.014346
-0.019845
-0.013006
-0.020255
-0.030255
-0.031685
-0.032721
-0.044088
-0.050261
-0.033252
-0.060691
-0.048113
-0.047579
-0.044484
-0.028467
-0.018072
-0.013929
-0.015431
-0.027294
-0.018515
-0.014831
0.006648
-0.011323
-0.020611
-0.034751
-0.031071
-0.03097
-0.052722
-0.049207
-0.06001
-0.060475
-0.061085
-0.041101
-0.051065
-0.050152
-0.034438
-0.02134
-0.011559
-0.013058
-0.014144
-0.022609
-0.011314
0.006879
-0.01132
-0.010556
-0.026413
-0.051393
-0.060628
-0.054873
-0.067281
-0.065202
-0.04667
-0.046285
-0.050715
-0.036398
-0.047444
-0.031516
0.005102
-0.005474
0.005386
0.015767
0.015718
0.022583
-0.004381
-0.0376
-0.036502
-0.035244
-0.071909
-0.063359
-0.073351
-0.075487
-0.066212
-0.060011
-0.04209
-0.0306
-0.027921
-0.03689
-0.033488
-0.017404
0.003114
0.03022
-0.00632
-0.028859
-0.05133
-0.045963
-0.030696
-0.057125
-0.050488
-0.062546
-0.078334
-0.068634
-0.056617
-0.054522
-0.050452
-0.024431
-0.021662
-0.003683
-0.04167
-0.019377
-0.012485
-0.010498
-0.016913
-0.043156
-0.021755
-0.012148
-0.028289
-0.033371
-0.042743
-0.062719
-0.059196
-0.044592
-0.059266
-0.073458
-0.047695
-0.038087
-0.039926
-0.047274
-0.049605
-0.046206
-0.035081
-0.02044
-0.013582
-0.016777
-0.013923
-0.021428
-0.027707
-0.06
-0.059643
-0.042607
-0.052468
-0.040973
-0.053903
-0.061497
-0.066834
-0.045904
-0.042413
-0.057161
-0.046378
-0.039554
-0.041945
-0.034391
-0.026185
-0.030703
-0.04568
-0.022623
-0.018021
-0.006631
-0.012742
-0.028898
-0.043773
-0.03937
-0.057136
-0.063464
-0.054338
-0.046798
-0.025762
-0.009928
-0.018576
-0.006406
0.025472
0.019756
-0.002497
-0.022741
-0.032214
-0.02943
-0.006762
-0.012391
-0.053399
-0.065177
-0.063122
-0.054356
-0.0674
-0.071977
-0.048152
-0.047867
-0.031955
-0.031143
-0.021605
-0.022676
-0.026995
-0.024883
-0.021575
-0.02047
-0.009502
-0.023754
-0.038231
-0.040484
-0.045311
-0.044903
-0.053493
-0.057476
-0.066266
-0.05423
-0.050141
-0.022249
0.004942
0.004579
-0.006077
0.006899
0.011776
0.006453
-0.000932
0.00558
0.005332
-0.013914
-0.001648
-0.00414
-0.021863
-0.023999
-0.041852
-0.053118
-0.050099
-0.046973
-0.026509
-0.007215
-0.002117
-0.004688
-0.012694
0.001266
0.013314
0.016175
0.029826
0.018307
0.021031
0.011633
0.00948
0.013729
0.011644
-0.004791
-0.024311
-0.024556
-0.015996
-0.02697
0.001219
0.00695
0.020619
0.039539
0.047202
0.035795
0.003628
0.000586
0.007719
0.024544
0.001506
-0.001552
-0.005939
-0.033878
-0.037859
-0.036082
-0.031521
-0.050514
-0.039265
-0.03153
-0.00564
0.000994
-0.006164
0.01016
0.00701
0.011279
-0.010793
-0.008222
0.007191
0.017303
0.009348
-0.032327
-0.020305
-0.035936
-0.052702
-0.031149
-0.050059
-0.055498
-0.070748
-0.044175
-0.057612
-0.034595
-0.029941
-0.004969
-0.026706
-0.027308
-0.02281
-0.014868
-0.027106
-0.017334
-0.05514
-0.041267
-0.046967
-0.033944
-0.044687
-0.060012
-0.067732
-0.077226
-0.050707
-0.080398
-0.081278
-0.069006
-0.058948
-0.062305
-0.049722
-0.037542
-0.041611
-0.035032
-0.030831
-0.036651
-0.008302
-0.019419
-0.070608
-0.092009
-0.077681
-0.076668
-0.089123
-0.07983
-0.057118
-0.061258
-0.065143
-0.075242
-0.051637
-0.044711
-0.027308
-0.020128
-0.021538
-0.002028
-0.031599
-0.039376
-0.025661
-0.032331
-0.037554
-0.043176
-0.066467
-0.05913
-0.064895
-0.050871
-0.070174
-0.07542
-0.07494
-0.059402
-0.048606
-0.051642
-0.044499
-0.03129
-0.026349
-0.019032
-0.009403
-0.008871
-0.015209
-0.054385
-0.053404
-0.073232
-0.085723
-0.08082
-0.070814
-0.073979
-0.07633
-0.065466
-0.052513
-0.052298
-0.052191
-0.044007
-0.040463
-0.028792
-0.032123
-0.047756
-0.040025
-0.034417
-0.043272
-0.020656
0.008751
-0.023249
-0.052674
-0.03071
-0.01233
-0.001921
0.04751
0.058792
0.055156
0.086943
0.120897
0.15259
0.197606
0.253914
0.254468
0.279064
0.293394
0.298581
0.290612
0.316759
0.308913
0.320487
0.289586
0.27976
0.265779
0.242768
0.209867
0.204772
0.201229
0.197477
0.194593
0.183509
0.154594
0.132141
0.121887
0.090477
0.063812
0.023355
0.010909
-0.033852
-0.076675
-0.106182
-0.130009
-0.148565
-0.17399
-0.195838
-0.189642
-0.197994
-0.168158
-0.123559
-0.09718
-0.090959
-0.063267
-0.047809
-0.021589
-0.012786
-0.010273
-0.026603
-0.017136
-0.013131
-0.004006
-0.001978
-0.021886
-0.004654
-0.048011
-0.060602
-0.062595
-0.066318
-0.036612
-0.037792
-0.029353
-0.010111
-0.009346
-0.018758
-0.022246
-0.016464
0.008092
0.004871
-0.023456
-0.040451
-0.049812
-0.030658
-0.035588
-0.038928
-0.050145
-0.053247
-0.051778
-0.0576
-0.058061
-0.033013
-0.022957
-0.03347
-0.026489
-0.010704
0.004311
-0.005944
-0.010125
0.001778
-0.014086
-0.026764
-0.038733
-0.034815
-0.035542
-0.041162
-0.032886
-0.059327
-0.0602
-0.035078
-0.040591
-0.053373
-0.040114
-0.014476
-0.005577
-0.005773
-0.008587
0.000856
-0.007205
-0.000404
-0.000227
0.007091
-0.013795
-0.001538
-0.013879
-0.025815
-0.035114
-0.036202
-0.042736
-0.050299
-0.027703
-0.007163
0.001618
-0.005348
0.00361
-0.003754
0.008277
0.002363
0.020962
0.022345
0.014043
-0.011734
-0.007554
-0.032955
-0.037355
-0.021974
-0.023923
-0.020349
-0.019831
-0.041595
-0.024794
-0.012792
-0.001734
0.000712
-0.00181
-0.001144
0.009444
-0.001839
0.020796
0.041799
0.050313
0.029265
0.016047
0.00964
-0.00476
-0.020884
-0.01129
-0.026025
-0.028415
-0.023813
-0.017598
0.007725
-0.01992
0.011228
0.032061
0.025199
0.008237
0.021926
0.022169
0.032843
-0.011657
0.018724
0.019934
0.017303
0.006394
0.020354
0.023221
0.002207
0.0176
-0.000898
-0.025204
-0.008376
0.008845
0.011678
0.02256
0.012137
0.022222
0.011221
0.020424
0.028297
0.031924
0.027206
0.013002
0.003116
0.005696
0.012741
0.038817
0.039752
0.023687
0.020506
0.020641
0.029438
0.039034
0.038482
0.05689
0.063761
0.059493
0.082612
0.085574
0.081409
0.085452
0.071789
0.041482
0.064619
0.043011
0.038968
0.054207
0.064473
0.049726
0.039771
0.044083
0.020454
0.042867
0.047105
0.073691
0.104434
0.123121
0.089455
0.094552
0.108474
0.084795
0.080464
0.092513
0.097416
0.059117
0.056151
0.064122
0.047401
0.082868
0.086791
0.081667
0.090319
0.106136
0.103563
0.085254
0.087591
0.110198
0.121983
0.131353
0.108511
0.122452
0.121923
0.113357
0.120377
0.132418
0.103615
0.098134
0.116466
0.098598
0.085014
0.085169
0.105912
0.113842
0.110159
0.142275
0.155693
0.152952
0.156255
0.163721
0.132464
0.122096
0.122249
0.123935
0.133127
0.127029
0.110801
0.120503
0.11878
0.113025
0.108038
0.12846
0.127985
0.149431
0.121297
0.126706
0.136069
0.14289
0.147198
0.158209
0.163016
0.14947
0.139196
0.133157
0.090936
0.084383
0.092742
0.086294
0.067708
0.077402
0.077472
0.083618
0.086273
0.069017
0.060314
0.082561
0.058785
0.074864
0.063649
0.049772
0.065927
0.058211
0.047776
0.034466
0.037274
0.017078
-0.000441
-0.000569
-0.017085
-0.011542
-0.013587
0.002455
0.025201
0.032216
0.033287
0.027502
0.002572
0.01739
0.014041
0.018195
0.031018
0.029425
0.037424
0.041643
-0.013447
-0.018986
-0.028376
-0.04899
-0.069171
-0.036283
-0.029718
-0.04467
-0.025958
-0.007501
-0.003271
0.024253
0.012365
0.012948
0.009018
0.025563
0.015291
0.009234
0.005366
-0.020161
-0.044302
-0.020767
-0.036486
-0.021686
-0.036621
-0.04151
-0.057812
-0.020585
0.004014
0.001042
-0.018766
0.014515
-0.007038
0.00717
0.00428
0.008953
0.006204
-0.020161
0.001365
-0.014472
-0.020145
-0.00559
-0.009211
-0.031367
-0.04895
-0.046123
-0.043822
-0.052981
-0.048474
-0.037081
-0.034676
-0.01263
-0.005584
-0.015871
-0.012384
-0.013471
-0.004105
-0.00525
-0.014372
-0.029864
-0.034711
-0.009481
-0.030054
-0.04656
-0.025623
-0.031383
-0.025427
-0.052637
-0.045593
-0.023789
-0.018171
-0.01176
-0.011045
-0.012572
-0.015295
-0.00486
-0.002022
-0.01281
0.007032
0.007313
-0.012304
-0.046211
-0.040553
-0.019493
-0.045356
-0.050582
-0.059725
-0.043286
-0.037438
-0.031997
-0.017418
0.012883
-0.005661
-0.032131
-0.000009
0.00834
0.013991
0.018095
0.007544
0.022019
0.010278
0.008174
-0.001808
-0.021403
-0.030551
-0.038796
-0.056325
-0.047424
-0.035615
-0.024293
-0.019426
0.002149
0.028996
0.020938
-0.016509
-0.020904
0.006632
0.00416
0.002463
-0.013432
-0.015344
-0.029712
-0.017424
-0.015641
-0.041663
-0.045401
-0.036581
-0.037276
-0.052388
-0.047725
-0.020816
-0.026441
-0.013118
-0.009454
-0.01308
0.000714
0.015143
0.024243
0.000813
-0.013581
-0.020243
-0.016269
-0.017369
-0.038992
-0.035342
-0.010854
-0.050627
-0.052142
-0.035206
-0.014778
-0.024989
-0.011198
-0.016103
-0.011133
0.006271
0.002513
0.012999
0.005806
-0.001105
0.003149
-0.022504
-0.019823
-0.025121
-0.019576
-0.023701
-0.013756
-0.027773
-0.024679
-0.048505
-0.035832
-0.035029
-0.002682
-0.002647
-0.006554
0.007276
-0.010846
-0.019791
-0.011313
-0.011495
-0.044863
-0.026406
-0.021769
-0.030169
-0.027312
-0.024227
-0.040466
-0.041046
-0.063142
-0.065073
-0.041209
-0.025548
-0.012173
-0.010081
-0.010663
-0.004909
0.010363
0.014065
0.010837
0.005953
0.003162
-0.002562
-0.005228
-0.052144
-0.04008
-0.028685
-0.036625
-0.056174
-0.038269
-0.052585
-0.025349
-0.009471
-0.01566
-0.028407
-0.019902
-0.001956
-0.001992
0.006392
0.009949
-0.019831
-0.004937
-0.008275
-0.016059
-0.035904
-0.057724
-0.0395
-0.068356
-0.055317
-0.037366
-0.0202
-0.01262
-0.002181
0.003735
0.005541
-0.029202
-0.030999
-0.005355
-0.000913
0.00119
-0.009495
-0.019854
-0.029334
-0.043937
-0.042601
-0.033009
-0.041881
-0.0404
-0.054002
-0.022983
-0.022325
-0.016645
-0.010573
-0.00385
-0.03038
-0.03285
-0.019148
-0.01123
-0.003832
-0.000394
-0.002218
-0.011614
-0.006095
-0.017133
-0.031323
-0.046263
-0.044341
-0.042976
-0.063891
-0.050419
-0.03294
-0.014638
-0.016573
-0.013267
-0.019125
-0.003162
-0.000384
-0.006579
-0.00967
-0.005673
-0.01601
-0.008058
-0.006318
-0.022189
-0.005552
-0.025548
-0.031159
-0.059258
-0.043744
-0.010383
-0.023536
-0.002418
-0.011302
-0.024494
-0.013655
0.007286
0.001494
0.005317
0.036383
0.017256
0.005215
0.007264
0.00656
-0.002385
-0.0184
-0.014549
-0.01187
-0.014431
-0.012425
-0.020622
-0.025218
-0.030808
-0.019799
0.016776
0.005536
-0.000962
-0.003055
-0.002888
0.008183
0.022652
0.013363
-0.002381
-0.028489
-0.015568
-0.015743
-0.013191
-0.013869
-0.033943
-0.024018
-0.006919
-0.032076
-0.009574
0.00449
0.011974
0.012238
0.037578
0.046701
0.060906
0.046085
0.039712
0.039394
0.007469
0.009438
-0.004128
0.007084
0.024507
-0.016733
0.006571
0.022168
-0.000953
-0.005484
0.007887
0.018664
0.020475
0.016133
0.014607
0.006354
0.017348
0.014571
0.026252
0.02593
0.018498
0.009029
-0.009099
-0.017898
-0.030424
-0.025222
-0.032654
-0.026111
-0.020186
-0.041863
-0.028215
-0.023552
-0.007449
0.004565
0.006863
0.006432
-0.001755
0.004872
0.007662
-0.002756
0.004466
0.008975
-0.016126
-0.030082
-0.02921
-0.044699
-0.062742
-0.040875
-0.055661
-0.058737
-0.043672
-0.036591
-0.023958
-0.014732
0.006018
-0.010166
-0.004843
0.000322
-0.004388
-0.000309
-0.035472
-0.048249
-0.038301
-0.047441
-0.046256
-0.058762
-0.066542
-0.055136
-0.030912
-0.053145
-0.036034
-0.047996
-0.029965
-0.018384
-0.018771
-0.00252
0.001627
-0.01516
-0.023895
-0.021138
-0.021258
-0.04373
-0.0485
-0.041139
-0.033981
-0.065749
-0.055026
-0.081314
-0.077708
-0.05957
-0.06231
-0.040803
-0.027635
-0.027017
-0.008483
-0.008783
-0.010405
0.009794
-0.009169
-0.013215
-0.023598
-0.031489
-0.051948
-0.045231
-0.03282
-0.032899
-0.034644
-0.024381
-0.048134
-0.025995
-0.033894
-0.039277
-0.045312
-0.025213
-0.026809
-0.004334
0.002723
0.010403
0.00637
-0.020574
-0.026517
-0.028432
-0.027677
-0.042062
-0.048574
-0.040746
-0.050322
-0.069834
-0.05847
-0.063928
-0.040847
-0.046712
-0.019764
-0.002597
-0.016253
-0.003543
-0.005641
0.014298
0.019268
0.046416
0.068647
0.102867
0.119898
0.144582
0.173347
0.145626
0.145321
0.18627
0.211525
0.216505
0.245642
0.256272
0.2616
0.304726
0.313614
0.323256
0.309247
0.306325
0.312715
0.301817
0.26454
0.250962
0.243539
0.228245
0.204959
0.178392
0.164349
0.115368
0.081129
0.055865
0.056439
0.031606
0.031136
-0.002673
-0.039638
-0.061126
-0.077823
-0.116078
-0.118241
-0.110557
-0.116079
-0.116371
-0.099358
-0.102588
-0.089364
-0.088745
-0.085085
-0.079848
-0.065987
-0.050339
-0.025239
-0.027411
-0.007281
0.001237
0.001947
0.00591
0.019487
0.02101
0.017003
0.004757
0.009238
-0.018922
-0.043863
-0.064798
-0.031974
-0.020996
-0.033641
-0.024122
-0.000168
-0.003017
-0.016415
0.00271
-0.004295
0.002771
0.01823
0.009202
-0.002195
0.013583
0.017802
0.01234
0.005258
-0.014741
-0.010949
-0.012271
-0.024839
-0.037865
-0.052317
-0.034207
-0.035561
-0.024615
-0.032091
-0.015617
-0.019855
0.015064
0.021411
0.018573
-0.0027
-0.000745
0.001673
-0.003008
0.002582
0.005911
0.00661
0.004868
0.015384
-0.02102
-0.017051
-0.01246
-0.018542
-0.028118
-0.026561
-0.009244
-0.020988
-0.008713
-0.011595
0.013696
0.008681
0.032138
0.033793
0.032342
0.032254
0.040266
0.033356
0.024904
0.033602
-0.006776
0.016039
-0.019293
-0.024919
-0.046505
-0.02848
-0.001872
-0.012189
0.01645
0.028305
0.028784
0.042683
0.034157
0.037175
0.019333
0.06152
0.03674
0.020465
0.02079
-0.001987
0.013717
-0.006005
0.005887
-0.014324
-0.018546
-0.003758
-0.000197
-0.01766
-0.007358
-0.010129
0.012997
0.012028
0.011214
0.024206
0.044931
0.037143
0.009335
0.034346
0.023559
0.025197
-0.000287
-0.014354
-0.013591
-0.020123
0.002092
0.003351
0.030874
0.026617
0.027923
0.039485
0.030806
0.028161
0.02954
0.041272
0.052931
0.081015
0.054092
0.062034
0.044126
0.039733
0.027167
0.035099
0.041625
0.057525
0.027603
0.030537
0.044187
0.054888
0.069425
0.071123
0.075965
0.093327
0.089228
0.099709
0.089339
0.087323
0.069105
0.073728
0.06132
0.060364
0.05786
0.051408
0.055551
0.047496
0.058165
0.067844
0.065748
0.059502
0.057265
0.05666
0.087077
0.076847
0.089798
0.121625
0.137576
0.121667
0.115558
0.100237
0.065967
0.060529
0.053238
0.047556
0.076543
0.086687
0.077516
0.066365
0.097585
0.086848
0.11225
0.107755
0.123543
0.113189
0.11576
0.136118
0.147091
0.123615
0.096181
0.118312
0.128474
0.118043
0.111102
0.116177
0.095396
0.101866
0.112006
0.107018
0.108903
0.119485
0.116135
0.123569
0.139771
0.166825
0.164175
0.152344
0.145964
0.154832
0.14601
0.130974
0.12898
0.124365
0.118452
0.125134
0.110967
0.095545
0.101852
0.140825
0.149471
0.144778
0.162713
0.177906
0.171429
0.175488
0.184099
0.180861
0.168934
0.174343
0.153408
0.156145
0.150524
0.132084
0.11836
0.11322
0.114002
0.12196
0.11177
0.106418
0.124243
0.127497
0.174312
0.154571
0.14014
0.162426
0.151
0.12131
0.134093
0.114931
0.097619
0.097528
0.097265
0.079977
0.063499
0.055997
0.039164
0.065435
0.029635
0.038093
0.051297
0.059577
0.0583
0.065673
0.055684
0.064039
0.064544
0.086296
0.101406
0.065404
0.03516
0.032001
0.026789
0.02161
0.013541
0.01753
-0.009772
-0.002901
-0.004662
0.005455
0.004222
0.007615
0.009322
0.033888
0.017692
0.030945
0.027338
0.030544
0.033577
0.0335
0.035012
0.007861
-0.012917
-0.011983
-0.031722
-0.009058
-0.02883
-0.018227
-0.008508
-0.008586
-0.003214
0.000265
0.016713
0.010779
0.024379
0.034123
0.034523
0.038344
0.018035
0.029193
0.011555
0.007989
-0.00047
-0.00405
0.001857
-0.006211
-0.026738
-0.025495
-0.037384
-0.016424
-0.02744
-0.010699
0.002245
0.016568
-0.002233
0.008667
0.011307
0.002078
0.018572
0.023253
0.017877
0.028284
-0.004101
0.01597
-0.002258
-0.014057
-0.015492
-0.019599
-0.028648
-0.046002
-0.0369
-0.016661
0.005772
0.005844
0.006411
0.003993
0.013864
0.029637
0.024783
0.020025
0.001577
-0.001629
0.002122
-0.013415
-0.003067
-0.011988
0.004635
-0.02715
-0.035103
-0.037418
-0.013637
-0.005679
-0.007218
-0.001211
0.022651
0.028006
0.042121
0.013778
0.010755
0.021727
0.023036
0.022942
-0.009881
-0.023753
-0.026077
-0.031707
-0.032494
-0.003994
-0.026926
-0.030655
-0.000485
0.008877
0.005163
0.012154
0.019725
-0.00801
0.020354
0.016698
0.031906
0.047069
0.016805
-0.021808
-0.021257
-0.007298
0.006464
-0.00022
-0.004829
-0.018393
-0.034158
-0.015672
-0.011545
0.007853
0.015041
0.01967
0.004801
0.014404
0.01024
0.008629
0.010794
0.006992
0.016922
0.004309
0.03233
0.008552
0.001869
-0.007881
-0.00382
-0.008872
-0.011121
-0.000494
0.007021
0.016491
0.007419
-0.002776
0.004165
0.018779
0.021497
0.048464
0.058983
0.038675
0.015962
-0.005435
-0.000303
-0.014085
-0.018066
-0.045764
-0.016417
-0.015054
-0.002251
0.004036
-0.0123
-0.011334
-0.014348
0.013323
0.007848
0.014193
0.027145
0.024702
0.041887
0.022742
0.004913
0.00599
0.000143
0.000135
-0.010133
-0.013105
-0.033831
-0.026868
-0.032334
-0.030361
-0.034988
-0.001313
0.009253
0.016576
0.002222
0.001776
0.030117
0.033822
0.049773
0.042962
0.041009
0.009797
-0.001585
-0.010495
-0.028976
-0.050223
-0.041582
-0.048809
-0.039328
-0.042035
-0.015734
-0.013002
-0.012763
-0.005488
-0.000885
-0.00734
0.001143
0.011111
0.00437
0.025392
0.00865
-0.000428
0.00423
-0.010206
0.01157
0.030273
0.003761
-0.009826
-0.026223
-0.032536
-0.021816
-0.000273
-0.007317
0.007292
0.006475
0.024365
0.025152
0.017355
0.012607
0.000418
-0.008145
-0.003691
-0.01943
-0.038727
-0.037611
-0.037259
-0.04161
-0.031858
-0.020512
-0.015971
-0.007467
0.010679
0.016643
0.029103
0.012722
0.026951
0.023888
0.018994
0.03247
0.012475
0.008339
-0.002631
-0.011688
0.007942
0.008863
-0.014698
-0.024669
-0.017498
-0.040855
-0.03825
-0.021719
-0.016419
-0.012531
0.011564
0.008462
0.010312
0.020112
0.040333
0.020567
-0.006139
-0.016242
-0.009181
-0.01354
-0.016278
-0.021878
-0.030668
-0.042506
-0.024693
-0.030369
-0.026601
-0.020431
-0.006424
-0.016666
0.016747
0.028445
0.040773
0.034439
0.033615
0.025878
0.023556
0.026481
0.024051
0.020166
-0.012514
-0.027968
-0.030503
-0.013621
-0.014855
-0.004404
0.001989
0.012216
0.014373
0.002461
0.019645
0.022061
0.035852
0.037413
0.033799
0.050819
0.042565
0.026525
0.017959
0.027263
0.020646
0.020573
0.006001
0.008837
-0.005953
0.007067
0.007212
0.021862
0.043843
0.043043
0.044046
0.035159
0.041109
0.047763
0.0434
0.062639
0.044907
0.04053
0.025932
0.036534
0.021594
0.016998
0.007949
0.007278
-0.007091
-0.011702
0.004992
0.024455
0.027752
0.026393
0.034114
0.023742
0.015577
0.028456
0.021715
0.030419
0.015123
-0.002374
0.002273
0.006365
-0.013488
-0.015693
-0.032384
-0.019681
-0.009889
-0.00873
-0.021329
-0.010962
0.007266
0.003646
-0.002198
-0.021699
-0.018904
-0.026086
-0.006106
0.000033
0.010544
0.00201
-0.019339
-0.027378
-0.024139
-0.007048
-0.020627
-0.061424
-0.048728
-0.041109
-0.068963
-0.038627
0.003106
0.005759
0.000889
0.021987
0.049956
0.020978
0.017462
0.015351
-0.008961
-0.027558
-0.018842
-0.010637
-0.04812
-0.043179
-0.049823
-0.047586
-0.020168
-0.042932
-0.051029
-0.047793
-0.027146
-0.033993
-0.02208
-0.00347
-0.029258
-0.005544
-0.01504
-0.018709
-0.016766
0.002995
-0.004782
-0.002483
-0.032978
-0.042159
-0.043837
-0.043408
-0.043973
-0.035114
-0.047916
-0.042148
-0.002281
-0.00404
0.011249
0.028644
0.025376
0.005806
-0.006701
0.004785
-0.0007
-0.009112
-0.020672
-0.037766
-0.052888
-0.028288
-0.042507
-0.037281
-0.049639
-0.047956
-0.03267
-0.047883
-0.035598
-0.02709
-0.019115
0.017923
-0.011662
-0.011039
-0.0169
-0.005737
-0.002006
-0.000364
-0.032304
-0.046427
-0.059548
-0.03176
-0.003482
-0.02265
-0.009146
-0.014569
-0.01438
0.014338
0.034373
0.048249
0.107136
0.135865
0.164379
0.169027
0.203899
0.226857
0.260281
0.270523
0.27616
0.286451
0.272011
0.27528
0.276563
0.297178
0.307606
0.305387
0.290621
0.291888
0.291403
0.290577
0.264036
0.256317
0.222169
0.23529
0.227009
0.223858
0.190813
0.15273
0.124573
0.096307
0.047168
0.015221
-0.004372
-0.049871
-0.072722
-0.094125
-0.099729
-0.107136
-0.118405
-0.128545
-0.119084
-0.084364
-0.057303
-0.042941
-0.067863
-0.0453
-0.028878
-0.018249
-0.002002
-0.039737
-0.032626
-0.022314
-0.028211
-0.019912
-0.018497
-0.027935
-0.025312
-0.032745
-0.010934
-0.001938
0.00294
-0.000952
0.018691
0.01159
0.019054
0.008257
0.002685
0.012862
0.026405
0.003615
-0.036943
-0.008515
-0.012683
-0.02202
-0.031768
-0.029215
0.007117
-0.012215
-0.051173
-0.037345
-0.025784
-0.006735
0.011111
0.041999
0.043979
0.028829
0.014668
0.026034
0.018145
-0.002843
0.010395
0.004894
0.002324
-0.011208
-0.029494
-0.014961
-0.029434
-0.025571
-0.01598
-0.000242
0.004969
0.00366
0.014112
0.026562
0.021454
0.024634
0.020537
0.017536
0.016137
0.020471
-0.001168
-0.005536
-0.006032
-0.018276
-0.018956
-0.016285
-0.005531
0.009976
-0.000641
-0.000299
0.019843
0.023133
0.008461
0.012434
0.020031
0.030568
0.034403
0.042867
0.030634
0.051566
0.044644
0.025515
0.016588
0.003196
0.003219
-0.001861
0.015221
0.024652
0.005507
0.01392
0.010409
0.02237
0.026065
0.027867
0.016409
0.015267
0.03603
0.036315
0.032893
0.005661
0.001752
0.011675
0.010522
0.012226
0.009983
-0.006062
-0.006141
0.003993
0.008309
0.013108
0.021784
0.020272
0.049737
0.056864
0.054711
0.065195
0.079846
0.066622
0.05901
0.061228
0.047608
0.008041
0.0123
-0.002755
0.008727
0.009352
0.003495
0.00245
0.034497
0.035555
0.038242
0.053351
0.056282
0.069129
0.053765
0.063139
0.048745
0.024057
0.020908
0.029011
0.045005
0.037892
0.040316
0.057999
0.072468
0.048555
0.031875
0.044419
0.058638
0.082438
0.070831
0.071808
0.082196
0.099212
0.087762
0.091538
0.084847
0.077502
0.084483
0.083638
0.066742
0.063684
0.061635
0.074967
0.076417
0.069686
0.074443
0.085831
0.075366
0.076161
0.081285
0.090467
0.098759
0.117341
0.118269
0.120732
0.117031
0.114079
0.118591
0.098663
0.101315
0.108483
0.098982
0.088684
0.067831
0.081727
0.079877
0.081528
0.08488
0.106608
0.134312
0.148227
0.142021
0.147152
0.142628
0.140107
0.141441
0.140838
0.139126
0.140793
0.123477
0.119122
0.127529
0.125701
0.117303
0.112604
0.114218
0.118556
0.12322
0.137822
0.145386
0.152933
0.140947
0.13603
0.154303
0.170488
0.165388
0.15158
0.169745
0.158982
0.143131
0.143964
0.124923
0.136539
0.124044
0.125272
0.123184
0.115382
0.16578
0.177348
0.177665
0.167919
0.17019
0.179156
0.16848
0.174907
0.152919
0.141504
0.150091
0.153756
0.148344
0.12671
0.104929
0.109043
0.108141
0.105604
0.086253
0.070868
0.085546
0.103867
0.108346
0.118171
0.11751
0.126401
0.121336
0.110844
0.103807
0.108627
0.10772
0.096853
0.071216
0.05007
0.055313
0.052292
0.030908
0.033337
0.045182
0.047474
0.0731
0.053145
0.046784
0.060099
0.072875
0.052453
0.039863
0.031984
0.034246
0.045064
0.048159
0.038028
0.024512
0.028045
0.040273
0.013382
0.000565
-0.011154
-0.002379
0.006801
0.008236
0.013459
0.032739
0.018066
0.008233
0.020732
0.021589
0.041594
0.022185
0.013026
0.025541
0.012685
-0.010638
-0.009506
-0.019771
-0.036139
-0.014153
-0.000122
-0.010053
-0.001517
0.004248
0.006137
0.007086
0.017687
0.026109
0.037084
0.040499
0.02616
0.035556
0.010581
0.01862
0.039085
-0.010669
-0.040318
-0.019935
-0.042287
-0.01213
-0.000053
-0.021567
-0.008578
-0.023717
-0.017704
-0.002014
-0.000808
0.001049
0.008244
0.022326
0.015326
0.01196
-0.025415
0.005243
0.005995
0.008051
-0.003825
-0.005668
-0.02903
-0.029569
-0.025873
-0.008985
-0.016391
-0.005314
0.019765
0.005228
-0.006504
0.029165
0.035827
0.038296
0.051062
0.033067
0.029086
0.025268
0.021393
0.02514
0.006451
0.00357
-0.014361
-0.026433
-0.00805
-0.029238
-0.01176
-0.008328
0.001306
0.001498
0.017131
0.03069
0.034306
0.020922
0.014122
0.012371
0.014996
0.020891
0.011218
0.006537
-0.000316
0.012393
-0.028845
-0.048946
-0.028884
-0.040842
-0.028088
-0.015058
0.000945
0.001556
0.028292
0.016405
0.031269
0.039751
0.041071
0.051885
0.040229
0.025203
0.019161
0.016888
0.008264
0.006959
-0.006864
-0.000264
0.003332
0.02347
-0.007596
-0.00384
-0.000579
0.006555
0.011796
0.018422
0.017919
0.011551
0.011808
0.025001
0.042949
0.009767
0.017669
0.022049
0.000366
0.011539
-0.018954
-0.030826
-0.020764
-0.023651
-0.005783
-0.000007
-0.003978
0.010764
0.013321
0.012802
0.033035
0.030891
0.040303
0.044165
-0.002493
0.017218
0.033215
-0.010464
0.001626
-0.015882
-0.010549
-0.017216
-0.023448
-0.026512
0.004019
0.018965
0.013409
0.005589
0.000171
-0.001677
0.010156
0.013318
0.023506
0.014289
0.020407
0.015642
0.035751
0.016848
0.008649
0.000541
-0.022976
-0.041247
-0.027803
-0.020757
-0.019856
-0.006036
0.005343
0.01091
0.002615
0.016052
0.015719
0.038492
0.050135
0.031787
0.024731
0.011776
-0.001897
-0.013157
-0.021283
-0.014908
-0.007767
-0.000462
-0.020923
-0.033551
-0.026781
-0.004338
0.010774
0.006093
0.011152
0.03558
0.03889
0.048493
0.047945
0.05335
0.049208
-0.008264
-0.01828
0.000853
-0.000238
-0.001254
-0.006841
-0.000742
0.003747
-0.016119
-0.031235
-0.024095
-0.010761
-0.011717
0.009968
0.01065
0.005934
0.018533
0.009451
0.010749
0.016855
0.007275
-0.006343
-0.008335
0.01632
-0.015629
-0.016437
-0.011558
-0.035554
-0.032105
-0.008683
0.004349
-0.024691
-0.018183
-0.024822
-0.018178
0.005238
0.017067
0.046618
0.043546
0.011529
0.000641
-0.013839
-0.016175
-0.01263
-0.008183
-0.024117
-0.017028
-0.018766
0.003387
-0.031481
-0.015157
-0.013952
0.010973
0.038207
0.021546
0.014916
0.011929
0.02515
0.007913
0.015723
0.030562
0.035523
-0.020743
0.005269
-0.025713
-0.038723
-0.018702
-0.035096
-0.039763
-0.025472
-0.022912
-0.013289
0.004209
0.024871
0.003048
-0.032104
-0.01333
0.02513
0.026538
0.026528
0.029691
0.002453
-0.001756
0.017829
-0.003783
-0.013135
0.01319
0.025511
-0.010048
-0.011035
0.025705
-0.029531
0.000772
-0.006187
0.023865
0.029706
0.025057
0.021099
0.03581
0.040673
0.035427
0.044201
0.036007
0.005715
-0.00876
-0.023542
-0.008715
-0.029179
-0.045536
-0.022677
-0.005832
0.006414
0.004171
0.021581
0.052362
0.057864
0.061741
0.068077
0.086075
0.09311
0.068474
0.044309
0.043455
0.03422
0.021689
0.013613
-0.007921
0.003491
0.010072
0.009687
0.023568
0.03179
0.042916
0.037071
0.056628
0.053653
0.039336
0.047689
0.033872
0.063572
0.086015
0.079008
0.061137
0.044534
0.018215
0.017133
0.015541
0.002666
0.003427
-0.009842
-0.008339
0.023625
0.02646
0.022911
0.019272
0.01712
0.022405
0.031041
0.016676
0.013697
0.009957
0.010337
0.00231
-0.007811
-0.023005
-0.019869
-0.026946
-0.016233
-0.018716
-0.015922
-0.01029
-0.012874
-0.014124
-0.008506
0.001938
0.013352
0.019813
0.012737
0.010914
-0.015227
-0.00239
0.010527
-0.000822
-0.02625
-0.027588
-0.009592
-0.016795
-0.044856
-0.063153
-0.046174
-0.038211
-0.035148
-0.019748
0.004008
0.018772
0.019003
0.018834
0.014616
0.006504
-0.006615
-0.005944
-0.023041
-0.0294
-0.043647
-0.045992
-0.036858
-0.029603
-0.040437
-0.008504
-0.005919
-0.046382
-0.019181
0.00935
-0.000863
-0.017073
-0.020701
-0.001422
0.001979
-0.002351
0.006916
0.003306
-0.000937
-0.002701
-0.029618
-0.050884
-0.040728
-0.039656
-0.0607
-0.036463
-0.044855
-0.041362
-0.034172
-0.010511
-0.015612
-0.002029
0.010633
0.00401
0.003603
0.003199
0.003984
0.007863
0.010952
-0.006187
-0.016841
-0.033921
-0.043114
-0.032007
-0.034954
-0.03291
-0.044398
-0.031876
-0.053226
-0.033197
-0.010781
-0.009198
-0.004893
-0.004693
-0.013573
-0.001751
0.01043
0.002919
-0.009465
-0.034509
-0.011821
-0.018719
-0.011931
-0.014829
0.010935
0.008989
0.016934
0.044885
0.086529
0.108199
0.150782
0.183051
0.208493
0.239301
0.250513
0.267795
0.281411
0.29825
0.317782
0.33175
0.35544
0.328116
0.326375
0.323592
0.311643
0.30465
0.286443
0.283347
0.277504
0.270683
0.246974
0.221829
0.215365
0.208684
0.186887
0.174184
0.153787
0.120367
0.086917
0.048525
0.032349
-0.007087
-0.037911
-0.093284
-0.10406
-0.120892
-0.133406
-0.144743
-0.144132
-0.122909
-0.094563
-0.081178
-0.052382
-0.026643
-0.023542
-0.011007
-0.008772
0.003238
-0.002906
-0.018381
-0.019355
-0.018736
-0.017442
-0.025364
-0.012792
-0.023864
-0.021053
-0.031732
-0.012582
0.00125
0.004113
-0.001007
0.011126
0.029935
0.035353
0.042663
0.036491
0.027821
0.02829
0.004548
-0.006224
-0.012682
-0.045024
-0.028781
-0.019946
-0.03283
-0.02227
-0.015882
-0.016354
0.023238
0.030073
0.014154
0.023779
0.044291
0.026
0.020842
0.032845
0.014675
0.010686
0.02021
-0.009699
-0.026522
-0.016687
-0.028128
-0.017087
0.00094
0.001669
-0.005779
-0.021542
-0.007144
-0.001392
0.011143
0.011075
0.023526
0.032572
0.039898
0.03499
0.036544
0.029979
0.021168
-0.007313
-0.020273
-0.01709
-0.009313
-0.011624
0.006051
0.00901
0.002194
0.010476
0.034697
0.033486
0.033278
0.035906
0.043367
0.046217
0.040952
0.03261
0.052503
0.030582
0.013225
0.018794
0.014807
-0.003052
-0.002938
-0.007584
-0.000005
-0.011427
0.014053
0.025891
0.01638
0.028634
0.018161
0.032273
0.049044
0.042919
0.054187
0.030867
0.034875
0.041439
0.044959
0.055888
0.039057
0.01993
0.02089
0.032079
0.009865
0.011477
0.012731
0.024431
0.040642
0.031753
0.055094
0.058588
0.049755
0.051842
0.038781
0.033539
0.02953
0.047799
0.055209
0.035243
0.021019
0.02965
0.026468
0.031054
0.031985
0.01748
0.0285
0.052523
0.05181
0.037786
0.033909
0.079387
0.06978
0.049911
0.064524
0.043414
0.04321
0.034919
0.079196
0.070447
0.02871
0.027761
0.017881
0.018767
0.030589
0.040837
0.070344
0.048581
0.041425
0.089424
0.095534
0.105053
0.115964
0.102629
0.084702
0.099739
0.100965
0.124174
0.117305
0.072699
0.064107
0.054886
0.073879
0.068138
0.056617
0.059137
0.057246
0.055739
0.085395
0.083434
0.095971
0.105078
0.119875
0.132415
0.124666
0.126754
0.143253
0.143953
0.100184
0.120767
0.099517
0.103578
0.101294
0.088608
0.100245
0.116208
0.116337
0.120006
0.132828
0.146544
0.139487
0.141268
0.159069
0.133307
0.138421
0.135878
0.131293
0.106092
0.123582
0.120461
0.137255
0.139331
0.109218
0.104355
0.113938
0.116448
0.13786
0.13413
0.142579
0.146558
0.162599
0.146504
0.174216
0.191384
0.195782
0.182169
0.201473
0.177018
0.163494
0.147153
0.137339
0.147546
0.145095
0.131833
0.14289
0.139726
0.118561
0.149324
0.16444
0.17119
0.170744
0.186477
0.163866
0.183434
0.170919
0.170153
0.155781
0.152948
0.13331
0.136665
0.136924
0.144362
0.143814
0.134828
0.11541
0.100143
0.086227
0.088912
0.104236
0.12725
0.128861
0.11546
0.131239
0.125497
0.09369
0.0909
0.091944
0.076039
0.083921
0.065485
0.048764
0.04735
0.041149
0.033768
0.025376
0.045466
0.042388
0.053356
0.075075
0.070707
0.053927
0.055533
0.058062
0.057532
0.051449
0.076965
0.079479
0.059033
0.040841
0.040209
0.032764
0.028665
0.007014
0.021124
0.01929
0.02568
0.027377
0.021274
0.013835
0.019048
0.03093
0.030733
0.030522
0.027889
0.031812
0.029312
0.032062
0.023812
0.015997
0.001523
-0.009585
-0.013443
-0.024363
-0.005659
0.000781
-0.005456
0.00854
0.025106
0.012481
0.005125
0.019602
0.02443
0.031706
0.033853
0.025577
0.029785
0.028787
0.031331
0.014411
0.001042
0.005649
0.004282
0.003017
-0.004976
-0.007444
-0.014329
-0.012968
-0.007841
0.005527
0.01557
0.020258
0.038841
0.048447
0.024332
0.009882
0.026399
0.034537
0.023718
0.00165
-0.017394
-0.000315
0.013353
0.012476
-0.002747
-0.032628
-0.018421
-0.015234
-0.017855
0.006862
0.007274
0.004065
0.018544
0.004072
0.029225
0.022394
0.013678
0.000298
0.010486
0.005531
0.010417
-0.001218
0.008929
0.004909
0.012819
-0.000267
-0.018462
-0.018718
0.008643
0.01309
0.01924
0.022511
0.024561
0.02569
0.035876
0.0387
0.037592
0.02396
0.023418
0.008215
0.011059
-0.004172
-0.020854
-0.023698
-0.00504
-0.001722
0.00024
-0.012425
-0.016559
0.008237
0.009864
0.054383
0.060889
0.07099
0.032094
0.042737
0.069555
0.046561
0.02201
0.02759
0.007271
0.003847
0.015221
0.002403
0.002674
-0.003556
-0.002476
0.013856
0.007545
0.010699
0.006548
0.041406
0.048033
0.049629
0.029176
0.036246
0.033866
0.031977
0.032172
0.019598
0.012267
0.007551
-0.00826
-0.018439
-0.013836
-0.020735
-0.007743
0.000882
0.00613
-0.00737
-0.013135
-0.005336
0.042477
0.069824
0.050751
0.052378
0.048076
0.020348
0.036124
0.040456
0.039542
0.018754
0.000991
-0.001051
-0.003946
-0.008244
-0.008474
-0.010906
-0.001531
0.011672
0.022482
0.011086
-0.009356
0.015266
0.003997
0.019472
0.027312
0.019786
0.021437
0.037719
0.048507
-0.000439
-0.002596
-0.02241
-0.014101
-0.012966
-0.007541
-0.012233
-0.027368
0.009193
0.005405
0.020893
0.038113
0.051023
0.051714
0.033605
0.030497
0.035327
0.034323
0.001563
0.00864
0.021585
0.02505
0.018595
0.012643
0.003819
-0.006756
-0.002163
-0.004328
0.007514
0.019403
0.040531
0.037166
0.027779
0.02819
0.023688
0.029697
0.035633
0.018659
0.016589
0.018301
-0.000523
-0.009374
-0.010419
-0.026428
-0.004803
0.006709
-0.025036
-0.007561
-0.007405
0.003958
0.008421
0.03635
0.034312
0.039958
0.01996
0.039441
0.012056
0.002639
-0.001048
0.010857
0.001599
-0.018361
-0.013249
0.001569
-0.012676
-0.023118
-0.009637
-0.017146
0.001725
0.006425
0.019824
0.021979
0.032387
0.038934
0.042131
0.027048
0.020121
0.015489
0.010484
0.01886
0.016867
0.007618
-0.003964
-0.002836
0.016494
0.013368
-0.013747
-0.006881
-0.016072
-0.007688
-0.00577
0.011337
0.002473
0.010566
0.01867
0.006656
0.010782
0.024473
0.053836
0.054989
0.030318
0.004457
0.006125
-0.015516
0.001315
0.002365
-0.011053
-0.02397
-0.000666
0.021953
0.028377
0.03774
0.034783
0.044829
0.05469
0.043063
0.032361
0.060499
0.031798
0.020403
0.025787
0.035388
0.00625
-0.019484
-0.019041
-0.030083
0.006383
-0.00055
-0.001491
0.019287
0.017047
0.024328
0.041278
0.050863
0.050789
0.034967
0.049557
0.045596
0.040467
0.03239
0.019576
0.009916
0.015252
0.005611
-0.014196
-0.004038
0.000675
0.002317
0.035419
0.041201
0.066055
0.063331
0.061899
0.065806
0.058972
0.046633
0.057944
0.05368
0.053754
0.044857
0.037214
0.036653
0.049942
0.027705
0.01575
0.03761
0.039738
0.038844
0.035665
0.037638
0.043334
0.055469
0.05648
0.06006
0.068377
0.077444
0.069969
0.075949
0.052649
0.060645
0.054997
0.045856
0.036786
0.026935
0.019223
0.007705
0.027314
0.022875
0.008723
0.022514
0.021649
0.04078
0.052019
0.066829
0.072992
0.058922
0.048889
0.030298
0.05853
0.034036
0.028191
0.032981
0.033938
0.01944
0.025249
0.021001
0.020754
0.024124
0.01092
-0.008159
0.008912
0.017296
0.025096
0.036467
0.022078
0.032536
0.040918
0.042143
0.019465
0.008953
-0.011822
-0.035654
-0.02237
-0.020793
-0.016802
-0.016213
-0.025626
-0.000969
0.011557
-0.00402
0.017973
0.02612
0.020199
0.047374
0.042435
0.029338
0.022398
0.036843
0.031174
-0.020967
-0.020643
-0.014985
-0.010636
-0.034641
-0.035028
-0.038901
-0.018621
-0.052229
-0.035189
-0.005535
0.013736
-0.001089
-0.008174
0.028651
0.023185
0.020785
0.011552
0.013112
0.014178
0.007238
-0.003743
-0.006063
0.000431
-0.01345
-0.022194
-0.016951
-0.02056
-0.028456
-0.013844
-0.024318
-0.004852
0.009745
-0.013665
-0.015609
0.009985
0.007897
-0.000541
-0.015839
0.004999
0.012559
0.009856
0.019233
-0.011266
-0.007596
-0.007487
-0.035479
-0.040733
-0.020895
-0.00979
-0.00963
0.000081
0.017398
0.006187
0.006759
0.013273
-0.00264
0.004321
0.00593
-0.000835
-0.007839
-0.001899
-0.015025
-0.003229
0.004393
-0.001246
-0.003925
-0.016141
-0.010972
0.011521
0.011931
0.027014
0.053111
0.067889
0.071361
0.086966
0.142066
0.166179
0.184849
0.208639
0.217702
0.214838
0.235741
0.257106
0.259762
0.254994
0.284699
0.332656
0.332929
0.3204
0.32429
0.342942
0.356733
0.367059
0.373141
0.368851
0.34433
0.30218
0.295166
0.267818
0.249621
0.244174
0.204792
0.182309
0.157606
0.100879
0.075065
0.046252
0.019584
-0.00653
-0.031169
-0.044328
-0.056145
-0.069298
-0.073145
-0.079055
-0.054626
-0.081592
-0.07016
-0.051911
-0.048057
-0.062756
-0.055616
-0.031753
-0.030888
-0.02145
-0.02578
-0.023051
-0.018472
-0.003051
0.020671
0.021834
0.024453
0.018061
0.028953
0.041972
0.027425
0.027187
0.046334
0.024874
0.012315
0.0016
-0.0072
0.027745
0.003437
0.006071
0.003198
-0.005553
0.003361
0.00903
0.01151
0.036183
0.034048
0.015241
0.026472
0.030298
0.03393
0.027514
0.018012
0.019644
0.018537
0.019774
-0.008076
-0.006789
0.014497
0.010335
0.013963
0.011826
0.010834
0.012739
0.016738
0.035111
0.034567
0.034546
0.043238
0.042144
0.031186
0.041629
0.052845
0.054372
0.039876
0.022192
0.014521
0.015952
0.020065
0.017444
0.024683
0.016257
0.002797
0.023476
0.01355
0.017979
0.038304
0.047209
0.051198
0.050046
0.047453
0.055161
0.061535
0.070487
0.044279
0.034061
0.019116
0.01277
0.028977
0.026878
-0.004327
-0.007183
0.022593
0.032598
0.054648
0.040358
0.025285
0.046638
0.055946
0.062401
0.05166
0.057279
0.036124
0.028014
0.009178
0.050933
0.061234
0.052758
0.013244
0.006726
0.013083
0.015386
0.031231
0.034583
0.038411
0.060836
0.073645
0.052617
0.058858
0.063179
0.066867
0.073985
0.065838
0.058072
0.031413
0.045367
0.050544
0.050329
0.017744
0.032266
0.02619
0.060866
0.011358
0.035478
0.032629
0.027864
0.043298
0.062379
0.081352
0.049822
0.052694
0.070964
0.049321
0.039065
0.033996
0.064789
0.085007
0.082156
0.071939
0.065207
0.066337
0.074013
0.071167
0.0734
0.092973
0.098911
0.095938
0.094129
0.096196
0.110855
0.106524
0.103334
0.105844
0.086129
0.092711
0.113525
0.117417
0.100321
0.089627
0.073187
0.070607
0.078401
0.062569
0.077834
0.081238
0.076738
0.104652
0.123763
0.136472
0.108403
0.125411
0.126127
0.110386
0.137849
0.126959
0.108126
0.111434
0.10792
0.111469
0.101038
0.121073
0.111213
0.118684
0.118102
0.137843
0.132438
0.120031
0.133212
0.145834
0.141789
0.160981
0.160293
0.154649
0.171801
0.150559
0.136238
0.113169
0.119021
0.1027
0.096377
0.110538
0.124877
0.140763
0.140458
0.127177
0.14719
0.166365
0.193003
0.189168
0.181256
0.172703
0.182993
0.188685
0.176561
0.167512
0.159333
0.138017
0.161698
0.134867
0.128623
0.151333
0.164651
0.163717
0.15287
0.15802
0.156995
0.175304
0.178848
0.190814
0.187857
0.203775
0.200216
0.204365
0.195777
0.197199
0.177806
0.149929
0.155834
0.160963
0.151283
0.14575
0.148666
0.155587
0.163504
0.147435
0.137061
0.144023
0.162406
0.178114
0.170461
0.166198
0.158295
0.131491
0.132925
0.161437
0.132918
0.110203
0.105534
0.097713
0.077137
0.070961
0.060777
0.062311
0.067756
0.074156
0.087143
0.106997
0.106708
0.107916
0.108393
0.108124
0.091446
0.093969
0.096826
0.071711
0.063252
0.040485
0.02782
0.028731
0.029703
0.008075
0.017936
0.025153
0.023283
0.032363
0.037974
0.051492
0.069323
0.065307
0.052029
0.055196
0.055253
0.059836
0.060782
0.063153
0.043765
0.023072
0.017792
0.02043
0.019303
0.017653
0.019499
0.00932
0.004898
0.022808
0.041137
0.045981
0.027303
0.023987
0.039173
0.052468
0.043978
0.039544
0.041192
0.026063
0.041667
0.034976
0.002687
0.004933
-0.004953
0.008675
-0.010849
-0.004054
0.000739
-0.003011
0.012893
0.020158
0.026937
0.040577
0.044638
0.044681
0.042561
0.041243
0.038203
0.012682
-0.005479
0.007317
0.006919
-0.015065
-0.004272
0.003441
0.014663
0.007211
0.006686
0.027055
0.030928
0.01731
0.006892
0.048662
0.048906
0.061995
0.057292
0.049137
0.035926
0.019536
0.028718
0.028023
0.038359
0.05034
0.030211
-0.003213
0.012073
0.02106
0.016774
0.009162
-0.00084
0.00189
0.0199
0.044418
0.058022
0.049597
0.045763
0.038931
0.041047
0.029095
0.023298
0.021951
0.038645
0.015363
-0.005092
0.007318
0.007369
0.014424
0.019384
0.017509
0.02217
0.010992
0.009181
0.033883
0.04805
0.065564
0.04897
0.047077
0.062283
0.028569
0.031658
0.041366
0.02441
0.008125
0.010517
-0.010863
-0.012727
0.000483
0.008074
0.028946
0.023674
0.037919
0.061782
0.051429
0.053212
0.050282
0.056473
0.046729
0.036982
0.044083
0.033307
0.02402
0.012269
-0.006416
0.004723
0.001122
-0.006497
0.010029
0.030297
0.026942
0.017069
0.032719
0.042212
0.02305
0.031666
0.040062
0.048055
0.035654
0.032949
0.024208
0.018538
0.014711
0.015262
-0.00569
-0.003222
-0.005941
-0.009132
-0.005689
-0.003855
-0.010004
-0.009929
0.017313
0.049397
0.053277
0.066463
0.050892
0.054615
0.045154
0.041615
0.032947
0.007666
0.003572
0.021363
0.023159
-0.007919
0.004062
0.004182
0.004129
0.019528
0.031489
0.012398
0.01875
0.022844
0.01911
0.035759
0.04514
0.036514
0.039532
0.057907
0.056083
0.022681
0.018128
0.020835
-0.002532
-0.001033
0.005463
-0.005965
-0.001483
-0.003222
0.001604
0.008344
0.01448
0.030963
0.044204
0.065207
0.057451
0.048168
0.037549
0.05431
0.020978
0.008179
0.008028
-0.004775
0.004909
0.00879
0.004336
-0.010492
-0.018778
-0.018228
-0.006172
0.011962
0.018964
0.043737
0.056775
0.052606
0.056484
0.040815
0.046738
0.041579
0.023808
-0.001888
-0.00243
-0.004
-0.012907
-0.013981
-0.005998
0.000661
0.008494
0.009064
0.008917
0.009048
-0.006757
0.021606
0.021573
0.022171
0.040727
0.029733
0.035556
0.04293
0.0272
0.008705
-0.008736
0.011743
0.003962
-0.002573
-0.015948
-0.003199
-0.005047
-0.000044
0.013037
0.002772
0.009254
0.026892
0.027508
0.019541
0.006185
0.044887
0.040878
0.046417
0.013119
0.009166
0.000032
-0.00852
0.008581
0.003443
-0.00389
-0.00309
0.014836
-0.009717
-0.007468
-0.005382
0.030378
0.038313
0.01417
0.012412
0.03852
0.042823
0.023256
0.028688
0.008478
0.018954
0.01313
0.007465
0.016819
0.012609
0.005749
0.020698
0.006603
-0.011186
-0.009109
0.002417
0.015177
0.029483
0.051377
0.051757
0.04734
0.036198
0.034782
0.037494
0.037688
0.031807
0.015344
0.009197
-0.000013
0.004706
0.015759
0.004374
-0.031042
0.009015
0.023041
0.020036
0.024204
0.045082
0.042167
0.041542
0.033136
0.033592
0.04744
0.062342
0.035246
0.024962
0.050974
0.051485
0.050818
0.032987
0.031794
0.027574
0.012674
0.027101
0.039182
0.049909
0.035701
0.043249
0.049158
0.042768
0.05711
0.064927
0.060009
0.061974
0.064321
0.032897
0.02594
0.043424
0.043847
0.037972
0.030965
0.027898
0.053118
0.048367
0.031715
0.039939
0.047114
0.039455
0.045233
0.058361
0.06734
0.053379
0.03754
0.032348
0.00839
0.010222
0.007791
-0.003296
-0.010423
-0.032287
-0.008331
0.005444
-0.018973
0.000675
0.002323
-0.020452
0.001109
0.023645
0.01246
0.010795
0.032039
0.031094
0.030525
0.025701
0.034487
0.013978
0.016433
-0.002261
0.028178
0.025465
0.013649
-0.001513
-0.005696
-0.028333
-0.008633
0.007654
-0.004546
-0.002814
0.010028
0.017627
-0.000562
0.018638
0.017082
0.009568
0.006719
-0.004572
0.008749
-0.010709
-0.007027
-0.01651
-0.01979
-0.02445
-0.001253
-0.021551
-0.012605
-0.013032
0.010144
-0.000269
-0.00388
0.005421
0.011101
0.013191
0.028157
0.003004
-0.0049
-0.009394
-0.013702
-0.037979
-0.039936
-0.048366
-0.039569
-0.039919
-0.052054
-0.036947
-0.027936
-0.027641
-0.018246
0.000927
0.014827
0.040403
0.042126
0.022799
0.010562
0.006715
0.001732
-0.014346
-0.018264
-0.026683
-0.028671
-0.015903
-0.009233
0.003703
-0.003906
-0.009219
-0.01757
-0.009445
0.008708
0.019426
0.008688
0.036325
0.039785
0.026533
0.036615
0.005457
0.010716
-0.007276
-0.02158
-0.015735
-0.026314
-0.027539
-0.028917
-0.02229
-0.016206
0.005258
0.023857
0.008862
0.014773
0.046366
0.068622
0.082432
0.101394
0.133969
0.158096
0.169232
0.185519
0.202147
0.229387
0.2388
0.258539
0.260023
0.246873
0.271816
0.298103
0.314728
0.32052
0.33699
0.325109
0.331122
0.335052
0.319446
0.30801
0.290147
0.286087
0.257973
0.245017
0.219608
0.204884
0.155722
0.132748
0.10235
0.066758
0.023166
-0.007087
-0.023781
-0.050755
-0.056696
-0.073207
-0.080861
-0.078575
-0.076888
-0.074949
-0.10951
-0.098782
-0.091213
-0.066418
-0.069913
-0.084772
-0.088048
-0.052527
-0.050756
-0.055772
-0.064113
-0.036305
-0.041049
-0.013205
0.013766
-0.006776
0.03509
0.043025
0.007248
0.019146
0.056815
0.048596
0.031996
0.002965
0.009479
0.000535
0.004739
-0.000249
0.011356
0.006385
-0.008089
-0.009653
0.017451
-0.012467
-0.021
-0.00461
0.025132
0.020436
0.026232
0.038753
0.035283
0.0314
0.029997
0.034748
0.047576
0.036493
0.027753
0.02854
0.010035
0.011889
0.001988
0.003917
0.01052
-0.00866
-0.001102
0.021094
0.021018
0.009147
0.028273
0.058408
0.057366
0.059985
0.026575
0.051028
0.03696
0.017102
-0.005722
-0.01511
-0.026575
-0.000814
0.009125
0.000954
-0.013362
-0.006796
0.02115
0.02605
0.013753
0.031334
0.032185
0.039223
0.055365
0.057189
0.046838
0.043724
0.031042
0.02668
0.002757
0.001818
0.000983
0.010246
0.007889
0.007125
-0.012668
0.019847
0.024184
0.034259
0.031891
0.024981
0.038204
0.065399
0.058982
0.059774
0.055248
0.066159
0.035854
0.036582
0.033879
0.008888
0.008875
0.00216
0.004965
0.029795
0.01981
0.02189
-0.014786
-0.011739
0.022206
0.041929
0.050832
0.050792
0.044993
0.041702
0.035105
0.042776
0.043666
0.040448
0.041513
0.028112
0.03191
0.029491
0.037416
0.036192
0.046693
0.054371
0.060038
0.061467
0.07738
0.047043
0.077717
0.082473
0.075806
0.065247
0.066665
0.059932
0.070061
0.063408
0.070665
0.055272
0.061213
0.047757
0.052049
0.06237
0.043959
0.038935
0.057522
0.070394
0.073454
0.085903
0.075168
0.084012
0.082445
0.102108
0.109558
0.105237
0.097112
0.081325
0.080022
0.06436
0.05378
0.051409
0.055775
0.058191
0.06983
0.071975
0.071555
0.080783
0.094372
0.109512
0.117085
0.116514
0.089975
0.0987
0.103991
0.08654
0.071786
0.110849
0.099492
0.111342
0.114899
0.107297
0.113467
0.117479
0.09555
0.097009
0.090865
0.090469
0.119743
0.132939
0.138319
0.146788
0.146413
0.148103
0.146125
0.131084
0.137714
0.128563
0.125993
0.117589
0.125762
0.132772
0.133179
0.125817
0.118461
0.116354
0.125536
0.123363
0.132052
0.136947
0.132093
0.143599
0.129889
0.164168
0.180799
0.185918
0.169644
0.156765
0.137722
0.153796
0.132855
0.136495
0.131654
0.14296
0.155553
0.148211
0.146346
0.147476
0.148333
0.167614
0.181763
0.180181
0.16299
0.167797
0.170543
0.185034
0.169811
0.168584
0.155994
0.157146
0.149924
0.143953
0.136192
0.12723
0.12122
0.113314
0.122597
0.127877
0.11196
0.13161
0.140533
0.120466
0.112983
0.109595
0.143566
0.129883
0.135773
0.124401
0.114131
0.104357
0.088872
0.082351
0.034105
0.042393
0.051358
0.037755
0.033894
0.055135
0.063815
0.095403
0.069722
0.050822
0.044765
0.072672
0.074093
0.074866
0.066626
0.056762
0.042991
0.053691
0.034078
0.007963
0.01889
0.022737
-0.006353
0.00473
0.016182
0.021885
0.01982
0.04552
0.042276
0.041117
0.037907
0.039959
0.05894
0.047456
0.039152
0.030429
0.012848
0.014102
-0.008072
-0.02169
-0.019702
-0.028054
-0.039507
-0.013443
-0.007703
0.002749
0.008326
0.034522
0.043713
0.032869
0.029746
0.025239
0.002496
-0.004928
0.0149
0.015767
-0.007433
-0.014856
-0.009734
-0.010759
-0.017407
-0.008563
-0.011531
-0.005262
0.006758
0.010169
0.016532
0.016649
0.026737
0.033703
0.035462
0.034947
0.04564
0.03143
0.005757
0.005324
0.006796
-0.004497
-0.021566
-0.017098
-0.018489
-0.010246
0.003144
-0.025618
-0.013402
-0.007334
0.005862
0.005967
0.003688
0.024486
0.021548
0.019445
0.020687
0.026937
0.014663
0.004618
-0.017945
-0.01388
-0.021479
-0.016895
-0.00975
0.010321
-0.003456
0.014438
-0.017108
-0.007686
-0.000813
0.001958
0.02473
0.030136
0.032339
0.044547
0.034541
0.035475
0.027301
0.028549
0.026641
0.006144
-0.007996
0.014098
0.004615
-0.01138
-0.004225
0.001413
0.001687
0.009213
-0.00287
-0.008124
0.007684
0.026619
0.006852
0.022823
0.028898
0.015087
0.027634
0.002656
0.018105
0.029098
0.006893
-0.003055
-0.030397
-0.014803
-0.002084
0.002654
-0.010192
-0.010248
0.01925
0.028494
0.010557
0.025293
0.032999
0.048531
0.058754
0.059052
0.030785
0.032915
0.03874
0.02095
-0.028277
-0.00451
-0.006778
0.01019
-0.000379
0.000331
-0.000277
0.004838
0.000447
0.013705
0.018658
0.018236
0.006774
0.003856
0.020827
0.025987
0.032131
0.022353
0.0051
-0.000169
0.000764
-0.012236
0.010906
-0.01557
-0.0149
0.000211
0.015264
-0.004704
0.021865
0.023842
0.016195
0.020443
0.016634
0.001722
0.017663
0.004487
0.014118
0.016467
0.007155
0.002186
-0.0126
-0.009694
-0.016382
-0.010813
0.004144
-0.004063
-0.004039
0.010047
0.012148
0.005848
0.002387
0.007946
0.021128
0.021757
0.015264
0.01893
0.022192
0.044267
0.024434
-0.010337
0.015694
0.009134
0.0172
0.000155
-0.013557
-0.003014
-0.015369
0.000019
-0.000928
-0.004023
0.008302
0.007852
0.009523
0.002717
0.019216
0.029286
0.010216
-0.006917
-0.0054
-0.010415
-0.023233
-0.028873
-0.022562
-0.031583
-0.040088
-0.022629
-0.014473
0.000469
-0.016001
-0.002563
0.023501
0.01663
0.042496
0.040226
0.028119
0.011155
0.015397
0.015163
-0.004207
-0.032411
-0.021642
-0.020012
-0.029228
-0.006538
-0.001729
-0.000755
-0.02413
-0.008722
0.011805
0.006238
0.001159
0.032672
0.031217
0.006629
0.022254
0.008331
-0.005827
-0.020991
-0.022383
-0.008321
-0.013813
-0.02733
-0.038379
-0.045412
-0.035145
-0.011976
-0.021486
-0.012736
-0.01836
-0.011206
0.003698
0.02803
0.046922
0.063318
0.046843
0.030462
0.021653
0.011348
0.005637
-0.007567
-0.02874
-0.033315
-0.044245
-0.036646
-0.046058
-0.030466
0.002221
-0.009083
0.008051
0.02909
0.016385
0.028695
0.009613
0.021455
0.033887
0.039746
0.052142
0.03245
0.012278
0.004456
-0.011522
-0.008372
-0.02291
-0.018679
-0.008912
-0.016087
0.00285
0.016611
0.033165
0.011655
0.028426
0.032257
0.037796
0.031214
0.033315
0.019897
0.008106
-0.013609
0.002734
0.024709
0.027584
0.024688
0.038138
0.028454
0.006561
0.023933
0.016866
0.014457
0.029835
0.017647
0.037395
0.051043
0.038888
0.042239
0.054401
0.063223
0.034314
0.033639
0.040491
0.038353
0.029515
0.032287
0.03521
0.044269
0.06284
0.060427
0.055281
0.031434
0.025002
0.036813
0.029231
0.021592
0.007837
0.020507
0.034476
0.03521
0.033272
0.01693
0.001935
-0.007158
-0.005511
-0.027458
-0.015449
-0.036189
-0.036816
-0.029456
-0.013163
-0.01691
-0.021114
-0.000251
0.006386
0.011252
0.02438
-0.005138
0.002218
0.01742
0.019125
0.015895
0.009473
0.019027
0.002918
-0.008072
-0.033668
-0.040536
-0.03129
-0.030151
-0.0322
-0.016752
-0.022741
-0.015622
-0.007301
-0.001167
0.013554
0.015094
0.013482
-0.001788
-0.021759
-0.001892
-0.013857
-0.018065
-0.016245
-0.030035
-0.009921
-0.035563
-0.04652
-0.024236
-0.045743
-0.028193
-0.002108
0.001794
-0.00071
-0.003748
-0.00481
-0.013114
-0.00415
0.016066
0.01151
-0.016212
-0.030961
-0.039229
-0.032599
-0.023945
-0.026822
-0.056524
-0.058369
-0.056263
-0.050091
-0.02197
-0.007182
-0.009198
-0.006874
0.003033
0.020075
0.018447
0.012645
-0.014714
-0.00559
-0.013007
0.010856
-0.008052
-0.017844
-0.031842
-0.027781
-0.028942
-0.043052
-0.058298
-0.029695
-0.025058
-0.003116
-0.011871
-0.02693
-0.01826
0.006393
0.033209
-0.008302
0.005835
0.003967
-0.009484
-0.015846
-0.026352
-0.039496
-0.035497
-0.055952
-0.032317
-0.016815
-0.006579
-0.025409
0.013722
0.021426
0.010808
0.021914
0.060614
0.033284
0.047978
0.063903
0.109826
0.161192
0.165278
0.160902
0.168168
0.180498
0.208044
0.229215
0.231051
0.246345
0.273081
0.298658
0.314539
0.326729
0.333215
0.325023
0.326353
0.335611
0.308196
0.29834
0.294511
0.270831
0.259164
0.21576
0.203238
0.166224
0.135575
0.102044
0.06051
0.051201
0.020884
-0.000042
-0.016749
-0.022967
-0.048377
-0.078266
-0.067947
-0.084399
-0.101514
-0.099898
-0.104276
-0.085405
-0.082231
-0.082797
-0.069708
-0.063428
-0.051141
-0.033208
-0.037907
-0.030458
-0.025125
-0.029675
-0.023199
0.004953
0.008674
-0.011695
-0.011005
0.006921
0.009367
0.003038
-0.001773
0.011658
0.011351
0.002547
0.006513
-0.000282
-0.006335
-0.009988
-0.016467
-0.018797
-0.021482
-0.008717
0.00843
0.029287
-0.011382
0.044282
0.040307
0.024946
0.021344
0.019635
-0.003634
0.025116
0.026632
-0.029588
-0.009626
-0.008784
-0.002313
-0.001363
-0.014794
-0.027596
-0.02137
-0.016372
0.010458
0.023141
0.013972
0.003978
0.005707
0.023672
0.035506
0.071283
0.051912
0.003061
0.022617
-0.003412
-0.010655
-0.032529
-0.029426
-0.01862
0.007765
-0.02313
-0.014207
-0.009227
-0.013604
0.001872
0.00473
-0.002632
0.019239
0.044548
0.024547
0.044637
0.050441
0.037283
0.024335
0.010769
0.03021
0.031352
0.002381
-0.006686
-0.018672
-0.017572
-0.00388
-0.010069
-0.002588
0.01961
0.024007
0.022465
0.021466
0.034261
0.05641
0.0306
0.014439
0.008411
-0.001058
0.002537
0.030937
0.022366
0.036705
0.024027
0.012542
0.008537
0.017112
-0.000247
-0.00932
0.018922
0.005705
0.018961
0.033503
0.036406
0.039453
0.058756
0.059758
0.058952
0.061849
0.073321
0.055115
0.033938
0.020956
0.011894
0.012747
0.026847
0.03107
0.024407
0.01704
0.015486
0.020589
0.034554
0.053392
0.066393
0.063012
0.064682
0.069741
0.077538
0.060277
0.025205
0.02503
0.028273
0.034163
0.031846
0.030529
0.018719
0.034254
0.03446
0.026941
0.045958
0.042793
0.065013
0.082862
0.072183
0.058041
0.064394
0.070191
0.067617
0.070456
0.080914
0.076779
0.073752
0.050375
0.050077
0.048251
0.070857
0.049703
0.0675
0.048301
0.065036
0.087127
0.084227
0.079286
0.094199
0.108904
0.107561
0.130561
0.131
0.094132
0.108659
0.094228
0.075104
0.10213
0.08392
0.064442
0.063952
0.065782
0.071212
0.09661
0.106484
0.101967
0.105174
0.107391
0.106025
0.126528
0.150538
0.152652
0.161967
0.135313
0.129327
0.125636
0.102994
0.088368
0.098045
0.112276
0.115595
0.135116
0.141698
0.111814
0.122338
0.130181
0.1303
0.148638
0.14616
0.15504
0.164879
0.170517
0.164514
0.168744
0.158508
0.130925
0.135664
0.122488
0.123894
0.128853
0.123859
0.099555
0.106116
0.109274
0.10999
0.130562
0.174252
0.170546
0.145811
0.154008
0.182156
0.180713
0.177453
0.168511
0.168359
0.166906
0.148198
0.131858
0.112583
0.124082
0.131883
0.128635
0.13556
0.123828
0.113026
0.1163
0.131711
0.125821
0.140689
0.139298
0.122842
0.141995
0.123538
0.118873
0.121263
0.113559
0.095675
0.057656
0.053148
0.050826
0.0304
0.0444
0.051107
0.031668
0.045533
0.045518
0.049228
0.041155
0.036579
0.051347
0.045722
0.02378
0.019697
0.038012
0.067827
0.058591
0.03614
-0.018199
-0.016781
-0.00037
0.000537
0.020364
0.001876
0.023021
0.032421
0.035498
0.017388
0.012784
0.003027
0.012123
0.047415
0.035699
0.028949
0.019849
-0.006061
-0.011055
0.002188
-0.016194
-0.012148
-0.026033
-0.03078
-0.027184
-0.024681
-0.018387
-0.000409
0.004202
0.020533
0.034405
0.013144
0.002651
0.006103
0.015871
-0.002968
0.018919
-0.010219
-0.01126
-0.012711
-0.001837
-0.015389
-0.035857
-0.032653
-0.01711
-0.021545
-0.01223
0.006571
-0.023133
-0.013824
0.003541
0.00236
0.018317
0.017988
0.003609
-0.000016
0.008369
0.001215
-0.005999
-0.012058
-0.026414
-0.037561
-0.033405
-0.027156
-0.019795
0.003177
-0.011742
-0.009618
-0.010013
0.004951
0.010277
0.028321
0.028111
0.025036
0.017766
-0.001909
-0.018519
-0.01178
-0.001247
-0.013072
-0.034049
-0.023015
-0.021558
-0.035718
-0.042161
-0.022264
0.004167
0.014845
-0.003903
0.000384
-0.012644
-0.003742
0.013959
0.007604
0.02506
0.029226
0.011845
-0.002941
-0.005314
-0.02338
-0.033175
-0.024069
-0.020827
-0.035142
-0.041631
-0.047763
-0.03496
-0.03325
-0.031639
-0.017632
-0.01646
0.007096
0.006179
0.003676
0.025528
0.036932
0.016304
0.008722
-0.007746
-0.010012
-0.01761
-0.019839
-0.049512
-0.028076
-0.006893
-0.017364
-0.017563
0.015843
0.032249
0.012715
-0.001814
0.007249
0.009758
0.032799
0.012012
0.002742
0.002611
0.00064
0.011536
0.01698
-0.002956
-0.014686
-0.020878
-0.014726
-0.038673
-0.014403
0.002312
-0.00672
0.0041
0.013589
0.012285
0.007908
0.010893
0.015837
0.02488
0.032167
0.011046
-0.002717
-0.015349
-0.025937
-0.019161
-0.008985
-0.021557
-0.025634
-0.023621
0.008337
-0.014136
-0.020859
-0.000818
0.002066
-0.007949
0.013224
-0.00227
0.004758
0.027835
0.023926
0.011294
0.007176
0.001618
0.008502
-0.000289
-0.027848
-0.032111
-0.036802
-0.04819
-0.038896
-0.021468
-0.022169
-0.021524
0.003757
0.021434
0.00484
-0.003689
-0.012782
-0.012305
0.015767
0.019712
0.001955
-0.005264
-0.014627
-0.01492
-0.016269
-0.024938
-0.043561
-0.04223
-0.038665
-0.034683
-0.044012
-0.025311
-0.009199
-0.004936
-0.012075
-0.004402
0.007619
0.024353
0.029735
0.025993
0.009511
-0.001378
-0.027624
-0.011514
-0.005712
-0.027497
-0.021997
-0.010436
-0.013814
-0.029439
-0.023484
-0.013111
0.006994
0.000802
0.000937
0.01937
0.008909
0.017221
0.01176
0.005037
0.001618
0.002204
-0.007789
-0.012321
-0.040826
-0.044603
-0.040462
-0.054546
-0.050018
-0.041358
-0.017913
0.014479
-0.007613
0.002196
0.009186
0.014335
0.018432
0.024431
0.026907
0.03211
0.03598
-0.010944
-0.019951
-0.013897
-0.036243
-0.044636
-0.037526
-0.044766
-0.030546
-0.007634
-0.016199
-0.014651
-0.005888
0.01026
-0.007317
0.009777
0.003605
0.026221
-0.00933
0.001162
-0.025748
-0.011182
-0.037004
-0.048028
-0.042609
-0.044499
-0.044265
-0.045958
-0.04068
-0.034443
-0.033732
-0.034644
-0.032727
-0.012473
0.015609
0.001494
-0.022484
-0.011488
0.000148
-0.019784
-0.019012
-0.022911
-0.039568
-0.043773
-0.028613
-0.03035
-0.015195
-0.011325
-0.00283
-0.007196
-0.010726
-0.015925
-0.024963
-0.005033
0.006079
0.000312
0.001146
-0.003364
0.0177
0.020434
0.026053
0.016822
0.000282
-0.001104
-0.020344
-0.025486
-0.029737
-0.040401
-0.03012
-0.05623
-0.032486
-0.003797
0.003697
0.025994
0.013948
0.022745
0.030526
0.027695
0.024541
0.032016
0.026613
0.020226
-0.004469
0.007548
-0.000682
-0.010737
-0.024102
-0.008217
-0.024161
-0.010787
-0.002161
-0.01395
0.009047
0.027547
0.034887
0.035486
0.051355
0.028458
0.047222
0.032284
0.023553
0.014306
-0.009521
0.001512
0.02611
0.025908
0.028762
0.030527
0.003501
0.008146
0.023934
0.028611
0.030065
0.019349
0.014286
0.038138
0.042929
0.0265
0.032309
0.016371
0.041977
0.036148
0.02086
0.030679
0.030926
0.008869
-0.017836
-0.003472
0.001357
-0.01465
-0.001353
-0.005058
0.022969
0.027173
0.02936
0.028097
0.023865
0.020378
-0.004403
0.014479
0.000348
-0.015961
-0.012368
0.002289
-0.022841
-0.021972
-0.02487
-0.012354
-0.019705
-0.03114
-0.024594
-0.009561
-0.005895
0.004172
0.013122
0.001197
0.027732
0.024847
0.012297
0.001369
-0.010468
-0.008013
-0.029266
-0.031315
-0.036515
-0.046673
-0.054143
-0.042616
-0.048966
-0.033
-0.023905
-0.007847
-0.011452
0.009271
-0.020348
-0.025823
-0.019351
-0.01425
-0.006655
-0.012271
-0.00963
-0.032896
-0.046571
-0.047636
-0.040576
-0.052345
-0.048955
-0.044463
-0.022742
-0.026939
-0.036398
-0.02309
-0.041183
-0.026454
-0.010779
0.008181
-0.017356
-0.019673
-0.045252
-0.037699
-0.006418
-0.035057
-0.033488
-0.034637
-0.05654
-0.043527
-0.052484
-0.05395
-0.041343
-0.055955
-0.03648
-0.032477
-0.024293
-0.000435
0.002555
-0.007471
-0.00073
0.000334
-0.014225
-0.006472
-0.024479
-0.032449
-0.04691
-0.042628
-0.026788
-0.053782
-0.052064
-0.065992
-0.056961
-0.056925
-0.064316
-0.047383
-0.016687
-0.006003
-0.020363
-0.021705
-0.024443
-0.028883
0.00471
-0.005392
-0.012257
0.00135
-0.047359
-0.040362
-0.039296
-0.069741
-0.053114
-0.055026
-0.032864
-0.043962
-0.02061
0.003314
0.01191
0.023266
0.050181
0.062013
0.101632
0.148815
0.139847
0.143016
0.181684
0.204684
0.220328
0.243653
0.261005
0.287797
0.287694
0.293594
0.304637
0.321484
0.31977
0.311142
0.31928
0.337019
0.321528
0.303388
0.299844
0.304832
0.256207
0.234455
0.220974
0.1982
0.152369
0.105906
0.085927
0.055168
0.022311
-0.014671
-0.015084
-0.03957
-0.082061
-0.09174
-0.088822
-0.101005
-0.111284
-0.10456
-0.099561
-0.095594
-0.086241
-0.066971
-0.051808
-0.076289
-0.056644
-0.061429
-0.042907
-0.031133
-0.040481
-0.052419
-0.043871
-0.038196
-0.014258
-0.010472
-0.018485
-0.008278
-0.004085
0.001856
0.009267
0.01894
-0.00808
0.012245
0.004968
-0.013863
-0.005928
-0.018813
-0.02203
-0.020215
-0.033368
-0.025731
-0.036772
-0.043829
-0.05203
-0.02773
0.001763
-0.019412
-0.009309
-0.015978
0.008267
-0.003648
0.006045
0.012368
-0.001464
-0.003847
0.001855
-0.020554
-0.021818
-0.025248
-0.033713
-0.042777
-0.047347
-0.031361
-0.013485
-0.002252
-0.001754
0.007644
0.010046
0.002632
0.010634
0.021137
0.04295
0.0502
0.031382
0.018121
0.004476
-0.024772
-0.02663
-0.008178
-0.013985
-0.017225
-0.020649
-0.010521
0.002582
0.000672
-0.037692
-0.013291
-0.004965
0.020238
0.033098
0.023134
0.029373
0.024714
0.021462
0.018321
0.006727
0.017548
0.003044
-0.024739
-0.007594
0.003026
-0.005228
-0.009244
-0.005616
-0.006763
-0.002786
0.004568
0.010417
0.034548
0.046549
0.053914
0.057496
0.033115
0.025828
0.005671
0.005435
0.005018
0.005016
0.006592
0.000557
-0.012471
-0.01738
0.009814
0.007316
0.035647
0.008944
0.011007
0.025885
0.047921
0.046855
0.043156
0.019364
0.027949
-0.002599
0.004076
0.027538
0.019438
-0.00967
-0.001458
-0.006126
0.005631
0.009401
0.010695
0.020537
0.055857
0.049751
0.040666
0.046635
0.066851
0.088404
0.091184
0.039258
0.025168
0.03637
0.044936
0.045571
0.019605
0.02486
0.022037
0.016
0.019821
0.024386
0.009169
0.017003
0.028389
0.012164
0.051334
0.070234
0.055009
0.057983
0.066284
0.069927
0.069739
0.063081
0.049033
0.044925
0.040981
0.050675
0.062294
0.061609
0.100187
0.054337
0.055645
0.062884
0.060975
0.051966
0.07008
0.07627
0.094342
0.091088
0.092697
0.089942
0.077934
0.069019
0.088909
0.068448
0.081635
0.089478
0.091086
0.052052
0.043793
0.061022
0.054669
0.080014
0.089871
0.086436
0.090038
0.110921
0.127647
0.117436
0.111188
0.14642
0.145867
0.149143
0.138571
0.117017
0.112137
0.118955
0.130139
0.109865
0.087656
0.100392
0.110076
0.11211
0.116932
0.116873
0.12658
0.14722
0.158153
0.162502
0.163081
0.161635
0.161017
0.163983
0.152885
0.137714
0.130952
0.12438
0.10162
0.128867
0.131991
0.096778
0.111686
0.130775
0.131021
0.131746
0.131562
0.14919
0.170054
0.150127
0.15
0.151928
0.163877
0.131536
0.133743
0.128038
0.128205
0.0922
0.088235
0.090728
0.096992
0.118103
0.118307
0.117897
0.113029
0.108775
0.104862
0.109759
0.105602
0.129432
0.128152
0.143049
0.129882
0.089468
0.092016
0.093017
0.078358
0.064191
0.059235
0.047134
0.056329
0.067381
0.053881
0.031008
0.037442
0.055473
0.031842
0.051414
0.051567
0.067134
0.065545
0.045219
0.072282
0.054108
0.043947
0.034695
0.017552
0.004244
-0.009097
0.002569
-0.002833
-0.010505
-0.004991
0.002186
-0.001862
0.019139
0.019293
0.023009
0.006216
0.012937
0.027801
0.031584
0.019874
0.013466
0.020736
-0.000486
-0.00695
-0.006209
-0.004632
-0.007843
-0.028143
-0.030867
-0.040944
-0.035078
-0.032621
-0.017347
-0.004519
0.003774
-0.001815
-0.000366
0.021115
0.013676
0.004079
0.019549
0.015646
0.000736
-0.023717
-0.035345
-0.043878
-0.041097
-0.034895
-0.033203
-0.059612
-0.035658
-0.022901
-0.028369
-0.035348
-0.020252
-0.034271
-0.012034
-0.015687
-0.009037
0.007182
0.017781
0.010371
-0.002677
0.006958
-0.005691
-0.011332
-0.009397
-0.004945
-0.006343
-0.035039
-0.025124
-0.001726
0.021991
-0.023892
-0.022068
0.006134
0.015402
0.007247
0.017506
0.02109
0.007441
0.005877
-0.007117
-0.018618
0.002963
-0.004403
-0.022423
-0.014948
-0.022125
-0.034169
-0.011515
-0.008135
-0.016691
-0.001108
0.002546
0.00089
0.007359
0.007042
0.022942
-0.004984
-0.00573
-0.006712
-0.03131
-0.009014
-0.008912
