-0.076685
-0.024114
-0.00415
-0.026248
-0.082109
-0.080046
-0.058764
-0.040931
-0.052549
-0.064611
-0.060918
-0.045649
-0.063246
-0.087853
-0.078659
-0.079866
-0.058182
-0.05059
-0.036487
-0.063605
-0.067795
-0.025913
-0.080576
-0.04785
-0.023864
-0.058451
-0.056137
-0.068469
-0.054448
-0.072234
-0.049805
-0.039317
-0.043351
-0.057711
-0.057687
-0.054038
-0.080919
-0.071365
-0.076649
-0.106647
-0.072637
-0.063952
-0.051686
-0.059299
-0.06241
-0.047131
-0.028077
-0.006399
-0.026983
-0.027958
-0.036595
-0.079152
-0.081085
-0.062752
-0.07477
-0.049386
-0.036725
-0.072117
-0.060848
-0.070197
-0.062893
-0.049093
-0.053497
-0.068687
-0.071595
-0.049783
-0.045279
-0.041678
-0.056866
-0.051809
-0.044985
-0.044415
-0.033093
-0.048847
-0.067986
-0.049841
-0.009378
-0.039289
-0.07246
-0.045526
-0.042159
-0.020298
-0.046469
-0.064804
-0.031675
-0.052966
-0.038314
-0.022878
-0.029285
-0.03437
-0.02549
-0.020026
-0.01679
-0.011267
-0.03337
-0.034163
-0.0465
-0.009559
-0.017036
-0.016387
-0.033623
-0.018982
-0.052594
-0.060687
-0.022702
-0.020555
-0.024952
-0.015794
-0.007373
-0.015013
-0.021005
-0.026243
-0.018147
-0.015496
-0.045121
-0.046206
-0.024091
-0.006161
-0.013926
-0.017018
0.008644
-0.011695
-0.080598
-0.061764
-0.049923
-0.024011
-0.006999
-0.035534
-0.048102
-0.030075
-0.027429
-0.032663
-0.009456
0.006242
-0.004782
-0.02214
-0.025155
-0.038524
-0.04435
-0.014896
-0.006194
-0.028044
-0.010862
-0.01229
-0.029599
-0.014983
-0.027089
-0.017855
-0.022791
-0.012883
-0.010517
0.020351
0.035378
0.009396
-0.023361
-0.020859
-0.033481
-0.056129
-0.044225
-0.052992
-0.045174
-0.008248
-0.016176
-0.032556
-0.027252
-0.006615
-0.040092
-0.045626
-0.030599
-0.028427
-0.049386
-0.070954
-0.058212
-0.067823
-0.061514
-0.059448
-0.054499
-0.053731
-0.062721
-0.055779
-0.092946
-0.057301
-0.03741
-0.048842
-0.030815
-0.068077
-0.053688
-0.047968
-0.04528
-0.064344
-0.044336
-0.086916
-0.089651
-0.093187
-0.123064
-0.097109
-0.077168
-0.116738
-0.116093
-0.11779
-0.121591
-0.129881
-0.109641
-0.128241
-0.122476
-0.116212
-0.149737
-0.084555
-0.070616
-0.037386
-0.07463
-0.089315
-0.077418
-0.102903
-0.094194
-0.09933
-0.145775
-0.129295
-0.086746
-0.087761
-0.09261
-0.120269
-0.098413
-0.099631
-0.080803
-0.077601
-0.090176
-0.103629
-0.110961
-0.116218
-0.118592
-0.125042
-0.150954
-0.146716
-0.154734
-0.123558
-0.115807
-0.112021
-0.108515
-0.116211
-0.134168
-0.08729
-0.111404
-0.131168
-0.11049
-0.10147
-0.107974
-0.074064
-0.087616
-0.092432
-0.07941
-0.087385
-0.116108
-0.122088
-0.100326
-0.079073
-0.092869
-0.091311
-0.083559
-0.097116
-0.099916
-0.103291
-0.113264
-0.131185
-0.125753
-0.141559
-0.126143
-0.118235
-0.119375
-0.132166
-0.128929
-0.109472
-0.115913
-0.129049
-0.100447
-0.081967
-0.09044
-0.088911
-0.090426
-0.10305
-0.1045
-0.112178
-0.123088
-0.090287
-0.068089
-0.081663
-0.095383
-0.102838
-0.12543
-0.147359
-0.119825
-0.106318
-0.087924
-0.091013
-0.103383
-0.096146
-0.097262
-0.11078
-0.080393
-0.09383
-0.123843
-0.118236
-0.112647
-0.13345
-0.126577
-0.10036
-0.10209
-0.098583
-0.136155
-0.117589
-0.100459
-0.083478
-0.07107
-0.078271
-0.123832
-0.079982
-0.09482
-0.100469
-0.105448
-0.11132
-0.077188
-0.065335
-0.085549
-0.095751
-0.108995
-0.128818
-0.11238
-0.128503
-0.086016
-0.084538
-0.074597
-0.093612
-0.082825
-0.146703
-0.134895
-0.113185
-0.064247
-0.101951
-0.131917
-0.112062
-0.110959
-0.103948
-0.076524
-0.117397
-0.065531
-0.079775
-0.099975
-0.094824
-0.102185
-0.124032
-0.111985
-0.126679
-0.113665
-0.091082
-0.095369
-0.101603
-0.105777
-0.097991
-0.097145
-0.075729
-0.085459
-0.114298
-0.094762
-0.104598
-0.105588
-0.098314
-0.098036
-0.088609
-0.099457
-0.10429
-0.095446
-0.096226
-0.103505
-0.091475
-0.091405
-0.118408
-0.118104
-0.138218
-0.137253
-0.125084
-0.104918
-0.122065
-0.127476
-0.114893
-0.117425
-0.119731
-0.131421
-0.155426
-0.114285
-0.075113
-0.095687
-0.07892
-0.099652
-0.113
-0.118223
-0.115826
-0.112603
-0.1094
-0.116085
-0.107705
-0.11896
-0.121633
-0.129726
-0.126037
-0.098177
-0.113628
-0.144096
-0.117277
-0.091044
-0.105137
-0.103503
-0.096326
-0.127752
-0.121287
-0.117067
-0.154969
-0.139926
-0.111587
-0.129674
-0.11286
-0.108135
-0.120233
-0.107186
-0.13026
-0.126708
-0.117362
-0.112175
-0.110203
-0.111839
-0.105255
-0.118526
-0.123337
-0.11956
-0.120218
-0.120827
-0.118569
-0.149092
-0.13643
-0.12527
-0.110472
-0.103592
-0.095883
-0.112795
-0.10739
-0.126384
-0.125983
-0.119343
-0.120547
-0.127638
-0.116157
-0.113473
-0.122895
-0.123788
-0.125958
-0.073249
-0.0965
-0.12669
-0.095264
-0.091299
-0.099479
-0.111625
-0.111898
-0.110661
-0.105634
-0.099798
-0.095869
-0.087674
-0.056807
-0.093882
-0.111512
-0.085513
-0.098711
-0.10866
-0.09277
-0.047124
-0.059761
-0.120383
-0.078122
-0.121741
-0.093758
-0.111235
-0.093863
-0.086968
-0.055937
-0.053871
-0.036175
-0.046697
-0.04418
-0.055278
-0.079077
-0.080488
-0.077248
-0.097308
-0.083795
-0.041707
-0.083208
-0.087452
-0.069339
-0.067326
-0.082536
-0.116237
-0.070363
-0.083495
-0.076435
-0.078209
-0.08188
-0.094024
-0.102875
-0.081202
-0.061691
-0.07036
-0.073283
-0.089981
-0.075768
-0.054082
-0.077363
-0.119244
-0.100604
-0.089098
-0.081413
-0.111044
-0.129739
-0.125291
-0.099181
-0.094713
-0.101348
-0.097523
-0.101331
-0.110691
-0.125896
-0.109869
-0.087086
-0.106017
-0.118027
-0.117561
-0.11365
-0.121602
-0.105071
-0.112368
-0.116712
-0.124621
-0.1393
-0.168885
-0.161748
-0.108773
-0.126153
-0.13596
-0.104614
-0.089979
-0.11503
-0.143416
-0.159978
-0.145502
-0.147448
-0.167391
-0.175332
-0.168933
-0.156677
-0.134797
-0.145272
-0.142885
-0.156934
-0.172639
-0.162638
-0.154604
-0.161427
-0.140323
-0.139951
-0.143366
-0.154239
-0.151305
-0.168776
-0.169066
-0.1774
-0.136934
-0.170061
-0.13041
-0.155117
-0.202462
-0.149956
-0.121608
-0.158944
-0.148602
-0.173581
-0.173283
-0.142372
-0.143102
-0.137784
-0.151883
-0.154339
-0.157844
-0.175624
-0.183208
-0.18183
-0.180734
-0.139262
-0.143059
-0.144581
-0.126201
-0.135135
-0.191316
-0.243348
-0.196392
-0.178387
-0.184611
-0.17709
-0.170539
-0.178313
-0.151668
-0.183626
-0.176797
-0.180449
-0.186457
-0.194419
-0.153897
-0.148583
-0.135924
-0.156676
-0.145316
-0.118591
-0.108824
-0.074209
-0.05353
-0.015599
-0.005552
0.005413
0.01002
0.02204
0.062088
0.111188
0.139937
0.146503
0.172996
0.242844
0.260014
0.285672
0.322553
0.344539
0.359406
0.381689
0.382105
0.356139
0.317034
0.27379
0.248832
0.233237
0.204579
0.191701
0.179077
0.119547
0.094332
0.095167
0.076527
0.104416
0.088874
0.058352
0.070683
0.088911
0.074352
0.035082
0.01734
-0.003742
-0.03595
-0.060234
-0.024665
-0.044508
-0.095865
-0.119276
-0.088793
-0.086622
-0.097744
-0.114835
-0.091072
-0.097738
-0.125696
-0.111707
-0.104371
-0.118228
-0.13756
-0.137016
-0.091201
-0.092302
-0.103849
-0.098558
-0.099414
-0.090621
-0.10027
-0.111892
-0.120001
-0.135868
-0.107804
-0.112808
-0.128008
-0.127997
-0.107709
-0.126445
-0.132406
-0.117439
-0.123004
-0.131181
-0.134302
-0.148483
-0.149607
-0.134639
-0.120937
-0.138418
-0.130715
-0.146964
-0.158582
-0.140221
-0.145956
-0.116402
-0.121702
-0.165977
-0.177318
-0.157936
-0.125123
-0.116762
-0.144443
-0.124549
-0.156861
-0.167098
-0.13644
-0.137038
-0.15387
-0.15187
-0.141159
-0.147126
-0.138101
-0.130195
-0.169911
-0.153104
-0.141633
-0.153273
-0.142327
-0.145373
-0.1562
-0.167671
-0.170113
-0.133873
-0.117427
-0.149335
-0.177741
-0.144944
-0.140462
-0.12321
-0.116826
-0.148636
-0.152338
-0.143947
-0.173364
-0.159335
-0.139092
-0.124777
-0.116903
-0.143028
-0.148017
-0.120649
-0.142991
-0.102246
-0.091347
-0.101099
-0.107895
-0.135868
-0.151887
-0.121775
-0.131513
-0.162055
-0.153911
-0.139086
-0.133663
-0.163109
-0.124134
-0.137717
-0.142267
-0.17099
-0.142288
-0.141071
-0.176275
-0.139284
-0.133394
-0.116378
-0.12122
-0.132021
-0.124575
-0.109741
-0.147
-0.141343
-0.129267
-0.138737
-0.170612
-0.137951
-0.153633
-0.13164
-0.115884
-0.143631
-0.143632
-0.131527
-0.133064
-0.132019
-0.128701
-0.142843
-0.140513
-0.124962
-0.11304
-0.131606
-0.128163
-0.104001
-0.093839
-0.11836
-0.124383
-0.124379
-0.132823
-0.120875
-0.090021
-0.12259
-0.146438
-0.138878
-0.139105
-0.111038
-0.110277
-0.115692
-0.134928
-0.178768
-0.204832
-0.149851
-0.155048
-0.144149
-0.119203
-0.130438
-0.156385
-0.119688
-0.105188
-0.125111
-0.111955
-0.127482
-0.118058
-0.099978
-0.078172
-0.10057
-0.129148
-0.142369
-0.123586
-0.105869
-0.12394
-0.125061
-0.128923
-0.103741
-0.086032
-0.098589
-0.100513
-0.138108
-0.14023
-0.110356
-0.112192
-0.128508
-0.115543
-0.106332
-0.094043
-0.114999
-0.104387
-0.101575
-0.095815
-0.082031
-0.098139
-0.08932
-0.107533
-0.084401
-0.058411
-0.032815
-0.065595
-0.064066
-0.080591
-0.110705
-0.113808
-0.110336
-0.108523
-0.117955
-0.112507
-0.106243
-0.077596
-0.094223
-0.126906
-0.117792
-0.087347
-0.075709
-0.109698
-0.109407
-0.12805
-0.15111
-0.092361
-0.096744
-0.107975
-0.136979
-0.14288
-0.110847
-0.117611
-0.120185
-0.111237
-0.080175
-0.07493
-0.086236
-0.108461
-0.116462
-0.111614
-0.102408
-0.1061
-0.125643
-0.099472
-0.11337
-0.13142
-0.131158
-0.152669
-0.133
-0.126869
-0.130221
-0.145299
-0.141744
-0.138409
-0.115746
-0.130962
-0.165002
-0.141044
-0.118227
-0.125519
-0.15807
-0.158205
-0.147143
-0.153347
-0.152768
-0.151911
-0.145048
-0.115583
-0.163765
-0.150585
-0.136154
-0.176045
-0.198608
-0.173362
-0.184591
-0.176751
-0.166451
-0.171694
-0.200512
-0.180153
-0.190443
-0.185957
-0.198653
-0.200264
-0.154705
-0.162155
-0.201195
-0.216208
-0.16416
-0.171073
-0.20531
-0.198262
-0.182141
-0.174876
-0.17934
-0.21449
-0.205596
-0.173331
-0.173185
-0.170678
-0.231595
-0.229418
-0.158525
-0.168405
-0.158097
-0.168956
-0.15786
-0.175688
-0.208929
-0.195053
-0.182115
-0.196067
-0.213493
-0.212741
-0.205721
-0.191373
-0.18677
-0.202667
-0.189519
-0.180897
-0.170337
-0.18135
-0.221249
-0.196088
-0.19318
-0.169679
-0.161781
-0.166351
-0.173382
-0.172784
-0.185601
-0.176979
-0.192039
-0.170146
-0.203435
-0.197642
-0.201666
-0.193032
-0.192779
-0.18735
-0.20405
-0.204911
-0.188469
-0.191169
-0.188674
-0.185561
-0.176229
-0.206238
-0.246605
-0.23488
-0.203875
-0.213706
-0.19391
-0.162628
-0.18701
-0.232238
-0.245575
-0.159901
-0.154441
-0.179837
-0.180097
-0.186585
-0.172559
-0.171288
-0.182284
-0.203052
-0.209961
-0.189706
-0.187424
-0.191513
-0.192682
-0.164435
-0.156618
-0.178132
-0.193629
-0.204051
-0.199184
-0.200307
-0.185705
-0.181175
-0.182169
-0.17233
-0.185209
-0.166245
-0.186136
-0.166575
-0.191834
-0.173236
-0.166685
-0.188809
-0.191214
-0.149869
-0.157364
-0.152309
-0.166329
-0.162749
-0.145512
-0.151673
-0.161351
-0.177716
-0.168761
-0.170869
-0.185625
-0.193615
-0.199643
-0.186846
-0.197395
-0.188178
-0.188012
-0.162099
-0.18414
-0.206174
-0.190496
-0.181033
-0.157519
-0.167926
-0.168423
-0.14409
-0.164246
-0.1614
-0.164642
-0.189517
-0.157303
-0.173403
-0.19882
-0.173209
-0.169501
-0.18465
-0.182546
-0.170997
-0.178678
-0.177433
-0.184954
-0.183079
-0.148155
-0.139401
-0.156254
-0.151256
-0.165591
-0.155126
-0.160064
-0.16488
-0.178602
-0.190877
-0.175088
-0.160282
-0.164557
-0.199702
-0.196679
-0.195374
-0.207386
-0.18736
-0.179321
-0.211436
-0.190038
-0.175812
-0.196616
-0.198432
-0.18507
-0.180854
-0.197458
-0.202607
-0.174149
-0.218667
-0.196141
-0.163898
-0.186836
-0.216299
-0.211673
-0.210749
-0.198191
-0.212897
-0.172499
-0.201977
-0.197528
-0.17976
-0.20106
-0.185347
-0.150677
-0.168762
-0.178609
-0.176418
-0.173452
-0.1785
-0.19426
-0.20094
-0.173947
-0.169483
-0.229875
-0.228127
-0.198534
-0.213977
-0.214044
-0.201571
-0.230272
-0.216032
-0.208569
-0.204973
-0.191367
-0.187476
-0.201942
-0.174228
-0.159724
-0.164988
-0.169218
-0.162173
-0.157799
-0.170882
-0.15173
-0.137102
-0.156178
-0.19214
-0.194708
-0.179964
-0.180528
-0.198031
-0.192361
-0.193594
-0.18727
-0.179074
-0.182331
-0.185754
-0.182173
-0.214476
-0.190593
-0.164503
-0.160857
-0.179214
-0.174115
-0.170289
-0.171142
-0.176597
-0.18197
-0.163526
-0.162085
-0.163593
-0.154695
-0.141474
-0.142932
-0.157339
-0.138438
-0.138779
-0.109448
-0.112916
-0.105928
-0.114577
-0.125565
-0.123645
-0.11106
-0.138797
-0.151281
-0.131355
-0.149232
-0.1556
-0.144272
-0.143449
-0.138737
-0.154066
-0.147279
-0.160003
-0.139021
-0.12081
-0.181034
-0.191478
-0.186917
-0.193387
-0.180104
-0.151397
-0.163457
-0.130317
-0.116978
-0.085308
-0.101238
-0.108964
-0.110078
-0.075257
-0.111041
-0.144668
-0.126728
-0.101258
-0.175515
-0.172514
-0.16829
-0.151036
-0.1497
-0.171787
-0.190716
-0.170685
-0.165849
-0.164446
-0.15705
-0.160123
-0.191054
-0.179505
-0.189364
-0.228662
-0.249285
-0.202748
-0.161573
-0.236545
-0.206842
-0.204046
-0.210509
-0.23957
-0.211068
-0.184581
-0.175039
-0.198538
-0.193432
-0.203773
-0.200797
-0.210612
-0.215025
-0.193354
-0.187107
-0.181677
-0.180208
-0.207511
-0.206582
-0.186095
-0.205758
-0.200375
-0.205722
-0.202018
-0.197972
-0.21182
-0.26146
-0.237179
-0.20769
-0.23167
-0.219697
-0.215128
-0.24487
-0.257738
-0.233061
-0.252141
-0.221954
-0.200649
-0.225904
-0.213096
-0.198227
-0.220418
-0.227465
-0.215598
-0.222096
-0.220409
-0.217341
-0.224751
-0.208192
-0.185714
-0.18072
-0.182808
-0.168634
-0.186235
-0.220821
-0.239448
-0.212194
-0.185052
-0.191346
-0.185575
-0.223645
-0.205988
-0.184534
-0.196015
-0.208573
-0.23191
-0.243249
-0.248329
-0.258432
-0.254162
-0.265951
-0.254241
-0.251839
-0.232343
-0.214278
-0.193641
-0.185059
-0.20948
-0.200817
-0.183922
-0.191033
-0.178081
-0.168549
-0.163361
-0.174969
-0.179442
-0.117947
-0.072822
-0.059904
-0.049178
-0.019134
0.013328
0.028435
0.05264
0.10457
0.169411
0.174778
0.207896
0.251161
0.311044
0.322326
0.318319
0.356486
0.312483
0.297745
0.25862
0.236479
0.229801
0.200223
0.172075
0.176975
0.141798
0.090539
0.069854
0.048984
0.072604
0.091153
0.071904
0.036465
0.022402
0.023243
0.001731
0.016182
-0.01539
-0.068551
-0.100951
-0.103188
-0.121729
-0.126849
-0.153457
-0.162158
-0.192254
-0.227355
-0.221672
-0.219833
-0.187207
-0.176787
-0.154044
-0.161877
-0.150216
-0.11001
-0.152199
-0.158619
-0.166819
-0.138825
-0.14071
-0.14987
-0.156346
-0.134795
-0.150754
-0.153311
-0.148484
-0.15083
-0.127365
-0.117779
-0.216966
-0.207175
-0.176446
-0.137932
-0.134431
-0.15539
-0.188274
-0.195882
-0.160552
-0.176161
-0.187528
-0.155997
-0.166621
-0.168143
-0.156617
-0.16746
-0.19001
-0.202982
-0.189657
-0.2051
-0.19453
-0.16533
-0.16476
-0.166785
-0.192484
-0.183124
-0.183497
-0.187415
-0.192021
-0.185972
-0.165615
-0.192148
-0.19056
-0.200778
-0.16861
-0.178743
-0.164739
-0.170857
-0.191482
-0.182416
-0.174647
-0.183403
-0.183825
-0.165486
-0.178766
-0.184071
-0.167323
-0.167879
-0.164002
-0.158016
-0.211288
-0.212132
-0.203232
-0.20853
-0.170043
-0.162611
-0.159191
-0.155188
-0.185195
-0.176903
-0.173886
-0.148641
-0.147529
-0.147182
-0.152266
-0.171026
-0.164022
-0.150704
-0.15175
-0.166134
-0.171725
-0.160797
-0.164236
-0.135133
-0.163316
-0.195574
-0.214628
-0.194809
-0.179445
-0.161902
-0.168966
-0.18816
-0.161891
-0.1898
-0.193556
-0.237251
-0.218325
-0.157772
-0.164817
-0.160131
-0.153093
-0.153891
-0.160911
-0.161317
-0.139828
-0.140931
-0.165108
-0.185955
-0.191393
-0.172613
-0.159322
-0.152784
-0.154437
-0.178592
-0.176187
-0.127178
-0.141841
-0.192031
-0.204379
-0.194558
-0.183238
-0.148517
-0.192865
-0.18473
-0.18026
-0.149994
-0.161798
-0.188774
-0.168586
-0.125288
-0.156888
-0.186826
-0.1595
-0.185075
-0.183213
-0.181799
-0.187299
-0.196078
-0.190042
-0.146239
-0.131242
-0.121794
-0.129194
-0.127654
-0.100681
-0.111769
-0.119741
-0.135339
-0.151743
-0.133044
-0.105928
-0.132642
-0.133215
-0.128554
-0.117256
-0.105628
-0.11392
-0.12812
-0.112079
-0.118338
-0.125481
-0.143411
-0.181722
-0.164983
-0.168691
-0.151285
-0.153201
-0.128282
-0.162871
-0.14863
-0.152407
-0.146116
-0.094055
-0.087537
-0.097336
-0.129869
-0.138439
-0.118572
-0.113345
-0.100158
-0.129635
-0.123013
-0.131693
-0.123149
-0.134627
-0.131235
-0.107603
-0.129189
-0.085888
-0.101174
-0.109737
-0.10451
-0.081544
-0.096034
-0.111446
-0.133544
-0.091673
-0.078037
-0.098481
-0.110227
-0.119481
-0.123845
-0.122381
-0.142125
-0.129448
-0.122919
-0.124237
-0.11003
-0.135964
-0.119656
-0.111308
-0.114728
-0.11217
-0.098295
-0.086779
-0.097229
-0.099443
-0.10737
-0.130808
-0.163781
-0.149839
-0.14183
-0.146069
-0.142764
-0.140377
-0.144184
-0.148678
-0.163857
-0.15573
-0.167793
-0.159534
-0.148098
-0.153544
-0.140364
-0.121896
-0.142329
-0.161896
-0.178434
-0.172145
-0.172319
-0.169249
-0.174401
-0.15457
-0.154678
-0.15905
-0.233631
-0.217311
-0.204446
-0.156132
-0.125906
-0.135209
-0.149781
-0.13752
-0.143157
-0.18835
-0.193328
-0.193785
-0.180476
-0.147528
-0.168225
-0.180014
-0.176246
-0.18836
-0.176673
-0.16074
-0.188278
-0.19231
-0.178873
-0.161606
-0.180447
-0.182798
-0.213346
-0.186621
-0.216105
-0.20122
-0.161806
-0.185842
-0.173612
-0.181329
-0.1814
-0.203557
-0.191606
-0.213453
-0.211961
-0.187642
-0.212448
-0.229406
-0.221194
-0.207855
-0.186083
-0.188958
-0.174128
-0.203718
-0.197334
-0.185816
-0.209175
-0.204289
-0.167179
-0.188418
-0.194345
-0.197954
-0.177296
-0.185154
-0.189455
-0.206904
-0.219562
-0.202361
-0.197715
-0.209034
-0.240478
-0.236111
-0.214154
-0.20137
-0.205167
-0.224212
-0.201701
-0.198644
-0.229426
-0.234328
-0.228324
-0.20433
-0.186274
-0.181932
-0.189907
-0.191284
-0.217232
-0.200804
-0.174779
-0.189475
-0.19941
-0.171688
-0.165874
-0.145619
-0.156102
-0.165308
-0.154109
-0.168827
-0.179869
-0.1912
-0.193464
-0.171126
-0.179807
-0.165923
-0.179143
-0.193152
-0.183656
-0.171732
-0.164037
-0.200393
-0.18677
-0.190711
-0.211841
-0.181297
-0.19328
-0.184194
-0.199122
-0.183626
-0.182766
-0.173049
-0.195523
-0.216661
-0.205414
-0.16564
-0.153639
-0.180615
-0.139367
-0.174468
-0.185097
-0.174653
-0.163037
-0.151074
-0.159655
-0.158877
-0.17237
-0.174713
-0.143287
-0.160203
-0.185905
-0.193549
-0.203664
-0.15363
-0.162066
-0.181825
-0.171006
-0.153566
-0.149566
-0.168804
-0.17859
-0.16688
-0.183525
-0.2155
-0.235916
-0.19983
-0.197814
-0.180224
-0.153549
-0.138231
-0.11344
-0.126031
-0.15001
-0.14908
-0.154376
-0.154091
-0.178895
-0.198065
-0.205475
-0.156872
-0.138869
-0.149606
-0.1466
-0.165834
-0.184971
-0.169167
-0.156882
-0.173186
-0.153316
-0.189567
-0.174536
-0.167332
-0.166474
-0.15938
-0.148423
-0.171003
-0.186014
-0.184581
-0.16805
-0.150741
-0.173404
-0.153144
-0.138301
-0.147392
-0.154108
-0.179573
-0.174456
-0.158138
-0.155705
-0.17311
-0.172794
-0.163881
-0.167895
-0.170321
-0.184326
-0.171886
-0.159603
-0.190504
-0.210188
-0.213597
-0.196996
-0.196233
-0.192399
-0.189906
-0.180125
-0.19768
-0.168999
-0.156115
-0.13733
-0.16375
-0.180243
-0.193983
-0.15965
-0.165391
-0.18754
-0.189792
-0.166287
-0.220648
-0.194404
-0.185608
-0.158713
-0.18
-0.159082
-0.176848
-0.173543
-0.173701
-0.172978
-0.170153
-0.160708
-0.185591
-0.170762
-0.198094
-0.18365
-0.182925
-0.193325
-0.229608
-0.211465
-0.191814
-0.192539
-0.221838
-0.179047
-0.141733
-0.129115
-0.173331
-0.186643
-0.159034
-0.149564
-0.161108
-0.19186
-0.197897
-0.214729
-0.192024
-0.195116
-0.174738
-0.169278
-0.166879
-0.16825
-0.181125
-0.162969
-0.168425
-0.17654
-0.159243
-0.186267
-0.184609
-0.166923
-0.185431
-0.188519
-0.166636
-0.161151
-0.183573
-0.177412
-0.188724
-0.177794
-0.190489
-0.172895
-0.171839
-0.19578
-0.175024
-0.174793
-0.202211
-0.144393
-0.125782
-0.136064
-0.151981
-0.151744
-0.150436
-0.165096
-0.181019
-0.18192
-0.182677
-0.189456
-0.19273
-0.185573
-0.177557
-0.204597
-0.220629
-0.195092
-0.199505
-0.177537
-0.156947
-0.182887
-0.186797
-0.173873
-0.165152
-0.169092
-0.150616
-0.143358
-0.165402
-0.176079
-0.192089
-0.169604
-0.170486
-0.180775
-0.151757
-0.158898
-0.167625
-0.151164
-0.117734
-0.127155
-0.142604
-0.139221
-0.159213
-0.135997
-0.154561
-0.149956
-0.132026
-0.139442
-0.092152
-0.117049
-0.153838
-0.103581
-0.090691
-0.141037
-0.149572
-0.12458
-0.13092
-0.114807
-0.111758
-0.134073
-0.109583
-0.129139
-0.127321
-0.127597
-0.115897
-0.106323
-0.12525
-0.123613
-0.099993
-0.123656
-0.141675
-0.145724
-0.130213
-0.133636
-0.132313
-0.121309
-0.119249
-0.104335
-0.079771
-0.079943
-0.107972
-0.132705
-0.14526
-0.120875
-0.084225
-0.132795
-0.115904
-0.123245
-0.126351
-0.113863
-0.125411
-0.128341
-0.154635
-0.172032
-0.172443
-0.141041
-0.147719
-0.184322
-0.197904
-0.167735
-0.188291
-0.172606
-0.162734
-0.160245
-0.190821
-0.174375
-0.183132
-0.184222
-0.177325
-0.162606
-0.168189
-0.208386
-0.17332
-0.172079
-0.160482
-0.170361
-0.164092
-0.176603
-0.185713
-0.193575
-0.197135
-0.166297
-0.16494
-0.195335
-0.178518
-0.174141
-0.165848
-0.158072
-0.162049
-0.178119
-0.164996
-0.161402
-0.21133
-0.201818
-0.186957
-0.208242
-0.176778
-0.185627
-0.203075
-0.212811
-0.19952
-0.198675
-0.207252
-0.189799
-0.173153
-0.170852
-0.171325
-0.167088
-0.200513
-0.188934
-0.18362
-0.177239
-0.190086
-0.190414
-0.186774
-0.192082
-0.182068
-0.175282
-0.185415
-0.177741
-0.164816
-0.19485
-0.196879
-0.183026
-0.182648
-0.170013
-0.186846
-0.215291
-0.200627
-0.234767
-0.224253
-0.176678
-0.209719
-0.184913
-0.206154
-0.196561
-0.175517
-0.197854
-0.218658
-0.219001
-0.219088
-0.243605
-0.211193
-0.212766
-0.22255
-0.229685
-0.260636
-0.233973
-0.185679
-0.200848
-0.179396
-0.147931
-0.150915
-0.137781
-0.146548
-0.142905
-0.110023
-0.071094
-0.037406
-0.042519
-0.044145
-0.000927
0.053315
0.084527
0.109713
0.136678
0.151888
0.221209
0.276692
0.280851
0.315828
0.348605
0.352393
0.385706
0.364426
0.33457
0.305458
0.308318
0.275464
0.229241
0.212081
0.201832
0.199082
0.165148
0.110769
0.083264
0.10027
0.097975
0.069748
0.076445
0.076328
0.047144
0.052656
0.038602
-0.046105
-0.096925
-0.05443
-0.078617
-0.118023
-0.103616
-0.103079
-0.100296
-0.083024
-0.086816
-0.095388
-0.12166
-0.11802
-0.087779
-0.080974
-0.122851
-0.124995
-0.121384
-0.140018
-0.128214
-0.12399
-0.127135
-0.142844
-0.133053
-0.13099
-0.148422
-0.140169
-0.111726
-0.116225
-0.163205
-0.144641
-0.151482
-0.171626
-0.150063
-0.149361
-0.159452
-0.170643
-0.156711
-0.168957
-0.148522
-0.123352
-0.143704
-0.141569
-0.12385
-0.136095
-0.171806
-0.146072
-0.111168
-0.122554
-0.120685
-0.1626
-0.137918
-0.147509
-0.125539
-0.109679
-0.168072
-0.157225
-0.176025
-0.166763
-0.167958
-0.15915
-0.112099
-0.08205
-0.156571
-0.199891
-0.136719
-0.137621
-0.127951
-0.11335
-0.115959
-0.160716
-0.11232
-0.095684
-0.139673
-0.154412
-0.139998
-0.152541
-0.144229
-0.155351
-0.13798
-0.130563
-0.189112
-0.196545
-0.156989
-0.11696
-0.121588
-0.157153
-0.162406
-0.124248
-0.170395
-0.143509
-0.110631
-0.14178
-0.15556
-0.151803
-0.134172
-0.13562
-0.14255
-0.135073
-0.155538
-0.149624
-0.140045
-0.150928
-0.141568
-0.12548
-0.113366
-0.127484
-0.130001
-0.143968
-0.14427
-0.122652
-0.149811
-0.148459
-0.149186
-0.13202
-0.140729
-0.127562
-0.108173
-0.126231
-0.126404
-0.132885
-0.130455
-0.127661
-0.118334
-0.128064
-0.155139
-0.143631
-0.128197
-0.137136
-0.120148
-0.130784
-0.140717
-0.14559
-0.161739
-0.160465
-0.134407
-0.133376
-0.137329
-0.140227
-0.171165
-0.153782
-0.157296
-0.143302
-0.096788
-0.139236
-0.168662
-0.108419
-0.106319
-0.159791
-0.100941
-0.11274
-0.13181
-0.11273
-0.097761
-0.095109
-0.124303
-0.12137
-0.102681
-0.087652
-0.104369
-0.101166
-0.115814
-0.113131
-0.119451
-0.133094
-0.115913
-0.093221
-0.111413
-0.094513
-0.067379
-0.110521
-0.118653
-0.10368
-0.097219
-0.104889
-0.108448
-0.098357
-0.101266
-0.109117
-0.087966
-0.107878
-0.093888
-0.098371
-0.091386
-0.077255
-0.098577
-0.098992
-0.109649
-0.106187
-0.099044
-0.075253
-0.095999
-0.065419
-0.062175
-0.069728
-0.084384
-0.090388
-0.081865
-0.09018
-0.088037
-0.094969
-0.098125
-0.062935
-0.098138
-0.106241
-0.065218
-0.074477
-0.06818
-0.079206
-0.054301
-0.047718
-0.06165
-0.088897
-0.057283
-0.055807
-0.083474
-0.101523
-0.072849
-0.053178
-0.049471
-0.079356
-0.102487
-0.079709
-0.047929
-0.065008
-0.08113
-0.061532
-0.040156
-0.048211
-0.085813
-0.077479
-0.067366
-0.042958
-0.048749
-0.046919
-0.087127
-0.073706
-0.081188
-0.087253
-0.081961
-0.097982
-0.120627
-0.109848
-0.08629
-0.09642
-0.068697
-0.080851
-0.108144
-0.078094
-0.074166
-0.104262
-0.124588
-0.116796
-0.093736
-0.080644
-0.108971
-0.125011
-0.08728
-0.077305
-0.11939
-0.148413
-0.113321
-0.118803
-0.129993
-0.121058
-0.131264
-0.105573
-0.140762
-0.143755
-0.117802
-0.129223
-0.142196
-0.13943
-0.112982
-0.101117
-0.12688
-0.126051
-0.14858
-0.175143
-0.183841
-0.165149
-0.152311
-0.129621
-0.163043
-0.145447
-0.111435
-0.145659
-0.142417
-0.122512
-0.124793
-0.151807
-0.158883
-0.156169
-0.162169
-0.148132
-0.154044
-0.151862
-0.167768
-0.146082
-0.151623
-0.146284
-0.160923
-0.180793
-0.163706
-0.16633
-0.165855
-0.138081
-0.141262
-0.144297
-0.139272
-0.136098
-0.13287
-0.102155
-0.128262
-0.18582
-0.169543
-0.133067
-0.165919
-0.158981
-0.184508
-0.168742
-0.125936
-0.127446
-0.154309
-0.172902
-0.212643
-0.178432
-0.166119
-0.171667
-0.175328
-0.164221
-0.176987
-0.182892
-0.146394
-0.143862
-0.174901
-0.157687
-0.156904
-0.137505
-0.191311
-0.190016
-0.144214
-0.148875
-0.15908
-0.170034
-0.154501
-0.149343
-0.165336
-0.182252
-0.189837
-0.155717
-0.129962
-0.141632
-0.150862
-0.148144
-0.138117
-0.136727
-0.136924
-0.169961
-0.157777
-0.143293
-0.158683
-0.143548
-0.150417
-0.189375
-0.120742
-0.139587
-0.150694
-0.157207
-0.167468
-0.132358
-0.143773
-0.160089
-0.146333
-0.178188
-0.161018
-0.138938
-0.133913
-0.142428
-0.127266
-0.121913
-0.122324
-0.12455
-0.134935
-0.134979
-0.165672
-0.144574
-0.11901
-0.121419
-0.137413
-0.144562
-0.145704
-0.093779
-0.108547
-0.129027
-0.131462
-0.12159
-0.130664
-0.15213
-0.169979
-0.163339
-0.152763
-0.169936
-0.17942
-0.167535
-0.135326
-0.10807
-0.091581
-0.131274
-0.1068
-0.079766
-0.112728
-0.131879
-0.135513
-0.132353
-0.132893
-0.124998
-0.149405
-0.166618
-0.143305
-0.139164
-0.129707
-0.140709
-0.154424
-0.150441
-0.1533
-0.130719
-0.115076
-0.11512
-0.115556
-0.118396
-0.140843
-0.114201
-0.139137
-0.125498
-0.131651
-0.147276
-0.15427
-0.139456
-0.151586
-0.140433
-0.125962
-0.12161
-0.132943
-0.120617
-0.125893
-0.135236
-0.14518
-0.135463
-0.132962
-0.146608
-0.134779
-0.09405
-0.119115
-0.173343
-0.17902
-0.137671
-0.149798
-0.147986
-0.149436
-0.142254
-0.157854
-0.172301
-0.192787
-0.161819
-0.126775
-0.147143
-0.124224
-0.115095
-0.127042
-0.141365
-0.143168
-0.139803
-0.137851
-0.147999
-0.157749
-0.156189
-0.164808
-0.160024
-0.154104
-0.177742
-0.172006
-0.16527
-0.141056
-0.138803
-0.123897
-0.108233
-0.104829
-0.153436
-0.167175
-0.136859
-0.131833
-0.167776
-0.149678
-0.145516
-0.157351
-0.164669
-0.155246
-0.133644
-0.12883
-0.128503
-0.132958
-0.158407
-0.150396
-0.147271
-0.1414
-0.143437
-0.140885
-0.15767
-0.135404
-0.141091
-0.156295
-0.14845
-0.153894
-0.154135
-0.139309
-0.141643
-0.14844
-0.173585
-0.137883
-0.130637
-0.13504
-0.144755
-0.1269
-0.135064
-0.153399
-0.167005
-0.150322
-0.135421
-0.17789
-0.159406
-0.163554
-0.135676
-0.140482
-0.152831
-0.153234
-0.161684
-0.179637
-0.12912
-0.16291
-0.177077
-0.169013
-0.175737
-0.173588
-0.192031
-0.184351
-0.15026
-0.153853
-0.148539
-0.157188
-0.142642
-0.143594
-0.11585
-0.081993
-0.133078
-0.149554
-0.133197
-0.117055
-0.133463
-0.157562
-0.149199
-0.164165
-0.147601
-0.151953
-0.166554
-0.178829
-0.110335
-0.119542
-0.158406
-0.159794
-0.158741
-0.158706
-0.154933
-0.157574
-0.152589
-0.157866
-0.160361
-0.15254
-0.172103
-0.160103
-0.140158
-0.117659
-0.119384
-0.100653
-0.134201
-0.205089
-0.183723
-0.14411
-0.108378
-0.13529
-0.135438
-0.14857
-0.126881
-0.130165
-0.157577
-0.142931
-0.154906
-0.176571
-0.146186
-0.121077
-0.132798
-0.131773
-0.150793
-0.169343
-0.138474
-0.12759
-0.142084
-0.141269
-0.133135
-0.148332
-0.148321
-0.143013
-0.144075
-0.153856
-0.16322
-0.182398
-0.161345
-0.147402
-0.146047
-0.124486
-0.133639
-0.129005
-0.150083
-0.134012
-0.128198
-0.116383
-0.129778
-0.139446
-0.133106
-0.15934
-0.177125
-0.173899
-0.135359
-0.177061
-0.163285
-0.165874
-0.202415
-0.187582
-0.158371
-0.150886
-0.166023
-0.156949
-0.163093
-0.143639
-0.136969
-0.140784
-0.125105
-0.123479
-0.135152
-0.159312
-0.140413
-0.114276
-0.142275
-0.13011
-0.137999
-0.116207
-0.128752
-0.164474
-0.155669
-0.148186
-0.141641
-0.126165
-0.126644
-0.13719
-0.134207
-0.114068
-0.138079
-0.123951
-0.163304
-0.120655
-0.120055
-0.141279
-0.139008
-0.111345
-0.148771
-0.130365
-0.141265
-0.119603
-0.122589
-0.183993
-0.150697
-0.091162
-0.075014
-0.122906
-0.10986
-0.097627
-0.098951
-0.099443
-0.102835
-0.099251
-0.104067
-0.100252
-0.067682
-0.069207
-0.085182
-0.090583
-0.100681
-0.095751
-0.077744
-0.084348
-0.081521
-0.101499
-0.099144
-0.096741
-0.082948
-0.094004
-0.112695
-0.101362
-0.104142
-0.09596
-0.107214
-0.089371
-0.088765
-0.097154
-0.073439
-0.061025
-0.07296
-0.109135
-0.088562
-0.095336
-0.147116
-0.094828
-0.101044
-0.12592
-0.117584
-0.115727
-0.102914
-0.117764
-0.140067
-0.132277
-0.138666
-0.135173
-0.152137
-0.151428
-0.144314
-0.136378
-0.128913
-0.124819
-0.168954
-0.153761
-0.1561
-0.125317
-0.148816
-0.208124
-0.165576
-0.118724
-0.095568
-0.112418
-0.123571
-0.133135
-0.116443
-0.156309
-0.16412
-0.155293
-0.154342
-0.156055
-0.16963
-0.159503
-0.188422
-0.193004
-0.170872
-0.160134
-0.184723
-0.146118
-0.140633
-0.166171
-0.184166
-0.153052
-0.126988
-0.15409
-0.155349
-0.137577
-0.142707
-0.147356
-0.182953
-0.171014
-0.16966
-0.191532
-0.208791
-0.20439
-0.179423
-0.180048
-0.169656
-0.157623
-0.153305
-0.183072
-0.186069
-0.159449
-0.162409
-0.161662
-0.128384
-0.150039
-0.166036
-0.147318
-0.152247
-0.168092
-0.154528
-0.147862
-0.148324
-0.162129
-0.171652
-0.17036
-0.156328
-0.176169
-0.133946
-0.197693
-0.23988
-0.189183
-0.154323
-0.171207
-0.162605
-0.159196
-0.138105
-0.154315
-0.172968
-0.191259
-0.220264
-0.236835
-0.200281
-0.201262
-0.204021
-0.19455
-0.202846
-0.224165
-0.201861
-0.19693
-0.162868
-0.158262
-0.149481
-0.13188
-0.115546
-0.110682
-0.095532
-0.069816
-0.028312
-0.019309
0.001134
0.064089
0.060105
0.026134
0.057444
0.100116
0.134462
0.192014
0.237419
0.281127
0.318457
0.35874
0.36717
0.388832
0.397498
0.380377
0.362544
0.347373
0.29838
0.263864
0.266844
0.246841
0.228148
0.150491
0.123367
0.122328
0.097525
0.099601
0.072362
0.090974
0.077186
0.075612
0.062394
0.027713
0.030881
0.017275
-0.0074
-0.042302
-0.058639
-0.064746
-0.068287
-0.061583
-0.080324
-0.078512
-0.095607
-0.131361
-0.142475
-0.117222
-0.107816
-0.113093
-0.112261
-0.117623
-0.064068
-0.070096
-0.09304
-0.098856
-0.102008
-0.120946
-0.113972
-0.103558
-0.114097
-0.126839
-0.127423
-0.117023
-0.12821
-0.134462
-0.116422
-0.128296
-0.134273
-0.135775
-0.141823
-0.136606
-0.159133
-0.187818
-0.145726
-0.139477
-0.104224
-0.105531
-0.115156
-0.152583
-0.160999
-0.14597
-0.102336
-0.120328
-0.174484
-0.156395
-0.107872
-0.146003
-0.132837
-0.138041
-0.132355
-0.127028
-0.12933
-0.157038
-0.140534
-0.127437
-0.095607
-0.126092
-0.145594
-0.171269
-0.108884
-0.089651
-0.126739
-0.169453
-0.143899
-0.147019
-0.170894
-0.150172
-0.135692
-0.137982
-0.158004
-0.160373
-0.166865
-0.18236
-0.158818
-0.129529
-0.141183
-0.102014
-0.101624
-0.113595
-0.114277
-0.128127
-0.114278
-0.113327
-0.133907
-0.180021
-0.141666
-0.139954
-0.13042
-0.131732
-0.111379
-0.100433
-0.131232
-0.150585
-0.120546
-0.127257
-0.146592
-0.122947
-0.10955
-0.138867
-0.150323
-0.122668
-0.118693
-0.129825
-0.108837
-0.090958
-0.107428
-0.123954
-0.124788
-0.147262
-0.137116
-0.13173
-0.127491
-0.117202
-0.133674
-0.1221
-0.13335
-0.134864
-0.139984
-0.137016
-0.113667
-0.133645
-0.141929
-0.162456
-0.144752
-0.128228
-0.12873
-0.141847
-0.119965
-0.137324
-0.142525
-0.124185
-0.118006
-0.14709
-0.147623
-0.121391
-0.101702
-0.124588
-0.128809
-0.14684
-0.12169
-0.096162
-0.115987
-0.114739
-0.123958
-0.142626
-0.107661
-0.136983
-0.148401
-0.121348
-0.099486
-0.10288
-0.116321
-0.10078
-0.113231
-0.116286
-0.13649
-0.138371
-0.120679
-0.126243
-0.084323
-0.085462
-0.123413
-0.088166
-0.110476
-0.102538
-0.127636
-0.121758
-0.114824
-0.139031
-0.110173
-0.113134
-0.099953
-0.100933
-0.112637
-0.106522
-0.109585
-0.090708
-0.092578
-0.098409
-0.078029
-0.112441
-0.084219
-0.075726
-0.101454
-0.112274
-0.128954
-0.118535
-0.077129
-0.09252
-0.121781
-0.08486
-0.082854
-0.071172
-0.076133
-0.101926
-0.089023
-0.08743
-0.058203
-0.075854
-0.061733
-0.066224
-0.070757
-0.072686
-0.072539
-0.08579
-0.073173
-0.077005
-0.082286
-0.080244
-0.051021
-0.059506
-0.088505
-0.099708
-0.10251
-0.098427
-0.075956
-0.085519
-0.11133
-0.056784
-0.031755
-0.084179
-0.035444
-0.099282
-0.075345
-0.044695
-0.059556
-0.063253
-0.109441
-0.106458
-0.081822
-0.071578
-0.083018
-0.080684
-0.061171
-0.055756
-0.061912
-0.055763
-0.071844
-0.077069
-0.084179
-0.116714
-0.095072
-0.087056
-0.105871
-0.100119
-0.08979
-0.092975
-0.087928
-0.072946
-0.070041
-0.077307
-0.076152
-0.105122
-0.107667
-0.108973
-0.114962
-0.117398
-0.11873
-0.132128
-0.154482
-0.148727
-0.12055
-0.131754
-0.143019
-0.147191
-0.151402
-0.187645
-0.151523
-0.130742
-0.116443
-0.102753
-0.150834
-0.139691
-0.120885
-0.123197
-0.121406
-0.121414
-0.162177
-0.150099
-0.144789
-0.140341
-0.149528
-0.147439
-0.139555
-0.16225
-0.174743
-0.168719
-0.145262
-0.144831
-0.13739
-0.13483
-0.13396
-0.107797
-0.098472
-0.110936
-0.094443
-0.120269
-0.171841
-0.178359
-0.15986
-0.164778
-0.182297
-0.193286
-0.178577
-0.176551
-0.194691
-0.17623
-0.163818
-0.150652
-0.148661
-0.143519
-0.168425
-0.14601
-0.131354
-0.152812
-0.158273
-0.144956
-0.128717
-0.143231
-0.142519
-0.157671
-0.156569
-0.147238
-0.139351
-0.173223
-0.187883
-0.160146
-0.15486
-0.153937
-0.166702
-0.144503
-0.143869
-0.157889
-0.156687
-0.150364
-0.15756
-0.175926
-0.149745
-0.148827
-0.140314
-0.157778
-0.156321
-0.176681
-0.178173
-0.181002
-0.181015
-0.172582
-0.153359
-0.137079
-0.151787
-0.152522
-0.143627
-0.174194
-0.146416
-0.143671
-0.15266
-0.146053
-0.117575
-0.149682
-0.158495
-0.146959
-0.120324
-0.141483
-0.166083
-0.142055
-0.145796
-0.146328
-0.181443
-0.196103
-0.181794
-0.14672
-0.146081
-0.138492
-0.128527
-0.132398
-0.110648
-0.129608
-0.125482
-0.149217
-0.141438
-0.108033
-0.119859
-0.140777
-0.125313
-0.138009
-0.149006
-0.135627
-0.156679
-0.163283
-0.158492
-0.129364
-0.149113
-0.146116
-0.168796
-0.175784
-0.159144
-0.135485
-0.176847
-0.149714
-0.086925
-0.100128
-0.141501
-0.126444
-0.141352
-0.142763
-0.117523
-0.123546
-0.123163
-0.135892
-0.14661
-0.140386
-0.128425
-0.153725
-0.150367
-0.135968
-0.131209
-0.132893
-0.159793
-0.185685
-0.189191
-0.15079
-0.17051
-0.147018
-0.129317
-0.14747
-0.136219
-0.13745
-0.129376
-0.134233
-0.130786
-0.144574
-0.112197
-0.125373
-0.16783
-0.138766
-0.132086
-0.1581
-0.160886
-0.145413
-0.139931
-0.148419
-0.163072
-0.165072
-0.146432
-0.126366
-0.13844
-0.17866
-0.164148
-0.170625
-0.175261
-0.174746
-0.164544
-0.204633
-0.16075
-0.185562
-0.185003
-0.177413
-0.173866
-0.148154
-0.131395
-0.131795
-0.151076
-0.157628
-0.14648
-0.131251
-0.146213
-0.169533
-0.140908
-0.147967
-0.152755
-0.152098
-0.142879
-0.14511
-0.159848
-0.138084
-0.15237
-0.168967
-0.173077
-0.166011
-0.193033
-0.180716
-0.183731
-0.174966
-0.169807
-0.189426
-0.177336
-0.165942
-0.191239
-0.165166
-0.148285
-0.145309
-0.163186
-0.160191
-0.133352
-0.128197
-0.132948
-0.13967
-0.117621
-0.167286
-0.202306
-0.187952
-0.177899
-0.16084
-0.164972
-0.174036
-0.166849
-0.174462
-0.176348
-0.158411
-0.163772
-0.139624
-0.146469
-0.172593
-0.211788
-0.200999
-0.163411
-0.169788
-0.198966
-0.193622
-0.172491
-0.166348
-0.175043
-0.137072
-0.139571
-0.136015
-0.136076
-0.130716
-0.129696
-0.160041
-0.172797
-0.146987
-0.155919
-0.160496
-0.17705
-0.186713
-0.219147
-0.195624
-0.143821
-0.163736
-0.116173
-0.139175
-0.137716
-0.16425
-0.163831
-0.163711
-0.196799
-0.182436
-0.175676
-0.159313
-0.176897
-0.176666
-0.184084
-0.189951
-0.173286
-0.160307
-0.209157
-0.169581
-0.161589
-0.146565
-0.142752
-0.157584
-0.190049
-0.143768
-0.157705
-0.166495
-0.152356
-0.178862
-0.154477
-0.182644
-0.166631
-0.144654
-0.168874
-0.172817
-0.1385
-0.124366
-0.132016
-0.150203
-0.174537
-0.160898
-0.154173
-0.164901
-0.179278
-0.209195
-0.210671
-0.17074
-0.169087
-0.159273
-0.175933
-0.178721
-0.163656
-0.18996
-0.162131
-0.142638
-0.145518
-0.15107
-0.141953
-0.155508
-0.179009
-0.171358
-0.148367
-0.147182
-0.204074
-0.174396
-0.159731
-0.162475
-0.16097
-0.171473
-0.176656
-0.134822
-0.112001
-0.143978
-0.170152
-0.157447
-0.164983
-0.174098
-0.161222
-0.158142
-0.160226
-0.15833
-0.131584
-0.14047
-0.137557
-0.159633
-0.156181
-0.183409
-0.19569
-0.18699
-0.177943
-0.184923
-0.177291
-0.192785
-0.177792
-0.168529
-0.181178
-0.155149
-0.14279
-0.138584
-0.129684
-0.140556
-0.173238
-0.157992
-0.16851
-0.18143
-0.204378
-0.20532
-0.191944
-0.194198
-0.161776
-0.174005
-0.172285
-0.167774
-0.162123
-0.141147
-0.120775
-0.134043
-0.116834
-0.137645
-0.14653
-0.152116
-0.168336
-0.160182
-0.152428
-0.155147
-0.167304
-0.171616
-0.145861
-0.160178
-0.174271
-0.152736
-0.167232
-0.156162
-0.175345
-0.139
-0.15377
-0.176928
-0.159913
-0.151434
-0.163675
-0.156807
-0.118579
-0.113922
-0.131994
-0.162218
-0.150641
-0.128405
-0.132075
-0.106127
-0.114842
-0.141631
-0.121926
-0.123424
-0.109871
-0.106357
-0.126492
-0.138694
-0.122778
-0.125898
-0.120648
-0.154785
-0.17799
-0.142735
-0.13635
-0.133836
-0.129162
-0.121255
-0.118188
-0.118026
-0.126924
-0.127233
-0.092887
-0.083995
-0.124288
-0.157461
-0.113425
-0.118856
-0.117602
-0.094204
-0.079588
-0.0845
-0.085826
-0.069262
-0.09811
-0.096711
-0.118697
-0.14447
-0.09368
-0.100257
-0.118075
-0.112032
-0.110313
-0.102603
-0.111062
-0.134888
-0.122412
-0.131542
-0.103858
-0.113541
-0.153091
-0.159362
-0.151847
-0.151187
-0.1485
-0.143936
-0.163524
-0.192161
-0.163818
-0.127795
-0.150327
-0.148592
-0.154712
-0.1475
-0.141902
-0.151673
-0.152567
-0.126247
-0.128467
-0.135361
-0.159806
-0.17086
-0.163898
-0.183841
-0.19035
-0.172118
-0.168972
-0.181722
-0.190831
-0.192473
-0.178067
-0.173815
-0.198431
-0.202263
-0.194861
-0.201868
-0.223716
-0.201652
-0.178248
-0.197961
-0.183975
-0.199722
-0.191543
-0.196484
-0.197001
-0.132996
-0.136806
-0.155067
-0.177335
-0.177192
-0.172454
-0.191102
-0.184528
-0.183928
-0.202598
-0.193612
-0.198225
-0.191393
-0.175065
-0.18962
-0.207872
-0.229198
-0.235068
-0.204848
-0.186124
-0.200478
-0.203034
-0.202186
-0.198549
-0.178102
-0.163278
-0.158939
-0.232051
-0.204218
-0.1857
-0.170066
-0.182418
-0.181333
-0.215013
-0.178254
-0.173607
-0.188279
-0.18415
-0.187002
-0.190532
-0.200939
-0.217275
-0.208914
-0.234042
-0.239736
-0.210304
-0.219153
-0.203153
-0.220001
-0.203927
-0.203664
-0.192576
-0.180137
-0.179223
-0.207201
-0.180423
-0.148277
-0.158219
-0.112451
-0.155702
-0.062794
-0.020457
-0.076602
-0.011695
0.031918
0.082784
0.110605
0.117873
0.11083
0.164574
0.235139
0.277208
0.269086
0.328064
0.370454
0.381836
0.400567
0.368508
0.332428
0.374006
0.35318
0.295111
0.265439
0.226972
0.216835
0.196807
0.180167
0.118112
0.112531
0.065449
0.051186
0.081202
0.055885
0.048345
0.055946
0.031207
0.006528
-0.041605
-0.050358
-0.033972
-0.042895
-0.03509
-0.028135
-0.062304
-0.105546
-0.092915
-0.073715
-0.092357
-0.08632
-0.106109
-0.124658
-0.086491
-0.103619
-0.098537
-0.121606
-0.121018
-0.134093
-0.129562
-0.111283
-0.109004
-0.132981
-0.183167
-0.179899
-0.17438
-0.16354
-0.161812
-0.156292
-0.136653
-0.12474
-0.127464
-0.136358
-0.158676
-0.14062
-0.126593
-0.132571
-0.148795
-0.135662
-0.147531
-0.168849
-0.149167
-0.14402
-0.152171
-0.176024
-0.133418
-0.122249
-0.132374
-0.148407
-0.163699
-0.148463
-0.152645
-0.148271
-0.145523
-0.169714
-0.209568
-0.167525
-0.151761
-0.155667
-0.172218
-0.11522
-0.09946
-0.129677
-0.171718
-0.158315
-0.120549
-0.126011
-0.151256
-0.148729
-0.129018
-0.116886
-0.117568
-0.125079
-0.114992
-0.107369
-0.144117
-0.129355
-0.131629
-0.160044
-0.151853
-0.155321
-0.17936
-0.186308
-0.172385
-0.159373
-0.191172
-0.207148
-0.174036
-0.154514
-0.152577
-0.155284
-0.156803
-0.101782
-0.10248
-0.125867
-0.112963
-0.107242
-0.123443
-0.148013
-0.139724
-0.142848
-0.154972
-0.120887
-0.128636
-0.133641
-0.122894
-0.127307
-0.107129
-0.110621
-0.122978
-0.132747
-0.140652
-0.137672
-0.133287
-0.134052
-0.154892
-0.15023
-0.13785
-0.15359
-0.145047
-0.138296
-0.157064
-0.150455
-0.126567
-0.14091
-0.154793
-0.159555
-0.172331
-0.162015
-0.127174
-0.165077
-0.197002
-0.165013
-0.130202
-0.11965
-0.094915
-0.113644
-0.105845
-0.096556
-0.10679
-0.097174
-0.104124
-0.137891
-0.149813
-0.146523
-0.128755
-0.127051
-0.138708
-0.142325
-0.160336
-0.11726
-0.12352
-0.138281
-0.133726
-0.102122
-0.108669
-0.146979
-0.148795
-0.135098
-0.126961
-0.096104
-0.143419
-0.159989
-0.145892
-0.137379
-0.144471
-0.105424
-0.109195
-0.139108
-0.138157
-0.120398
-0.101416
-0.089079
-0.079667
-0.10048
-0.10211
-0.098338
-0.106061
-0.10896
-0.121358
-0.113751
-0.10934
-0.081838
-0.077718
-0.099322
-0.094887
-0.104074
-0.097851
-0.107835
-0.112387
-0.084708
-0.085423
-0.102177
-0.095863
-0.091038
-0.061729
-0.081629
-0.110775
-0.115093
-0.113484
-0.101621
-0.094928
-0.069334
-0.100632
-0.107393
-0.095463
-0.082874
-0.08418
-0.087487
-0.075079
-0.084646
-0.076133
-0.076918
-0.085034
-0.079277
-0.058958
-0.057452
-0.06247
-0.064732
-0.06069
-0.050771
-0.039344
-0.074548
-0.075686
-0.116104
-0.097792
-0.097883
-0.109258
-0.092239
-0.084886
-0.093515
-0.071088
-0.073878
-0.079283
-0.112297
-0.065818
-0.100947
-0.069834
-0.068279
-0.069832
-0.043352
-0.059275
-0.040781
-0.053504
-0.059955
-0.077732
-0.105798
-0.084562
-0.092969
-0.075195
-0.068954
-0.089608
-0.082737
-0.078672
-0.124873
-0.099372
-0.082474
-0.078862
-0.099328
-0.096147
-0.097625
-0.110985
-0.154323
-0.16164
-0.143892
-0.1174
-0.095482
-0.071106
-0.080336
-0.086035
-0.107972
-0.115965
-0.114986
-0.109755
-0.1139
-0.121902
-0.118203
-0.144458
-0.15318
-0.151251
-0.148901
-0.142984
-0.128828
-0.124768
-0.151731
-0.157433
-0.131948
-0.144742
-0.140654
-0.12634
-0.121483
-0.146004
-0.170661
-0.152271
-0.135275
-0.132929
-0.14098
-0.140697
-0.150048
-0.17135
-0.141652
-0.1318
-0.151797
-0.152591
-0.165696
-0.175
-0.142905
-0.122798
-0.11706
-0.145922
-0.150565
-0.146201
-0.135287
-0.134275
-0.148234
-0.151826
-0.150391
-0.125167
-0.129678
-0.167965
-0.158867
-0.173529
-0.169261
-0.168964
-0.163034
-0.152068
-0.150421
-0.164895
-0.163659
-0.149879
-0.138663
-0.142422
-0.144529
-0.157144
-0.135406
-0.148729
-0.131333
-0.132307
-0.111707
-0.110873
-0.112323
-0.144277
-0.143867
-0.169197
-0.170284
-0.1491
-0.171206
-0.180167
-0.188115
-0.166954
-0.146806
-0.124718
-0.124644
-0.129649
-0.129709
-0.155335
-0.168947
-0.146664
-0.139648
-0.135752
-0.11559
-0.141966
-0.116897
-0.094851
-0.16601
-0.208866
-0.179383
-0.131791
-0.140134
-0.163042
-0.130643
-0.120897
-0.100642
-0.110796
-0.138692
-0.122326
-0.103864
-0.118149
-0.133664
-0.142124
-0.127955
-0.129338
-0.123813
-0.142588
-0.129783
-0.104102
-0.096093
-0.12148
-0.156136
-0.136281
-0.119166
-0.06953
-0.082224
-0.129704
-0.151701
-0.098432
-0.113326
-0.13445
-0.117351
-0.134508
-0.145672
-0.131719
-0.12935
-0.123164
-0.119388
-0.176462
-0.156472
-0.147405
-0.144358
-0.132607
-0.141328
-0.122384
-0.126087
-0.128679
-0.095811
-0.104539
-0.114466
-0.093965
-0.093883
-0.114396
-0.102899
-0.134037
-0.145816
-0.131615
-0.134742
-0.132595
-0.11332
-0.125662
-0.135191
-0.118048
-0.108364
-0.119095
-0.126567
-0.113114
-0.103732
-0.112178
-0.122786
-0.140425
-0.147992
-0.135774
-0.142578
-0.191264
-0.186025
-0.161446
-0.142575
-0.099755
-0.088264
-0.085185
-0.103096
-0.094089
-0.102943
-0.115922
-0.129157
-0.104125
-0.114446
-0.138248
-0.123187
-0.144952
-0.144385
-0.13634
-0.146403
-0.14657
-0.120133
-0.128397
-0.14085
-0.139337
-0.147716
-0.126759
-0.099907
-0.113965
-0.123962
-0.143654
-0.149679
-0.147841
-0.143935
-0.14978
-0.141045
-0.097002
-0.09089
-0.103871
-0.112036
-0.173624
-0.136375
-0.103069
-0.134039
-0.13187
-0.167632
-0.130606
-0.110626
-0.111625
-0.119292
-0.119489
-0.131243
-0.136358
-0.150646
-0.135577
-0.124457
-0.135617
-0.150386
-0.160097
-0.16324
-0.195691
-0.164988
-0.170424
-0.142789
-0.10822
-0.106938
-0.114945
-0.114052
-0.108198
-0.137994
-0.130356
-0.117476
-0.092145
-0.110255
-0.137108
-0.12515
-0.126279
-0.126807
-0.13672
-0.134219
-0.119614
-0.12601
-0.127543
-0.123301
-0.151522
-0.123072
-0.132345
-0.120273
-0.118555
-0.121969
-0.15823
-0.160668
-0.129393
-0.134035
-0.126637
-0.103437
-0.089336
-0.098708
-0.148314
-0.105224
-0.115511
-0.13481
-0.112608
-0.128225
-0.132701
-0.105435
-0.128219
-0.14322
-0.111033
-0.103443
-0.120878
-0.131114
-0.126831
-0.13515
-0.163938
-0.165986
-0.154405
-0.136938
-0.125266
-0.113537
-0.121331
-0.136959
-0.131465
-0.149839
-0.133011
-0.120746
-0.113398
-0.122238
-0.11407
-0.105183
-0.112929
-0.113937
-0.102733
-0.105509
-0.133895
-0.154149
-0.132463
-0.091148
-0.1059
-0.141201
-0.109961
-0.117186
-0.124732
-0.132545
-0.110692
-0.103266
-0.118587
-0.103838
-0.152977
-0.125376
-0.120612
-0.133672
-0.111257
-0.137997
-0.136218
-0.156585
-0.163753
-0.13964
-0.126183
-0.136561
-0.141714
-0.148125
-0.165726
-0.130793
-0.10153
-0.12571
-0.104285
-0.128566
-0.106698
-0.144382
-0.128137
-0.113126
-0.081807
-0.090585
-0.113554
-0.111561
-0.09381
-0.116449
-0.144414
-0.132879
-0.123611
-0.116668
-0.107976
-0.1001
-0.115211
-0.136613
-0.118075
-0.101163
-0.099374
-0.137779
-0.141538
-0.132804
-0.119203
-0.147128
-0.134119
-0.135005
-0.13735
-0.130065
-0.125384
-0.125547
-0.141906
-0.114976
-0.106077
-0.115676
-0.128024
-0.131235
-0.131938
-0.117594
-0.106135
-0.123025
-0.117203
-0.102316
-0.106813
-0.103703
-0.121708
-0.116426
-0.123128
-0.155343
-0.141885
-0.129942
-0.135809
-0.151845
-0.155554
-0.112184
-0.144959
-0.129225
-0.121654
-0.084596
-0.095129
-0.107161
-0.124346
-0.104578
-0.083662
-0.113022
-0.10987
-0.10392
-0.100047
-0.106869
-0.130364
-0.126011
-0.146842
-0.14247
-0.095666
-0.070811
-0.150157
-0.110699
-0.101856
-0.139177
-0.139842
-0.151339
-0.122418
-0.120533
-0.11025
-0.129457
-0.120369
-0.106479
-0.096691
-0.120989
-0.116406
-0.106568
-0.105205
-0.10735
-0.128115
-0.144595
-0.125771
-0.1043
-0.110017
-0.116473
-0.113305
-0.097911
-0.095279
-0.084487
-0.10818
-0.105616
-0.115311
-0.116457
-0.129194
-0.140012
-0.119354
-0.14372
-0.119477
-0.103051
-0.124603
-0.138187
-0.148403
-0.147956
-0.109081
-0.110938
-0.081314
-0.089625
-0.082713
-0.082311
-0.098357
-0.127259
-0.089705
-0.100264
-0.096595
-0.119458
-0.141542
-0.162864
-0.162602
-0.112244
-0.07107
-0.082757
-0.066749
-0.044723
-0.058019
-0.080453
-0.083377
-0.056974
-0.073675
-0.057698
-0.05216
-0.049178
-0.040195
-0.049605
-0.061159
-0.080208
-0.094413
-0.068511
-0.064327
-0.119169
-0.105295
-0.073841
-0.043867
-0.062866
-0.066825
-0.064348
-0.057852
-0.062114
-0.047604
-0.039756
-0.07579
-0.070596
-0.046996
-0.05941
-0.075011
-0.061311
-0.064694
-0.075471
-0.060654
-0.038536
-0.063888
-0.075769
-0.085465
-0.044237
-0.042247
-0.050032
-0.055596
-0.028776
-0.072485
-0.086196
-0.074365
-0.093664
-0.083778
-0.067525
-0.075352
-0.06867
-0.060409
-0.049138
-0.059881
-0.097382
-0.097994
-0.06814
-0.072191
-0.108437
-0.100776
-0.100784
-0.09188
-0.095626
-0.103554
-0.12022
-0.114903
-0.128374
-0.100806
-0.111041
-0.095754
-0.128552
-0.082048
-0.094438
-0.093994
-0.11153
-0.118599
-0.100863
-0.109548
-0.123073
-0.099056
-0.120443
-0.116954
-0.082472
-0.10442
-0.094352
-0.104475
-0.148797
-0.125385
-0.1278
-0.145249
-0.142768
-0.106117
-0.092652
-0.118068
-0.133208
-0.101992
-0.085812
-0.108182
-0.081368
-0.106689
-0.186036
-0.122662
-0.111779
-0.121758
-0.118239
-0.118932
-0.125347
-0.153705
-0.159448
-0.14567
-0.136193
-0.137782
-0.147566
-0.141224
-0.118339
-0.144578
-0.156158
-0.120247
-0.14858
-0.150907
-0.126185
-0.157258
-0.14588
-0.13949
-0.152807
-0.164197
-0.141717
-0.111111
-0.089982
-0.113314
-0.104111
-0.094071
-0.103235
-0.133764
-0.125213
-0.129824
-0.139059
-0.150279
-0.150662
-0.151611
-0.156685
-0.159885
-0.141375
-0.138031
-0.143834
-0.158928
-0.166265
-0.146659
-0.143232
-0.149311
-0.134083
-0.104691
-0.081955
-0.050513
-0.066825
-0.023329
0.03531
0.06945
0.054238
0.076819
0.102172
0.166241
0.192349
0.214552
0.285745
0.332931
0.351269
0.375147
0.406213
0.428173
0.443668
0.471592
0.464793
0.456428
0.44181
0.374333
0.37177
0.359249
0.286295
0.27812
0.259936
0.219806
0.149009
0.168575
0.159903
0.19767
0.240206
0.174562
0.111521
0.169416
0.149697
0.101227
0.023849
0.029743
0.017682
-0.015303
-0.033686
-0.028663
-0.019382
-0.039199
-0.055797
-0.082612
-0.051462
-0.037419
-0.058542
-0.0594
-0.056266
-0.069618
-0.074739
-0.067299
-0.075692
-0.093736
-0.05948
-0.053975
-0.087946
-0.10083
-0.103408
-0.097194
-0.094006
-0.070886
-0.074256
-0.095875
-0.100401
-0.115187
-0.092307
-0.091788
-0.075086
-0.088349
-0.092484
-0.099938
-0.119384
-0.087348
-0.071844
-0.036615
-0.079438
-0.083259
-0.080305
-0.033747
-0.067766
-0.073416
-0.093113
-0.074587
-0.082815
-0.094051
-0.089346
-0.093386
-0.098315
-0.085818
-0.078839
-0.118667
-0.111239
-0.076039
-0.105386
-0.070771
-0.071172
-0.090917
-0.065586
-0.054319
-0.090515
-0.064333
-0.058314
-0.063293
-0.102726
-0.1008
-0.112565
-0.11268
-0.114682
-0.076587
-0.098731
-0.090633
-0.089723
-0.072926
-0.076926
-0.061745
-0.087732
-0.090743
-0.060518
-0.065501
-0.099452
-0.096436
-0.091606
-0.100565
-0.084153
-0.098108
-0.089075
-0.063363
-0.044046
-0.104002
-0.104963
-0.07404
-0.055017
-0.100571
-0.08872
-0.075713
-0.107443
-0.103063
-0.101112
-0.098111
-0.087208
-0.082973
-0.07462
-0.061287
-0.072768
-0.07585
-0.06442
-0.062152
-0.071727
-0.064972
-0.047617
-0.078459
-0.116221
-0.082696
-0.075867
-0.089434
-0.120522
-0.139799
-0.108537
-0.100443
-0.079401
-0.046502
-0.020459
-0.040258
-0.066801
-0.059879
-0.041046
-0.045637
-0.059212
-0.068197
-0.074706
-0.084854
-0.084333
-0.11435
-0.086596
-0.089609
-0.098154
-0.073052
-0.046515
-0.062054
-0.057787
-0.040212
-0.020467
-0.066539
-0.049599
-0.043231
-0.08642
-0.035123
-0.001175
-0.065115
-0.07594
-0.047944
-0.052991
-0.061419
-0.069942
-0.065576
-0.065461
-0.055985
-0.064671
-0.052559
-0.047804
-0.064087
-0.044737
-0.062378
-0.047713
-0.040481
-0.048002
-0.039802
-0.047656
-0.046471
-0.033662
-0.02788
-0.034359
-0.032109
-0.020511
-0.023286
-0.044698
-0.055835
-0.043738
-0.013976
-0.045552
-0.062022
-0.059978
-0.04313
-0.028044
-0.023706
-0.036222
-0.042464
-0.03402
-0.01786
-0.039355
-0.019808
-0.021875
-0.019914
0.004129
0.012377
0.021844
0.024505
0.005398
-0.002648
-0.002217
-0.015176
-0.00614
-0.017822
-0.013809
-0.001928
-0.007461
-0.011943
-0.004959
-0.00619
-0.01188
-0.019425
-0.030848
0.003892
-0.026465
-0.03702
-0.035602
-0.043513
-0.034639
-0.048677
-0.028099
-0.00043
-0.007674
-0.006042
0.006499
0.014157
-0.018175
0.013852
0.021123
-0.005174
-0.002986
0.028229
0.044358
0.028868
-0.014548
-0.009499
-0.007989
-0.001783
-0.003974
-0.048569
-0.052449
-0.033662
-0.017682
0.003975
-0.016536
-0.027325
-0.030514
-0.043695
-0.038706
-0.048501
-0.049919
-0.060343
-0.116258
-0.094373
-0.05345
-0.014044
-0.076524
-0.030679
-0.027178
-0.033849
-0.017112
-0.008902
-0.004229
-0.062243
-0.053201
-0.065494
-0.048809
-0.056854
-0.056687
-0.01882
-0.06166
-0.087697
-0.077388
-0.080421
-0.07941
-0.094975
-0.101155
-0.088565
-0.073781
-0.069548
-0.057742
-0.097369
-0.08208
-0.115519
-0.117813
-0.065512
-0.073897
-0.074003
-0.074795
-0.066949
-0.063998
-0.082403
-0.09076
-0.092818
-0.103555
-0.082642
-0.0934
-0.092635
-0.102153
-0.104122
-0.089532
-0.114047
-0.08956
-0.068336
-0.074954
-0.090771
-0.074245
-0.091337
-0.098299
-0.100204
-0.137045
-0.16857
-0.14314
-0.114409
-0.126648
-0.122261
-0.133016
-0.146802
-0.103359
-0.074814
-0.064455
-0.059595
-0.080323
-0.057593
-0.063378
-0.06544
-0.063752
-0.069933
-0.071012
-0.056944
-0.078564
-0.077409
-0.111467
-0.104691
-0.119771
-0.148643
-0.114926
-0.093277
-0.099078
-0.09754
-0.108269
-0.130717
-0.119223
-0.140403
-0.12039
-0.090254
-0.096843
-0.093216
-0.071325
-0.045931
-0.0512
-0.075404
-0.097122
-0.091701
-0.096658
-0.085422
-0.085352
-0.092706
-0.089248
-0.099779
-0.102286
-0.095069
-0.099281
-0.078736
-0.069184
-0.094095
-0.090598
-0.064282
-0.075862
-0.090206
-0.074002
-0.077405
-0.079806
-0.09829
-0.12657
-0.078559
-0.11357
-0.128798
-0.097285
-0.10471
-0.100954
-0.066552
-0.068423
-0.062789
-0.051586
-0.07083
-0.063807
-0.09587
-0.112039
-0.070792
-0.048375
-0.074617
-0.096565
-0.087478
-0.081562
-0.059962
-0.064032
-0.056036
-0.040998
-0.105202
-0.084889
-0.0687
-0.080066
-0.081045
-0.101839
-0.098523
-0.094343
-0.124184
-0.071448
-0.067928
-0.107735
-0.103576
-0.079641
-0.083853
-0.093612
-0.085982
-0.057748
-0.081884
-0.088618
-0.092066
-0.065233
-0.049749
-0.042269
-0.073739
-0.075587
-0.069058
-0.060455
-0.068896
-0.072919
-0.088214
-0.069975
-0.072715
-0.078932
-0.062258
-0.066959
-0.082033
-0.104653
-0.097644
-0.07923
-0.096278
-0.065425
-0.080674
-0.056881
-0.058393
-0.065134
-0.058036
-0.051003
-0.075989
-0.098618
-0.114735
-0.094811
-0.078866
-0.094927
-0.06708
-0.069746
-0.098858
-0.086958
-0.089308
-0.081885
-0.088637
-0.091513
-0.080983
-0.099901
-0.092881
-0.090016
-0.105314
-0.102065
-0.088576
-0.098523
-0.095091
-0.086384
-0.082037
-0.082293
-0.042067
-0.063551
-0.071774
-0.058053
-0.052068
-0.067495
-0.10746
-0.085363
-0.052549
-0.084481
-0.076558
-0.088298
-0.103034
-0.118206
-0.091679
-0.067687
-0.090626
-0.045172
-0.049754
-0.069502
-0.043813
-0.049846
-0.085511
-0.131478
-0.172831
-0.108847
-0.094068
-0.085335
-0.096228
-0.080433
-0.072348
-0.08223
-0.092757
-0.093688
-0.094759
-0.101092
-0.084222
-0.065175
-0.069434
-0.090701
-0.096429
-0.09212
-0.107883
-0.088401
-0.112066
-0.114963
-0.113577
-0.079774
-0.090845
-0.131472
-0.109791
-0.086918
-0.066171
-0.082463
-0.108367
-0.099219
-0.099876
-0.081671
-0.069663
-0.08843
-0.077445
-0.062409
-0.070357
-0.079562
-0.063645
-0.0601
-0.068294
-0.093446
-0.090695
-0.089547
-0.081133
-0.068831
-0.107047
-0.07998
-0.074604
-0.111903
-0.124994
-0.100227
-0.067822
-0.077786
-0.103911
-0.107017
-0.096441
-0.08864
-0.13058
-0.101249
-0.083125
-0.073947
-0.102372
-0.094581
-0.089386
-0.096527
-0.070688
-0.064637
-0.077666
-0.06815
-0.06717
-0.03655
-0.063734
-0.066172
-0.062521
-0.107972
-0.101697
-0.132488
-0.111409
-0.108089
-0.124035
-0.132356
-0.129679
-0.116264
-0.089737
-0.088532
-0.048692
-0.022818
-0.065566
-0.084744
-0.07847
-0.081018
-0.076906
-0.068928
-0.053908
-0.066766
-0.12396
-0.104238
-0.089646
-0.069394
-0.081415
-0.067729
-0.108016
-0.07183
-0.071499
-0.091052
-0.086876
-0.083962
-0.088682
-0.069
-0.081392
-0.098327
-0.104433
-0.090281
-0.101724
-0.08737
-0.095287
-0.109384
-0.115402
-0.127289
-0.065325
-0.061127
-0.097607
-0.062349
-0.043475
-0.045118
-0.063766
-0.066543
-0.050966
-0.071782
-0.08328
-0.073328
-0.109007
-0.098948
-0.094938
-0.087934
-0.086769
-0.091656
-0.100751
-0.090715
-0.049793
-0.057707
-0.087959
-0.072633
-0.08038
-0.133868
-0.10527
-0.07331
-0.10086
-0.094672
-0.089009
-0.084574
-0.09088
-0.077138
-0.051646
-0.106439
-0.12946
-0.105059
-0.089825
-0.088155
-0.080633
-0.090484
-0.123349
-0.110602
-0.099872
-0.078145
-0.116259
-0.123195
-0.106794
-0.115715
-0.093226
-0.082026
-0.105818
-0.064666
-0.072394
-0.072483
-0.071578
-0.072399
-0.075187
-0.069746
-0.085014
-0.085362
-0.07717
-0.075446
-0.059987
-0.107725
-0.088238
-0.054809
-0.080557
-0.082967
-0.05861
-0.044631
-0.047575
-0.073385
-0.057008
-0.053223
-0.069781
-0.078567
-0.120783
-0.10285
-0.095594
-0.083559
-0.067259
-0.081856
-0.079039
-0.086317
-0.074066
-0.07721
-0.100691
-0.094962
-0.072411
-0.089169
-0.103536
-0.077339
-0.107663
-0.114741
-0.081644
-0.087438
-0.090778
-0.084346
-0.087227
-0.106434
-0.125717
-0.144463
-0.110227
-0.071889
-0.104886
-0.101758
-0.098762
-0.124488
-0.160494
-0.088592
-0.04946
-0.055392
-0.064515
-0.097586
-0.107551
-0.092156
-0.086378
-0.088349
-0.068869
-0.086318
-0.074083
-0.064292
-0.055536
-0.067117
-0.081025
-0.055773
-0.065117
-0.084074
-0.06396
-0.073304
-0.087949
-0.084183
-0.087866
-0.069499
-0.045572
-0.094268
-0.087349
-0.077662
-0.086085
-0.068726
-0.07893
-0.076919
-0.113613
-0.124135
-0.099333
-0.057503
-0.016239
-0.010983
-0.040302
-0.031549
-0.038661
-0.034212
-0.02892
-0.020314
-0.034138
-0.044685
-0.036371
-0.029999
-0.003629
0.018356
0.004221
0.001739
-0.023986
-0.020043
-0.014089
-0.023152
-0.032475
-0.028726
-0.062334
-0.044056
-0.064287
-0.079222
-0.068242
-0.08942
-0.0807
-0.052618
-0.050516
-0.025459
-0.047906
-0.030086
-0.015094
0.000319
-0.012491
-0.029078
-0.013338
0.016567
-0.04667
-0.034421
-0.023753
-0.07591
-0.057355
-0.036791
-0.055416
-0.057992
-0.05754
-0.052074
-0.058185
-0.078636
-0.071226
-0.083007
-0.078897
-0.085513
-0.095537
-0.081923
-0.076661
-0.097168
-0.098336
-0.085253
-0.071972
-0.061279
-0.069646
-0.072713
-0.089153
-0.095524
-0.072243
-0.078876
-0.090689
-0.094281
-0.104678
-0.077346
-0.081586
-0.102348
-0.077183
-0.081767
-0.121666
-0.082126
-0.05282
-0.045193
-0.115323
-0.122373
-0.101417
-0.112396
-0.100179
-0.088998
-0.096884
-0.109391
-0.110011
-0.113698
-0.141817
-0.12536
-0.091378
-0.099133
-0.100471
-0.098641
-0.090539
-0.094342
-0.097762
-0.100346
-0.097608
-0.102426
-0.127651
-0.116432
-0.097247
-0.098126
-0.120576
-0.105561
-0.099717
-0.112119
-0.140745
-0.125478
-0.102403
-0.102474
-0.107562
-0.114479
-0.115491
-0.103879
-0.094413
-0.095087
-0.071709
-0.105968
-0.125659
-0.138491
-0.127038
-0.1272
-0.131344
-0.125857
-0.103202
-0.098363
-0.092406
-0.109528
-0.130914
-0.158729
-0.128934
-0.134842
-0.138946
-0.150444
-0.13595
-0.132831
-0.130935
-0.131557
-0.114801
-0.097141
-0.106354
-0.068747
-0.072795
-0.070004
-0.057274
-0.021282
-0.01777
0.006457
0.028271
0.056276
0.086212
0.115496
0.181254
0.200298
0.225618
0.258405
0.296479
0.341274
0.31683
0.38285
0.450584
0.460197
0.476776
0.501011
0.446173
0.426426
0.426407
0.397884
0.368299
0.341364
0.336267
0.33103
0.32123
0.274083
0.222457
0.170599
0.164246
0.169713
0.149142
0.144725
0.147402
0.150411
0.116865
0.096976
0.090477
0.063862
0.042069
0.017442
-0.005621
-0.021661
0.016459
-0.015648
-0.04032
-0.013386
0.008139
-0.034148
-0.057072
-0.075519
-0.036258
-0.025919
-0.030365
-0.06104
-0.056032
-0.026866
-0.022682
-0.065054
-0.071694
-0.052371
-0.079152
-0.073041
-0.040266
-0.008562
-0.053705
-0.061896
-0.070512
-0.127656
-0.097632
-0.071873
-0.066872
-0.081861
-0.095174
-0.06875
-0.058313
-0.067744
-0.069744
-0.075443
-0.063819
-0.050339
-0.056551
-0.085112
-0.098282
-0.095646
-0.064095
-0.041894
-0.04373
-0.069908
-0.079016
-0.073867
-0.022403
-0.039719
-0.03975
-0.047343
-0.027239
-0.057801
-0.093914
-0.078641
-0.060835
-0.0598
-0.064165
-0.084906
-0.082532
-0.076651
-0.068431
-0.054758
-0.050561
-0.049159
-0.042972
-0.054246
-0.056495
-0.03694
-0.05649
-0.058959
-0.0626
-0.054182
-0.047137
-0.04102
-0.043979
-0.040612
-0.045738
-0.039303
-0.053919
-0.064626
-0.060208
-0.054696
-0.078963
-0.064108
-0.045827
-0.074927
-0.064901
-0.049184
-0.048368
-0.06528
-0.078929
-0.108828
-0.092908
-0.080486
-0.06658
-0.04477
-0.018306
-0.044184
-0.056955
-0.057321
-0.078584
-0.064436
-0.069696
-0.072882
-0.065757
-0.059242
-0.06449
-0.066968
-0.065769
-0.068418
-0.054386
-0.055215
-0.051694
-0.055702
-0.054527
-0.026957
-0.049762
-0.065172
-0.036716
-0.040879
-0.016171
-0.06935
-0.102704
-0.10506
-0.080835
-0.067013
-0.083191
-0.088792
-0.052928
-0.059827
-0.064226
-0.088394
-0.022591
-0.044926
-0.075528
-0.059175
-0.052768
-0.029841
0.000813
-0.016372
-0.118812
-0.079704
-0.074044
-0.064405
-0.048343
-0.038624
-0.032786
-0.053799
-0.060989
-0.065769
-0.030869
-0.019939
-0.031431
-0.03259
-0.051263
-0.066677
-0.048832
-0.093587
-0.073627
-0.059479
-0.039891
-0.026829
-0.020446
-0.011908
-0.023177
-0.029328
-0.037461
-0.050212
-0.010004
-0.029626
-0.053537
-0.042223
-0.047875
-0.065524
-0.034347
-0.01861
-0.008138
0.009677
0.011449
-0.047606
-0.052463
-0.019165
0.001036
-0.011698
-0.005934
-0.019197
-0.004661
0.016078
-0.021947
-0.038716
-0.019896
-0.037944
-0.007197
0.001247
-0.059021
-0.037507
-0.000459
0.012809
0.025441
0.046292
0.063319
0.040656
0.036699
0.015833
0.019529
0.011628
0.008059
-0.0063
-0.003885
-0.021902
-0.026863
0.004907
0.028053
0.011551
0.015309
0.027382
0.033316
0.025314
0.004996
-0.000283
-0.012094
0.00755
0.004805
-0.009487
-0.017762
-0.005433
-0.001406
0.004245
-0.01036
-0.031749
-0.00571
-0.03083
-0.003906
0.022248
-0.026
-0.032894
0.008521
0.025005
0.030048
-0.010167
-0.046626
-0.033273
-0.038886
-0.009342
-0.024777
-0.081075
-0.028512
-0.000721
-0.005378
-0.029222
-0.024698
-0.014567
-0.009423
-0.063783
-0.073394
-0.057454
-0.035776
-0.060587
-0.054806
-0.033616
-0.059048
-0.057936
-0.031123
-0.078041
-0.050844
-0.040575
-0.039748
-0.04573
-0.042833
-0.033807
-0.053433
-0.075884
-0.070139
-0.05978
-0.054073
-0.05241
-0.063499
-0.087517
-0.087002
-0.077312
-0.083418
-0.116309
-0.089053
-0.084909
-0.086254
-0.095533
-0.070073
-0.053866
-0.048147
-0.038939
-0.060869
-0.061961
-0.062534
-0.03568
-0.07105
-0.068029
-0.066251
-0.063729
-0.059949
-0.066793
-0.079597
-0.089307
-0.078778
-0.06665
-0.047251
-0.058274
-0.083692
-0.102633
-0.106764
-0.106729
-0.097481
-0.07554
-0.087798
-0.105432
-0.120002
-0.112162
-0.107715
-0.078982
-0.084004
-0.088466
-0.080426
-0.06603
-0.073933
-0.084517
-0.096378
-0.084078
-0.087615
-0.120953
-0.103
-0.090069
-0.109085
-0.080403
-0.042553
-0.060465
-0.076942
-0.083436
-0.093373
-0.107902
-0.088002
-0.092111
-0.101078
-0.104977
-0.097122
-0.10575
-0.095929
-0.103966
-0.107649
-0.102083
-0.081187
-0.069003
-0.07234
-0.091948
-0.059468
-0.047437
-0.086833
-0.057655
-0.037702
-0.030875
-0.080736
-0.11242
-0.023434
-0.060357
-0.076276
-0.098978
-0.066446
-0.080966
-0.079664
-0.063938
-0.076224
-0.063463
-0.071221
-0.05376
-0.063851
-0.089151
-0.084045
-0.069201
-0.095152
-0.099331
-0.075652
-0.079774
-0.062857
-0.076157
-0.047569
-0.052329
-0.056942
-0.068599
-0.082101
-0.076806
-0.096522
-0.041893
-0.037479
-0.032839
-0.054908
-0.072493
-0.062719
-0.056432
-0.058178
-0.054514
-0.045468
-0.091816
-0.065467
-0.049949
-0.043594
-0.058563
-0.077514
-0.045609
-0.058871
-0.097969
-0.0857
-0.104107
-0.112358
-0.122493
-0.076926
-0.074605
-0.107611
-0.091671
-0.093469
-0.094016
-0.088195
-0.071005
-0.062616
-0.054085
-0.042863
-0.05213
-0.054847
-0.05768
-0.071676
-0.080625
-0.060791
-0.074937
-0.074554
-0.075267
-0.093443
-0.084582
-0.087541
-0.085058
-0.071511
-0.0889
-0.09278
-0.069805
-0.08413
-0.085809
-0.056916
-0.015803
-0.037715
-0.065843
-0.083602
-0.068043
-0.053744
-0.065037
-0.102134
-0.094698
-0.070882
-0.0767
-0.05044
-0.065974
-0.069512
-0.038711
-0.058702
-0.053735
-0.063107
-0.087427
-0.073352
-0.063501
-0.072349
-0.075344
-0.068063
-0.105472
-0.081341
-0.075822
-0.078494
-0.091319
-0.096383
-0.09531
-0.089562
-0.089053
-0.076613
-0.079517
-0.077453
-0.06358
-0.077127
-0.054597
-0.04904
-0.056052
-0.088156
-0.064374
-0.080968
-0.126929
-0.09111
-0.072972
-0.083698
-0.109377
-0.111559
-0.117187
-0.101365
-0.083874
-0.071713
-0.061249
-0.080433
-0.068751
-0.073316
-0.083047
-0.060646
-0.060318
-0.057611
-0.076504
-0.124577
-0.140736
-0.13242
-0.107328
-0.076658
-0.106718
-0.103291
-0.090037
-0.104811
-0.133069
-0.122544
-0.091248
-0.08389
-0.06949
-0.043747
-0.029087
-0.049687
-0.055288
-0.041521
-0.06613
-0.086869
-0.078814
-0.089428
-0.071506
-0.087619
-0.068516
-0.068699
-0.075119
-0.052859
-0.041759
-0.084459
-0.09097
-0.074463
-0.058458
-0.078269
-0.077067
-0.040595
-0.066888
-0.076898
-0.092733
-0.13874
-0.090941
-0.063659
-0.073735
-0.072163
-0.078227
-0.084762
-0.084994
-0.092321
-0.110332
-0.092688
-0.080797
-0.085176
-0.080047
-0.089415
-0.077366
-0.077756
-0.063862
-0.08625
-0.096832
-0.083924
-0.086859
-0.069946
-0.069857
-0.080743
-0.104779
-0.088172
-0.075512
-0.074089
-0.09507
-0.081155
-0.065777
-0.090293
-0.09387
-0.106162
-0.125689
-0.087745
-0.029428
-0.104117
-0.159877
-0.124421
-0.078325
-0.071809
-0.068532
-0.096099
-0.083596
-0.081321
-0.030369
-0.062902
-0.100722
-0.068595
-0.047803
-0.075559
-0.038812
-0.0897
-0.078613
-0.097268
-0.112809
-0.096312
-0.088073
-0.086686
-0.065654
-0.057228
-0.056322
-0.044255
-0.073129
-0.089869
-0.093777
-0.087038
-0.065897
-0.058173
-0.096853
-0.11504
-0.074201
-0.052077
-0.085831
-0.10092
-0.097896
-0.082665
-0.052211
-0.057511
-0.107457
-0.075885
-0.07502
-0.07574
-0.097729
-0.100102
-0.084139
-0.093195
-0.121924
-0.112184
-0.11303
-0.125533
-0.099284
-0.101114
-0.118539
-0.097439
-0.071383
-0.048937
-0.076241
-0.066231
-0.054442
-0.091997
-0.074562
-0.057811
-0.111234
-0.0887
-0.104449
-0.075276
-0.047071
-0.06652
-0.045803
-0.095123
-0.084481
-0.094926
-0.071742
-0.093092
-0.074645
-0.085931
-0.093801
-0.086101
-0.091233
-0.1139
-0.090395
-0.08231
-0.095064
-0.105949
-0.111457
-0.090319
-0.088998
-0.089177
-0.083779
-0.073892
-0.092566
-0.123131
-0.089876
-0.107515
-0.097501
-0.100434
-0.102196
-0.088888
-0.117468
-0.110703
-0.064969
-0.043199
-0.051377
-0.088761
-0.113334
-0.094016
-0.103086
-0.114305
-0.070697
-0.078619
-0.112787
-0.095669
-0.067911
-0.102674
-0.112734
-0.083836
-0.115373
-0.127866
-0.105951
-0.110193
-0.130099
-0.12238
-0.074773
-0.064248
-0.058328
-0.095358
-0.084677
-0.099039
-0.08981
-0.086471
-0.073388
-0.09754
-0.117176
-0.108924
-0.111438
-0.109881
-0.110777
-0.084197
-0.073203
-0.091888
-0.086289
-0.065827
-0.070606
-0.076643
-0.116276
-0.121062
-0.080035
-0.068407
-0.078297
-0.111575
-0.091567
-0.065937
-0.069591
-0.07841
-0.083332
-0.06771
-0.08358
-0.092628
-0.069748
-0.140599
-0.094453
-0.063758
-0.076233
-0.092884
-0.083
-0.072322
-0.083292
-0.0863
-0.106958
-0.09791
-0.083843
-0.043714
-0.056486
-0.068201
-0.088776
-0.078975
-0.065361
-0.044522
-0.039085
-0.031224
-0.06305
-0.042042
-0.054815
-0.054559
-0.046298
-0.045924
-0.046475
-0.053653
-0.024254
-0.03123
-0.020922
-0.018413
-0.052147
-0.022608
-0.046221
-0.04686
-0.08083
-0.068017
-0.016696
-0.021649
-0.034642
-0.078403
-0.056659
-0.035486
-0.030482
-0.030513
-0.049981
-0.047848
-0.019926
-0.022243
-0.046021
-0.070563
-0.066279
-0.083448
-0.083223
-0.041732
-0.000259
0.018234
-0.053262
-0.120712
-0.070814
-0.024005
-0.033598
-0.026105
-0.038539
-0.013288
-0.036628
-0.065692
-0.053885
-0.052726
-0.055242
-0.062815
-0.068473
-0.078461
-0.072043
-0.059471
-0.07202
-0.11786
-0.114564
-0.101623
-0.121156
-0.128262
-0.132845
-0.138767
-0.086141
-0.06355
-0.068866
-0.058949
-0.068959
-0.07388
-0.073684
-0.087053
-0.090632
-0.083297
-0.079202
-0.081994
-0.093687
-0.104426
-0.081754
-0.103239
-0.085304
-0.096461
-0.10575
-0.101593
-0.099718
-0.071816
-0.089044
-0.085378
-0.083153
-0.070962
-0.107043
-0.090753
-0.056288
-0.067495
-0.099931
-0.142773
-0.153596
-0.139208
-0.119203
-0.128011
-0.144234
-0.135685
-0.145769
-0.139134
-0.119695
-0.097724
-0.089548
-0.108793
-0.105395
-0.106749
-0.087577
-0.136286
-0.134229
-0.13292
-0.119277
-0.128836
-0.103891
-0.098926
-0.10685
-0.103172
-0.107073
-0.107205
-0.100258
-0.118818
-0.083264
-0.073697
-0.070191
-0.100148
-0.117303
-0.092018
-0.119943
-0.130383
-0.121941
-0.138885
-0.148113
-0.160684
-0.144173
-0.132446
-0.125666
-0.130749
-0.126147
-0.125825
-0.16593
-0.103898
-0.100838
-0.119646
-0.095406
-0.070561
-0.052391
-0.064958
-0.049929
0.01194
0.092532
0.067025
0.091615
0.143742
0.15915
0.195
0.253714
0.265714
0.295271
0.353944
0.408856
0.43899
0.445385
0.457194
0.469439
0.443765
0.451543
0.440609
0.401792
0.355778
0.342564
0.331905
0.342162
0.313681
0.263431
0.216111
0.17448
0.170096
0.175908
0.169369
0.148772
0.1284
0.1079
0.11147
0.09359
0.049453
0.0295
0.021775
0.006116
0.004355
0.004798
-0.004461
-0.033634
-0.06307
-0.047184
-0.04967
-0.06234
-0.042973
-0.084444
-0.091691
-0.045145
-0.014187
-0.014959
-0.009653
-0.012162
-0.018712
-0.032532
-0.070219
-0.058271
-0.045656
-0.045225
-0.047729
-0.065221
-0.099957
-0.06727
-0.023054
-0.006899
-0.045434
-0.064894
-0.085085
-0.072059
-0.062446
-0.049801
-0.061695
-0.070869
-0.079122
-0.067749
-0.086275
-0.081449
-0.092292
-0.09299
-0.083393
-0.071367
-0.090461
-0.071928
-0.093843
-0.065436
-0.064404
-0.079301
-0.073387
-0.065685
-0.052001
-0.043381
-0.060753
-0.060662
-0.038081
-0.111153
-0.088639
-0.060947
-0.08114
-0.076267
-0.080058
-0.089252
-0.070242
-0.091343
-0.092289
-0.095163
-0.10181
-0.100281
-0.06431
-0.103975
-0.096236
-0.087719
-0.07771
-0.056996
-0.100894
-0.066547
-0.083986
-0.085428
-0.105023
-0.101337
-0.114093
-0.083122
-0.061639
-0.046878
-0.046414
-0.017547
-0.040482
-0.072235
-0.084002
-0.064279
-0.042501
-0.057263
-0.066693
-0.069072
-0.058911
-0.070001
-0.078169
-0.057584
-0.068295
-0.101493
-0.0819
-0.051914
-0.069823
-0.083258
-0.08004
-0.075083
-0.069996
-0.077867
-0.109364
-0.099531
-0.099562
-0.0846
-0.086643
-0.084258
-0.073488
-0.058098
-0.051685
-0.054724
-0.045931
-0.028074
-0.063656
-0.106497
-0.06868
-0.059948
-0.066382
-0.075672
-0.060115
-0.057106
-0.045816
-0.057017
-0.028515
-0.048258
-0.036183
-0.040876
-0.048963
-0.032352
-0.060858
-0.082873
-0.136372
-0.101021
-0.055164
-0.061168
-0.083274
-0.083951
-0.097226
-0.094041
-0.078198
-0.048661
-0.013878
-0.051113
-0.059152
-0.067014
-0.049103
-0.045925
-0.041279
-0.01515
-0.026738
-0.015722
-0.100673
-0.08803
-0.035366
-0.031541
-0.042791
-0.086393
-0.041983
-0.046123
-0.070454
-0.052465
-0.041551
-0.082265
-0.022481
-0.042168
-0.049513
-0.038393
-0.027203
-0.04145
-0.058602
-0.057665
-0.03139
-0.027621
-0.01898
-0.020212
-0.016793
-0.026515
-0.029302
-0.029211
-0.035747
-0.02361
-0.013496
-0.016368
0.003494
-0.010539
-0.037027
-0.052512
-0.046911
0.000246
-0.017689
-0.034737
-0.055518
-0.052495
0.016124
-0.000962
-0.003092
-0.027466
-0.028848
-0.018078
-0.01511
-0.039771
-0.054795
-0.018286
-0.008507
-0.010518
0.002462
0.009506
0.023376
0.018953
0.011877
0.028684
0.014888
0.005993
0.002908
0.020572
0.01699
0.007027
0.006143
0.011244
0.006589
-0.008312
-0.023117
-0.01877
-0.001489
-0.011533
-0.029457
-0.034589
-0.040375
-0.034486
-0.015826
0.001368
-0.020797
-0.015064
-0.014543
-0.036868
-0.016245
-0.012409
-0.019957
-0.010165
0.003172
-0.013069
-0.014824
-0.025127
-0.024688
-0.033971
-0.034799
-0.0478
-0.041383
-0.061045
-0.066353
-0.058048
-0.068301
-0.07813
-0.073183
-0.066742
-0.088068
-0.106107
-0.085528
-0.046723
-0.06164
-0.072743
-0.076854
-0.082282
-0.09301
-0.085408
-0.083337
-0.09462
-0.110483
-0.082176
-0.091042
-0.101031
-0.082654
-0.106449
-0.110029
-0.072274
-0.072439
-0.058592
-0.067507
-0.085708
-0.10464
-0.090771
-0.11055
-0.149726
-0.132353
-0.11782
-0.098845
-0.083518
-0.062717
-0.078322
-0.1054
-0.127488
-0.115258
-0.109657
-0.108946
-0.101699
-0.120622
-0.141721
-0.10959
-0.137863
-0.131695
-0.127859
-0.128726
-0.110025
-0.091081
-0.065246
-0.090059
-0.078578
-0.098078
-0.106775
-0.085243
-0.097611
-0.118931
-0.112382
-0.094783
-0.114905
-0.120795
-0.133209
-0.146573
-0.131467
-0.101283
-0.09656
-0.100467
-0.090678
-0.130006
-0.119178
-0.114846
-0.104389
-0.13821
-0.12565
-0.116951
-0.086436
-0.131646
-0.126134
-0.109583
-0.126013
-0.127384
-0.125109
-0.129309
-0.117436
-0.117923
-0.113043
-0.109499
-0.139458
-0.13633
-0.101894
-0.093957
-0.0746
-0.0557
-0.081668
-0.102096
-0.083515
-0.094817
-0.082229
-0.086591
-0.097025
-0.097816
-0.102933
-0.115127
-0.126567
-0.142305
-0.126591
-0.129155
-0.125042
-0.114083
-0.105648
-0.0983
-0.075237
-0.087011
-0.0932
-0.099922
-0.093875
-0.103598
-0.082781
-0.103582
-0.130206
-0.12539
-0.088248
-0.092262
-0.071587
-0.100033
-0.100751
-0.087777
-0.115751
-0.123048
-0.114882
-0.079574
-0.118602
-0.115647
-0.144625
-0.154737
-0.105304
-0.158026
-0.126909
-0.091912
-0.084019
-0.087152
-0.081046
-0.101853
-0.081529
-0.098087
-0.094471
-0.097584
-0.091606
-0.093448
-0.078706
-0.079367
-0.071337
-0.055502
-0.062783
-0.072971
-0.077232
-0.087455
-0.084558
-0.081359
-0.089685
-0.108618
-0.118146
-0.138534
-0.126532
-0.137481
-0.104356
-0.13951
-0.124627
-0.122538
-0.137032
-0.105992
-0.096269
-0.076377
-0.07589
-0.076367
-0.085497
-0.083557
-0.115821
-0.14206
-0.108784
-0.095849
-0.107678
-0.117081
-0.117311
-0.116727
-0.088571
-0.105093
-0.088836
-0.093496
-0.097721
-0.079433
-0.115202
-0.108957
-0.087794
-0.081888
-0.122385
-0.107429
-0.11857
-0.123752
-0.118462
-0.097341
-0.126157
-0.129627
-0.152333
-0.140568
-0.128416
-0.12611
-0.141749
-0.12574
-0.099295
-0.107477
-0.124337
-0.091694
-0.078538
-0.079361
-0.09731
-0.108759
-0.106969
-0.086471
-0.11737
-0.127717
-0.108667
-0.084748
-0.131268
-0.116065
-0.123591
-0.125074
-0.135387
-0.148613
-0.143965
-0.118849
-0.102793
-0.139343
-0.141274
-0.132734
-0.128318
-0.139625
-0.138158
-0.119473
-0.125252
-0.099477
-0.079746
-0.108093
-0.114726
-0.128347
-0.127786
-0.140019
-0.143582
-0.13706
-0.1258
-0.118029
-0.098792
-0.079706
-0.10415
-0.14294
-0.103246
-0.103222
-0.126372
-0.099291
-0.120287
-0.136564
-0.133405
-0.158472
-0.162413
-0.136815
-0.164269
-0.18267
-0.163825
-0.146364
-0.141448
-0.153533
-0.138833
-0.112442
-0.089237
-0.104647
-0.086336
-0.078699
-0.083449
-0.092217
-0.13107
-0.160844
-0.131215
-0.102209
-0.092403
-0.081582
-0.085093
-0.13684
-0.135895
-0.122359
-0.103024
-0.110459
-0.119431
-0.112578
-0.141565
-0.127813
-0.12629
-0.127679
-0.159053
-0.133725
-0.110633
-0.127841
-0.109154
-0.11189
-0.137698
-0.137998
-0.135663
-0.132814
-0.142813
-0.147309
-0.155709
-0.133501
-0.133677
-0.136369
-0.125904
-0.139398
-0.110609
-0.096117
-0.114529
-0.085901
-0.121092
-0.130883
-0.117552
-0.099954
-0.118967
-0.133953
-0.147797
-0.136029
-0.121759
-0.126345
-0.125745
-0.129229
-0.136416
-0.13496
-0.153426
-0.162676
-0.14222
-0.149596
-0.132479
-0.131396
-0.140885
-0.142117
-0.142508
-0.124073
-0.135875
-0.160684
-0.144633
-0.135967
-0.131954
-0.11844
-0.116197
-0.117302
-0.116879
-0.139224
-0.136853
-0.132842
-0.135312
-0.157226
-0.144587
-0.154893
-0.135871
-0.130157
-0.132863
-0.14177
-0.128672
-0.114682
-0.148695
-0.151972
-0.1476
-0.144902
-0.135854
-0.11564
-0.126164
-0.12942
-0.119505
-0.115595
-0.125245
-0.14551
-0.118662
-0.121458
-0.138391
-0.108778
-0.106102
-0.138697
-0.116303
-0.137421
-0.140658
-0.134027
-0.142136
-0.125617
-0.143267
-0.132058
-0.12343
-0.109617
-0.133364
-0.179555
-0.197889
-0.154007
-0.173057
-0.216414
-0.154237
-0.12767
-0.147189
-0.157503
-0.134068
-0.134074
-0.128489
-0.1419
-0.151354
-0.143889
-0.153716
-0.12889
-0.125941
-0.139138
-0.116634
-0.11532
-0.154594
-0.163003
-0.126311
-0.137716
-0.125409
-0.12014
-0.146508
-0.156157
-0.150541
-0.159754
-0.143031
-0.111212
-0.122265
-0.149271
-0.145844
-0.132061
-0.122036
-0.11596
-0.101464
-0.107888
-0.176454
-0.159656
-0.158117
-0.164963
-0.142379
-0.127355
-0.119405
-0.134174
-0.137964
-0.135426
-0.148352
-0.11244
-0.148419
-0.132389
-0.111088
-0.128804
-0.125313
-0.130237
-0.127976
-0.13868
-0.162777
-0.151223
-0.150045
-0.149441
-0.157683
-0.15185
-0.142888
-0.131218
-0.149627
-0.13756
-0.134807
-0.136288
-0.143205
-0.147112
-0.149139
-0.132401
-0.128581
-0.128727
-0.130224
-0.139222
-0.132425
-0.14541
-0.152045
-0.140553
-0.128821
-0.153837
-0.175903
-0.156664
-0.157096
-0.125421
-0.147078
-0.171095
-0.141391
-0.132667
-0.128155
-0.119607
-0.13012
-0.109249
-0.114954
-0.108953
-0.103301
-0.100435
-0.096335
-0.119378
-0.123079
-0.120589
-0.128149
-0.109596
-0.074146
-0.09687
-0.108308
-0.100675
-0.110186
-0.123031
-0.106837
-0.095319
-0.1013
-0.121224
-0.144215
-0.132539
-0.120046
-0.130925
-0.099786
-0.080778
-0.085458
-0.109585
-0.094347
-0.064789
-0.093928
-0.106741
-0.14083
-0.104875
-0.096519
-0.093941
-0.075641
-0.055309
-0.084462
-0.105618
-0.056106
-0.058295
-0.052038
-0.063522
-0.077532
-0.093844
-0.106677
-0.14835
-0.137107
-0.120912
-0.109282
-0.099421
-0.114952
-0.10428
-0.12156
-0.128513
-0.103203
-0.093693
-0.112667
-0.12251
-0.112983
-0.111488
-0.135363
-0.134354
-0.127993
-0.153735
-0.14934
-0.146664
-0.177425
-0.174787
-0.161115
-0.15696
-0.150167
-0.11184
-0.124351
-0.123477
-0.114391
-0.127897
-0.140352
-0.175186
-0.170071
-0.168269
-0.175806
-0.157579
-0.128099
-0.190241
-0.185864
-0.151014
-0.133405
-0.134931
-0.178454
-0.169764
-0.15714
-0.184578
-0.187042
-0.18101
-0.163976
-0.166491
-0.197696
-0.197781
-0.19135
-0.143835
-0.142616
-0.159778
-0.136856
-0.151228
-0.149158
-0.156398
-0.15587
-0.157901
-0.161374
-0.154743
-0.15244
-0.153983
-0.167039
-0.170825
-0.16551
-0.149886
-0.151062
-0.158337
-0.146047
-0.148707
-0.18161
-0.182167
-0.168963
-0.191142
-0.210287
-0.196263
-0.185452
-0.175939
-0.170853
-0.132121
-0.155747
-0.178275
-0.190021
-0.155607
-0.157698
-0.185356
-0.189816
-0.19317
-0.1717
-0.213594
-0.243293
-0.247887
-0.231262
-0.221916
-0.201216
-0.209242
-0.194212
-0.174853
-0.165063
-0.155383
-0.155202
-0.173628
-0.138282
-0.125672
-0.10345
-0.081573
-0.063761
-0.047823
-0.020729
-0.002598
0.022363
0.047704
0.090512
0.109444
0.144609
0.188393
0.227596
0.276184
0.296447
0.331109
0.349063
0.385172
0.422225
0.397736
0.34932
0.343223
0.345037
0.332695
0.309465
0.291231
0.239973
0.19676
0.16515
0.126503
0.104884
0.114732
0.092593
0.089344
0.066415
0.031982
0.033845
0.039074
0.060672
0.035748
-0.002543
-0.038009
-0.064639
-0.037101
-0.05351
-0.066621
-0.089784
-0.095654
-0.089172
-0.082157
-0.074572
-0.069472
-0.071482
-0.098137
-0.109072
-0.107052
-0.09249
-0.077412
-0.085951
-0.130063
-0.151938
-0.127199
-0.156941
-0.14692
-0.108115
-0.092902
-0.092704
-0.085714
-0.140626
-0.147598
-0.147486
-0.154075
-0.152977
-0.13313
-0.165483
-0.169575
-0.156234
-0.145768
-0.158757
-0.16604
-0.15087
-0.121166
-0.113078
-0.123211
-0.125732
-0.131345
-0.139857
-0.13864
-0.137745
-0.144414
-0.149263
-0.136864
-0.130432
-0.138782
-0.153916
-0.152106
-0.128882
-0.124543
-0.139876
-0.116236
-0.11183
-0.150873
-0.180398
-0.178621
-0.166324
-0.196434
-0.133609
-0.126004
-0.141485
-0.159694
-0.14997
-0.189966
-0.169833
-0.16946
-0.186418
-0.18141
-0.163227
-0.144349
-0.167511
-0.151187
-0.132477
-0.117093
-0.140203
-0.186235
-0.161253
-0.153208
-0.114184
-0.120402
-0.105396
-0.135404
-0.156749
-0.131729
-0.147978
-0.151435
-0.1428
-0.129446
-0.130733
-0.171811
-0.165314
-0.170153
-0.19411
-0.15269
-0.121143
-0.139441
-0.156062
-0.156912
-0.147504
-0.140888
-0.151751
-0.120545
-0.117618
-0.1243
-0.136459
-0.140813
-0.134525
-0.143626
-0.148807
-0.119543
-0.163325
-0.13792
-0.110951
-0.118516
-0.123035
-0.106552
-0.127317
-0.120182
-0.107602
-0.121948
-0.183632
-0.180139
-0.17389
-0.165292
-0.154896
-0.17488
-0.167869
-0.170683
-0.181896
-0.166656
-0.150738
-0.162019
-0.138662
-0.14521
-0.172909
-0.168645
-0.146414
-0.148827
-0.141341
-0.131775
-0.119251
-0.136882
-0.165355
-0.156302
-0.143344
-0.168152
-0.178028
-0.159217
-0.154534
-0.139874
-0.16777
-0.170477
-0.164535
-0.155588
-0.18609
-0.163972
-0.16978
-0.171735
-0.167491
-0.14907
-0.119544
-0.118878
-0.100594
-0.142976
-0.135384
-0.143617
-0.137747
-0.143296
-0.144033
-0.136221
-0.152225
-0.139647
-0.127744
-0.144663
-0.095944
-0.106116
-0.072787
-0.096057
-0.075982
-0.108522
-0.099006
-0.084434
-0.079032
-0.082222
-0.109539
-0.130415
-0.104127
-0.075151
-0.101783
-0.11279
-0.118281
-0.116613
-0.144294
-0.125886
-0.109616
-0.133214
-0.124252
-0.098827
-0.084705
-0.081657
-0.103838
-0.108239
-0.106346
-0.103769
-0.11544
-0.110726
-0.110467
-0.115853
-0.103061
-0.122263
-0.112338
-0.089847
-0.074191
-0.065552
-0.082289
-0.091317
-0.073141
-0.073747
-0.081482
-0.083291
-0.089544
-0.127407
-0.122052
-0.094474
-0.097197
-0.120892
-0.10656
-0.104159
-0.099326
-0.080065
-0.0912
-0.09969
-0.116293
-0.119048
-0.089395
-0.115461
-0.119164
-0.122845
-0.1252
-0.14408
-0.145471
-0.14315
-0.143575
-0.117953
-0.134552
-0.126274
-0.098947
-0.101551
-0.126253
-0.104742
-0.130342
-0.133475
-0.133257
-0.130526
-0.132038
-0.124025
-0.110164
-0.109841
-0.13693
-0.16707
-0.157227
-0.162924
-0.143949
-0.149397
-0.154458
-0.143408
-0.131238
-0.143906
-0.16481
-0.167782
-0.147612
-0.140334
-0.16596
-0.147272
-0.17355
-0.177515
-0.18318
-0.18728
-0.146566
-0.149392
-0.185437
-0.209785
-0.192877
-0.218438
-0.148789
-0.142284
-0.160027
-0.179558
-0.207301
-0.195928
-0.184814
-0.203451
-0.18028
-0.167291
-0.177828
-0.169114
-0.169925
-0.153425
-0.196562
-0.181248
-0.187512
-0.188869
-0.194101
-0.196907
-0.190105
-0.18806
-0.191062
-0.201223
-0.139829
-0.174822
-0.277405
-0.24583
-0.224162
-0.183915
-0.18013
-0.178617
-0.185623
-0.210938
-0.214294
-0.201513
-0.197619
-0.189237
-0.198049
-0.206935
-0.198726
-0.182499
-0.172568
-0.189868
-0.193994
-0.191013
-0.178861
-0.181598
-0.193008
-0.203271
-0.201196
-0.182202
-0.179922
-0.190344
-0.183357
-0.168647
-0.161006
-0.16047
-0.17847
-0.16953
-0.183888
-0.209303
-0.218806
-0.218232
-0.21302
-0.194228
-0.181211
-0.189062
-0.188652
-0.193413
-0.193381
-0.189485
-0.195636
-0.193553
-0.183701
-0.186164
-0.172675
-0.169369
-0.151548
-0.164343
-0.18575
-0.183873
-0.161472
-0.163124
-0.188597
-0.201828
-0.191879
-0.210384
-0.193786
-0.182565
-0.201016
-0.188451
-0.174209
-0.17697
-0.184869
-0.160859
-0.154374
-0.150573
-0.173037
-0.198431
-0.167095
-0.148753
-0.179857
-0.183816
-0.192086
-0.20619
-0.206775
-0.251013
-0.221007
-0.204335
-0.239554
-0.205018
-0.172167
-0.17607
-0.183147
-0.149158
-0.14229
-0.170548
-0.189799
-0.188397
-0.15608
-0.15022
-0.163691
-0.15311
-0.165755
-0.163911
-0.157889
-0.145032
-0.135323
-0.158869
-0.179482
-0.16598
-0.165001
-0.168389
-0.174037
-0.202176
-0.189216
-0.183998
-0.174782
-0.189039
-0.170103
-0.162244
-0.1619
-0.175626
-0.202491
-0.199832
-0.233996
-0.149689
-0.149257
-0.145114
-0.164196
-0.190481
-0.166623
-0.149297
-0.151759
-0.183287
-0.178953
-0.194994
-0.171961
-0.187796
-0.199023
-0.197376
-0.198344
-0.17079
-0.189554
-0.193017
-0.195959
-0.194759
-0.18997
-0.154283
-0.133694
-0.188464
-0.20361
-0.184646
-0.191706
-0.205554
-0.180618
-0.180233
-0.186206
-0.190141
-0.187966
-0.214504
-0.204894
-0.196505
-0.180069
-0.199546
-0.201614
-0.179674
-0.200634
-0.205
-0.189871
-0.176911
-0.167341
-0.192148
-0.202677
-0.159608
-0.203306
-0.184066
-0.21635
-0.193876
-0.19421
-0.198269
-0.18324
-0.189852
-0.159249
-0.163875
-0.162428
-0.148744
-0.164339
-0.172216
-0.202746
-0.191484
-0.176795
-0.185585
-0.202299
-0.162974
-0.177119
-0.185372
-0.175009
-0.191005
-0.211949
-0.203857
-0.212167
-0.217506
-0.207218
-0.226346
-0.199898
-0.204361
-0.190464
-0.149946
-0.150284
-0.159653
-0.180002
-0.150564
-0.153772
-0.15898
-0.147404
-0.17051
-0.168956
-0.164802
-0.170669
-0.198575
-0.207298
-0.232163
-0.221022
-0.212586
-0.202621
-0.209884
-0.203172
-0.19507
-0.17851
-0.190982
-0.182383
-0.197273
-0.205102
-0.201754
-0.207677
-0.216102
-0.211255
-0.208161
-0.202664
-0.200248
-0.179755
-0.190536
-0.196696
-0.201922
-0.220449
-0.195808
-0.183029
-0.172785
-0.163208
-0.15324
-0.176329
-0.179767
-0.181009
-0.174323
-0.183809
-0.189898
-0.209234
-0.180866
-0.177024
-0.204828
-0.20013
-0.186118
-0.192029
-0.174592
-0.178225
-0.175415
-0.195063
-0.202714
-0.195694
-0.17051
-0.183026
-0.182101
-0.164091
-0.193982
-0.203355
-0.220692
-0.197194
-0.1783
-0.18218
-0.200182
-0.210399
-0.247669
-0.21003
-0.171621
-0.175804
-0.188081
-0.153482
-0.137314
-0.17152
-0.175386
-0.177665
-0.194917
-0.154583
-0.164009
-0.191893
-0.182606
-0.183811
-0.204004
-0.189175
-0.202188
-0.221094
-0.214878
-0.233774
-0.223043
-0.190036
-0.181225
-0.172979
-0.189688
-0.18155
-0.143707
-0.166793
-0.17115
-0.172422
-0.195066
-0.179439
-0.181639
-0.178088
-0.189871
-0.185303
-0.183277
-0.191813
-0.198254
-0.213394
-0.200845
-0.174588
-0.17196
-0.17865
-0.168467
-0.170009
-0.179294
-0.179219
-0.202539
-0.180458
-0.194906
-0.207138
-0.193278
-0.190501
-0.214421
-0.206161
-0.212181
-0.188436
-0.190798
-0.187648
-0.161686
-0.153108
-0.18047
-0.191745
-0.184889
-0.184874
-0.199079
-0.231645
-0.206197
-0.215652
-0.170153
-0.151423
-0.17733
-0.193179
-0.199945
-0.181432
-0.175775
-0.181488
-0.210246
-0.187651
-0.183404
-0.162869
-0.174392
-0.177663
-0.188638
-0.189252
-0.176633
-0.175499
-0.193386
-0.203874
-0.177398
-0.201737
-0.19087
-0.17512
-0.20376
-0.197063
-0.209965
-0.200807
-0.208044
-0.190464
-0.18729
-0.178962
-0.177703
-0.211583
-0.250435
-0.203295
-0.180414
-0.257984
-0.248246
-0.191701
-0.153247
-0.147829
-0.115842
-0.088992
-0.146048
-0.153643
-0.133029
-0.136475
-0.140713
-0.156044
-0.161769
-0.172868
-0.154868
-0.142637
-0.146315
-0.154158
-0.155933
-0.172095
-0.155018
-0.1559
-0.139973
-0.141756
-0.168879
-0.136385
-0.134601
-0.166538
-0.17219
-0.195102
-0.162536
-0.150796
-0.12964
-0.122152
-0.125704
-0.137386
-0.127754
-0.152975
-0.143503
-0.127544
-0.141776
-0.159566
-0.154861
-0.170409
-0.159223
-0.132301
-0.122541
-0.142585
-0.150315
-0.129077
-0.122516
-0.155368
-0.160012
-0.147309
-0.154412
-0.159614
-0.152632
-0.192618
-0.163988
-0.164906
-0.209786
-0.200617
-0.170423
-0.1726
-0.194026
-0.179611
-0.160597
-0.185405
-0.235859
-0.266623
-0.192017
-0.188695
-0.2073
-0.208797
-0.195709
-0.158065
-0.197137
-0.220393
-0.185375
-0.177449
-0.188757
-0.178823
-0.189468
-0.198561
-0.201469
-0.217165
-0.206526
-0.207849
-0.230474
-0.235807
-0.223693
-0.220856
-0.216846
-0.228744
-0.231055
-0.221352
-0.201436
-0.228064
-0.22741
-0.221771
-0.206922
-0.215723
-0.205075
-0.184252
-0.177727
-0.220904
-0.255982
-0.242127
-0.236809
-0.251494
-0.24407
-0.252934
-0.249157
-0.249258
-0.230254
-0.211394
-0.195582
-0.203394
-0.222507
-0.231121
-0.216042
-0.20405
-0.218867
-0.212249
-0.187907
-0.196973
-0.212028
-0.208359
-0.230251
-0.227411
-0.228013
-0.22126
-0.211232
-0.210022
-0.225135
-0.229867
-0.201329
-0.216194
-0.217858
-0.218393
-0.238757
-0.244236
-0.269784
-0.27738
-0.283256
-0.285136
-0.261222
-0.277724
-0.279749
-0.251662
-0.246805
-0.25997
-0.221548
-0.183216
-0.19598
-0.151695
-0.124388
-0.148729
-0.137825
-0.054988
-0.047978
-0.013123
0.007976
0.017946
0.030306
0.04455
0.1376
0.180772
0.222703
0.243461
0.268862
0.304386
0.338874
0.357716
0.36776
0.351905
0.362284
0.371155
0.345206
0.325188
0.293807
0.26915
0.258462
0.234949
0.19927
0.133944
0.089507
0.074289
0.097543
0.088575
0.062884
0.050982
0.06307
0.036961
0.013162
-0.005274
-0.0255
-0.069011
-0.101238
-0.110653
-0.121832
-0.118295
-0.118149
-0.118206
-0.135249
-0.132553
-0.139826
-0.158696
-0.170912
-0.158999
-0.14443
-0.149113
-0.152089
-0.143008
-0.1442
-0.159363
-0.157942
-0.152644
-0.180442
-0.198903
-0.166397
-0.169488
-0.159175
-0.186397
-0.176295
-0.17445
-0.184701
-0.200303
-0.178236
-0.160869
-0.201088
-0.200518
-0.173431
-0.166441
-0.121778
-0.145937
-0.202604
-0.20785
-0.199308
-0.187777
-0.186179
-0.1866
-0.20181
-0.193341
-0.191971
-0.198401
-0.196583
-0.183613
-0.183476
-0.180418
-0.173268
-0.170798
-0.184595
-0.169432
-0.190142
-0.204056
-0.212727
-0.200162
-0.194121
-0.171069
-0.174755
-0.208775
-0.197272
-0.178597
-0.161745
-0.167024
-0.194535
-0.192126
-0.17159
-0.186285
-0.207011
-0.19719
-0.170835
-0.159913
-0.162676
-0.162265
-0.183021
-0.186257
-0.19378
-0.160667
-0.149133
-0.163912
-0.180706
-0.196635
-0.206522
-0.176684
-0.18708
-0.232121
-0.259494
-0.229018
-0.2279
-0.212004
-0.185269
-0.21349
-0.165109
-0.150152
-0.155024
-0.149708
-0.16292
-0.179199
-0.171051
-0.173583
-0.172824
-0.16167
-0.149193
-0.165356
-0.197177
-0.176004
-0.161236
-0.178007
-0.171981
-0.180768
-0.183036
-0.190713
-0.18823
-0.171566
-0.186885
-0.184469
-0.17211
-0.166983
-0.184457
-0.175368
-0.158468
-0.190026
-0.205884
-0.187269
-0.194647
-0.196389
-0.179886
-0.182144
-0.200248
-0.185079
-0.137699
-0.134179
-0.158674
-0.172499
-0.175233
-0.157177
-0.195161
-0.19472
-0.175804
-0.166504
-0.148884
-0.198491
-0.1793
-0.148128
-0.158394
-0.169005
-0.151917
-0.164585
-0.192378
-0.170115
-0.161589
-0.162432
-0.155492
-0.181537
-0.226708
-0.193225
-0.192276
-0.181292
-0.173331
-0.13792
-0.157913
-0.154699
-0.155228
-0.158761
-0.163897
-0.155384
-0.164313
-0.190067
-0.168183
-0.151613
-0.139323
-0.147399
-0.15579
-0.15852
-0.15091
-0.152481
-0.152769
-0.147975
-0.145221
-0.138708
-0.14446
-0.130047
-0.10592
-0.130824
-0.139004
-0.141605
-0.128439
-0.138201
-0.147467
-0.147707
-0.126505
-0.134313
-0.151058
-0.158048
-0.136471
-0.130556
-0.124324
-0.085108
-0.119763
-0.117783
-0.115645
-0.115426
-0.108831
-0.114577
-0.111754
-0.116867
-0.100806
-0.139105
-0.109916
-0.115309
-0.04947
-0.036613
-0.087898
-0.095917
-0.08618
-0.08455
-0.082663
-0.073848
-0.089191
-0.105275
-0.091733
-0.111825
-0.11114
-0.126588
-0.102099
-0.110767
-0.131051
-0.110829
-0.119699
-0.109515
-0.109932
-0.114063
-0.129764
-0.129284
-0.085743
-0.099155
-0.104587
-0.083209
-0.114437
-0.111526
-0.091838
-0.094287
-0.086787
-0.112698
-0.115062
-0.136644
-0.169735
-0.142107
-0.103114
-0.117652
-0.106598
-0.094302
-0.150909
-0.141923
-0.143793
-0.128072
-0.114056
-0.150123
-0.163226
-0.174583
-0.180069
-0.137649
-0.149629
-0.163158
-0.137985
-0.143164
-0.173409
-0.201977
-0.163629
-0.181801
-0.184303
-0.17081
-0.159781
-0.132823
-0.149269
-0.148153
-0.164099
-0.178562
-0.167342
-0.163607
-0.174643
-0.158477
-0.17336
-0.155608
-0.148128
-0.135134
-0.179727
-0.20165
-0.177014
-0.17004
-0.157326
-0.146877
-0.13329
-0.144958
-0.188932
-0.19575
-0.141884
-0.138583
-0.157731
-0.175163
-0.181525
-0.172694
-0.185947
-0.187777
-0.19355
-0.194661
-0.182656
-0.175816
-0.170357
-0.190039
-0.184517
-0.181012
-0.174872
-0.168394
-0.179694
-0.166895
-0.167502
-0.169478
-0.182815
-0.196673
-0.180294
-0.175746
-0.181462
-0.197245
-0.182741
-0.164613
-0.16707
-0.211275
-0.215157
-0.195463
-0.163531
-0.121987
-0.142557
-0.197661
-0.182014
-0.169999
-0.171017
-0.161823
-0.170979
-0.191928
-0.188937
-0.199246
-0.188795
-0.190531
-0.203534
-0.207289
-0.203098
-0.210787
-0.181529
-0.154128
-0.189754
-0.163625
-0.131575
-0.144791
-0.16989
-0.161116
-0.159868
-0.18949
-0.176512
-0.151294
-0.157338
-0.165546
-0.174612
-0.155027
-0.154309
-0.144749
-0.155534
-0.17496
-0.159683
-0.148044
-0.148682
-0.159763
-0.154613
-0.156948
-0.16258
-0.152521
-0.160289
-0.1547
-0.163865
-0.187923
-0.167705
-0.176666
-0.170193
-0.189599
-0.197612
-0.173948
-0.18696
-0.174559
-0.163559
-0.152424
-0.160907
-0.174182
-0.178964
-0.178767
-0.153709
-0.121247
-0.149915
-0.162066
-0.1463
-0.160601
-0.167098
-0.169171
-0.165027
-0.155891
-0.160692
-0.16137
-0.162232
-0.156044
-0.155833
-0.163053
-0.159802
-0.177327
-0.175196
-0.142697
-0.143818
-0.157708
-0.178584
-0.158878
-0.139169
-0.156887
-0.157998
-0.177644
-0.163789
-0.149319
-0.171464
-0.168129
-0.145784
-0.155671
-0.170078
-0.155088
-0.154851
-0.153478
-0.159586
-0.161651
-0.158713
-0.173837
-0.181673
-0.165201
-0.170872
-0.160719
-0.175432
-0.182544
-0.168908
-0.16385
-0.173074
-0.129429
-0.141179
-0.173766
-0.230266
-0.203139
-0.185228
-0.164465
-0.157637
-0.188641
-0.154863
-0.15032
-0.129078
-0.142562
-0.119514
-0.141573
-0.157005
-0.150875
-0.161215
-0.18234
-0.17853
-0.172975
-0.163003
-0.157482
-0.157025
-0.153054
-0.14939
-0.171801
-0.174028
-0.170205
-0.1758
-0.144513
-0.187384
-0.168173
-0.16285
-0.185988
-0.198974
-0.176181
-0.161889
-0.166463
-0.161779
-0.178248
-0.224855
-0.197033
-0.198906
-0.213038
-0.207204
-0.206396
-0.196055
-0.174622
-0.148758
-0.138541
-0.133973
-0.141138
-0.134693
-0.127759
-0.140048
-0.158133
-0.155088
-0.149917
-0.149564
-0.154684
-0.161274
-0.170699
-0.172728
-0.167757
-0.165637
-0.175519
-0.223288
-0.200879
-0.165553
-0.173784
-0.143001
-0.146219
-0.174335
-0.168723
-0.159874
-0.150279
-0.149818
-0.162492
-0.175526
-0.175423
-0.181487
-0.170973
-0.17705
-0.170579
-0.162371
-0.143826
-0.152971
-0.161634
-0.154124
-0.147105
-0.145817
-0.172387
-0.186132
-0.177653
-0.170472
-0.166536
-0.158124
-0.172617
-0.144829
-0.145781
-0.176689
-0.164215
-0.125271
-0.139872
-0.150413
-0.152809
-0.142918
-0.154416
-0.175374
-0.182992
-0.178601
-0.18248
-0.209918
-0.185341
-0.198127
-0.204022
-0.205742
-0.204632
-0.177882
-0.13778
-0.120879
-0.137958
-0.128561
-0.129029
-0.122309
-0.15815
-0.169836
-0.149725
-0.140191
-0.1409
-0.149213
-0.165382
-0.168912
-0.166101
-0.165607
-0.152051
-0.148185
-0.147633
-0.197152
-0.216731
-0.159416
-0.170723
-0.163678
-0.164149
-0.154132
-0.154506
-0.144614
-0.158863
-0.152812
-0.13911
-0.168603
-0.167588
-0.171317
-0.156252
-0.174162
-0.187153
-0.175825
-0.158524
-0.166348
-0.182468
-0.165533
-0.174079
-0.165736
-0.163533
-0.177247
-0.171384
-0.171164
-0.139575
-0.175859
-0.155689
-0.148991
-0.145826
-0.144645
-0.14876
-0.149462
-0.158768
-0.162074
-0.161847
-0.178775
-0.17952
-0.155665
-0.141055
-0.158037
-0.177392
-0.159852
-0.132581
-0.148169
-0.159246
-0.150248
-0.147237
-0.149653
-0.151599
-0.164976
-0.160932
-0.186565
-0.180814
-0.177871
-0.174369
-0.18743
-0.196197
-0.157513
-0.138359
-0.126421
-0.137255
-0.152247
-0.138838
-0.123354
-0.162422
-0.175246
-0.147932
-0.180831
-0.180516
-0.179876
-0.165583
-0.194072
-0.178649
-0.172401
-0.167217
-0.174112
-0.182419
-0.153681
-0.151914
-0.144683
-0.169534
-0.128628
-0.125729
-0.143454
-0.151989
-0.147004
-0.134549
-0.150469
-0.179256
-0.170036
-0.142552
-0.151529
-0.17708
-0.176453
-0.13481
-0.17037
-0.170097
-0.163555
-0.127047
-0.108977
-0.055764
-0.059198
-0.067594
-0.052354
-0.090897
-0.089355
-0.093422
-0.081875
-0.095508
-0.111139
-0.127344
-0.107517
-0.089882
-0.101392
-0.089888
-0.118724
-0.126814
-0.116939
-0.121615
-0.091238
-0.08676
-0.077962
-0.074283
-0.091086
-0.112568
-0.090292
-0.094161
-0.082757
-0.081011
-0.085719
-0.105231
-0.114914
-0.090103
-0.089131
-0.081589
-0.110084
-0.121693
-0.099193
-0.09148
-0.106007
-0.102668
-0.082709
-0.076238
-0.078379
-0.094576
-0.083855
-0.097067
-0.109475
-0.121152
-0.124997
-0.141607
-0.128581
-0.13688
-0.157887
-0.135831
-0.17353
-0.178302
-0.138647
-0.141462
-0.120818
-0.134741
-0.12269
-0.142367
-0.168845
-0.13781
-0.165144
-0.170318
-0.151377
-0.147918
-0.166082
-0.129725
-0.156896
-0.147015
-0.110139
-0.126814
-0.163737
-0.157978
-0.179362
-0.159561
-0.152833
-0.151022
-0.138237
-0.137351
-0.133062
-0.144888
-0.156287
-0.1499
-0.15465
-0.160257
-0.17494
-0.171456
-0.179067
-0.182284
-0.213456
-0.202131
-0.194101
-0.196291
-0.19205
-0.169673
-0.140498
-0.126604
-0.125986
-0.131324
-0.162617
-0.166876
-0.127293
-0.13748
-0.151106
-0.17019
-0.204573
-0.212687
-0.223605
-0.194632
-0.193231
-0.160909
-0.158583
-0.163132
-0.149119
-0.134458
-0.133208
-0.142902
-0.136892
-0.130584
-0.13626
-0.140979
-0.150255
-0.135603
-0.154068
-0.165557
-0.160614
-0.157538
-0.177624
-0.195226
-0.194131
-0.20999
-0.209528
-0.21376
-0.210867
-0.204696
-0.206027
-0.20628
-0.193907
-0.19365
-0.169089
-0.155763
-0.129278
-0.137602
-0.124147
-0.120604
-0.077831
-0.062587
-0.040386
0.014066
0.030844
0.065513
0.061002
0.092676
0.135712
0.156005
0.201977
0.247655
0.277576
0.298753
0.342654
0.396399
0.423247
0.438076
0.462295
0.439117
0.433799
0.395875
0.337292
0.330976
0.357
0.31606
0.28963
0.254597
0.248381
0.193537
0.152027
0.132132
0.123877
0.114559
0.125414
0.126088
0.109717
0.09925
0.071086
0.062936
0.046047
0.014216
-0.028208
-0.066922
-0.071363
-0.068619
-0.055845
-0.07944
-0.091125
-0.064392
-0.094283
-0.097752
-0.104687
-0.091513
-0.070053
-0.077626
-0.086867
-0.100388
-0.102969
-0.125162
-0.1378
-0.134963
-0.169502
-0.171432
-0.148833
-0.13939
-0.110901
-0.093036
-0.12341
-0.094142
-0.125837
-0.146454
-0.119667
-0.116739
-0.111114
-0.090033
-0.069309
-0.075817
-0.102442
-0.088932
-0.110505
-0.104437
-0.102625
-0.091455
-0.101357
-0.068473
-0.092599
-0.089103
-0.113083
-0.091771
-0.12146
-0.100276
-0.091385
-0.111011
-0.102849
-0.1165
-0.089391
-0.115243
-0.110302
-0.073531
-0.07578
-0.103993
-0.090258
-0.103279
-0.127615
-0.1283
-0.09206
-0.095058
-0.131305
-0.139576
-0.137294
-0.121942
-0.145955
-0.120754
-0.09523
-0.099011
-0.093726
-0.082562
-0.082342
-0.090287
-0.069281
-0.080211
-0.111436
-0.103124
-0.099549
-0.141608
-0.110123
-0.118628
-0.115409
-0.112226
-0.099511
-0.131113
-0.115345
-0.07114
-0.105878
-0.089205
-0.08442
-0.092084
-0.104068
-0.096644
-0.099213
-0.121876
-0.115248
-0.108772
-0.090639
-0.106778
-0.131106
-0.136325
-0.108187
-0.123912
-0.108103
-0.089168
-0.073643
-0.076338
-0.065843
-0.060929
-0.078136
-0.077015
-0.089141
-0.095567
-0.079922
-0.077992
-0.076861
-0.082381
-0.083075
-0.091952
-0.091003
-0.092972
-0.070579
-0.080008
-0.092772
-0.100932
-0.093933
-0.097678
-0.100639
-0.091158
-0.072728
-0.103569
-0.117132
-0.094941
-0.096813
-0.081017
-0.080109
-0.08632
-0.117574
-0.109043
-0.129162
-0.126757
-0.08765
-0.052739
-0.066377
-0.088876
-0.072228
-0.067817
-0.061296
-0.090698
-0.097152
-0.08606
-0.094546
-0.081614
-0.066719
-0.02943
-0.033644
-0.04969
-0.096192
-0.036185
-0.010922
-0.036024
-0.065937
-0.06015
-0.060638
-0.077455
-0.075017
-0.045625
-0.019865
-0.06003
-0.054924
-0.056453
-0.067281
-0.068291
-0.043797
-0.048401
-0.048303
-0.065682
-0.050775
-0.078699
-0.070986
-0.045841
-0.069392
-0.066466
-0.039454
-0.026969
-0.05549
-0.025016
0.004087
-0.005222
0.007286
-0.009505
-0.016498
-0.008562
0.002106
-0.01412
-0.034039
-0.013984
-0.029454
-0.028651
-0.052269
-0.032596
0.003793
0.006082
-0.019274
0.02331
0.033648
0.010806
0.025499
-0.008316
-0.017919
0.008866
-0.000424
0.010099
0.003052
0.001718
0.001864
-0.007461
-0.043223
-0.02552
-0.01875
-0.01253
-0.000466
0.017327
0.011962
0.003654
-0.003043
0.008824
-0.004253
-0.008616
0.0025
0.018132
0.005343
0.00115
-0.004814
-0.00516
0.004363
0.002873
-0.011165
-0.014534
-0.014851
-0.005026
-0.032544
-0.043219
-0.021674
-0.023152
-0.020887
-0.008742
-0.026027
-0.019063
-0.013881
-0.027373
-0.033076
-0.056881
-0.081473
-0.091683
-0.065947
-0.081354
-0.103793
-0.154078
-0.15408
-0.15902
-0.125715
-0.109772
-0.09793
-0.059905
-0.051469
-0.040102
-0.036342
-0.022039
-0.002223
-0.025795
-0.036505
-0.042424
-0.065307
-0.059189
-0.085956
-0.080659
-0.065713
-0.077086
-0.076982
-0.07519
-0.073275
-0.074049
-0.083388
-0.078316
-0.088557
-0.087195
-0.092821
-0.077548
-0.066475
-0.054908
-0.089899
-0.108454
-0.116667
-0.105125
-0.098571
-0.108244
-0.100321
-0.104742
-0.097242
-0.122922
-0.152026
-0.151088
-0.134313
-0.101844
-0.103544
-0.101296
-0.090396
-0.089265
-0.09957
-0.085867
-0.071838
-0.084919
-0.072208
-0.082936
-0.098774
-0.120972
-0.128954
-0.13984
-0.079905
-0.07233
-0.096787
-0.092557
-0.109239
-0.088418
-0.093865
-0.085691
-0.094963
-0.089693
-0.08496
-0.096699
-0.120587
-0.113497
-0.076551
-0.076975
-0.085226
-0.090883
-0.091926
-0.09237
-0.087786
-0.093072
-0.072866
-0.090091
-0.111572
-0.104623
-0.117835
-0.078508
-0.08323
-0.127166
-0.138552
-0.114866
-0.098085
-0.109359
-0.095697
-0.089004
-0.095842
-0.09535
-0.099068
-0.090528
-0.096673
-0.096415
-0.097724
-0.099129
-0.088752
-0.086747
-0.087344
-0.095295
-0.096596
-0.10623
-0.092809
-0.096126
-0.094753
-0.099254
-0.078869
-0.079454
-0.095381
-0.100797
-0.095553
-0.090246
-0.0785
-0.086347
-0.090708
-0.08709
-0.099679
-0.103601
-0.104605
-0.091365
-0.074146
-0.067467
-0.067863
-0.083867
-0.061409
-0.071833
-0.10461
-0.110602
-0.103646
-0.101393
-0.080818
-0.070925
-0.088333
-0.120665
-0.123028
-0.120603
-0.096991
-0.08954
-0.08507
-0.090738
-0.07106
-0.046479
-0.042719
-0.06802
-0.039524
-0.068754
-0.059112
-0.055114
-0.080108
-0.068097
-0.080809
-0.098701
-0.07625
-0.057798
-0.068703
-0.079924
-0.07088
-0.125544
-0.073471
-0.079385
-0.080396
-0.075694
-0.080974
-0.081655
-0.065912
-0.06346
-0.054985
-0.057528
-0.046082
-0.071525
-0.101105
-0.124429
-0.116232
-0.105647
-0.076757
-0.059306
-0.082665
-0.112751
-0.082119
-0.040746
-0.052836
-0.067442
-0.065404
-0.064847
-0.07688
-0.096272
-0.129982
-0.100775
-0.101355
-0.069684
-0.079282
-0.089963
-0.097335
-0.103178
-0.107146
-0.096356
-0.102459
-0.119664
-0.122882
-0.087883
-0.078786
-0.080694
-0.064717
-0.051007
-0.058703
-0.085832
-0.075841
-0.064633
-0.086544
-0.084002
-0.075667
-0.068291
-0.073727
-0.09242
-0.085479
-0.069162
-0.062159
-0.072106
-0.086749
-0.090385
-0.089137
-0.086232
-0.13363
-0.113341
-0.107524
-0.079618
-0.055154
-0.056861
-0.0892
-0.097447
-0.058535
-0.048634
-0.074605
-0.084159
-0.077581
-0.066226
-0.060174
-0.068688
-0.081086
-0.057455
-0.050171
-0.094009
-0.091233
-0.099588
-0.099258
-0.076088
-0.088916
-0.088228
-0.109965
-0.100501
-0.077303
-0.090004
-0.084172
-0.063731
-0.070652
-0.068811
-0.078813
-0.067718
-0.053553
-0.087557
-0.101085
-0.07485
-0.079775
-0.129306
-0.100366
-0.061146
-0.087711
-0.081009
-0.061639
-0.09757
-0.108964
-0.101043
-0.091213
-0.072435
-0.082912
-0.121186
-0.072899
-0.074933
-0.085788
-0.077437
-0.088404
-0.068658
-0.06528
-0.07151
-0.069301
-0.070454
-0.074452
-0.06782
-0.063896
-0.092967
-0.080689
-0.100562
-0.114588
-0.106864
-0.101273
-0.089428
-0.084211
-0.069319
-0.073199
-0.071171
-0.09164
-0.08987
-0.096066
-0.111173
-0.124709
-0.089036
-0.067948
-0.072871
-0.080465
-0.083663
-0.065507
-0.090887
-0.09169
-0.088251
-0.085159
-0.088562
-0.089902
-0.086063
-0.091315
-0.070194
-0.077351
-0.079197
-0.055913
-0.048602
-0.049625
-0.099313
-0.081844
-0.103854
-0.071884
-0.06919
-0.079408
-0.079977
-0.094653
-0.102165
-0.073559
-0.049102
-0.070043
-0.087076
-0.081959
-0.073183
-0.085055
-0.091172
-0.085616
-0.08221
-0.097565
-0.100492
-0.078134
-0.069987
-0.078588
-0.087991
-0.083282
-0.08179
-0.095512
-0.098891
-0.116156
-0.108009
-0.108748
-0.110144
-0.107539
-0.106232
-0.094417
-0.048461
-0.062221
-0.057265
-0.079417
-0.091749
-0.09456
-0.085554
-0.071406
-0.064373
-0.081807
-0.080896
-0.088709
-0.066434
-0.053922
-0.065514
-0.052593
-0.058941
-0.078361
-0.080721
-0.077248
-0.060274
-0.030796
-0.050396
-0.094089
-0.107666
-0.111631
-0.086635
-0.070887
-0.079267
-0.062821
-0.060324
-0.067956
-0.073038
-0.089683
-0.090531
-0.081139
-0.053809
-0.05068
-0.093923
-0.078616
-0.077687
-0.062273
-0.080598
-0.050376
-0.062225
-0.077771
-0.069338
-0.088382
-0.082189
-0.064208
-0.123198
-0.13808
-0.120813
-0.112427
-0.087407
-0.054745
-0.050138
-0.047908
-0.067127
-0.062422
-0.051937
-0.019488
-0.029858
-0.036308
-0.065375
-0.062654
-0.073127
-0.081209
-0.069605
-0.045137
-0.070072
-0.05969
-0.077981
-0.06854
-0.071811
-0.081569
-0.070966
-0.049032
-0.034279
-0.056276
-0.075489
-0.0452
-0.033793
-0.013286
0.013713
-0.015801
-0.050444
-0.031724
-0.034146
-0.013848
-0.012994
-0.015169
-0.01295
-0.021515
-0.02371
-0.016154
-0.022262
-0.037098
-0.021387
-0.019034
-0.011958
-0.000589
0.006221
-0.003707
-0.001768
-0.018618
-0.017474
-0.021214
-0.017583
-0.003983
-0.006408
-0.01852
-0.029043
-0.027363
-0.044141
-0.03142
-0.000006
-0.015003
-0.023406
-0.018877
0.007558
0.04525
-0.003994
-0.017552
0.006264
-0.00181
-0.032769
-0.035354
-0.022299
-0.013698
-0.005076
-0.010487
-0.015589
-0.00116
-0.018128
-0.033076
-0.041479
-0.044168
-0.025166
-0.034716
-0.08197
-0.114296
-0.082385
-0.05947
-0.04039
-0.021942
-0.024032
-0.037465
-0.083016
-0.091595
-0.08305
-0.072246
-0.10866
-0.054457
-0.052401
-0.04864
-0.043106
-0.016031
-0.027822
-0.05468
-0.033338
-0.085471
-0.06398
-0.023288
-0.032209
-0.040295
-0.069075
-0.057257
-0.053478
-0.0285
-0.104481
-0.095872
-0.083061
-0.060644
-0.054123
-0.051997
-0.059179
-0.108416
-0.095755
-0.064915
-0.056015
-0.059333
-0.078025
-0.085087
-0.110165
-0.089325
-0.091452
-0.087754
-0.06387
-0.062928
-0.069483
-0.087747
-0.096505
-0.055482
-0.047091
-0.047164
-0.037074
-0.050066
-0.060765
-0.071074
-0.080342
-0.064794
-0.075159
-0.069477
-0.039974
-0.056224
-0.049143
-0.053906
-0.05924
-0.04101
-0.075826
-0.09404
-0.067101
-0.059398
-0.054888
-0.055959
-0.068526
-0.072855
-0.07545
-0.071971
-0.07711
-0.078719
-0.061203
-0.111752
-0.115343
-0.106975
-0.086284
-0.086656
-0.116415
-0.094919
-0.091339
-0.092698
-0.07371
-0.044665
-0.038079
-0.043448
-0.051574
-0.0255
-0.021246
-0.002824
0.046307
0.096225
0.150412
0.115064
0.111676
0.190666
0.24617
0.26943
0.28199
0.291966
0.334005
0.363514
0.397692
0.426001
0.457088
0.485756
0.476643
0.468662
0.500575
0.504174
0.457342
0.435745
0.418295
0.39954
0.380771
0.356296
0.309959
0.266504
0.244262
0.226573
0.194123
0.219786
0.209554
0.185703
0.160385
0.165875
0.185152
0.156879
0.078375
0.07485
0.075046
0.052498
0.010477
0.019813
0.021687
0.003353
-0.001776
-0.001702
0.006667
0.003309
0.012858
0.000931
-0.013347
-0.001623
0.034954
0.046694
-0.009808
-0.020126
0.01867
0.040766
0.010847
0.007831
0.002704
-0.01315
-0.018266
-0.011882
-0.003862
-0.046335
-0.012733
-0.011653
-0.005913
-0.009523
-0.027413
-0.015448
-0.049566
-0.043281
-0.003749
-0.032321
-0.022972
-0.022544
-0.053414
-0.030393
-0.006738
0.000396
-0.032734
-0.025834
-0.031936
-0.032485
0.004219
0.006428
-0.004412
0.021982
0.004617
0.001813
0.005307
0.005254
-0.014483
-0.008314
-0.000486
0.002
-0.009232
-0.013948
-0.015159
-0.01479
-0.013217
-0.01112
-0.012216
-0.023581
-0.021103
-0.007625
-0.009908
-0.002518
-0.000325
-0.029059
-0.034421
-0.024429
-0.051699
-0.06055
-0.050973
-0.033197
-0.092522
-0.055493
-0.03117
-0.028783
-0.020762
0.011575
0.046111
0.003599
-0.001591
-0.027886
0.005954
0.006478
0.004406
-0.012358
-0.014768
0.020826
0.024303
0.022772
-0.016104
0.003073
0.01207
0.025191
0.003533
0.019166
0.025636
0.010804
0.007125
0.004209
-0.015846
-0.016354
0.004123
-0.000376
-0.00399
-0.006408
-0.007751
-0.020879
-0.04376
-0.028307
-0.013937
0.024046
-0.034988
-0.027987
0.015686
0.010343
-0.003256
-0.00332
-0.028784
-0.006318
0.011402
0.003189
0.035169
0.049439
0.033323
0.011917
0.056979
0.046464
0.024851
0.0245
0.009966
0.006302
-0.007657
-0.003844
0.014209
0.001892
0.032751
0.044167
0.021638
0.021828
0.020552
0.022446
0.014595
0.007777
0.022537
0.032251
0.017321
0.012547
0.039086
0.043271
0.012284
0.009358
0.028511
0.063687
0.03639
0.044618
0.042736
0.012428
0.026787
0.024608
0.043432
0.026226
0.00679
0.022516
0.040879
-0.007695
0.035916
0.026421
0.070758
0.070561
0.060732
0.060096
0.062556
0.064244
0.071254
0.061942
0.08034
0.075427
0.073907
0.061239
0.06597
0.062524
0.073131
0.06833
0.070664
0.068681
0.0855
0.086499
0.09261
0.080671
0.075062
0.066161
0.063999
0.061883
0.062711
0.074266
0.075832
0.079558
0.083191
0.078538
0.086568
0.082084
0.087343
0.090245
0.082884
0.096802
0.087547
0.087569
0.106918
0.105412
0.111585
0.106762
0.117072
0.120718
0.104224
0.104752
0.102154
0.108634
0.123462
0.115156
0.098132
0.092559
0.066256
0.097168
0.10751
0.07748
0.065149
0.058311
0.079871
0.101029
0.077859
0.085534
0.077032
0.077393
0.065529
0.055197
0.042504
0.019705
0.042191
0.04292
0.068015
0.094642
0.06767
0.035592
-0.010468
-0.005527
0.016406
0.035454
0.050309
0.061392
0.03951
0.028532
0.054876
0.038648
0.037597
0.017879
0.007485
0.019024
0.001634
-0.003544
-0.002016
0.009056
0.021735
0.033257
0.035638
0.030969
0.046233
0.022648
-0.001367
0.057616
0.03569
0.004594
0.022728
0.0159
0.010688
0.022168
-0.006459
-0.021637
-0.016531
-0.020475
-0.038022
-0.041515
-0.009834
-0.019542
-0.00535
0.005024
0.012594
0.017925
-0.004286
-0.003547
0.008984
0.002738
-0.013741
0.003194
-0.005165
-0.025662
-0.017164
-0.009487
-0.033681
-0.037973
-0.034212
-0.032048
-0.028349
-0.016517
-0.020466
-0.018488
-0.026192
0.000534
0.002646
-0.010181
-0.036788
-0.032406
-0.040903
-0.030388
-0.019754
-0.030036
-0.031572
-0.016768
-0.014963
-0.021888
-0.030963
-0.021821
0.004596
0.003447
-0.004291
-0.013662
-0.002659
-0.002432
-0.011757
0.007111
-0.012263
-0.020242
-0.022896
-0.004876
-0.001845
-0.00997
-0.050699
-0.044536
-0.024385
-0.055007
-0.068094
-0.031432
-0.032326
-0.034326
-0.056347
-0.027963
-0.029392
-0.033144
-0.101967
-0.103012
-0.048799
-0.05299
-0.073287
-0.033766
-0.026691
0.002093
-0.011592
-0.036583
-0.005354
0.01623
0.00689
0.010885
-0.000798
-0.016293
-0.002606
-0.010819
-0.013924
-0.015649
-0.026964
-0.013097
-0.004396
-0.013338
-0.017706
-0.003386
-0.020915
-0.008136
-0.012353
-0.002188
0.00073
-0.045417
-0.023345
-0.003444
-0.01164
0.00737
0.019226
0.01209
-0.016097
-0.006222
0.009145
0.003221
-0.012746
-0.00859
0.022448
-0.014763
-0.017049
0.013732
0.025699
0.000974
0.010154
0.016474
0.020978
-0.011762
-0.017316
-0.014112
-0.016777
-0.028373
-0.014255
0.015698
0.003138
0.010298
0.002108
-0.045228
-0.040977
-0.033878
-0.000429
-0.021885
-0.031748
-0.004747
-0.008386
0.012832
0.000987
-0.01303
-0.013882
-0.010009
-0.008543
-0.014355
-0.01159
-0.014673
-0.004621
0.004039
0.003508
0.002854
0.000427
0.003175
0.006775
-0.024658
-0.05197
-0.045764
-0.070858
-0.054919
-0.04814
-0.032977
-0.047446
-0.038065
-0.035155
-0.011882
-0.013988
-0.010731
0.000541
0.043015
0.019828
-0.008386
0.043733
0.017227
-0.023184
-0.005721
0.038215
0.020162
-0.003441
-0.016082
0.006493
-0.029952
-0.035682
-0.025704
-0.012711
0.013011
0.022246
0.021727
0.017913
-0.009585
-0.023284
-0.018607
0.000992
0.004943
-0.004065
-0.004603
-0.033048
-0.038444
-0.01056
-0.015023
-0.026935
-0.033323
-0.027933
-0.027099
-0.03068
-0.050878
-0.042275
-0.023855
-0.025908
-0.037727
-0.03821
-0.009027
-0.027043
-0.018476
-0.015222
0.016353
0.01592
-0.017696
0.011021
0.018634
-0.027191
-0.027372
-0.022902
-0.020562
-0.01476
-0.023198
-0.000516
-0.04172
-0.043355
-0.03838
-0.01685
-0.039411
-0.010271
0.023764
0.006066
0.004383
0.006591
-0.028345
-0.040524
-0.053327
-0.057881
-0.041002
-0.028114
-0.040322
-0.020693
0.020657
-0.008531
-0.042026
-0.052201
-0.051557
0.000687
-0.003068
-0.008975
0.006926
0.005436
0.00364
-0.004995
-0.025682
-0.017101
-0.010408
-0.005217
-0.009036
-0.020979
-0.005498
0.000591
-0.002934
0.003607
0.001197
-0.004389
-0.018336
-0.027373
-0.041829
-0.026582
-0.000837
0.016138
-0.007576
-0.027157
-0.034214
-0.062742
-0.071652
-0.096299
-0.080852
-0.046242
-0.049761
-0.044358
-0.014787
0.005155
-0.007235
0.001898
-0.00617
0.001925
-0.000644
0.001234
-0.03233
-0.029154
-0.025675
-0.03291
-0.042896
-0.032892
-0.032622
-0.028905
-0.036525
-0.038957
-0.008475
0.004115
-0.025314
-0.033248
-0.044267
-0.013993
0.002437
-0.003399
-0.029795
-0.029803
-0.00307
-0.007849
-0.030259
-0.00588
-0.019874
-0.035325
-0.066065
-0.050725
-0.012999
-0.022596
-0.026815
-0.029627
-0.032591
-0.036704
-0.006902
0.005281
0.021617
0.016277
0.000386
0.01242
0.006727
-0.042115
-0.028166
-0.02254
-0.031196
-0.045353
-0.032693
-0.049215
-0.019047
-0.021212
-0.0405
-0.012365
-0.029427
-0.036374
-0.024217
-0.025493
-0.02184
-0.031147
-0.049498
-0.038299
-0.01848
-0.046396
-0.030928
-0.024133
-0.039952
-0.050436
-0.037452
-0.02928
