-0.027111
0.015553
0.061253
0.089769
0.104478
0.101332
0.088711
0.073436
0.045782
0.006201
-0.039962
-0.072082
-0.113177
-0.140942
-0.152077
-0.193642
-0.156068
-0.118253
-0.103308
-0.062743
-0.024826
0.012254
0.049429
0.082378
0.108940
0.128562
0.098059
0.051926
0.036055
0.007124
-0.057875
-0.109591
-0.113529
-0.128193
-0.156965
-0.177197
-0.170676
-0.139664
-0.104393
-0.067408
-0.046349
0.008530
0.055189
0.080465
0.092016
0.106154
0.100475
0.075244
0.015558
-0.022164
-0.035711
-0.064841
-0.087890
-0.137471
-0.188942
-0.213480
-0.201710
-0.164096
-0.122627
-0.049185
-0.037537
0.003722
0.046738
0.077400
0.099901
0.109220
0.096066
0.098902
0.074017
0.021816
-0.044451
-0.080117
-0.116753
-0.156887
-0.177247
-0.185946
-0.154132
-0.142447
-0.116918
-0.074307
-0.007220
0.009966
0.041373
0.076849
0.101148
0.115934
0.087531
0.047734
0.039729
0.017898
-0.017425
-0.058641
-0.082322
-0.135223
-0.177614
-0.175964
-0.161635
-0.129917
-0.102806
-0.065628
-0.002893
0.023449
0.067126
0.101137
0.113768
0.124952
0.140959
0.117117
0.092128
0.043689
-0.002578
-0.038018
-0.100896
-0.133357
-0.146586
-0.148013
-0.130610
-0.115647
-0.077169
-0.028889
0.001762
0.037718
0.090304
0.126373
0.136874
0.154432
0.137306
0.104116
0.085867
0.048533
0.000212
-0.040947
-0.079475
-0.108494
-0.134123
-0.124259
-0.085471
-0.082372
-0.075826
-0.029495
0.024513
0.070454
0.120616
0.146138
0.150890
0.142753
0.133842
0.101277
0.062944
0.007309
-0.038248
-0.076286
-0.108444
-0.140839
-0.154594
-0.166409
-0.152977
-0.114550
-0.102154
-0.060456
-0.025365
0.009368
0.072952
0.097103
0.118251
0.119895
0.100495
0.069367
0.057397
-0.003274
-0.061970
-0.084754
-0.140109
-0.178375
-0.224132
-0.232465
-0.182010
-0.130820
-0.128576
-0.081568
-0.032023
-0.025728
0.039190
0.067319
0.081705
0.100860
0.103941
0.073590
0.030813
-0.008782
-0.045641
-0.112011
-0.175833
-0.194761
-0.219670
-0.217299
-0.205701
-0.171860
-0.131848
-0.088515
-0.051982
-0.028046
0.008521
0.048974
0.068011
0.082414
0.073150
0.043037
0.031053
-0.010299
-0.057184
-0.111560
-0.167444
-0.200400
-0.196430
-0.211364
-0.197182
-0.174726
-0.154658
-0.107435
-0.055374
-0.009200
0.035675
0.054771
0.073850
0.080345
0.063959
0.029904
-0.007119
-0.041601
-0.054762
-0.099014
-0.144743
-0.165326
-0.196074
-0.191966
-0.202834
-0.186192
-0.157528
-0.125789
-0.066614
0.018990
0.042501
0.052425
0.056327
0.084302
0.081181
0.031479
-0.002679
-0.040281
-0.082464
-0.104441
-0.141928
-0.168830
-0.173608
-0.173343
-0.169960
-0.126596
-0.064877
-0.007466
0.040352
0.097864
0.165849
0.203252
0.219295
0.238615
0.253003
0.256022
0.247133
0.228808
0.235699
0.220043
0.216672
0.216896
0.233785
0.267877
0.302305
0.351466
0.420565
0.492025
0.574831
0.670942
0.749544
0.819899
0.880992
0.923227
0.913120
0.891747
0.837885
0.776085
0.718853
0.649644
0.594331
0.526783
0.458356
0.373549
0.315922
0.297144
0.293228
0.272023
0.267483
0.254436
0.257654
0.269394
0.288536
0.269746
0.256493
0.233978
0.188151
0.128677
0.055023
0.013835
-0.020387
-0.049440
-0.079393
-0.095610
-0.076380
-0.077514
-0.046380
-0.003927
0.047345
0.068758
0.084755
0.139524
0.176003
0.191000
0.157558
0.105126
0.077232
0.030371
-0.008276
-0.037424
-0.074400
-0.122887
-0.163946
-0.176695
-0.168208
-0.148550
-0.106931
-0.034824
-0.006407
0.049818
0.098569
0.113558
0.130774
0.126164
0.130240
0.115916
0.072277
0.017110
-0.009489
-0.052037
-0.101594
-0.126676
-0.160944
-0.166021
-0.131176
-0.104909
-0.086035
-0.075574
-0.020302
0.043676
0.064777
0.093121
0.110745
0.114069
0.113699
0.096175
0.063569
0.041829
-0.004484
-0.048309
-0.103365
-0.116533
-0.137624
-0.150744
-0.150823
-0.117957
-0.060519
-0.032256
-0.000171
0.039207
0.084953
0.127239
0.146564
0.138435
0.148856
0.140912
0.102223
0.060700
0.000375
-0.029015
-0.066186
-0.113027
-0.139498
-0.135471
-0.126761
-0.114226
-0.068863
-0.023926
0.025149
0.070796
0.132045
0.159160
0.176324
0.173821
0.177301
0.146707
0.099007
0.064579
0.012612
-0.011823
-0.050690
-0.070158
-0.102740
-0.108019
-0.105891
-0.067072
-0.023107
0.025992
0.087527
0.134186
0.165628
0.188979
0.200788
0.211493
0.201267
0.178293
0.115657
0.129906
0.087024
0.040098
-0.010635
-0.034626
-0.061016
-0.064060
-0.046171
-0.028439
-0.001989
0.032268
0.083356
0.140463
0.171592
0.200531
0.249246
0.245883
0.230586
0.206497
0.168038
0.117995
0.074449
0.024110
0.037670
0.003805
-0.020204
-0.041011
-0.028916
-0.015312
-0.002656
0.050059
0.106425
0.158670
0.194910
0.216322
0.246252
0.257362
0.237934
0.215650
0.187547
0.154114
0.108029
0.045617
-0.000390
-0.033439
-0.050126
-0.050742
-0.035699
-0.024257
0.026856
0.075241
0.098293
0.125990
0.164144
0.196268
0.217591
0.224642
0.216364
0.198319
0.148754
0.109693
0.061642
0.022490
-0.018269
-0.057052
-0.091666
-0.090239
-0.088017
-0.053290
-0.021571
0.008404
0.064977
0.116729
0.166080
0.195957
0.207125
0.180103
0.150531
0.136131
0.112913
0.097309
0.041755
-0.015732
-0.063193
-0.094495
-0.113387
-0.120758
-0.119866
-0.095077
-0.058846
-0.012619
0.019906
0.059791
0.094416
0.123447
0.141999
0.126292
0.115354
0.111743
0.085756
0.018981
0.009345
-0.051112
-0.084827
-0.141070
-0.168311
-0.170406
-0.133619
-0.118526
-0.064668
-0.028980
-0.001461
0.040861
0.078683
0.106318
0.122901
0.136251
0.132163
0.099268
0.036862
0.010088
-0.027023
-0.072431
-0.097311
-0.138456
-0.172193
-0.186957
-0.180574
-0.159916
-0.118547
-0.084253
-0.018594
0.046561
0.083966
0.106303
0.126446
0.134320
0.114814
0.096078
0.051722
0.005517
-0.024661
-0.065040
-0.102092
-0.147913
-0.179514
-0.195107
-0.186285
-0.155819
-0.112259
-0.067332
-0.016981
0.028208
0.070003
0.091722
0.095531
0.110450
0.110826
0.096623
0.074641
0.057398
-0.006398
-0.061996
-0.091966
-0.124790
-0.140147
-0.140999
-0.177584
-0.142198
-0.087339
-0.019595
0.007587
0.026129
0.050095
0.100650
0.114318
0.129973
0.130287
0.113474
0.081699
0.024832
-0.022161
-0.076101
-0.117350
-0.175498
-0.157427
-0.148838
-0.136301
-0.115970
-0.088394
-0.058703
-0.026002
0.028275
0.057064
0.100566
0.123851
0.126009
0.123860
0.101344
0.061267
0.007958
-0.026745
-0.064770
-0.090295
-0.115637
-0.151789
-0.161100
-0.138669
-0.125936
-0.086547
-0.046248
0.022360
0.056883
0.090577
0.115025
0.120872
0.131010
0.128168
0.102371
0.059688
0.014072
-0.029404
-0.062905
-0.109613
-0.145579
-0.160962
-0.168595
-0.184589
-0.146476
-0.096133
-0.060050
-0.019176
0.035993
0.082116
0.118573
0.116490
0.115371
0.118632
0.087778
0.044588
0.001817
-0.045477
-0.085053
-0.110237
-0.159279
-0.178759
-0.179872
-0.165994
-0.122846
-0.090262
-0.057785
-0.035976
0.016639
0.080494
0.104504
0.112256
0.133071
0.135378
0.114351
0.093593
0.046172
-0.026977
-0.090794
-0.131950
-0.170019
-0.179094
-0.190110
-0.175006
-0.142949
-0.109484
-0.082067
-0.058979
0.014349
0.044514
0.075927
0.113449
0.129767
0.120384
0.092417
0.057767
0.010623
-0.045127
-0.092344
-0.133927
-0.159672
-0.159197
-0.152360
-0.136897
-0.136814
-0.113679
-0.085190
-0.026400
0.011206
0.042626
0.087807
0.110131
0.129412
0.097850
0.055770
0.031336
-0.000039
-0.044889
-0.096176
-0.140311
-0.169087
-0.161936
-0.182192
-0.181533
-0.162680
-0.131670
-0.089852
-0.038556
0.005495
0.046423
0.081702
0.103098
0.112832
0.115254
0.086399
0.041799
-0.004373
-0.043955
-0.079741
-0.120048
-0.157940
-0.176225
-0.187683
-0.185277
-0.157310
-0.119137
-0.084762
-0.045561
0.032277
0.062536
0.103629
0.100349
0.094919
0.083361
0.054705
0.021129
-0.008838
-0.079047
-0.095246
-0.120185
-0.151545
-0.185028
-0.215517
-0.216151
-0.192138
-0.121417
-0.051357
-0.013685
0.040507
0.079918
0.098897
0.093852
0.106043
0.097981
0.082747
0.039339
0.001334
-0.040613
-0.093822
-0.135485
-0.159875
-0.192030
-0.195535
-0.189145
-0.170687
-0.133458
-0.086323
-0.048277
-0.002294
0.033399
0.070702
0.084472
0.091155
0.118391
0.100589
0.063306
0.018540
-0.031301
-0.079074
-0.132225
-0.160485
-0.167767
-0.172753
-0.160079
-0.147055
-0.121597
-0.067751
0.010360
0.062503
0.087854
0.116886
0.140695
0.126721
0.137668
0.155210
0.105328
0.037043
-0.018012
-0.055311
-0.085520
-0.130924
-0.153543
-0.161994
-0.151825
-0.142289
-0.105317
-0.027598
-0.004019
0.020264
0.072872
0.102981
0.110714
0.120053
0.132433
0.129104
0.106970
0.059543
0.010091
-0.026189
-0.058317
-0.091075
-0.115487
-0.131652
-0.110020
-0.094335
-0.055093
-0.006230
0.035710
0.063192
0.107257
0.123770
0.134842
0.142309
0.135103
0.103400
0.053549
0.005594
-0.039290
-0.079567
-0.108875
-0.143647
-0.165583
-0.177371
-0.173039
-0.151495
-0.104719
-0.063623
-0.039364
-0.004072
0.035747
0.091443
0.093953
0.096825
0.104185
0.083129
0.039092
-0.022450
-0.059140
-0.107696
-0.162519
-0.182877
-0.184137
-0.194343
-0.195309
-0.175726
-0.106762
-0.070774
-0.046057
-0.004807
0.034800
0.072593
0.086607
0.078209
0.069849
0.050730
0.020575
-0.033593
-0.080489
-0.113143
-0.155449
-0.208341
-0.235118
-0.241111
-0.226618
-0.201095
-0.164070
-0.109393
-0.051709
-0.012141
0.036674
0.070354
0.095576
0.092393
0.079707
0.070428
0.028834
-0.022899
-0.064905
-0.131719
-0.172359
-0.202834
-0.224846
-0.204492
-0.199734
-0.189005
-0.161136
-0.115873
-0.066421
-0.028963
0.015347
0.041955
0.064153
0.068491
0.066983
0.063186
0.033319
-0.032364
-0.081075
-0.107977
-0.152549
-0.194164
-0.202802
-0.206853
-0.200006
-0.175624
-0.165989
-0.123166
-0.062968
-0.015032
0.012895
0.047637
0.057823
0.068132
0.062025
0.028050
-0.001294
-0.036334
-0.085453
-0.122531
-0.164440
-0.187990
-0.181599
-0.182132
-0.167693
-0.137252
-0.081316
-0.012581
0.016207
0.073044
0.138037
0.177358
0.216012
0.254765
0.276310
0.267337
0.237207
0.215888
0.199143
0.202052
0.199475
0.222837
0.231810
0.244763
0.289578
0.343953
0.410437
0.488469
0.591237
0.671030
0.753197
0.798920
0.843640
0.881475
0.868101
0.886644
0.864244
0.789670
0.721571
0.644003
0.580659
0.531366
0.473247
0.396915
0.326411
0.289851
0.264242
0.266673
0.261062
0.262047
0.270833
0.272878
0.275701
0.264922
0.248339
0.228109
0.184849
0.119085
0.064254
0.013160
-0.035589
-0.074112
-0.104401
-0.092071
-0.096000
-0.091757
-0.066910
-0.006439
0.038569
0.074131
0.118638
0.145760
0.151118
0.148563
0.133418
0.120566
0.101139
0.039149
-0.008798
-0.050256
-0.084763
-0.140149
-0.158526
-0.165420
-0.144009
-0.116600
-0.088070
-0.061897
-0.017413
0.030804
0.068854
0.099010
0.129511
0.131477
0.126964
0.107005
0.067549
0.014041
-0.037730
-0.075535
-0.111205
-0.149475
-0.168156
-0.172820
-0.159665
-0.145523
-0.116879
-0.070948
-0.028579
0.018537
0.065174
0.095598
0.130232
0.121155
0.115851
0.104120
0.072246
0.024156
-0.021156
-0.057789
-0.096654
-0.117397
-0.126361
-0.150259
-0.145078
-0.140037
-0.111374
-0.058206
-0.011539
0.048044
0.103423
0.143500
0.158559
0.141953
0.130350
0.113161
0.101595
0.051218
-0.010396
-0.050959
-0.066225
-0.107463
-0.137478
-0.159346
-0.137063
-0.106843
-0.076095
-0.028823
0.018787
0.082153
0.104199
0.109299
0.149086
0.186038
0.177181
0.164369
0.122226
0.073159
0.027840
-0.015183
-0.067390
-0.092200
-0.115271
-0.103490
-0.085524
-0.061574
-0.029879
0.017010
0.048271
0.109189
0.146963
0.176711
0.192033
0.205184
0.200282
0.181691
0.119841
0.097293
0.072002
0.018686
-0.029044
-0.069286
-0.086840
-0.082177
-0.066506
-0.044331
-0.009941
0.032498
0.080964
0.133776
0.169990
0.205027
0.221237
0.216001
0.208572
0.200809
0.183616
0.141688
0.094767
0.040867
-0.005265
-0.036700
-0.065368
-0.063797
-0.026658
0.007975
0.043316
0.066218
0.114174
0.149033
0.202837
0.226045
0.238046
0.229715
0.231623
0.218833
0.182586
0.128604
0.087834
0.063697
0.009832
-0.038058
-0.066260
-0.069566
-0.064201
-0.054218
-0.031229
0.044452
0.066142
0.138589
0.178106
0.205195
0.225773
0.235832
0.226930
0.193392
0.148240
0.103475
0.079554
0.021665
-0.018740
-0.054237
-0.082367
-0.095823
-0.094608
-0.064830
-0.035905
0.004240
0.052012
0.095407
0.134598
0.169589
0.184003
0.171188
0.150870
0.134420
0.120625
0.094166
0.050960
-0.009955
-0.049629
-0.085137
-0.125120
-0.120217
-0.126825
-0.105239
-0.062946
-0.022255
0.015644
0.055950
0.089701
0.102144
0.143822
0.158595
0.150530
0.101921
0.064141
0.033317
-0.025228
-0.075209
-0.108454
-0.139451
-0.159258
-0.170334
-0.163113
-0.127129
-0.094777
-0.056022
-0.015402
0.037459
0.089332
0.112847
0.112350
0.118755
0.118154
0.105434
0.077974
0.028235
-0.036686
-0.087534
-0.119600
-0.152234
-0.179749
-0.184830
-0.177196
-0.156685
-0.115411
-0.067292
-0.023427
0.015364
0.056474
0.075916
0.090891
0.091420
0.114272
0.091618
0.049962
0.014072
-0.033297
-0.077904
-0.139947
-0.158877
-0.175310
-0.201151
-0.184721
-0.133275
-0.115573
-0.075665
-0.024080
0.017204
0.056176
0.088480
0.102794
0.107552
0.118246
0.103404
0.045749
-0.003486
-0.032231
-0.066228
-0.106530
-0.129941
-0.154449
-0.170106
-0.183029
-0.161665
-0.122341
-0.078659
-0.026451
0.014719
0.076533
0.117248
0.124664
0.122440
0.111469
0.075992
0.036086
0.002259
-0.034706
-0.068421
-0.124283
-0.149962
-0.172100
-0.179895
-0.176844
-0.157219
-0.106584
-0.030725
0.013733
0.036875
0.088134
0.101025
0.111156
0.093246
0.132706
0.130852
0.088227
0.047688
-0.013973
-0.070171
-0.115603
-0.143020
-0.157060
-0.170257
-0.160498
-0.139986
-0.106554
-0.067989
-0.018480
0.023955
0.062826
0.102275
0.120786
0.126057
0.110885
0.092500
0.060475
0.027560
-0.020696
-0.065175
-0.114442
-0.155672
-0.174632
-0.186979
-0.178806
-0.137258
-0.090698
-0.057291
-0.015213
0.045154
0.097099
0.111160
0.131924
0.149478
0.134594
0.099742
0.052110
0.016630
-0.046169
-0.097095
-0.147061
-0.167776
-0.178480
-0.163127
-0.154493
-0.147014
-0.136166
-0.076652
-0.017977
0.031469
0.059688
0.074658
0.084696
0.100252
0.113284
0.097725
0.066784
0.041894
-0.030988
-0.088987
-0.141547
-0.142570
-0.168502
-0.193011
-0.186677
-0.159755
-0.109924
-0.074505
-0.026623
0.028011
0.060005
0.093927
0.114168
0.113540
0.105673
0.089010
0.055256
0.014087
-0.051132
-0.089547
-0.128767
-0.179679
-0.183572
-0.191800
-0.182853
-0.164969
-0.121313
-0.076972
-0.033725
0.017999
0.057840
0.082752
0.087554
0.104465
0.099824
0.074948
0.049373
0.010152
-0.037999
-0.093127
-0.132749
-0.166933
-0.185434
-0.201613
-0.191818
-0.161343
-0.130873
-0.095501
-0.039324
0.008067
0.052756
0.093544
0.115425
0.106024
0.101740
0.069218
0.048558
-0.001092
-0.062341
-0.112033
-0.173454
-0.204440
-0.171659
-0.177608
-0.173072
-0.155427
-0.148114
-0.114304
-0.038887
0.011452
0.046486
0.087175
0.094475
0.098856
0.104712
0.089281
0.059398
0.007803
-0.035370
-0.086048
-0.130864
-0.163751
-0.187368
-0.197766
-0.200603
-0.164201
-0.119317
-0.083709
-0.031903
0.012377
0.049746
0.081910
0.094816
0.104775
0.085573
0.044664
0.046320
0.028614
-0.037718
-0.100840
-0.146137
-0.178288
-0.201013
-0.204117
-0.190581
-0.167553
-0.124948
-0.090222
-0.047100
-0.004532
0.046281
0.091632
0.116454
0.112123
0.103213
0.085544
0.059226
0.014958
-0.037832
-0.080062
-0.111478
-0.133045
-0.155417
-0.171912
-0.151600
-0.130271
-0.106759
-0.061926
-0.009680
0.035705
0.082080
0.113634
0.144955
0.149196
0.130856
0.105534
0.061586
0.035077
-0.014786
-0.056930
-0.107515
-0.135934
-0.160554
-0.171463
-0.159626
-0.141702
-0.093451
-0.047351
0.005671
0.062773
0.096304
0.125389
0.166090
0.188004
0.171811
0.129360
0.099307
0.060913
0.020637
-0.020225
-0.034606
-0.075544
-0.119001
-0.131881
-0.136933
-0.105783
-0.086851
-0.057244
-0.001662
0.046921
0.068963
0.099390
0.123085
0.131622
0.127229
0.096728
0.049543
0.020801
-0.027153
-0.078940
-0.107929
-0.148829
-0.178798
-0.176469
-0.163404
-0.143475
-0.106693
-0.070681
-0.034186
0.002059
0.037546
0.069232
0.093428
0.101726
0.089471
0.080969
0.053391
0.029014
-0.041449
-0.105495
-0.144136
-0.175248
-0.199867
-0.217511
-0.211605
-0.173861
-0.149135
-0.109481
-0.063862
-0.010959
0.044192
0.073154
0.079837
0.074292
0.069867
0.032694
0.002442
-0.014037
-0.053004
-0.102330
-0.151789
-0.189536
-0.211986
-0.221020
-0.213654
-0.191952
-0.159283
-0.116429
-0.060288
-0.021206
0.012798
0.075674
0.095089
0.082619
0.066678
0.033658
-0.002655
-0.037692
-0.093816
-0.120436
-0.143949
-0.198794
-0.217469
-0.218874
-0.216499
-0.205844
-0.180557
-0.126823
-0.054109
0.018660
0.057935
0.083650
0.099960
0.095266
0.080538
0.049896
0.015110
-0.030866
-0.084244
-0.124502
-0.173192
-0.190614
-0.213123
-0.228385
-0.222778
-0.210459
-0.187443
-0.149751
-0.094833
-0.034292
0.021080
0.056482
0.068041
0.074741
0.103398
0.082601
0.036380
-0.010085
-0.037132
-0.060889
-0.104102
-0.132924
-0.123147
-0.109189
-0.097019
-0.073016
-0.023534
0.037790
0.092228
0.149390
0.204479
0.246820
0.330369
0.364391
0.376544
0.379445
0.387415
0.397543
0.391761
0.368730
0.366564
0.349312
0.359793
0.392239
0.444605
0.515957
0.591258
0.656372
0.736607
0.813516
0.857221
0.870777
0.889283
0.889774
0.858210
0.823812
0.767753
0.696355
0.622721
0.493504
0.378716
0.283818
0.204115
0.138037
0.085409
0.061545
0.059057
0.093679
0.138644
0.199367
0.237910
0.255672
0.258851
0.240633
0.237494
0.228440
0.182438
0.115293
0.045358
-0.009457
-0.050631
-0.080768
-0.093088
-0.096884
-0.110929
-0.097470
-0.058738
-0.015941
0.023595
0.069733
0.113149
0.145467
0.149510
0.154887
0.146548
0.115730
0.088214
0.037043
-0.009055
-0.056342
-0.105315
-0.153750
-0.180012
-0.153800
-0.122796
-0.106034
-0.079916
-0.055056
-0.014658
0.049693
0.081475
0.117623
0.136479
0.144467
0.137719
0.122208
0.061291
0.020014
-0.028004
-0.070741
-0.107655
-0.141601
-0.156780
-0.165832
-0.154499
-0.120825
-0.096057
-0.070165
-0.037370
0.052218
0.085230
0.112383
0.129694
0.153035
0.155284
0.119550
0.080395
0.042630
-0.012282
-0.049690
-0.069500
-0.092995
-0.111009
-0.124528
-0.125697
-0.105521
-0.069842
-0.030095
0.019799
0.062013
0.103904
0.135447
0.165109
0.174285
0.161656
0.144633
0.104091
0.056546
0.009215
-0.043656
-0.073094
-0.103544
-0.125871
-0.143073
-0.136757
-0.103814
-0.054162
0.002457
0.061771
0.122872
0.151458
0.176112
0.191550
0.188333
0.174875
0.165558
0.141630
0.103243
0.066843
0.013299
-0.041324
-0.055644
-0.082647
-0.110519
-0.094714
-0.057020
-0.020393
0.027419
0.069223
0.131763
0.168626
0.199785
0.220345
0.229705
0.203458
0.183727
0.172295
0.125834
0.088704
0.042523
0.017843
-0.024069
-0.064097
-0.067862
-0.050589
-0.036460
0.000313
0.055759
0.122090
0.185291
0.201587
0.230731
0.262220
0.279943
0.271165
0.228264
0.192724
0.125709
0.083641
0.037616
0.004523
-0.026199
-0.034609
-0.046001
-0.043160
-0.020303
0.019444
0.055355
0.112292
0.149892
0.217417
0.253277
0.260121
0.251427
0.244061
0.224576
0.197646
0.134257
0.053995
0.043625
0.032800
0.004863
-0.025034
-0.027695
-0.035119
-0.012736
0.020438
0.061551
0.097292
0.145602
0.171475
0.205491
0.229563
0.247878
0.241480
0.222333
0.193029
0.144590
0.073463
0.000931
-0.029018
-0.044642
-0.069382
-0.073202
-0.069059
-0.059963
-0.026865
0.014498
0.062181
0.114249
0.147433
0.175622
0.194280
0.183800
0.150925
0.123123
0.139359
0.100576
0.063332
-0.002374
-0.060683
-0.103576
-0.128221
-0.124582
-0.103044
-0.081971
-0.044131
-0.024292
0.019687
0.069199
0.104144
0.145742
0.171067
0.173281
0.164913
0.141180
0.100065
0.045441
-0.021735
-0.066150
-0.098768
-0.110535
-0.142019
-0.143874
-0.125542
-0.112193
-0.093512
-0.058882
-0.006338
0.032725
0.074669
0.107923
0.121213
0.118669
0.133711
0.126858
0.089829
0.031502
-0.035991
-0.118323
-0.110086
-0.124623
-0.152855
-0.136115
-0.133546
-0.125628
-0.083283
-0.048793
-0.000984
0.039028
0.081373
0.108256
0.142677
0.131761
0.125086
0.113338
0.078579
0.052507
-0.013383
-0.072796
-0.124129
-0.155060
-0.170801
-0.171189
-0.143007
-0.130197
-0.100778
-0.051648
-0.004259
0.044591
0.091593
0.119890
0.139651
0.148882
0.136072
0.117610
0.073573
0.031187
-0.020358
-0.076119
-0.124625
-0.140824
-0.155025
-0.149114
-0.141900
-0.116288
-0.093763
-0.062365
-0.016541
0.044195
0.074046
0.115825
0.146863
0.144248
0.147410
0.136629
0.084666
0.040238
-0.014943
-0.063503
-0.090350
-0.115355
-0.143557
-0.148480
-0.141960
-0.129312
-0.088056
-0.045843
0.011387
0.050267
0.110536
0.138046
0.153241
0.147968
0.142585
0.130090
0.105871
0.051342
-0.000939
-0.045696
-0.079031
-0.120955
-0.152434
-0.150152
-0.142455
-0.117927
-0.089941
-0.062589
-0.019355
0.033390
0.088449
0.136470
0.161781
0.152671
0.139124
0.124174
0.086065
0.057842
-0.000345
-0.047639
-0.084771
-0.122090
-0.151992
-0.158149
-0.136397
-0.121651
-0.112055
-0.051117
-0.018949
0.049407
0.076215
0.114774
0.169713
0.155367
0.138565
0.117649
0.077652
0.035310
-0.010899
-0.064206
-0.103537
-0.126753
-0.151939
-0.171982
-0.161773
-0.117991
-0.087177
-0.053087
-0.005500
0.049230
0.087640
0.111472
0.142496
0.141157
0.128383
0.104281
0.061273
0.040573
-0.014789
-0.053009
-0.090792
-0.142291
-0.155300
-0.160700
-0.149060
-0.131157
-0.103791
-0.064876
-0.026420
0.025251
0.060858
0.091851
0.132789
0.156321
0.140518
0.096006
0.074394
0.036748
-0.030057
-0.072687
-0.108497
-0.126723
-0.153976
-0.173461
-0.163040
-0.126081
-0.103498
-0.051323
-0.007858
0.026595
0.060609
0.099938
0.118143
0.139616
0.138066
0.112253
0.067594
0.021901
-0.025402
-0.054744
-0.094220
-0.134947
-0.177134
-0.196041
-0.188725
-0.130909
-0.068390
-0.064156
-0.026601
0.023262
0.067269
0.097713
0.111794
0.120796
0.120676
0.105707
0.079842
0.038073
-0.034733
-0.089508
-0.140117
-0.151540
-0.108970
-0.136151
-0.146507
-0.149864
-0.124998
-0.077035
-0.029833
0.015265
0.065498
0.106740
0.121888
0.128003
0.123314
0.092400
0.059145
0.018498
-0.019725
-0.064353
-0.104588
-0.145644
-0.159434
-0.163552
-0.151216
-0.126518
-0.094072
-0.049436
-0.002860
0.037819
0.071336
0.096337
0.111996
0.122197
0.129356
0.126034
0.118594
0.080949
0.031458
-0.019442
-0.059078
-0.078574
-0.105231
-0.127405
-0.123281
-0.107204
-0.074365
-0.041963
0.014028
0.076609
0.126160
0.158173
0.166408
0.160069
0.153548
0.127950
0.091242
0.055809
0.023895
-0.029361
-0.077188
-0.102113
-0.111245
-0.100928
-0.100265
-0.104617
-0.063145
0.022434
0.068678
0.090500
0.131483
0.157186
0.183583
0.195658
0.186377
0.142763
0.112005
0.076893
0.025196
-0.048342
-0.079645
-0.113222
-0.149880
-0.167748
-0.136450
-0.113000
-0.096817
-0.042482
0.004066
0.035347
0.092878
0.108876
0.143719
0.153210
0.133445
0.102241
0.075314
0.040427
-0.005512
-0.058229
-0.103077
-0.135981
-0.173503
-0.184690
-0.165803
-0.157443
-0.113884
-0.084051
-0.036862
0.000069
0.052519
0.099255
0.127439
0.137257
0.135803
0.111153
0.074597
0.013890
-0.043586
-0.105777
-0.152879
-0.175418
-0.177528
-0.181622
-0.199361
-0.184131
-0.141330
-0.110877
-0.072620
0.007667
0.072436
0.097547
0.109208
0.132939
0.130557
0.100248
0.050187
-0.005393
-0.038259
-0.083274
-0.137177
-0.173752
-0.193981
-0.206162
-0.194361
-0.164592
-0.133938
-0.092818
-0.040315
0.016446
0.051783
0.078717
0.089111
0.099004
0.097298
0.081220
0.046143
-0.008409
-0.052807
-0.095965
-0.144807
-0.174417
-0.198139
-0.204481
-0.210361
-0.183984
-0.141484
-0.110117
-0.057571
0.016025
0.049320
0.058503
0.078458
0.103736
0.100192
0.079954
0.034970
-0.030032
-0.058464
-0.090790
-0.151016
-0.189314
-0.216315
-0.217500
-0.206072
-0.186311
-0.146172
-0.105069
-0.043135
0.017545
0.098686
0.128727
0.168946
0.203213
0.200460
0.161797
0.128020
0.113322
0.075769
0.040475
0.022533
0.031092
0.043656
0.049513
0.086741
0.138469
0.188890
0.261807
0.346932
0.423890
0.504146
0.565639
0.627701
0.666727
0.701889
0.740410
0.728213
0.711465
0.697169
0.672151
0.658796
0.657595
0.618723
0.613162
0.627412
0.606296
0.601158
0.643115
0.676348
0.679099
0.652600
0.626755
0.586891
0.538084
0.477861
0.391229
0.326127
0.245226
0.168781
0.114356
0.053426
0.012806
-0.015390
-0.029689
-0.028747
-0.022462
0.010004
0.047018
0.082398
0.118223
0.160846
0.176358
0.207968
0.211426
0.201684
0.166242
0.109476
0.074663
0.057065
0.009297
-0.054561
-0.095877
-0.118948
-0.145607
-0.153631
-0.086756
-0.063349
-0.023397
0.009944
0.040789
0.090605
0.137713
0.152174
0.172400
0.161135
0.129596
0.093317
0.051090
-0.000005
-0.045548
-0.085803
-0.123470
-0.128695
-0.149155
-0.149149
-0.124036
-0.093712
-0.045915
0.001180
0.036017
0.082464
0.113325
0.130812
0.141002
0.134001
0.104574
0.074240
0.052526
0.017344
-0.052734
-0.119488
-0.116817
-0.116987
-0.127640
-0.128670
-0.128143
-0.088187
-0.028476
0.021301
0.074425
0.123628
0.144273
0.163403
0.178963
0.165335
0.132446
0.103397
0.050120
0.002286
-0.032819
-0.070320
-0.103252
-0.140193
-0.147552
-0.122198
-0.105031
-0.069464
-0.015754
0.033427
0.083481
0.128881
0.163140
0.195656
0.184408
0.180645
0.165151
0.139122
0.095352
0.038117
-0.012997
-0.050648
-0.094065
-0.109995
-0.118622
-0.108118
-0.093834
-0.044675
0.017760
0.068959
0.114804
0.166314
0.198645
0.214993
0.218026
0.204850
0.185056
0.149966
0.116699
0.074754
0.019427
-0.022291
-0.039346
-0.059551
-0.060823
-0.051228
-0.046325
-0.012801
0.048240
0.094870
0.146269
0.189008
0.222337
0.234925
0.239975
0.228961
0.202076
0.164362
0.164259
0.107550
0.044989
0.005425
-0.024416
-0.036553
-0.043743
-0.042387
-0.012772
0.022776
0.076260
0.119725
0.156650
0.191955
0.227041
0.272555
0.289273
0.272716
0.239947
0.188586
0.138631
0.101430
0.070209
0.018629
-0.014844
-0.043971
-0.048668
-0.034843
-0.011643
0.029595
0.053289
0.094302
0.147100
0.181680
0.229872
0.250107
0.251483
0.253647
0.225308
0.183745
0.136100
0.079487
0.036710
-0.016005
-0.061872
-0.077554
-0.071222
-0.060472
-0.040303
-0.011615
0.036117
0.092779
0.129772
0.166427
0.191064
0.199433
0.218326
0.206477
0.186034
0.145703
0.102353
0.050117
-0.000897
-0.045857
-0.085266
-0.102739
-0.106625
-0.104203
-0.078498
-0.053873
-0.007723
0.029953
0.056830
0.105860
0.142646
0.167864
0.151123
0.165540
0.186378
0.150694
0.103474
0.029954
-0.028794
-0.090766
-0.135447
-0.155160
-0.138458
-0.124348
-0.112617
-0.080266
-0.050633
-0.011839
0.030544
0.077927
0.108008
0.122960
0.133159
0.131377
0.121984
0.078134
0.032665
-0.021108
-0.060165
-0.104142
-0.154582
-0.179079
-0.178133
-0.169985
-0.137038
-0.088993
-0.053276
-0.015030
0.019270
0.072951
0.103454
0.116921
0.114891
0.110461
0.109597
0.080324
0.024588
-0.020975
-0.074098
-0.125034
-0.159168
-0.169134
-0.180204
-0.161892
-0.157230
-0.111887
-0.070617
-0.026530
0.038026
0.070058
0.116903
0.133021
0.125123
0.113699
0.092008
0.059092
0.027867
-0.012431
-0.059441
-0.111445
-0.148885
-0.171728
-0.179319
-0.164232
-0.133830
-0.130155
-0.064590
-0.011725
0.009272
0.052172
0.104349
0.126167
0.151886
0.147280
0.105623
0.092149
0.033069
-0.050334
-0.065320
-0.099384
-0.139127
-0.148989
-0.153964
-0.158818
-0.137517
-0.095509
-0.062623
-0.020949
0.028347
0.070758
0.107472
0.130958
0.137039
0.141191
0.114739
0.072381
0.023684
-0.029987
-0.072671
-0.108013
-0.132421
-0.153347
-0.173641
-0.168817
-0.140873
-0.112978
-0.064318
0.003594
0.055324
0.096030
0.117916
0.135120
0.143027
0.143535
0.125753
0.085138
0.034138
-0.017234
-0.066066
-0.099887
-0.126652
-0.146107
-0.171525
-0.169654
-0.139757
-0.103076
-0.060601
-0.015438
0.023440
0.062306
0.095737
0.126856
0.138225
0.136410
0.104256
0.078675
0.042016
-0.006759
-0.058896
-0.104807
-0.156519
-0.182776
-0.178058
-0.166213
-0.140801
-0.106615
-0.068735
-0.024687
0.015647
0.049263
0.081705
0.087073
0.127404
0.135151
0.134338
0.077628
0.015318
-0.027939
-0.067631
-0.114842
-0.143231
-0.155024
-0.171595
-0.172582
-0.156877
-0.119860
-0.070460
-0.017726
0.023531
0.059165
0.104822
0.120899
0.124736
0.112329
0.091060
0.054369
0.010564
-0.036257
-0.085507
-0.127374
-0.170167
-0.195615
-0.189617
-0.187541
-0.172030
-0.131624
-0.073330
-0.032821
0.015580
0.055615
0.085197
0.105811
0.110396
0.100262
0.093689
0.072291
0.011494
-0.044822
-0.103989
-0.135933
-0.172268
-0.200171
-0.210833
-0.189363
-0.149380
-0.111257
-0.080703
-0.033095
0.008232
0.061812
0.122164
0.128532
0.123381
0.105573
0.064476
0.030446
0.000607
-0.036294
-0.066782
-0.101952
-0.151606
-0.172499
-0.182419
-0.190334
-0.153896
-0.113548
-0.062234
-0.014647
0.024422
0.088796
0.130320
0.145277
0.139516
0.132307
0.109751
0.079533
0.041350
-0.008812
-0.070974
-0.102576
-0.150809
-0.146022
-0.167305
-0.158264
-0.107614
-0.087165
-0.045608
0.003326
0.057337
0.075928
0.126054
0.158135
0.149052
0.145220
0.117714
0.075907
0.031559
-0.006809
-0.059328
-0.097307
-0.121867
-0.143957
-0.149156
-0.130479
-0.096873
-0.082987
-0.046517
0.008240
0.064183
0.101253
0.120970
0.150143
0.171928
0.161721
0.125849
0.084041
0.035761
-0.004115
-0.053295
-0.107491
-0.134574
-0.141468
-0.178650
-0.195563
-0.167910
-0.095426
-0.060815
-0.021469
0.052105
0.090002
0.113176
0.115074
0.125364
0.121017
0.091012
0.060715
0.029283
-0.032507
-0.103439
-0.151264
-0.197402
-0.219745
-0.204315
-0.172538
-0.172261
-0.131617
-0.099548
-0.059679
-0.015935
0.021491
0.061393
0.077541
0.071469
0.072668
0.033803
0.006580
-0.035254
-0.082321
-0.139100
-0.155163
-0.149866
-0.180831
-0.216381
-0.219257
-0.191167
-0.158907
-0.121653
-0.070063
-0.014414
0.029299
0.061009
0.088623
0.080525
0.068992
0.052739
0.019592
-0.014590
-0.076755
-0.118088
-0.161066
-0.203726
-0.230356
-0.227867
-0.229372
-0.198223
-0.178927
-0.130251
-0.075500
-0.030895
0.006834
0.042036
0.056775
0.063845
0.067875
0.041621
0.017379
-0.023474
-0.072492
-0.120756
-0.176027
-0.201924
-0.224390
-0.236742
-0.240808
-0.217579
-0.158640
-0.113568
-0.073199
-0.034626
0.008635
0.049768
0.066672
0.071760
0.054854
0.018304
-0.017137
-0.054158
-0.093923
-0.122002
-0.156089
-0.175096
-0.217838
-0.235880
-0.223932
-0.189917
-0.150574
-0.084426
-0.025920
0.041103
0.112377
0.160891
0.189016
0.213019
0.224828
0.198532
0.186020
0.166733
0.133987
0.119433
0.110148
0.099094
0.106144
0.135616
0.167310
0.213120
0.257410
0.393314
0.470797
0.536443
0.602196
0.685540
0.747284
0.783372
0.808406
0.819865
0.811894
0.776465
0.712696
0.661030
0.617544
0.542982
0.521205
0.507417
0.501639
0.475317
0.433378
0.404149
0.395593
0.396999
0.384755
0.369963
0.345797
0.301973
0.270883
0.226609
0.176031
0.142677
0.109383
0.039732
-0.018371
-0.062196
-0.093789
-0.112912
-0.109115
-0.090894
-0.074301
-0.022048
0.024647
0.080535
0.124733
0.157286
0.172552
0.178749
0.154527
0.117229
0.077060
0.035520
-0.015002
-0.059707
-0.107257
-0.142065
-0.197478
-0.184298
-0.158074
-0.130237
-0.110858
-0.061050
-0.017069
0.023130
0.057032
0.103925
0.109824
0.115538
0.081290
0.109964
0.082620
0.020902
-0.035962
-0.087906
-0.137790
-0.178665
-0.193050
-0.206020
-0.184669
-0.151552
-0.113892
-0.086830
-0.028136
0.016268
0.051244
0.069253
0.093238
0.118982
0.111540
0.101418
0.067307
0.019749
-0.026977
-0.088281
-0.122756
-0.141468
-0.169936
-0.192235
-0.172396
-0.152132
-0.116955
-0.068912
-0.022667
0.021746
0.056153
0.091313
0.129866
0.142691
0.125653
0.112727
0.077136
0.031197
-0.019091
-0.064729
-0.107059
-0.121549
-0.153051
-0.170883
-0.162858
-0.135283
-0.102498
-0.043840
0.011925
0.059464
0.104259
0.132917
0.162549
0.169984
0.150629
0.110599
0.085403
0.052506
0.035030
-0.017071
-0.078932
-0.107911
-0.128873
-0.142907
-0.126426
-0.099451
-0.069416
-0.016446
0.026523
0.074147
0.105750
0.163879
0.205248
0.205907
0.185086
0.177452
0.143979
0.096976
0.052337
-0.005058
-0.050242
-0.074458
-0.093570
-0.096486
-0.073551
-0.058793
-0.034693
0.013904
0.055052
0.099786
0.158727
0.200791
0.243534
0.261490
0.235412
0.191701
0.134045
0.111257
0.067977
0.015567
-0.032033
-0.069768
-0.077751
-0.081806
-0.077483
-0.069482
-0.037129
0.022980
0.072457
0.113337
0.167956
0.192773
0.222775
0.227092
0.220623
0.191472
0.156371
0.120925
0.085931
0.027796
-0.018252
-0.053604
-0.082748
-0.071851
-0.073736
-0.052059
-0.024798
0.005737
0.047094
0.091868
0.129266
0.179731
0.216975
0.224648
0.201972
0.171587
0.160688
0.116926
0.045742
0.003427
-0.029818
-0.063854
-0.101216
-0.123628
-0.120725
-0.078235
-0.036964
-0.005113
0.027607
0.069545
0.121206
0.143767
0.188150
0.203414
0.174245
0.127816
0.109609
0.067730
0.020117
-0.038236
-0.093880
-0.140560
-0.135025
-0.131441
-0.136164
-0.126437
-0.076994
-0.042126
-0.003401
0.043820
0.075953
0.112891
0.134725
0.132160
0.119847
0.095744
0.066448
0.015630
-0.036893
-0.082674
-0.128122
-0.158520
-0.181475
-0.195074
-0.182753
-0.160167
-0.123581
-0.111022
-0.071417
-0.039449
0.028060
0.070081
0.098589
0.120940
0.107581
0.089352
0.067527
0.021703
-0.031658
-0.077748
-0.128501
-0.157439
-0.199203
-0.227451
-0.214079
-0.184461
-0.126444
-0.089599
-0.054006
0.004488
0.055245
0.085179
0.117443
0.103176
0.094760
0.083345
0.051677
0.014756
-0.042404
-0.118941
-0.161433
-0.177005
-0.201079
-0.203733
-0.207436
-0.180108
-0.148766
-0.100116
-0.040299
0.020485
0.075235
0.082460
0.093478
0.111127
0.102852
0.083000
0.035243
-0.012133
-0.062512
-0.109882
-0.143753
-0.177626
-0.206847
-0.210269
-0.189385
-0.143888
-0.134789
-0.077337
-0.029102
-0.013465
0.053378
0.075008
0.118183
0.105844
0.088392
0.075331
0.054687
0.023108
-0.041466
-0.097059
-0.150785
-0.163725
-0.175083
-0.180353
-0.178646
-0.169379
-0.127243
-0.091697
-0.041477
0.005393
0.039242
0.085280
0.102657
0.105251
0.095634
0.071605
0.026750
0.006191
-0.017333
-0.066865
-0.137337
-0.152367
-0.171941
-0.175128
-0.169768
-0.157850
-0.120533
-0.067790
-0.040485
-0.003637
0.028013
0.067070
0.103128
0.125303
0.132422
0.100453
0.056665
0.012370
-0.042570
-0.084998
-0.136050
-0.174712
-0.179770
-0.194210
-0.199399
-0.170167
-0.101685
-0.058588
-0.039038
0.002587
0.050054
0.082498
0.114409
0.135283
0.123195
0.090695
0.042192
0.004062
-0.052708
-0.100240
-0.140200
-0.177087
-0.207407
-0.223985
-0.219819
-0.188552
-0.129263
-0.089162
-0.034065
0.007631
0.047800
0.072288
0.099645
0.106233
0.098340
0.092070
0.046799
-0.017173
-0.036439
-0.087074
-0.135235
-0.175304
-0.206001
-0.194232
-0.188249
-0.179817
-0.141595
-0.104617
-0.057568
-0.004463
0.033002
0.066067
0.096609
0.094379
0.069858
0.061979
0.031130
-0.017907
-0.077862
-0.083861
-0.121090
-0.168775
-0.203324
-0.219617
-0.221638
-0.196846
-0.150549
-0.100805
-0.053805
0.003285
0.039806
0.066641
0.077465
0.088461
0.089483
0.073489
0.035802
-0.019453
-0.075468
-0.128205
-0.177866
-0.211763
-0.211987
-0.223947
-0.211824
-0.190705
-0.124600
-0.092750
-0.051529
0.002562
0.037259
0.058587
0.071254
0.090544
0.079857
0.068222
0.030829
-0.011726
-0.062603
-0.102303
-0.145386
-0.181472
-0.198708
-0.198863
-0.187229
-0.164119
-0.141518
-0.094609
-0.051612
0.002491
0.046760
0.076739
0.111651
0.111904
0.108197
0.090633
0.064242
0.024041
-0.039018
-0.099383
-0.132855
-0.150828
-0.181024
-0.182360
-0.173937
-0.141468
-0.101563
-0.070756
-0.045231
-0.005158
0.080709
0.121774
0.141442
0.144913
0.131558
0.109395
0.074672
0.028741
-0.026819
-0.075316
-0.121152
-0.157451
-0.165473
-0.177794
-0.169235
-0.142752
-0.102188
-0.064114
-0.007124
0.039044
0.075030
0.118278
0.139495
0.142658
0.131619
0.116492
0.083522
0.035864
-0.005947
-0.055308
-0.096874
-0.151588
-0.174412
-0.185433
-0.176572
-0.161954
-0.129536
-0.064244
-0.024107
0.002392
0.061846
0.104982
0.106330
0.100164
0.118457
0.089443
0.043340
0.010471
-0.046012
-0.088345
-0.132809
-0.167583
-0.185978
-0.197847
-0.210001
-0.194062
-0.146563
-0.109079
-0.056315
-0.009699
0.017199
0.042983
0.065612
0.071747
0.071869
0.048170
0.037126
-0.021498
-0.069350
-0.118714
-0.173105
-0.211318
-0.223830
-0.215776
-0.219796
-0.220332
-0.186029
-0.133830
-0.086800
-0.047652
0.000319
0.033230
0.054505
0.060784
0.069396
0.045683
0.014752
-0.040277
-0.092308
-0.136261
-0.190584
-0.216316
-0.239936
-0.236555
-0.241884
-0.215515
-0.170554
-0.123049
-0.062039
-0.003536
0.018434
0.027103
0.034862
0.052396
0.048359
0.019575
0.007600
-0.046738
-0.069426
-0.129822
-0.182096
-0.224209
-0.241493
-0.254796
-0.256408
-0.226210
-0.190232
-0.133167
-0.078933
-0.031667
0.017432
0.056707
0.061629
0.065944
0.069285
0.038952
0.004898
-0.049191
-0.096342
-0.151035
-0.181467
-0.217057
-0.239930
-0.259386
-0.263244
-0.255314
-0.212468
-0.152416
-0.089067
-0.028329
0.019165
0.046558
0.080176
0.105412
0.122905
0.108058
0.104100
0.076855
0.021576
-0.007021
-0.034342
-0.060195
-0.076270
-0.068531
-0.040485
-0.002250
0.042239
0.115836
0.211267
0.286850
0.354687
0.425279
0.470939
0.527869
0.564727
0.553279
0.532887
0.526654
0.539938
0.553859
0.536210
0.533333
0.546233
0.552662
0.565794
0.587608
0.616031
0.665289
0.693722
0.722557
0.726647
0.741729
0.739512
0.698311
0.610201
0.522827
0.432764
0.345278
0.239878
0.149083
0.057121
0.014657
-0.028017
-0.058793
-0.062510
-0.036598
-0.003182
0.039499
0.067364
0.110748
0.146886
0.169489
0.181435
0.179507
0.164450
0.137474
0.109984
0.066934
0.011709
-0.033691
-0.100773
-0.139521
-0.163567
-0.170343
-0.169673
-0.143024
-0.123044
-0.053697
-0.004549
0.023801
0.056806
0.107023
0.131383
0.120988
0.110309
0.099115
0.064962
0.023486
-0.028164
-0.082023
-0.139858
-0.168408
-0.196683
-0.202698
-0.194884
-0.182622
-0.144153
-0.070462
-0.028232
0.014598
0.048126
0.073848
0.103181
0.130799
0.108742
0.073969
0.065578
0.040430
-0.013990
-0.074259
-0.126415
-0.157233
-0.176896
-0.186183
-0.181241
-0.166028
-0.137012
-0.079845
-0.025110
0.021184
0.054588
0.095485
0.112057
0.125286
0.121421
0.117761
0.073607
0.013499
-0.032475
-0.055329
-0.112160
-0.140022
-0.154164
-0.171940
-0.175844
-0.170263
-0.104875
-0.061673
-0.006425
0.046723
0.091639
0.110906
0.109814
0.141207
0.156198
0.153344
0.124758
0.066939
-0.008861
-0.042474
-0.077604
-0.114639
-0.155803
-0.160047
-0.137862
-0.123167
-0.073946
-0.026683
0.024259
0.084151
0.122896
0.149163
0.166739
0.188077
0.182824
0.160003
0.122812
0.077608
0.040021
-0.000779
-0.048562
-0.084266
-0.095554
-0.108111
-0.099677
-0.091209
-0.049111
0.000222
0.043086
0.090857
0.132933
0.175689
0.193659
0.213403
0.203780
0.184750
0.149139
0.087128
0.060418
0.013466
-0.033451
-0.057681
-0.094907
-0.122841
-0.063383
-0.045681
-0.015572
0.043652
0.100140
0.150276
0.187272
0.215487
0.229787
0.244831
0.229598
0.201921
0.161229
0.115173
0.062612
0.009992
-0.044499
-0.054749
-0.075316
-0.092918
-0.090552
-0.070199
-0.035011
0.022651
0.081863
0.129921
0.175658
0.208815
0.209815
0.225130
0.205635
0.177524
0.148553
0.110155
0.061861
0.010846
-0.029504
-0.061933
-0.086548
-0.090649
-0.092785
-0.064481
-0.039868
0.003933
0.049311
0.093167
0.142864
0.173832
0.181286
0.183262
0.169625
0.141606
0.127409
0.073691
0.008865
-0.029148
-0.060770
-0.090519
-0.106775
-0.134202
-0.122952
-0.100458
-0.081806
-0.040915
0.010292
0.052358
0.106408
0.139542
0.152217
0.167133
0.152132
0.136008
0.109442
0.055615
0.012140
-0.047121
-0.093759
-0.137340
-0.148669
-0.160007
-0.167268
-0.141999
-0.111111
-0.074698
-0.026701
0.010214
0.051969
0.081320
0.109514
0.130386
0.123084
0.099418
0.067581
0.005582
-0.029453
-0.086226
-0.124882
-0.164201
-0.187269
-0.191873
-0.193412
-0.167514
-0.136387
-0.091706
-0.044931
0.001058
0.043172
0.075997
0.087310
0.103065
0.106212
0.075958
0.036766
0.000100
-0.039080
-0.086353
-0.145279
-0.177131
-0.200284
-0.209434
-0.187907
-0.147376
-0.135682
-0.093897
-0.044238
0.008789
0.051227
0.077226
0.102252
0.107045
0.100736
0.060641
0.034940
-0.007150
-0.054929
-0.108104
-0.150890
-0.182273
-0.196577
-0.204064
-0.196107
-0.179211
-0.152602
-0.090525
-0.025922
0.021035
0.047659
0.082511
0.099228
0.107667
0.094525
0.076033
0.036146
-0.016755
-0.088207
-0.121778
-0.136969
-0.158774
-0.142617
-0.142351
-0.155998
-0.159225
-0.123260
-0.072149
-0.029876
0.012109
0.045943
0.071678
0.085333
0.090413
0.117010
0.092774
0.067334
0.025199
-0.019654
-0.062750
-0.118856
-0.153828
-0.188905
-0.192233
-0.177274
-0.154089
-0.127021
-0.083294
-0.027274
0.026119
0.060119
0.082283
0.102370
0.113202
0.099360
0.086689
0.043413
0.027158
-0.015393
-0.068048
-0.118781
-0.150597
-0.168143
-0.180337
-0.170246
-0.153649
-0.116278
-0.077995
-0.040622
-0.004818
0.040661
0.078137
0.121590
0.119970
0.118817
0.085947
0.053583
0.002557
-0.057677
-0.104920
-0.145775
-0.171323
-0.192183
-0.174177
-0.157816
-0.156373
-0.128925
-0.090822
-0.039883
-0.000699
0.033959
0.071282
0.096234
0.077491
0.096036
0.089239
0.059378
0.010172
-0.048957
-0.099624
-0.143719
-0.174288
-0.205231
-0.200152
-0.206677
-0.193931
-0.146564
-0.103611
-0.048384
0.018292
0.062192
0.090371
0.115705
0.118860
0.114760
0.087525
0.046264
0.000846
-0.038806
-0.100110
-0.154916
-0.182888
-0.191613
-0.191299
-0.204473
-0.183171
-0.147293
-0.102553
-0.055396
-0.014474
0.018787
0.061197
0.075869
0.088332
0.113316
0.083235
0.030299
0.000679
-0.047464
-0.105726
-0.144424
-0.172274
-0.191523
-0.200414
-0.202352
-0.194059
-0.156248
-0.117873
-0.069604
-0.016427
0.039112
0.065678
0.084125
0.099220
0.090685
0.079611
0.056923
0.022437
-0.038137
-0.100598
-0.139439
-0.185757
-0.217770
-0.198780
-0.200091
-0.168655
-0.147121
-0.106852
-0.058439
-0.005772
0.022434
0.047800
0.101509
0.090919
0.084679
0.067327
0.007124
-0.027750
-0.062330
-0.093221
-0.132721
-0.181880
-0.201398
-0.188927
-0.177188
-0.138757
-0.123557
-0.095955
-0.056060
-0.005249
0.040924
0.072659
0.111835
0.138614
0.133272
0.104879
0.068540
0.023601
-0.026157
-0.075787
-0.109924
-0.141686
-0.163346
-0.179023
-0.167322
-0.150551
-0.121043
-0.064533
-0.024489
0.015476
0.047987
0.076629
0.126833
0.141705
0.137202
0.100181
0.058285
0.019797
-0.024839
-0.062099
-0.092986
-0.129884
-0.152136
-0.158710
-0.158993
-0.134976
-0.093383
-0.056206
0.035755
0.073888
0.094119
0.121930
0.143925
0.153829
0.147803
0.123161
0.064555
0.022200
-0.022484
-0.079182
-0.128135
-0.164815
-0.197749
-0.173204
-0.173079
-0.160299
-0.130163
-0.095774
-0.050134
0.010944
0.045550
0.073052
0.090807
0.100047
0.097728
0.071529
0.043002
-0.011104
-0.074374
-0.112016
-0.136988
-0.179831
-0.212382
-0.227813
-0.240981
-0.225129
-0.170438
-0.113707
-0.071779
-0.037265
0.003188
0.035021
0.059952
0.067819
0.047755
0.047624
0.012568
-0.030910
-0.059896
-0.106291
-0.171194
-0.212629
-0.239144
-0.234610
-0.230329
-0.211828
-0.166996
-0.132256
-0.085734
-0.027011
0.002140
0.035461
0.066355
0.068278
0.053926
0.033739
-0.013606
-0.052127
-0.109576
-0.155739
-0.178995
-0.211256
-0.222346
-0.222197
-0.217065
-0.211040
-0.183557
-0.145731
-0.084360
-0.030024
0.002760
0.023820
0.048856
0.070501
0.092987
0.051940
0.001066
-0.047227
-0.090848
-0.140786
-0.199259
-0.216982
-0.229923
-0.242052
-0.251726
-0.237378
-0.163236
-0.117685
-0.071113
-0.033630
0.010006
0.049718
0.062121
0.068188
0.060509
0.029235
-0.001170
-0.038049
-0.097234
-0.148789
-0.192572
-0.223063
-0.235738
-0.239712
-0.242784
-0.212299
-0.177928
-0.104212
-0.040572
0.028366
0.081543
0.134270
0.163914
0.186342
0.195374
0.182835
0.169423
0.149881
0.112576
0.088704
0.079695
0.069092
0.072117
0.102673
0.142229
0.204555
0.256965
0.328520
0.408175
0.492305
0.572155
0.642454
0.700591
0.767113
0.805757
0.813288
0.809980
0.792740
0.749444
0.692688
0.654120
0.608538
0.561909
0.527005
0.514999
0.498866
0.471351
0.446220
0.449551
0.436668
0.415228
0.392670
0.362061
0.319077
0.269844
0.236993
0.184331
0.122495
0.088989
0.061141
-0.009256
-0.082354
-0.100767
-0.118696
-0.126764
-0.115061
-0.072126
-0.041697
0.031100
0.079554
0.117420
0.150236
0.156826
0.158601
0.159378
0.150369
0.105411
0.051972
-0.003501
-0.051808
-0.095737
-0.135058
-0.155919
-0.163135
-0.173960
-0.150633
-0.117887
-0.083934
-0.037185
-0.002404
0.045863
0.068200
0.093587
0.121222
0.107249
0.101273
0.052665
0.021504
-0.022979
-0.088648
-0.124089
-0.163228
-0.198369
-0.214197
-0.213892
-0.192309
-0.142085
-0.090570
-0.033400
0.003563
0.039966
0.073209
0.102119
0.119106
0.129700
0.101799
0.060867
0.007469
-0.005337
-0.059545
-0.111936
-0.148225
-0.172295
-0.179667
-0.191135
-0.170733
-0.134578
-0.088930
-0.010169
0.036705
0.070747
0.091436
0.107139
0.110716
0.111750
0.106214
0.089230
0.041335
-0.004632
-0.045844
-0.109771
-0.147411
-0.166948
-0.141118
-0.129030
-0.117749
-0.098461
-0.054230
-0.014594
0.034752
0.084506
0.121613
0.142941
0.152683
0.148335
0.126891
0.081178
0.029050
-0.014920
-0.042733
-0.092688
-0.110617
-0.144106
-0.150072
-0.140011
-0.099659
-0.057550
-0.011810
0.026625
0.077166
0.120682
0.145345
0.180615
0.193932
0.187908
0.162652
0.128140
0.089247
0.043031
0.002701
-0.053574
-0.071845
-0.091478
-0.105467
-0.100159
-0.078665
-0.045015
-0.005363
0.049758
0.086917
0.134104
0.178127
0.203667
0.213995
0.212357
0.189171
0.158178
0.108338
0.047083
-0.001639
-0.037842
-0.066710
-0.074726
-0.068632
-0.069557
-0.055154
-0.027057
0.020064
0.056711
0.096499
0.144680
0.175463
0.207286
0.210642
0.215459
0.202658
0.173433
0.126058
0.071148
0.017030
-0.037954
-0.073444
-0.083043
-0.073499
-0.053029
-0.067738
-0.059599
-0.017598
0.021669
0.110621
0.168958
0.189896
0.197567
0.193399
0.205444
0.207022
0.155633
0.091633
0.044619
0.007189
-0.042516
-0.077948
-0.108138
-0.115477
-0.098461
-0.087345
-0.070270
-0.019823
0.019397
0.058362
0.101726
0.140117
0.153900
0.169501
0.159670
0.142806
0.114281
0.066766
0.012965
-0.045796
-0.104677
-0.139463
-0.159639
-0.161508
-0.146344
-0.123827
-0.086186
-0.043153
-0.006218
0.032953
0.073213
0.104327
0.119627
0.134171
0.122745
0.102792
0.079089
0.022012
-0.023873
-0.075372
-0.120714
-0.158413
-0.175881
-0.171698
-0.167276
-0.154643
-0.135027
-0.095668
-0.041638
0.003245
0.051425
0.068488
0.091200
0.103249
0.094819
0.072016
0.037573
-0.006856
-0.061791
-0.114669
-0.158615
-0.180858
-0.197653
-0.205191
-0.193421
-0.174914
-0.156681
-0.118772
-0.059628
-0.011815
0.024404
0.046800
0.092704
0.115866
0.103994
0.074902
0.023769
-0.005135
-0.046686
-0.105981
-0.164312
-0.198174
-0.195328
-0.201400
-0.202216
-0.182126
-0.145156
-0.114848
-0.063236
0.003366
0.031950
0.064056
0.104990
0.093794
0.105074
0.088211
0.036243
-0.024748
-0.065292
-0.112148
-0.162780
-0.184947
-0.187185
-0.200271
-0.206454
-0.203189
-0.164262
-0.077545
-0.032149
0.020212
0.051763
0.072468
0.103723
0.112288
0.107652
0.080989
0.046509
0.009902
-0.032400
-0.093646
-0.139693
-0.185979
-0.205584
-0.217894
-0.200310
-0.167894
-0.130449
-0.097705
-0.043601
0.011051
0.053665
0.077321
0.082893
0.120002
0.116062
0.101290
0.060357
0.013945
-0.028855
-0.079854
-0.124372
-0.160303
-0.172196
-0.195548
-0.201791
-0.176504
-0.140320
-0.110803
-0.075952
-0.023321
0.047068
0.082127
0.090998
0.090332
0.091955
0.084248
0.053689
-0.010705
-0.056200
-0.088762
-0.121686
-0.177449
-0.190642
-0.187081
-0.181925
-0.173907
-0.133571
-0.091014
-0.039512
0.004021
0.039875
0.065624
0.088245
0.111140
0.119047
0.089618
0.053914
0.013833
-0.049204
-0.111713
-0.143564
-0.162363
-0.179328
-0.188994
-0.192466
-0.172442
-0.152706
-0.120846
-0.081918
-0.017353
0.034899
0.074487
0.090230
0.097760
0.087869
0.068316
0.030398
-0.015343
-0.057628
-0.102696
-0.142099
-0.171145
-0.200538
-0.214529
-0.197146
-0.168462
-0.140562
-0.115569
-0.073140
-0.014693
0.036551
0.058694
0.077247
0.088418
0.075736
0.058659
0.019106
-0.016695
-0.067874
-0.117267
-0.160605
-0.197462
-0.210345
-0.210265
-0.200189
-0.188254
-0.150921
-0.111595
-0.072157
-0.025498
0.019456
0.019852
0.094576
0.115258
0.099134
0.082762
0.037525
-0.012673
-0.054072
-0.109353
-0.154609
-0.175496
-0.182844
-0.188773
-0.188012
-0.173542
-0.147219
-0.102314
-0.050466
0.012947
0.073249
0.102044
0.109091
0.108123
0.111943
0.095974
0.059546
0.022203
-0.032756
-0.092250
-0.141298
-0.148758
-0.180601
-0.193423
-0.193011
-0.171034
-0.126413
-0.075469
-0.027113
0.026632
0.068113
0.095756
0.123330
0.129971
0.127325
0.109508
0.075003
0.034146
-0.013531
-0.062889
-0.098740
-0.135827
-0.168054
-0.168780
-0.145854
-0.125189
-0.106658
-0.067739
-0.025622
0.025962
0.054876
0.089366
0.113411
0.123584
0.120161
0.104227
0.060550
-0.005298
-0.048497
-0.099109
-0.154657
-0.175519
-0.206941
-0.232988
-0.211236
-0.191256
-0.136864
-0.087727
-0.046461
-0.011343
0.025434
0.066965
0.086660
0.070734
0.079106
0.065020
0.017482
-0.035109
-0.082203
-0.137121
-0.184764
-0.217230
-0.245639
-0.253313
-0.233916
-0.208672
-0.181796
-0.144020
-0.104867
-0.046166
-0.010449
0.018936
0.028855
0.045058
0.041477
0.017866
-0.000804
-0.049428
-0.116019
-0.125235
-0.162274
-0.201095
-0.231895
-0.244124
-0.232499
-0.216521
-0.186307
-0.152313
-0.104432
-0.056593
-0.018640
0.006633
0.050320
0.058929
0.045253
0.029454
-0.014582
-0.056832
-0.104395
-0.161653
-0.163796
-0.217889
-0.249906
-0.248443
-0.241163
-0.224556
-0.200184
-0.149533
-0.123180
-0.050268
-0.005383
0.027971
0.035420
0.045291
0.031859
0.017919
-0.006812
-0.051866
-0.099031
-0.141496
-0.173411
-0.214461
-0.241556
-0.254537
-0.248306
-0.236219
-0.198610
-0.138154
-0.108841
-0.066384
-0.026140
0.004302
0.024783
0.030402
0.031111
0.022838
0.000646
-0.037319
-0.087936
-0.113811
-0.146124
-0.173624
-0.169980
-0.166181
-0.160101
-0.132036
-0.066131
-0.019466
0.027210
0.104554
0.178716
0.223576
0.261025
0.296753
0.318329
0.340729
0.342126
0.346697
0.347173
0.319453
0.293430
0.296669
0.293069
0.324190
0.383833
0.451260
0.515509
0.586749
0.666059
0.745874
0.808911
0.846676
0.864647
0.869880
0.839997
0.801952
0.748773
0.702702
0.619407
0.514881
0.402268
0.299688
0.217668
0.177793
0.130254
0.080506
0.051393
0.061270
0.101153
0.142353
0.177884
0.218305
0.246897
0.256961
0.222914
0.174559
0.127713
0.075895
0.001151
-0.046614
-0.072122
-0.107665
-0.115227
-0.131775
-0.140227
-0.123621
-0.107907
-0.076326
-0.021662
0.010979
0.036528
0.082541
0.118756
0.126716
0.102294
0.058944
0.028449
-0.031552
-0.090139
-0.080288
-0.069621
-0.094216
-0.149816
-0.174350
-0.175367
-0.169515
-0.153230
-0.108249
-0.073611
-0.014224
0.029354
0.056692
0.078845
0.088768
0.083810
0.072787
0.043774
0.001760
-0.050561
-0.098609
-0.146887
-0.178525
-0.197575
-0.183756
-0.185129
-0.177173
-0.147222
-0.105740
-0.037508
0.004978
0.043698
0.069774
0.089981
0.106881
0.092871
0.066563
0.040870
0.000293
-0.037582
-0.080988
-0.123477
-0.158775
-0.181198
-0.203013
-0.203553
-0.175592
-0.113121
-0.063294
-0.028572
0.016006
0.051513
0.084252
0.103659
0.124013
0.115375
0.098197
0.069687
0.028288
-0.022035
-0.075405
-0.113087
-0.160703
-0.177740
-0.179973
-0.168279
-0.145355
-0.105697
-0.061060
-0.023783
0.029684
0.084714
0.118795
0.127916
0.150841
0.166997
0.129219
0.088864
0.039766
0.021866
-0.027769
-0.069716
-0.115219
-0.137804
-0.144542
-0.137421
-0.111272
-0.084965
-0.038718
0.001733
0.045676
0.094227
0.153489
0.179491
0.191018
0.174051
0.167658
0.145099
0.097085
0.050147
-0.004743
-0.046849
-0.086950
-0.109843
-0.125528
-0.097881
-0.053222
-0.029681
0.003811
0.043874
0.087758
0.123738
0.155546
0.180703
0.196570
0.190997
0.172875
0.126406
0.115216
0.060603
0.008822
-0.030356
-0.070979
-0.069550
-0.088741
-0.085019
-0.063944
-0.029951
0.008103
0.041356
0.082970
0.136031
0.150567
0.197087
0.201759
0.192681
0.172733
0.143440
0.088865
0.032230
-0.014035
-0.060936
-0.083938
-0.097295
-0.113878
-0.116828
-0.103404
-0.068015
-0.023061
0.022521
0.063013
0.097133
0.129595
0.154888
0.159388
0.170089
0.148074
0.119644
0.068120
0.021950
-0.038508
-0.100422
-0.112354
-0.127933
-0.134168
-0.120779
-0.102546
-0.075127
-0.044196
-0.032164
0.040663
0.098481
0.117964
0.127783
0.133428
0.132703
0.105811
0.070222
0.019406
-0.028356
-0.060860
-0.108423
-0.146515
-0.185429
-0.187427
-0.174596
-0.156427
-0.132426
-0.098832
-0.049566
-0.008927
0.042905
0.087941
0.086789
0.107809
0.102264
0.065631
0.032379
-0.004716
-0.051750
-0.092726
-0.148655
-0.180857
-0.202996
-0.203058
-0.192676
-0.177721
-0.166238
-0.112849
-0.063005
-0.023618
0.014447
0.056506
0.068639
0.081300
0.064159
0.037950
0.026381
-0.002131
-0.062802
-0.123239
-0.164409
-0.173837
-0.189962
-0.209327
-0.197607
-0.188538
-0.175301
-0.133024
-0.071772
-0.030665
0.012569
0.043699
0.071349
0.077662
0.060543
0.022893
-0.008298
-0.016312
-0.079605
-0.119132
-0.157368
-0.164202
-0.189562
-0.201722
-0.213925
-0.211906
-0.186915
-0.143342
-0.095617
-0.054660
0.027270
0.074983
0.091026
0.088017
0.080581
0.053782
0.015121
-0.017439
-0.023888
-0.075438
-0.134256
-0.173071
-0.201727
-0.209263
-0.208630
-0.183087
-0.153395
-0.098659
-0.050935
-0.009921
0.029452
0.058169
0.091991
0.102627
0.101863
0.081395
0.033533
-0.017807
-0.059222
-0.106526
-0.148872
-0.179557
-0.192772
-0.199300
-0.194520
-0.184532
-0.142715
-0.099099
-0.051123
-0.023427
0.037533
0.065133
0.087365
0.100246
0.087087
0.052678
0.019454
-0.022432
-0.063919
-0.112577
-0.159544
-0.202022
-0.205124
-0.190850
-0.194347
-0.175237
-0.143704
-0.104586
-0.062355
-0.014568
0.042512
0.079950
0.092989
0.097851
0.084736
0.063367
0.047321
0.008861
-0.048729
-0.104192
-0.164059
-0.182449
-0.192554
-0.213514
-0.218844
-0.199789
-0.164305
-0.133652
-0.079667
-0.035092
0.011639
0.047986
0.078904
0.068958
0.078910
0.058843
0.044298
0.011537
-0.047791
-0.102373
-0.141106
-0.181790
-0.203074
-0.203477
-0.204230
-0.189963
-0.162455
-0.133258
-0.070193
-0.006041
0.025101
0.046367
0.073473
0.095268
0.091908
0.074310
0.042732
-0.010488
-0.049648
-0.084546
-0.131465
-0.176493
-0.212744
-0.232380
-0.229785
-0.195284
-0.163914
-0.125373
-0.079845
-0.043545
0.013897
0.041605
0.063560
0.078300
0.065659
0.050171
0.022324
-0.014595
-0.075783
-0.120149
-0.154239
-0.195782
-0.229420
-0.226211
-0.210116
-0.187399
-0.153373
-0.117804
-0.091012
-0.038337
0.018692
0.060522
0.099219
0.098697
0.109464
0.080577
0.043328
0.005636
-0.024792
-0.082425
-0.123722
-0.160415
-0.184127
-0.187867
-0.181050
-0.153149
-0.122726
-0.099488
-0.057698
-0.012574
0.023633
0.066390
0.109751
0.119151
0.107864
0.086078
0.038981
-0.008113
-0.051733
-0.102584
-0.128135
-0.124865
-0.163812
-0.190862
-0.181943
-0.155031
-0.113954
-0.067545
-0.034321
0.019119
0.078371
0.111745
0.136742
0.144360
0.139229
0.112214
0.080660
0.034472
-0.020243
-0.070557
-0.119506
-0.148491
-0.172835
-0.184563
-0.156639
-0.131355
-0.110271
-0.081174
-0.034950
0.014407
0.054582
0.071386
0.102440
0.102824
0.099906
0.092288
0.056946
0.008678
-0.048808
-0.109318
-0.142122
-0.173061
-0.187197
-0.214882
-0.212232
-0.198834
-0.174457
-0.132004
-0.080448
-0.036012
-0.002363
0.027901
0.082647
0.064566
0.052290
0.029995
0.014073
-0.031857
-0.075295
-0.133480
-0.169969
-0.198642
-0.230151
-0.234987
-0.235737
-0.231562
-0.189648
-0.155697
-0.103539
-0.057390
-0.017830
0.004499
0.058579
0.052447
0.037686
0.019460
-0.018926
-0.051063
-0.075636
-0.135057
-0.203390
-0.240366
-0.260162
-0.232664
-0.218723
-0.204605
-0.179731
-0.149814
-0.106699
-0.045136
-0.012599
0.005946
0.034332
0.058221
0.051830
0.030707
-0.008673
-0.052751
-0.099906
-0.156474
-0.193925
-0.227002
-0.247644
-0.253437
-0.238472
-0.223507
-0.189867
-0.159711
-0.113770
-0.045654
-0.013748
0.024198
0.042933
0.042983
0.053224
0.035966
0.001279
-0.045496
-0.102979
-0.160232
-0.200972
-0.238672
-0.254943
-0.257234
-0.266094
-0.239465
-0.194802
-0.143309
-0.102832
-0.063559
-0.023103
0.017838
0.041554
0.071498
0.078622
0.071759
0.046677
0.026509
-0.015449
-0.043598
-0.073601
-0.097106
-0.128582
-0.116929
-0.100614
-0.061930
-0.008068
0.074520
0.158948
0.220966
0.289028
0.351077
0.404023
0.443464
0.487114
0.491802
0.486516
0.481738
0.470382
0.455129
0.462582
0.469907
0.474131
0.508779
0.538420
0.594682
0.641718
0.652456
0.693081
0.742536
0.787593
0.800349
0.788744
0.800172
0.739283
0.641357
0.550282
0.448587
0.330487
0.250513
0.167068
0.065345
-0.001693
-0.027781
-0.007449
-0.008822
0.019139
0.060325
0.092110
0.112872
0.139707
0.179139
0.191268
0.185851
0.180638
0.136932
0.094958
0.064873
0.021594
-0.032768
-0.076433
-0.112898
-0.141352
-0.165350
-0.175033
-0.148646
-0.118475
-0.076413
-0.035085
0.002443
0.051438
0.090694
0.115574
0.114448
0.101299
0.077413
0.041656
-0.006224
-0.059064
-0.109684
-0.149389
-0.184250
-0.190730
-0.187285
-0.184190
-0.177529
-0.151971
-0.113877
-0.046062
0.030365
0.056265
0.082643
0.099712
0.105884
0.103747
0.077862
0.037469
-0.006091
-0.053898
-0.102924
-0.130932
-0.167354
-0.189906
-0.197634
-0.196719
-0.168859
-0.124208
-0.093774
-0.044801
-0.012659
0.029355
0.071588
0.101269
0.112595
0.098325
0.077307
0.052209
0.005014
-0.036913
-0.093839
-0.118357
-0.143168
-0.179477
-0.190258
-0.167960
-0.156407
-0.126105
-0.070215
-0.024093
0.026078
0.065671
0.107086
0.132242
0.132839
0.125625
0.101039
0.068407
0.030229
-0.037448
-0.058255
-0.069963
-0.101803
-0.148285
-0.171262
-0.146014
-0.130501
-0.102306
-0.055770
-0.003902
0.041197
0.089070
0.120304
0.148353
0.160465
0.162281
0.140930
0.127207
0.085952
0.035341
-0.020010
-0.066152
-0.097217
-0.115340
-0.128867
-0.123332
-0.112827
-0.082152
-0.026193
0.029437
0.079302
0.111608
0.148439
0.187845
0.194908
0.183893
0.160024
0.118143
0.086258
0.049897
0.016289
-0.021956
-0.066786
-0.084106
-0.088095
-0.082611
-0.072609
-0.040649
0.007345
0.067951
0.104502
0.148951
0.173319
0.190506
0.198589
0.191837
0.177613
0.142681
0.095210
0.060755
0.024119
-0.036608
-0.074708
-0.094903
-0.112429
-0.058376
-0.033365
-0.027569
-0.012962
0.033150
0.077015
0.122599
0.164213
0.172628
0.202519
0.209900
0.189782
0.138309
0.106251
0.062977
0.011799
-0.051857
-0.086277
-0.103969
-0.109667
-0.103257
-0.092709
-0.060427
-0.021704
0.029837
0.074167
0.109935
0.149951
0.148054
0.187091
0.192193
0.153289
0.105431
0.069312
0.015672
-0.017644
-0.065339
-0.107507
-0.141689
-0.145442
-0.143510
-0.122397
-0.111182
-0.070432
-0.013274
0.033512
0.080285
0.115941
0.140035
0.149081
0.150239
0.125852
0.080714
0.033238
-0.022419
-0.070557
-0.108853
-0.147538
-0.177519
-0.185489
-0.179127
-0.159253
-0.127150
-0.098618
-0.046970
-0.007283
0.039415
0.081756
0.111626
0.123016
0.103420
0.068004
0.028508
0.023965
-0.022196
-0.108922
-0.141846
-0.179693
-0.217035
-0.220389
-0.200003
-0.172949
-0.127638
-0.107453
-0.063073
-0.003339
0.043783
0.073690
0.080208
0.092456
0.090014
0.074844
0.033434
-0.002506
-0.049542
-0.094814
-0.128350
-0.172124
-0.195945
-0.210855
-0.200772
-0.185515
-0.157483
-0.118191
-0.078181
-0.023043
0.029688
0.073443
0.088715
0.101296
0.092701
0.071481
0.052584
0.006865
-0.034980
-0.076156
-0.131071
-0.168067
-0.180739
-0.196640
-0.192543
-0.168017
-0.142162
-0.097657
-0.043576
-0.010127
0.038951
0.072857
0.091501
0.090306
0.090084
0.068726
0.039033
-0.005654
-0.058004
-0.103842
-0.129017
-0.176516
-0.187707
-0.197058
-0.187288
-0.161844
-0.125296
-0.079259
-0.050117
-0.008330
0.028083
0.060690
0.072258
0.112960
0.123571
0.099291
0.055403
0.007353
-0.015053
-0.069803
-0.114877
-0.154471
-0.168648
-0.178001
-0.177479
-0.175327
-0.130532
-0.095144
-0.056088
-0.008285
0.040524
0.069835
0.132389
0.140649
0.106794
0.091162
0.057910
0.011849
-0.040672
-0.079019
-0.109072
-0.152455
-0.179099
-0.192831
-0.187072
-0.168383
-0.137361
-0.102027
-0.062649
-0.014912
0.028445
0.066624
0.100286
0.115897
0.116497
0.081373
0.050988
-0.001103
-0.021711
-0.065591
-0.112535
-0.164701
-0.188250
-0.205625
-0.193916
-0.162004
-0.130457
-0.093025
-0.049661
-0.011498
0.034948
0.078130
0.089674
0.094083
0.085052
0.075286
0.042362
0.004857
-0.037392
-0.081461
-0.130610
-0.167007
-0.178418
-0.195063
-0.191939
-0.177537
-0.145951
-0.103632
-0.062819
-0.021168
0.022030
0.060050
0.080106
0.086337
0.105608
0.087819
0.033719
-0.020153
-0.060134
-0.114248
-0.160968
-0.188351
-0.182458
-0.188349
-0.205723
-0.165913
-0.134739
-0.105245
-0.074534
-0.032515
0.014090
0.036944
0.070907
0.082099
0.090439
0.093478
0.059728
0.001586
-0.057612
-0.091783
-0.144929
-0.183079
-0.227846
-0.220098
-0.203763
-0.182605
-0.136646
-0.082803
-0.055471
-0.011176
0.016432
0.059061
0.085793
0.098472
0.074088
0.058757
0.037763
-0.001905
-0.050332
-0.099805
-0.136474
-0.173479
-0.199847
-0.208981
-0.200031
-0.184311
-0.156795
-0.116489
-0.068056
-0.029515
0.011891
0.055264
0.066136
0.077092
0.078599
0.055424
0.043072
-0.003110
-0.049428
-0.091534
-0.122526
-0.160053
-0.195076
-0.204336
-0.196223
-0.187291
-0.151697
-0.104427
-0.070178
-0.024893
0.032426
0.070277
0.108225
0.114203
0.088249
0.065043
0.044588
0.006645
-0.015907
-0.074764
-0.110287
-0.148316
-0.164705
-0.183634
-0.180527
-0.147851
-0.130408
-0.084256
-0.041112
0.024072
0.073802
0.090250
0.098845
0.116048
0.116173
0.102454
0.073214
0.027280
-0.021654
-0.067279
-0.096819
-0.128419
-0.166759
-0.188591
-0.170441
-0.147879
-0.108116
-0.052842
0.001695
0.036731
0.059871
0.107373
0.132164
0.139200
0.125286
0.100306
0.059752
0.063455
0.032370
-0.021282
-0.054516
-0.122928
-0.138861
-0.152425
-0.160254
-0.153854
-0.118933
-0.090662
-0.050572
0.013665
0.066484
0.081726
0.097030
0.103925
0.092898
0.078446
0.042640
-0.016365
-0.071575
-0.103138
-0.124552
-0.130455
-0.181990
-0.203230
-0.211189
-0.190351
-0.152879
-0.095100
-0.056014
-0.005152
0.031132
0.055085
0.077039
0.078611
0.071657
0.045781
0.007563
-0.028754
-0.068710
-0.112778
-0.160556
-0.183667
-0.209191
-0.225762
-0.218554
-0.185183
-0.161928
-0.143458
-0.102840
-0.048655
-0.008097
0.033227
0.059224
0.066260
0.046197
0.030121
0.002343
-0.042825
-0.085190
-0.136626
-0.166829
-0.175918
-0.215063
-0.242241
-0.235210
-0.215124
-0.172162
-0.126889
-0.088697
-0.056363
0.005410
0.034515
0.056152
0.057155
0.054207
0.043957
0.006668
-0.039526
-0.090109
-0.134900
-0.173544
-0.204568
-0.238082
-0.236273
-0.209979
-0.200820
-0.194071
-0.138288
-0.086143
-0.028232
0.003316
0.033360
0.052122
0.057758
0.046661
0.035726
-0.000320
-0.033737
-0.083869
-0.110787
-0.153360
-0.192451
-0.232037
-0.230339
-0.224449
-0.219685
-0.199781
-0.154368
-0.106821
-0.055162
-0.002808
0.037916
0.080628
0.073925
0.091380
0.088658
0.066370
0.050422
0.044151
0.001634
-0.042489
-0.066147
-0.078691
-0.078043
-0.061078
-0.035642
0.006449
0.075271
0.184990
0.269203
0.346802
0.424641
0.471527
0.501279
0.526566
0.550815
0.543935
0.529138
0.525673
0.513939
0.520611
0.523857
0.539617
0.553310
0.576080
0.602482
0.636324
0.681886
0.714826
0.757333
0.783712
0.773288
0.766906
0.725440
0.648434
0.575394
0.501403
0.405388
0.297261
0.213647
0.128058
0.049114
-0.001831
-0.032561
-0.034454
-0.036997
0.010090
0.048144
0.072183
0.121021
0.154069
0.173716
0.182952
0.177794
0.161958
0.152569
0.112653
0.071299
0.049249
-0.009166
-0.072947
-0.120009
-0.144755
-0.149103
-0.125770
-0.108743
-0.089737
-0.067332
-0.032664
0.009670
0.038438
0.086100
0.119203
0.127529
0.143636
0.115415
0.062565
0.024810
-0.026078
-0.082339
-0.129850
-0.147320
-0.167935
-0.161275
-0.165411
-0.152612
-0.126722
-0.093919
-0.030478
0.040343
0.060209
0.086466
0.101977
0.106395
0.098863
0.085901
0.052588
0.010024
-0.025072
-0.071016
-0.113726
-0.139685
-0.161590
-0.174008
-0.167452
-0.153518
-0.134211
-0.092535
-0.043779
0.000016
0.043678
0.070158
0.122868
0.142128
0.141133
0.119271
0.069017
0.029558
-0.010397
-0.058922
-0.101209
-0.132065
-0.154016
-0.157693
-0.153294
-0.130887
-0.088793
-0.057881
-0.013358
0.035272
0.070414
0.107139
0.149912
0.159921
0.154139
0.111326
0.087446
0.051075
0.009515
-0.029545
-0.075852
-0.123305
-0.147935
-0.130371
-0.119475
-0.104589
-0.079245
-0.051969
-0.010575
0.050802
0.100817
0.125020
0.162259
0.159159
0.146082
0.123773
0.079163
0.087189
0.041902
0.020643
-0.022566
-0.059752
-0.094877
-0.118627
-0.109926
-0.080368
-0.032409
0.008845
0.053313
0.098431
0.152173
0.175283
0.208017
0.219213
0.201493
0.178481
0.142113
0.099878
0.053287
0.015005
-0.017748
-0.048897
-0.069437
-0.075279
-0.071887
-0.046133
-0.015411
0.022149
0.062999
0.094139
0.157731
0.194103
0.216561
0.215006
0.208343
0.184395
0.152438
0.111904
0.072720
0.032903
-0.013660
-0.046976
-0.063471
-0.083472
-0.071218
-0.047902
-0.014177
0.018393
0.065699
0.108539
0.154008
0.182544
0.208996
0.219632
0.205652
0.176401
0.143487
0.087234
0.071407
0.039981
-0.010342
-0.057084
-0.085477
-0.093980
-0.075388
-0.057630
-0.030857
0.003329
0.049058
0.078227
0.133070
0.168780
0.167606
0.176763
0.180022
0.160074
0.120759
0.080423
0.044959
0.013756
-0.043648
-0.086211
-0.117798
-0.128223
-0.128245
-0.092142
-0.066141
-0.043830
0.000177
0.043370
0.081468
0.109058
0.138244
0.151955
0.156939
0.124136
0.085010
0.022203
-0.016958
-0.049569
-0.085977
-0.128697
-0.146899
-0.165408
-0.155986
-0.137083
-0.105936
-0.044171
0.001379
0.024920
0.060124
0.083070
0.107443
0.129102
0.120095
0.103723
0.069644
0.025289
-0.019547
-0.067398
-0.128575
-0.158925
-0.165122
-0.179649
-0.178848
-0.171312
-0.137670
-0.093942
-0.058103
-0.007763
0.048053
0.085843
0.107857
0.123784
0.117440
0.093403
0.059580
0.020865
-0.028892
-0.079395
-0.121147
-0.154332
-0.181423
-0.192868
-0.195907
-0.170576
-0.137993
-0.091628
-0.036432
-0.006624
0.019641
0.072533
0.119713
0.134087
0.127417
0.097684
0.064858
0.028247
-0.025676
-0.077632
-0.120128
-0.148281
-0.178181
-0.192928
-0.185837
-0.157778
-0.122368
-0.075278
-0.023786
0.003983
0.027600
0.087676
0.137221
0.134721
0.112546
0.106994
0.065051
0.019116
-0.023773
-0.062606
-0.118408
-0.159365
-0.186297
-0.187517
-0.178225
-0.162398
-0.135437
-0.074579
-0.023216
0.015661
0.053265
0.079020
0.103844
0.126455
0.118915
0.109092
0.080514
0.036214
-0.014133
-0.050355
-0.099496
-0.125046
-0.148014
-0.170141
-0.164939
-0.153536
-0.122713
-0.071655
-0.028311
0.014064
0.064059
0.096928
0.113493
0.122417
0.114643
0.094342
0.074219
0.025818
-0.021889
-0.063874
-0.115501
-0.156612
-0.168674
-0.179903
-0.171947
-0.157666
-0.092985
-0.062992
-0.036333
0.003538
0.040612
0.081900
0.089883
0.129137
0.144473
0.087821
0.039871
0.007667
-0.030143
-0.074922
-0.111537
-0.141787
-0.157497
-0.169977
-0.165114
-0.148346
-0.119684
-0.071799
-0.013814
0.016143
0.061330
0.091521
0.102309
0.108176
0.103128
0.083132
0.049765
-0.002287
-0.047739
-0.097988
-0.150905
-0.166770
-0.181800
-0.174798
-0.160555
-0.138208
-0.105771
-0.065325
-0.034581
-0.014282
0.036070
0.071965
0.111728
0.120958
0.109393
0.086406
0.048298
-0.005856
-0.056144
-0.098071
-0.114931
-0.131791
-0.159784
-0.183573
-0.181209
-0.165202
-0.139103
-0.090007
-0.034058
0.003789
0.046903
0.066857
0.077302
0.087353
0.073287
0.052598
0.034349
0.030544
-0.026724
-0.077648
-0.131887
-0.163721
-0.158228
-0.178261
-0.187870
-0.170964
-0.141428
-0.102703
-0.053282
-0.006210
0.029965
0.063909
0.095810
0.108105
0.089595
0.069539
0.045221
0.003988
-0.047669
-0.093997
-0.138643
-0.170973
-0.182330
-0.193664
-0.194995
-0.164416
-0.137882
-0.093759
-0.045336
-0.006369
0.046615
0.088724
0.101080
0.083537
0.083931
0.073388
0.033806
-0.015407
-0.049031
-0.098676
-0.139312
-0.181439
-0.178651
-0.193591
-0.206230
-0.179128
-0.141193
-0.103700
-0.065465
0.003952
0.042806
0.070200
0.084482
0.098023
0.089132
0.061094
0.033323
-0.009573
-0.039141
-0.062700
-0.110783
-0.150505
-0.176133
-0.197940
-0.197193
-0.171922
-0.132080
-0.092031
-0.051861
-0.014273
0.019322
0.055349
0.087419
0.089448
0.079342
0.054288
0.042543
0.016044
-0.049513
-0.090544
-0.108686
-0.132079
-0.168883
-0.193949
-0.177816
-0.152678
-0.118605
-0.080200
-0.041719
0.005533
0.052392
0.091164
0.115009
0.123830
0.108853
0.094336
0.084086
0.047188
-0.008233
-0.042427
-0.094537
-0.130935
-0.131811
-0.148988
-0.133864
-0.116243
-0.109206
-0.073161
-0.023098
0.025408
0.054130
0.082217
0.102067
0.129930
0.108812
0.078298
0.044544
0.029694
0.003302
-0.041904
-0.075310
-0.098288
-0.138204
-0.104180
-0.126898
-0.111488
-0.067600
-0.038765
0.014925
0.071069
0.109091
0.128292
0.143209
0.146629
0.162285
0.124146
0.078323
0.049719
0.006343
-0.058039
-0.116405
-0.158575
-0.172678
-0.166649
-0.169996
-0.162210
-0.123545
-0.085949
-0.037672
0.010797
0.047067
0.098898
0.117395
0.113421
0.097061
0.083612
0.041487
-0.007027
-0.049485
-0.087806
-0.127853
-0.169057
-0.199998
-0.210539
-0.199727
-0.168758
-0.150975
-0.128940
-0.075172
-0.021826
0.010847
0.043447
0.069603
0.070752
0.057196
0.047136
0.014112
-0.013693
-0.068174
-0.117428
-0.152360
-0.190990
-0.221766
-0.233825
-0.233828
-0.205416
-0.156595
-0.122458
-0.092850
-0.050293
-0.005171
0.024543
0.053433
0.075730
0.078536
0.056168
0.020348
-0.037201
-0.086199
-0.125718
-0.166370
-0.196499
-0.219734
-0.203006
-0.181503
-0.177721
-0.145981
-0.113164
-0.066708
-0.021258
0.035410
0.052816
0.069737
0.063841
0.048330
0.008313
0.012620
-0.033932
-0.076236
-0.107843
-0.137738
-0.177408
-0.214454
-0.221972
-0.220250
-0.195984
-0.162298
-0.131982
-0.076383
-0.026829
0.015259
0.050669
0.071387
0.072575
0.057930
0.032812
0.006574
-0.042107
-0.088910
-0.140293
-0.178986
-0.176747
-0.191909
-0.211437
-0.205128
-0.183774
-0.103895
-0.066986
-0.019485
0.036680
0.081301
0.144401
0.193711
0.213042
0.203702
0.199049
0.190127
0.174591
0.156217
0.109605
0.124587
0.135816
0.144127
0.187161
0.199530
0.243993
0.312615
0.386509
0.463764
0.548676
0.626352
0.706530
0.773840
0.812554
0.856721
0.868683
0.837371
0.793854
0.747913
0.709545
0.647173
0.595311
0.546347
0.521266
0.490451
0.449603
0.421812
0.400848
0.383297
0.379164
0.353650
0.326507
0.306436
0.293632
0.267971
0.260149
0.219094
0.179186
0.107824
0.062914
0.006750
-0.046038
-0.082930
-0.096604
-0.105685
-0.090265
-0.032973
0.004526
0.046216
0.094406
0.118423
0.144987
0.163804
0.167135
0.144188
0.121828
0.089537
0.040671
-0.008761
-0.047348
-0.076754
-0.114489
-0.134571
-0.156082
-0.151663
-0.146265
-0.116349
-0.067668
-0.004410
0.039001
0.061254
0.084603
0.118634
0.120485
0.105401
0.095469
0.042677
0.022156
-0.029175
-0.078420
-0.126094
-0.155046
-0.177145
-0.174357
-0.177704
-0.148697
-0.095242
-0.058401
-0.032682
0.003187
0.040240
0.064067
0.088656
0.116964
0.133008
0.128495
0.088908
0.035406
-0.006880
-0.053917
-0.097317
-0.133669
-0.157366
-0.173297
-0.169796
-0.146366
-0.110423
-0.068203
-0.013216
0.046112
0.095415
0.124671
0.135662
0.133845
0.133634
0.112515
0.078141
0.041678
-0.001118
-0.069932
-0.094937
-0.131446
-0.154907
-0.173056
-0.122971
-0.109366
-0.081019
-0.042050
0.004924
0.043794
0.080836
0.119940
0.170604
0.154969
0.159856
0.156126
0.130921
0.091944
0.053684
-0.013648
-0.054265
-0.097777
-0.115655
-0.111852
-0.091521
-0.077882
-0.045182
0.014138
0.053847
0.083221
0.105399
0.146325
0.176703
0.198513
0.193609
0.159898
0.139424
0.107070
0.056546
0.008566
-0.023318
-0.054579
-0.080746
-0.083152
-0.089783
-0.040987
-0.019253
0.027415
0.072498
0.120263
0.160430
0.192399
0.214434
0.213378
0.211817
0.186899
0.144968
0.114471
0.086196
0.040034
-0.000520
-0.039560
-0.054393
-0.051262
-0.049446
-0.042162
-0.002024
0.053053
0.090071
0.121973
0.156989
0.199211
0.225453
0.231044
0.228029
0.196783
0.164155
0.117320
0.070996
0.039831
0.002770
-0.029156
-0.066851
-0.088822
-0.098727
-0.039868
0.009443
0.037093
0.063715
0.100974
0.146933
0.177346
0.209323
0.208622
0.202636
0.177878
0.137488
0.106819
0.052787
-0.003948
-0.044498
-0.075486
-0.102557
-0.098738
-0.081297
-0.047074
-0.034495
0.000342
0.046059
0.103540
0.142586
0.165090
0.185328
0.196660
0.176317
0.143184
0.104623
0.061184
0.029186
-0.021748
-0.058367
-0.092621
-0.115203
-0.133637
-0.131961
-0.116463
-0.098780
-0.035164
-0.001266
0.050682
0.090881
0.113668
0.123664
0.128368
0.148471
0.140249
0.105495
0.061782
0.008200
-0.043943
-0.088835
-0.121127
-0.143664
-0.157425
-0.167150
-0.135552
-0.114642
-0.079681
-0.020614
0.014031
0.032278
0.068548
0.095085
0.118200
0.125228
0.113470
0.093858
0.060054
-0.027048
-0.077392
-0.119807
-0.151053
-0.158940
-0.165910
-0.161267
-0.148336
-0.111159
-0.071291
-0.032163
0.009065
0.055855
0.085868
0.105436
0.110011
0.113685
0.095164
0.062856
0.022046
-0.023494
-0.067699
-0.100852
-0.149189
-0.159345
-0.175504
-0.164440
-0.134216
-0.110066
-0.083884
-0.047203
-0.008728
0.030759
0.115464
0.123103
0.103025
0.105092
0.110703
0.093127
0.050026
-0.022127
-0.071735
-0.101131
-0.141087
-0.162481
-0.174340
-0.166454
-0.148934
-0.104504
-0.059585
-0.006150
0.039451
0.055532
0.077901
0.104767
0.107591
0.101823
0.101380
0.063023
0.030848
-0.014461
-0.060114
-0.101082
-0.130856
-0.167074
-0.174839
-0.174055
-0.154775
-0.128520
-0.075536
0.011836
0.050510
0.081778
0.103583
0.134694
0.144109
0.132947
0.110962
0.078699
0.032810
-0.005840
-0.066094
-0.102252
-0.139516
-0.154775
-0.169214
-0.176107
-0.146275
-0.116533
-0.047642
-0.002872
0.039047
0.085090
0.114560
0.129703
0.142150
0.139524
0.106332
0.068774
0.037937
-0.013951
-0.057432
-0.086939
-0.110029
-0.137880
-0.155402
-0.163124
-0.145052
-0.109772
-0.067584
-0.020732
0.028906
0.072612
0.089826
0.104894
0.117639
0.119032
0.107767
0.078547
0.033294
-0.021802
-0.062447
-0.101187
-0.134243
-0.157529
-0.153402
-0.145046
-0.131324
-0.104349
-0.081334
-0.044068
0.003301
0.035260
0.086489
0.121020
0.113917
0.111619
0.095252
0.055451
0.019010
-0.024945
-0.056185
-0.098389
-0.151678
-0.161379
-0.176658
-0.175576
-0.155115
-0.129549
-0.075998
-0.033983
0.015470
0.064184
0.092724
0.108065
0.113765
0.106010
0.079324
0.047240
0.010271
-0.032199
-0.078980
-0.118994
-0.154992
-0.188256
-0.177738
-0.153689
-0.135427
-0.104734
-0.068310
-0.026087
0.007454
0.042324
0.084876
0.114722
0.129588
0.114675
0.083710
0.040606
0.001702
-0.035949
-0.085830
-0.135609
-0.135740
-0.173270
-0.180155
-0.167078
-0.146528
-0.124700
-0.086082
-0.031067
0.008738
0.039744
0.073836
0.130795
0.135539
0.119917
0.089054
0.063671
0.011635
-0.039240
-0.085420
-0.130672
-0.162617
-0.187830
-0.182068
-0.168845
-0.147986
-0.122613
-0.081419
-0.045710
-0.000390
0.035335
0.060486
0.088241
0.106531
0.097734
0.081200
0.056087
0.034170
-0.022151
-0.067645
-0.123055
-0.154849
-0.180340
-0.196189
-0.189483
-0.167033
-0.113858
-0.090486
-0.049650
-0.009271
0.031731
0.082281
0.099651
0.132139
0.096011
0.080597
0.043473
0.010157
-0.025517
-0.067037
-0.106243
-0.138221
-0.174801
-0.185918
-0.177021
-0.150728
-0.115432
-0.069620
-0.028742
0.010682
0.061125
0.099419
0.107857
0.114909
0.112919
0.105268
0.079654
0.036818
-0.003868
-0.042750
-0.082008
-0.113173
-0.132959
-0.139691
-0.139500
-0.124680
-0.090737
-0.048936
0.006329
0.045059
0.092433
0.108407
0.146721
0.156234
0.137411
0.117749
0.078298
0.024714
-0.011036
-0.058065
-0.070838
-0.103244
-0.126476
-0.138544
-0.151557
-0.104173
-0.067726
-0.035390
0.017722
0.064812
0.109238
0.141873
0.174991
0.186412
0.176500
0.160285
0.118317
0.082136
0.033403
-0.032858
-0.076995
-0.104203
-0.132366
-0.150456
-0.145359
-0.130412
-0.094255
-0.068086
-0.015718
0.034415
0.077373
0.108409
0.123830
0.126242
0.118196
0.112167
0.073686
0.027318
-0.023877
-0.062137
-0.114922
-0.132998
-0.163381
-0.178410
-0.168096
-0.147424
-0.106129
-0.059843
-0.018327
0.015238
0.052840
0.064871
0.075587
0.077125
0.067142
0.035296
0.036873
0.002394
-0.051855
-0.088052
-0.144885
-0.183363
-0.182916
-0.178896
-0.184374
-0.173705
-0.139822
-0.095841
-0.054227
-0.020862
0.008550
0.048265
0.068124
0.099645
0.103927
0.085255
0.032344
-0.006739
-0.052212
-0.094567
-0.135510
-0.163509
-0.181724
-0.195447
-0.183313
-0.169912
-0.129407
-0.103814
-0.059450
-0.008013
0.027809
0.053991
0.112339
0.106698
0.081966
0.062024
0.024306
-0.025749
-0.068940
-0.110766
-0.149712
-0.162337
-0.176253
-0.196917
-0.184103
-0.172922
-0.123546
-0.083847
-0.054624
-0.010450
0.028147
0.053952
0.078177
0.085159
0.064877
0.021169
0.010353
-0.004827
-0.050366
-0.096081
-0.128385
-0.162942
-0.190074
-0.206753
-0.198926
-0.178926
-0.147236
-0.101342
-0.064101
-0.003474
0.050228
0.102886
0.128026
0.148063
0.128483
0.143957
0.133472
0.093738
0.067226
0.047929
0.014533
-0.002309
0.005676
0.010802
0.035978
0.062983
0.132436
0.199079
0.280189
0.372697
0.456594
0.519971
0.577548
0.618054
0.628217
0.640658
0.660111
0.678306
0.659832
0.649665
0.657146
0.666386
0.662123
0.652841
0.639015
0.656291
0.667881
0.710423
0.716577
0.743282
0.758281
0.730511
0.682861
0.628431
0.552101
0.482334
0.397449
0.298592
0.203672
0.120408
0.079706
0.041915
0.008988
-0.016315
-0.005211
-0.002548
0.024877
0.057995
0.090537
0.136187
0.155204
0.196186
0.224876
0.218828
0.192542
0.166335
0.135858
0.083123
0.043248
0.009011
-0.057284
-0.089568
-0.128063
-0.129273
-0.097260
-0.072951
-0.048075
-0.025208
0.014884
0.065876
0.103790
0.144606
0.172902
0.167407
0.143145
0.110041
0.081064
0.056460
0.007852
-0.039755
-0.069538
-0.112433
-0.131257
-0.138660
-0.129601
-0.115332
-0.088947
-0.039789
0.003701
0.044192
0.080387
0.114401
0.141872
0.146725
0.139279
0.118509
0.086210
0.047554
-0.001350
-0.038858
-0.071140
-0.110177
-0.142524
-0.152124
-0.172224
-0.097918
-0.056250
-0.019114
0.020398
0.061772
0.103342
0.129299
0.150763
0.179350
0.174049
0.134430
0.103726
0.074209
0.029158
-0.025425
-0.059168
-0.084130
-0.114619
-0.119309
-0.108529
-0.089325
-0.056634
-0.017883
0.032523
0.061668
0.117920
0.167998
0.186847
0.194378
0.188431
0.161016
0.143131
0.104395
0.051391
-0.001416
-0.047332
-0.086015
-0.113350
-0.085949
-0.068782
-0.046520
-0.016934
0.005756
0.058411
0.116988
0.151575
0.186858
0.208991
0.213498
0.212757
0.200811
0.163781
0.112550
0.059348
0.008543
-0.015908
-0.040541
-0.045876
-0.069166
-0.051593
-0.030557
-0.010332
0.032697
0.080084
0.142770
0.174699
0.201581
0.242422
0.251795
0.237667
0.220979
0.199642
0.154990
0.101027
0.058808
0.017977
-0.019394
-0.028930
-0.032403
-0.018645
0.003538
0.033820
0.067258
0.112956
0.158864
0.197206
0.240669
0.249866
0.260905
0.254317
0.226484
0.204211
0.160470
0.128816
0.084860
0.024862
-0.009388
-0.031613
-0.035230
-0.028166
-0.009950
0.028855
0.060992
0.098925
0.148776
0.185479
0.217591
0.225938
0.232024
0.240086
0.223112
0.190977
0.128331
0.074012
0.037966
-0.001343
-0.030375
-0.033677
-0.031451
-0.042285
-0.025797
0.009397
0.053433
0.086083
0.127402
0.162827
0.201904
0.229894
0.239318
0.214291
0.177534
0.155447
0.126781
0.071648
0.027147
-0.020262
-0.049418
-0.072253
-0.095808
-0.094516
-0.066479
-0.041191
0.003799
0.062984
0.104983
0.109437
0.119727
0.177948
0.192167
0.191329
0.153413
0.113994
0.080810
0.028658
-0.013732
-0.069858
-0.084628
-0.090523
-0.111551
-0.106624
-0.096053
-0.051430
-0.014899
0.025303
0.065341
0.107337
0.135427
0.156566
0.153454
0.145635
0.125384
0.099411
0.058358
0.013457
-0.031144
-0.075283
-0.108293
-0.132576
-0.142763
-0.138136
-0.114559
-0.082933
-0.051673
-0.011612
0.044831
0.091754
0.124011
0.144975
0.145038
0.128720
0.110055
0.067837
0.060076
0.008833
-0.055402
-0.102595
-0.138712
-0.124858
-0.110760
-0.123146
-0.119568
-0.090679
-0.049014
0.001649
0.046063
0.090709
0.128768
0.135208
0.148402
0.146098
0.113495
0.077394
0.039371
-0.002555
-0.050787
-0.081733
-0.101830
-0.126184
-0.139345
-0.139424
-0.104753
-0.072533
-0.042251
-0.001470
0.045084
0.095945
0.142533
0.163708
0.176122
0.169586
0.141449
0.106663
0.072337
0.022759
-0.022969
-0.061190
-0.108911
-0.120756
-0.122820
-0.117963
-0.100445
-0.084332
-0.037842
0.020539
0.065821
0.093970
0.129723
0.136891
0.140825
0.137232
0.124682
0.108136
0.064766
0.023098
-0.025768
-0.068849
-0.082735
-0.106495
-0.138630
-0.138941
-0.131474
-0.116638
-0.023935
0.018508
0.060749
0.109219
0.159558
0.176173
0.168593
0.151499
0.126350
0.104475
0.056777
0.021034
-0.027142
-0.074103
-0.102755
-0.116508
-0.130526
-0.124653
-0.096403
-0.062306
-0.012379
0.029350
0.060828
0.099267
0.128837
0.145457
0.148763
0.141781
0.108410
0.080616
0.040173
0.004268
-0.022895
-0.048810
-0.087255
-0.124060
-0.140095
-0.132188
-0.116459
-0.081554
-0.038984
0.014296
0.068384
0.098944
0.120987
0.141199
0.161078
0.142508
0.117891
0.097809
0.057182
0.010446
-0.038621
-0.076789
-0.105629
-0.126587
-0.138110
-0.144984
-0.120565
-0.105139
-0.033509
0.016344
0.056859
0.085167
0.105397
0.125557
0.146909
0.143143
0.106056
0.069427
0.037027
0.002776
-0.027452
-0.073685
-0.119864
-0.141297
-0.163869
-0.155440
-0.116873
-0.077440
-0.062751
-0.021843
0.024364
0.068813
0.103202
0.131002
0.127114
0.122106
0.117967
0.098036
0.030548
-0.014415
-0.067745
-0.099212
-0.119589
-0.134467
-0.142408
-0.141932
-0.135014
-0.093788
-0.049496
-0.005687
0.032629
0.068768
0.095381
0.114333
0.118605
0.117492
0.110702
0.093553
0.051653
-0.009452
-0.073443
-0.095933
-0.144306
-0.154779
-0.162004
-0.143191
-0.142403
-0.103719
-0.050083
-0.027235
0.011868
0.062259
0.115519
0.129299
0.128699
0.118206
0.097241
0.070921
0.038449
-0.008331
-0.059692
-0.108190
-0.142030
-0.164619
-0.168944
-0.153234
-0.119625
-0.095625
-0.040709
-0.000835
0.048944
0.078649
0.096505
0.117870
0.121804
0.109292
0.099881
0.058657
0.027107
-0.016671
-0.067447
-0.103932
-0.130827
-0.141241
-0.157371
-0.157697
-0.130214
-0.100986
-0.052712
-0.014765
0.036547
0.083900
0.111126
0.128573
0.126304
0.125212
0.113133
0.083341
0.033142
-0.006666
-0.037372
-0.099214
-0.137052
-0.152847
-0.141174
-0.116073
-0.106818
-0.072181
-0.013539
0.029892
0.079426
0.122240
0.141846
0.157938
0.163334
0.157381
0.139357
0.112712
0.072890
0.026664
-0.020338
-0.073293
-0.105877
-0.125873
-0.131742
-0.127571
-0.102017
-0.077667
-0.031914
0.020273
0.081092
0.125890
0.158525
0.176288
0.188022
0.191922
0.160744
0.118293
0.072876
0.035333
-0.008074
-0.041040
-0.073840
-0.103614
-0.107790
-0.102034
-0.094446
-0.068426
-0.050665
0.008097
0.049641
0.102743
0.153917
0.155561
0.151013
0.142641
0.135817
0.096181
0.051204
0.009531
-0.039767
-0.097557
-0.138492
-0.161512
-0.154390
-0.145523
-0.124458
-0.104920
-0.042941
-0.005790
0.025567
0.064263
0.092700
0.113080
0.116866
0.101697
0.076839
0.041716
0.000922
-0.031409
-0.071581
-0.114827
-0.160686
-0.194998
-0.209523
-0.158150
-0.148744
-0.118493
-0.080109
-0.041687
-0.004563
0.038581
0.055960
0.094386
0.104981
0.101627
0.075869
0.046468
0.004773
-0.041259
-0.087232
-0.124899
-0.155121
-0.183256
-0.201328
-0.181073
-0.154497
-0.119652
-0.071749
-0.038205
-0.008871
0.034412
0.072386
0.090579
0.094107
0.094021
0.076024
0.041076
-0.002853
-0.047445
-0.085724
-0.146563
-0.175320
-0.184514
-0.190696
-0.186591
-0.157783
-0.129212
-0.091661
-0.052383
-0.003302
0.037833
0.076952
0.086743
0.088108
0.079964
0.065998
0.030307
-0.011190
-0.056301
-0.096746
-0.138825
-0.174666
-0.199320
-0.199966
-0.192335
-0.173177
-0.134438
-0.106224
-0.065588
-0.029202
0.013329
0.051702
0.084553
0.082837
0.083236
0.069751
0.040912
0.018710
0.003633
-0.031071
-0.056366
-0.074223
-0.088485
-0.077244
-0.064682
-0.042495
-0.012238
0.056357
0.133025
0.216085
0.275632
0.331741
0.367092
0.407036
0.428465
0.451861
0.459833
0.465202
0.443929
0.404802
0.434280
0.455097
0.473149
0.508476
0.546645
0.602201
0.653603
0.724023
0.777493
0.816067
0.856301
0.875337
0.901863
0.871188
0.843864
0.793634
0.711455
0.606868
0.499563
0.401254
0.305989
0.223891
0.142277
0.087859
0.043179
0.038710
0.061151
0.108373
0.159360
0.197152
0.211954
0.234458
0.252333
0.237017
0.215640
0.180831
0.144651
0.098038
0.065775
0.016015
-0.030430
-0.076942
-0.104387
-0.091605
-0.084607
-0.081542
-0.071176
-0.020195
0.022553
0.073800
0.103056
0.121650
0.148191
0.147567
0.141052
0.137519
0.095562
0.051234
0.017418
-0.018277
-0.077012
-0.114063
-0.126329
-0.135437
-0.146120
-0.129854
-0.100116
-0.062133
-0.018647
0.034374
0.073077
0.099339
0.131479
0.137129
0.148089
0.135215
0.088115
0.046340
0.005603
-0.049412
-0.095901
-0.128881
-0.145075
-0.155537
-0.143579
-0.121767
-0.075975
-0.045535
-0.006605
0.033258
0.085996
0.115210
0.142620
0.144487
0.129423
0.117257
0.078699
0.043300
0.001653
-0.044394
-0.076993
-0.105764
-0.128665
-0.131691
-0.116942
-0.103881
-0.060120
-0.015150
0.052273
0.092861
0.108576
0.140872
0.167228
0.161594
0.169276
0.149052
0.118023
0.080346
0.026973
-0.017143
-0.053562
-0.082467
-0.101703
-0.105706
-0.106514
-0.083410
-0.043212
-0.008650
0.039637
0.092230
0.133185
0.168531
0.199457
0.193924
0.167841
0.139821
0.104239
0.072502
0.033352
0.008474
-0.015953
-0.045324
-0.068748
-0.079531
-0.056320
-0.043460
-0.005373
0.008809
0.066342
0.118644
0.176264
0.209551
0.218692
0.210469
0.208340
0.192305
0.162681
0.103760
0.090903
0.066728
0.027977
-0.028992
-0.056913
-0.061587
-0.065637
-0.046902
0.023378
0.054197
0.093724
0.139341
0.189217
0.223187
0.230492
0.245775
0.230284
0.207931
0.179368
0.132344
0.087826
0.044396
-0.001581
-0.037464
-0.058154
-0.045180
-0.032554
-0.002885
0.034913
0.062592
0.114280
0.158686
0.166635
0.205112
0.244972
0.268696
0.237784
0.201678
0.174078
0.154406
0.090623
0.023638
-0.012895
-0.026893
-0.045726
-0.038299
-0.048361
-0.039214
-0.002862
0.046141
0.088075
0.120106
0.159827
0.199427
0.208102
0.207887
0.204340
0.183693
0.133887
0.097760
0.047484
0.003081
-0.021793
-0.055370
-0.080389
-0.095474
-0.088348
-0.076674
-0.038304
0.005838
0.058453
0.090424
0.129279
0.162814
0.178581
0.184217
0.178574
0.161626
0.114783
0.070770
0.023847
-0.023867
-0.069521
-0.099326
-0.124591
-0.137567
-0.109538
-0.093186
-0.064909
-0.030695
0.013613
0.060043
0.088587
0.118233
0.147366
0.175433
0.156666
0.114779
0.080993
0.049015
-0.010204
-0.060983
-0.102849
-0.139799
-0.166215
-0.173971
-0.165600
-0.135614
-0.085185
-0.060759
-0.021179
0.017340
0.039889
0.087270
0.122727
0.127515
0.119640
0.114007
0.074205
0.027286
-0.031563
-0.085223
-0.098744
-0.122288
-0.155052
-0.172361
-0.176548
-0.147226
-0.087155
-0.064801
-0.021748
0.024907
0.073141
0.105535
0.132898
0.137243
0.117895
0.093087
0.062854
0.033080
-0.025734
-0.073961
-0.101209
-0.126825
-0.147203
-0.153787
-0.149841
-0.130282
-0.104197
-0.082566
-0.024613
0.017542
0.068482
0.103975
0.119798
0.133603
0.131811
0.099584
0.060715
0.025889
-0.026849
-0.064874
-0.106835
-0.142220
-0.141691
-0.141942
-0.137411
-0.122566
-0.088097
-0.054216
0.001909
0.047318
0.072426
0.106385
0.119738
0.116644
0.107896
0.084528
0.061232
0.032034
0.000986
-0.037278
-0.072027
-0.107888
-0.138223
-0.155997
-0.147829
-0.130350
-0.100370
-0.053643
-0.009005
0.033851
0.069381
0.111749
0.137343
0.141331
0.115749
0.110367
0.073598
0.034424
-0.022568
-0.054493
-0.114437
-0.161599
-0.176279
-0.156920
-0.128909
-0.111001
-0.074692
-0.040210
-0.012144
0.317174
0.083693
0.118907
0.136877
0.143765
0.116335
0.109713
0.067418
0.052582
-0.004224
-0.053856
-0.103826
-0.141588
-0.161879
-0.169045
-0.166181
-0.142048
-0.105094
-0.059579
-0.009220
0.026745
0.050709
0.059221
0.079187
0.095880
0.120577
0.116769
0.101410
0.047020
-0.008324
-0.063199
-0.122148
-0.149618
-0.176587
-0.167371
-0.151028
-0.114864
-0.099990
-0.068655
-0.026008
0.030620
0.081455
0.110067
0.115623
0.121111
0.108056
0.092849
0.051196
0.017376
-0.025937
-0.073581
-0.115900
-0.141706
-0.166252
-0.173151
-0.158373
-0.153568
-0.125122
-0.084629
-0.051033
0.005025
0.051053
0.088475
0.114628
0.120263
0.084656
0.073413
0.043813
0.004342
-0.029729
-0.069689
-0.114623
-0.148274
-0.158574
-0.172253
-0.149500
-0.139457
-0.121943
-0.077529
-0.027892
0.000220
0.044408
0.067246
0.098620
0.104297
0.091038
0.073446
0.043430
-0.000090
-0.044038
-0.083871
-0.126670
-0.148825
-0.165079
-0.187020
-0.163133
-0.143462
-0.119684
-0.083143
-0.041002
0.002587
0.046027
0.072238
0.091711
0.078980
0.089202
0.046977
0.016185
-0.004387
-0.029816
-0.082005
-0.123515
-0.150002
-0.177420
-0.191782
-0.175835
-0.155746
-0.132777
-0.082645
-0.026455
0.003192
0.060008
0.092250
0.117154
0.111618
0.103615
0.077365
0.049241
0.015220
-0.029797
-0.075987
-0.130416
-0.168486
-0.189163
-0.199468
-0.182183
-0.162446
-0.131584
-0.098672
-0.052059
0.005448
0.054086
0.074691
0.086737
0.083390
0.086893
0.064506
0.032251
0.026095
-0.030202
-0.095830
-0.126032
-0.148166
-0.177142
-0.169598
-0.137634
-0.121369
-0.100926
-0.046798
-0.011655
0.025899
0.070942
0.093152
0.114831
0.130606
0.136311
0.120539
0.080142
0.036568
0.004573
-0.044339
-0.087811
-0.123518
-0.149278
-0.145854
-0.144070
-0.128734
-0.091332
-0.058302
-0.022376
0.023459
0.071234
0.100255
0.116330
0.120450
0.117234
0.115511
0.084168
0.033468
0.005070
-0.034186
-0.072997
-0.107165
-0.127490
-0.132873
-0.103818
-0.090398
-0.062938
-0.023937
0.023813
0.063514
0.113199
0.145720
0.144501
0.140636
0.117122
0.109662
0.072565
0.022933
-0.025200
-0.076701
-0.112108
-0.138248
-0.158932
-0.166201
-0.159124
-0.148122
-0.127192
-0.096936
-0.053273
0.002016
0.052924
0.064016
0.072258
0.093662
0.108761
0.099678
0.071264
0.015610
-0.054687
-0.110358
-0.129854
-0.165179
-0.220370
-0.223503
-0.183718
-0.175053
-0.144964
-0.100345
-0.053081
-0.006319
0.035083
0.059236
0.078079
0.076967
0.056350
0.041208
0.015022
-0.033348
-0.055581
-0.105344
-0.145557
-0.175976
-0.211682
-0.215284
-0.197139
-0.179596
-0.150229
-0.104531
-0.066620
-0.025255
0.020422
0.050386
0.061826
0.077929
0.062502
0.044113
0.004943
-0.034241
-0.072115
-0.124998
-0.165493
-0.194704
-0.201326
-0.215689
-0.200530
-0.192619
-0.162270
-0.116656
-0.075255
-0.034359
0.014348
0.056855
0.078009
0.078932
0.057467
0.008239
0.006879
-0.012835
-0.043982
-0.099564
-0.152615
-0.192086
-0.216379
-0.224662
-0.212863
-0.189733
-0.156316
-0.109972
-0.076871
-0.045524
0.009493
0.052431
0.059518
0.057219
0.046401
0.026953
-0.014296
-0.052231
-0.089971
-0.132746
-0.175543
-0.191922
-0.184766
-0.151579
-0.133498
-0.140480
-0.073967
-0.007398
0.037724
0.092147
0.139803
0.174493
0.208654
0.233419
0.243075
0.243227
0.243381
0.226572
0.215525
0.204158
0.200722
0.208182
0.217674
0.247450
0.288933
0.340937
0.426726
0.515353
0.594122
0.655492
0.722480
0.806239
0.855109
0.893397
0.896330
0.869212
0.827990
0.779240
0.713314
0.652813
0.590534
0.535473
0.471888
0.401739
0.334192
0.301610
0.270905
0.269122
0.250030
0.255153
0.271475
0.284310
0.278954
0.260335
0.255741
0.232794
0.188747
0.131183
0.090224
0.038806
-0.012434
-0.066634
-0.105044
-0.109607
-0.093837
-0.054117
-0.025777
-0.012882
0.034518
0.068988
0.118260
0.132475
0.144563
0.150567
0.128765
0.101096
0.062897
0.016474
-0.004883
-0.040841
-0.066468
-0.120235
-0.143565
-0.131296
-0.137569
-0.124286
-0.082615
-0.057075
-0.018806
0.039394
0.071090
0.096018
0.113310
0.112279
0.099713
0.094581
0.061525
0.028289
-0.006514
-0.059981
-0.119478
-0.154090
-0.145387
-0.155250
-0.163071
-0.143014
-0.104388
-0.063168
-0.031866
0.014896
0.076038
0.113446
0.132581
0.159543
0.148715
0.107072
0.057273
0.000470
-0.024814
-0.067940
-0.102316
-0.135316
-0.160600
-0.164853
-0.153456
-0.132379
-0.105588
-0.053678
-0.006501
0.040505
0.088632
0.113154
0.138763
0.139231
0.136153
0.120883
0.093320
0.052925
0.001580
-0.036847
-0.063401
-0.107173
-0.130557
-0.140992
-0.134725
-0.109203
-0.064241
-0.021540
0.027303
0.056936
0.118454
0.147233
0.167642
0.167229
0.163553
0.144246
0.107628
0.067990
0.032170
0.005883
-0.038598
-0.074692
-0.108380
-0.119199
-0.110878
-0.083776
-0.058459
-0.007850
0.051668
0.110999
0.145985
0.168540
0.187148
0.194336
0.194365
0.177092
0.140251
0.100040
0.054285
0.016182
-0.016339
-0.053404
-0.061091
-0.073081
-0.060680
-0.032159
-0.003563
0.038553
0.093681
0.139521
0.170093
0.187697
0.220453
0.224922
0.196738
0.192314
0.183349
0.162137
0.116725
0.042401
-0.005563
-0.040882
-0.081290
-0.062090
-0.044129
-0.027801
-0.028135
0.041868
0.088456
0.137384
0.170143
0.204771
0.215800
0.211600
0.214160
0.185683
0.155217
0.130081
0.093326
0.035457
-0.014302
-0.046832
-0.051166
-0.053629
-0.049043
-0.023251
-0.003886
0.036175
0.087808
0.119066
0.158601
0.190987
0.220225
0.211658
0.193310
0.161397
0.146661
0.105380
0.060550
0.010277
-0.039775
-0.062478
-0.085015
-0.097223
-0.097894
-0.076010
-0.033459
0.013584
0.054780
0.090571
0.127811
0.154000
0.172052
0.179602
0.171301
0.141403
0.108007
0.066781
0.034381
-0.004648
-0.057418
-0.098483
-0.123457
-0.135711
-0.132602
-0.101669
-0.080441
-0.051793
-0.010819
0.035652
0.084183
0.117921
0.137666
0.141831
0.146441
0.117477
0.094017
0.048965
-0.004779
-0.048818
-0.087473
-0.109428
-0.144545
-0.161078
-0.153615
-0.132640
-0.107234
-0.070496
-0.019584
0.027246
0.055808
0.097420
0.112092
0.108106
0.107544
0.083012
0.052517
0.000093
-0.043545
-0.090626
-0.135245
-0.165640
-0.182155
-0.177217
-0.160281
-0.143743
-0.126983
-0.076000
-0.031987
0.019489
0.048663
0.069612
0.098589
0.114885
0.108921
0.076861
0.044696
-0.020011
-0.054674
-0.088300
-0.135236
-0.153824
-0.143402
-0.167347
-0.151073
-0.116320
-0.102938
-0.050089
-0.002182
0.029435
0.063822
0.099314
0.122493
0.132307
0.122834
0.088094
0.067417
0.009805
-0.049021
-0.088883
-0.123540
-0.146924
-0.164305
-0.174098
-0.174772
-0.137026
-0.102367
-0.057938
-0.004301
0.030520
0.067297
0.101763
0.117054
0.128110
0.118775
0.087862
0.055654
0.030669
-0.027912
-0.083696
-0.121184
-0.146518
-0.168058
-0.183159
-0.167309
-0.130860
-0.096731
-0.061419
-0.014193
0.024547
0.061201
0.123315
0.148715
0.142287
0.121090
0.092799
0.061015
0.039973
0.001138
-0.047590
-0.114751
-0.156856
-0.177713
-0.190208
-0.180737
-0.133898
-0.101392
-0.062699
-0.022292
0.010748
0.063267
0.094183
0.115208
0.121279
0.115349
0.096475
0.050605
0.015570
-0.030720
-0.058036
-0.100861
-0.148595
-0.172456
-0.167622
-0.147675
-0.105651
-0.099543
-0.072434
0.002361
0.047031
0.077153
0.097145
0.113241
0.119476
0.113805
0.083553
0.060161
0.013744
-0.033089
-0.079957
-0.123175
-0.155726
-0.178224
-0.188909
-0.177765
-0.138591
-0.103902
-0.069744
-0.019510
0.018984
0.058658
0.090479
0.108867
0.104818
0.109963
0.081514
0.029818
-0.003583
-0.038444
-0.092473
-0.128346
-0.167591
-0.179070
-0.188795
-0.181524
-0.160009
-0.117499
-0.073806
-0.033195
0.005614
0.056393
0.078315
0.096957
0.107205
0.101324
0.082764
0.050058
0.005592
-0.030241
-0.083946
-0.137086
-0.168724
-0.182173
-0.193685
-0.181827
-0.175292
-0.139835
-0.091455
-0.049003
-0.001084
0.057519
0.085463
0.098112
0.113235
0.097537
0.057110
0.015721
-0.024792
-0.070587
-0.102313
-0.127654
-0.162781
-0.183823
-0.180610
-0.182679
-0.162493
-0.115189
-0.076600
-0.033442
0.002173
0.039432
0.072305
0.087556
0.099590
0.095888
0.071424
0.042827
-0.000964
-0.047377
-0.087198
-0.132963
-0.173388
-0.185192
-0.202915
-0.173716
-0.137885
-0.143423
-0.093914
-0.041639
0.001803
0.037843
0.066983
0.086068
0.105280
0.086356
0.064208
0.032221
-0.017664
-0.050819
-0.100984
-0.153121
-0.174732
-0.156132
-0.219404
-0.211035
-0.138786
-0.115416
-0.092577
-0.044317
-0.006319
0.035337
0.064011
0.072840
0.079729
0.056281
0.049958
0.041710
-0.003439
-0.058867
-0.111023
-0.147790
-0.173618
-0.181512
-0.197347
-0.197305
-0.184673
-0.152953
-0.097206
-0.052853
0.004192
0.063902
0.095207
0.112273
0.100907
0.086518
0.058499
0.026153
-0.014692
-0.052385
-0.097722
-0.134330
-0.162339
-0.206826
-0.200716
-0.191227
-0.138540
-0.088547
-0.071259
-0.035564
0.015933
0.060417
0.105690
0.123902
0.122451
0.109155
0.094483
0.063951
0.015855
-0.030982
-0.068210
-0.099637
-0.131336
-0.156575
-0.163160
-0.159437
-0.128491
-0.101187
-0.062349
-0.025973
0.024153
0.063990
0.093247
0.125578
0.135725
0.132363
0.119741
0.086649
0.043585
-0.003608
-0.039330
-0.088289
-0.122383
-0.143631
-0.148223
-0.121417
-0.109519
-0.082731
-0.047522
-0.006046
0.069023
0.086879
0.124360
0.122971
0.122603
0.119609
0.089440
0.051038
0.000870
-0.044444
-0.096629
-0.134623
-0.164689
-0.175080
-0.185825
-0.176574
-0.164202
-0.119847
-0.076064
-0.041274
-0.002235
0.035573
0.067326
0.089876
0.097637
0.093548
0.062043
0.014247
-0.024017
-0.055400
-0.105199
-0.135522
-0.173517
-0.209110
-0.214869
-0.210526
0.182628
-0.140864
-0.106563
-0.073639
-0.026355
0.020654
0.039479
0.054100
0.037133
0.062373
0.016300
-0.004718
-0.029283
-0.089214
-0.143366
-0.192659
-0.223652
-0.216877
-0.219368
-0.215706
-0.187209
-0.153105
-0.113989
-0.087897
-0.038489
0.008515
0.031714
0.047348
0.049776
0.031537
0.038457
0.019261
-0.032853
-0.070483
-0.110618
-0.151625
-0.211050
-0.230425
-0.232017
-0.218341
-0.195559
-0.153336
-0.119309
-0.066599
-0.016819
0.016769
0.033304
0.061204
0.062977
0.051015
0.027981
-0.020629
-0.059828
-0.097126
-0.136951
-0.164041
-0.184911
-0.225455
-0.221336
-0.228904
-0.211071
-0.173627
-0.143226
-0.065078
-0.024121
0.006115
0.029039
0.046840
0.051785
0.028241
0.047087
-0.005525
-0.061865
-0.106036
-0.145730
-0.183474
-0.206735
-0.219897
-0.219947
-0.205207
-0.162262
-0.105173
-0.054314
0.001643
0.066467
0.123590
0.157872
0.188104
0.205526
0.238841
0.228032
0.216087
0.190283
0.165807
0.143289
0.132176
0.136575
0.141852
0.201630
0.258608
0.305090
0.366693
0.441148
0.513133
0.620791
0.719689
0.789464
0.835276
0.867271
0.874205
0.865198
0.820527
0.785243
0.723505
0.657267
0.589551
0.544510
0.501195
0.456219
0.390896
0.335246
0.304011
0.296322
0.303870
0.294999
0.270657
0.264504
0.272591
0.267521
0.246134
0.239771
0.187012
0.127873
0.075042
0.028976
-0.012899
-0.056350
-0.077890
-0.116284
-0.135208
-0.105595
-0.055320
-0.022142
0.017457
0.061741
0.086954
0.114434
0.128949
0.139148
0.128962
0.096774
0.057899
0.036626
-0.012561
-0.077691
-0.137118
-0.164754
-0.173682
-0.181484
-0.194466
-0.150453
-0.099699
-0.074926
-0.025158
0.028061
0.063106
0.088389
0.107330
0.112651
0.100696
0.077142
0.041885
-0.002283
-0.036014
-0.097184
-0.132705
-0.173311
-0.197923
-0.190687
-0.194311
-0.167402
-0.123988
-0.065428
-0.020240
0.022440
0.035131
0.081875
0.103653
0.112793
0.105931
0.092751
0.054338
0.023675
-0.023964
-0.078671
-0.113079
-0.145018
-0.186197
-0.199781
-0.174863
-0.148171
-0.111562
-0.066379
-0.023900
0.026571
0.068674
0.094658
0.109166
0.118417
0.108748
0.082762
0.041662
0.010081
-0.022056
-0.063944
-0.095879
-0.129643
-0.158039
-0.174230
-0.139956
-0.105245
-0.077548
-0.033582
0.008747
0.055064
0.092224
0.124529
0.137163
0.139588
0.137687
0.112397
0.082674
0.041728
0.014553
-0.023522
-0.075009
-0.112302
-0.123627
-0.120012
-0.108922
-0.082161
-0.054748
-0.016291
0.024237
0.078555
0.110977
0.161345
0.175061
0.164470
0.152906
0.144511
0.113772
0.081956
0.046778
-0.013884
-0.045273
-0.049432
-0.078663
-0.105046
-0.092914
-0.084137
-0.050642
-0.000284
0.052385
0.136043
0.177383
0.182006
0.199494
0.231457
0.234756
0.189591
0.133882
0.091738
0.059935
0.009684
-0.028491
-0.072576
-0.108139
-0.101837
-0.084636
-0.052844
-0.012270
0.019115
0.059318
0.111550
0.151375
0.183690
0.201132
0.213849
0.202341
0.203143
0.154277
0.111917
0.059833
0.005724
-0.032313
-0.056323
-0.077023
-0.086353
-0.083744
-0.064349
-0.045585
0.002343
0.044384
0.095972
0.138293
0.174735
0.185508
0.197208
0.191055
0.171752
0.131903
0.109921
0.052424
-0.009519
-0.058506
-0.088874
-0.115327
-0.124263
-0.113190
-0.083142
-0.047398
-0.007272
0.029673
0.072071
0.115644
0.156495
0.164317
0.159834
0.155620
0.126494
0.080323
0.049816
0.017017
-0.040669
-0.088653
-0.133970
-0.131212
-0.163420
-0.161475
-0.134585
-0.097021
-0.045218
-0.007085
0.041904
0.075166
0.094291
0.129068
0.141070
0.120232
0.092961
0.060455
0.010578
-0.052765
-0.092293
-0.124044
-0.159470
-0.179890
-0.184318
-0.176744
-0.146783
-0.110525
-0.067870
-0.032870
0.002885
0.038460
0.060720
0.086075
0.106015
0.089999
0.074635
0.036741
-0.023464
-0.073132
-0.115529
-0.154706
-0.194052
-0.203347
-0.199845
-0.198239
-0.172293
-0.135468
-0.095670
-0.056000
-0.012338
0.034294
0.064044
0.094635
0.106546
0.092162
0.067274
0.030042
-0.007163
-0.064479
-0.114376
-0.156466
-0.183761
-0.204090
-0.218214
-0.212361
-0.162752
-0.121584
-0.073649
-0.040496
-0.002349
0.043465
0.082471
0.092757
0.098025
0.097797
0.069827
0.038393
-0.026886
-0.070435
-0.104746
-0.134776
-0.167755
-0.190978
-0.190898
-0.183598
-0.169179
-0.145155
-0.109206
-0.037911
0.015348
0.046522
0.073864
0.090211
0.103928
0.103946
0.084324
0.050223
0.000679
-0.044929
-0.087977
-0.141533
-0.181040
-0.197933
-0.196662
-0.186820
-0.187398
-0.148663
-0.092400
-0.029062
0.011411
0.055756
0.084879
0.102134
0.117735
0.106807
0.078168
0.043542
-0.008359
-0.049091
-0.106550
-0.149830
-0.168635
-0.204914
-0.199473
-0.181925
-0.143304
-0.115444
-0.084254
-0.050265
-0.001531
0.034059
0.069245
0.074022
0.112659
0.090876
0.061043
0.030108
-0.006159
-0.050040
-0.088918
-0.130726
-0.172103
-0.187262
-0.184889
-0.193381
-0.173794
-0.143782
-0.099025
-0.052233
-0.003378
0.046063
0.072116
0.097199
0.102674
0.073951
0.058056
0.025470
-0.011340
-0.061232
-0.106707
-0.157543
-0.182042
-0.199974
-0.202608
-0.197253
-0.175756
-0.138479
-0.090340
-0.044452
0.000453
0.033926
0.055893
0.080177
0.097304
0.085867
0.053375
0.019128
-0.024423
-0.068596
-0.116061
-0.151726
-0.187319
-0.206448
-0.216951
-0.202531
-0.186827
-0.145600
-0.109832
-0.067559
-0.008539
0.040587
0.072582
0.102036
0.089714
0.059100
0.041911
0.004738
-0.037774
-0.081002
-0.125378
-0.166548
-0.182805
-0.217400
-0.215780
-0.203393
-0.193697
-0.179884
-0.129635
-0.054719
-0.011235
0.016958
0.059991
0.083525
0.085971
0.048007
0.041039
0.021611
-0.029312
-0.070720
-0.113105
-0.146137
-0.183978
-0.221270
-0.227851
-0.220324
-0.196746
-0.158896
-0.120107
-0.079869
-0.043034
0.061976
0.069063
0.079777
0.079968
0.068961
0.018711
-0.007328
-0.042771
-0.067913
-0.120735
-0.167542
-0.203250
-0.231047
-0.223597
-0.209872
-0.181635
-0.159003
-0.110627
-0.065737
-0.024768
0.029143
0.058301
0.078808
0.071824
0.056587
0.029468
-0.002810
-0.037652
-0.075928
-0.137154
-0.185534
-0.194029
-0.213569
-0.223194
-0.214626
-0.198814
-0.164361
-0.117483
-0.080515
-0.036745
0.000775
0.024160
0.066946
0.079395
0.065236
0.047128
0.001436
-0.037920
-0.079665
-0.137112
-0.172905
-0.196514
-0.220367
-0.215371
-0.214853
-0.215458
-0.187595
-0.140499
-0.070888
-0.012184
0.033224
0.048622
0.047207
0.052540
0.062539
0.029405
-0.001269
-0.045741
-0.075715
-0.110937
-0.163635
-0.202495
-0.212033
-0.220129
-0.205582
-0.180262
-0.154637
-0.109299
-0.056534
0.004321
0.036002
0.042172
0.078945
0.106124
0.107813
0.112310
0.073511
0.019462
-0.042559
-0.095381
-0.133854
-0.158722
-0.179592
-0.175693
-0.170627
-0.163504
-0.152700
-0.076422
-0.039002
-0.006412
0.051039
0.063420
0.078689
0.093131
0.049875
0.070547
0.060407
0.029150
-0.017054
-0.062462
-0.101670
-0.145652
-0.165506
-0.159400
-0.164196
-0.154595
-0.100307
-0.046926
0.005607
0.037649
0.078027
0.115834
0.139635
0.128024
0.120281
0.093741
0.050047
-0.014973
-0.057948
-0.104691
-0.145011
-0.186768
-0.203742
-0.209596
-0.194122
-0.150209
-0.116768
-0.089045
-0.065826
-0.022568
0.029798
0.067656
0.084036
0.085587
0.071033
0.038920
-0.000406
-0.044104
-0.089838
-0.117182
-0.169125
-0.193462
-0.194425
-0.214996
-0.216741
-0.201488
-0.177015
-0.135643
-0.086291
-0.046481
-0.013131
0.022872
0.051621
0.064869
0.050433
0.017448
-0.028476
-0.052519
-0.103417
-0.145259
-0.220956
-0.223339
-0.221374
-0.238621
-0.221669
-0.216600
-0.190436
-0.158630
-0.124222
-0.065770
-0.023969
0.037713
0.065233
0.070103
0.046155
0.020632
-0.002127
-0.058210
-0.104389
-0.154995
-0.191037
-0.183313
-0.224145
-0.244954
-0.243585
-0.234027
-0.203445
-0.165934
-0.095484
-0.057325
0.005526
0.057754
0.041621
0.043107
0.057224
0.041008
-0.010685
-0.076500
-0.130265
-0.163792
-0.189295
-0.209472
-0.222493
-0.222510
-0.224134
-0.217011
-0.178865
-0.143212
-0.111525
-0.064143
-0.009200
0.017483
0.040371
0.041674
0.026630
0.007359
-0.020855
-0.071083
-0.135368
-0.192093
-0.228759
-0.234378
-0.246216
-0.247278
-0.221289
-0.200276
-0.152804
-0.105382
-0.045679
0.013483
0.063475
0.109704
0.145850
0.165432
0.173258
0.176920
0.158260
0.130305
0.104049
0.092370
0.083407
0.076962
0.094104
0.120450
0.157488
0.214053
0.277563
0.359529
0.447062
0.523204
0.601013
0.672867
0.740819
0.789119
0.819833
0.825578
0.811153
0.775361
0.710510
0.661817
0.619751
0.558819
0.535323
0.503055
0.478791
0.459440
0.428803
0.409946
0.418145
0.369777
0.393609
0.375698
0.332522
0.294014
0.271376
0.238904
0.181462
0.132472
0.088034
0.026180
-0.026308
-0.080336
-0.121720
-0.135027
-0.126860
-0.098992
-0.036456
0.012618
0.042533
0.057844
0.102914
0.142425
0.142140
0.137638
0.123282
0.084077
0.056911
0.007310
-0.046608
-0.083306
-0.128320
-0.158755
-0.172424
-0.190741
-0.187557
-0.167952
-0.138881
-0.115888
-0.040363
0.041081
0.081699
0.095382
0.106971
0.118115
0.105608
0.071364
0.035683
-0.001301
-0.073385
-0.113611
-0.126742
-0.170097
-0.188802
-0.198526
-0.180524
-0.158767
-0.125935
-0.085096
-0.031977
0.018896
0.047119
0.073678
0.097493
0.107079
0.096524
0.077001
0.042686
0.011029
-0.046391
-0.090124
-0.126634
-0.160746
-0.174970
-0.183464
-0.174293
-0.149016
-0.103278
-0.071440
-0.031462
0.020400
0.056614
0.090635
0.113213
0.105242
0.123726
0.113256
0.071503
0.015097
-0.032912
-0.083707
-0.103319
-0.153082
-0.168415
-0.168751
-0.141681
-0.129238
-0.106708
-0.054483
-0.020381
0.025378
0.069665
0.116409
0.133135
0.157538
0.160140
0.121414
0.062121
0.039224
0.012182
-0.033470
-0.087673
-0.133003
-0.149469
-0.148010
-0.142045
-0.113683
-0.069786
-0.019011
0.027794
0.070092
0.113593
0.153709
0.159253
0.156009
0.160766
0.157743
0.138855
0.086960
0.023302
0.004635
-0.053442
-0.113012
-0.101944
-0.111319
-0.113870
-0.100589
-0.055661
-0.003752
0.062346
0.131989
0.146754
0.159112
0.193381
0.205407
0.185740
0.184400
0.163148
0.131982
0.067121
0.017159
-0.015352
-0.053061
-0.084336
-0.107912
-0.092918
-0.060981
-0.002896
0.031602
0.075131
0.120789
0.155373
0.185351
0.202383
0.202776
0.213355
0.194235
0.149958
0.103242
0.056566
0.008331
-0.035959
-0.072660
-0.073804
-0.077988
-0.086919
-0.076048
-0.038510
-0.002058
0.023308
0.111272
0.176236
0.204233
0.201851
0.191562
0.182091
0.177649
0.144932
0.082024
0.027032
-0.009126
-0.040042
-0.082457
-0.094213
-0.107873
-0.114058
-0.104008
-0.066450
-0.012936
0.039228
0.082814
0.120450
0.160187
0.166117
0.160256
0.139811
0.145105
0.097977
0.027147
-0.021477
-0.058551
-0.073972
-0.118025
-0.156970
-0.155859
-0.140147
-0.115103
-0.105141
-0.046837
0.012928
0.051164
0.067199
0.109825
0.134816
0.143249
0.128185
0.088394
0.048796
0.003084
-0.030006
-0.069592
-0.117155
-0.157302
-0.178499
-0.176567
-0.173710
-0.149783
-0.115983
-0.072971
-0.029067
0.031480
0.052648
0.090727
0.104926
0.105622
0.091096
0.067978
0.033933
-0.004337
-0.050475
-0.097670
-0.130709
-0.177902
-0.207036
-0.221381
-0.217283
-0.205119
-0.145834
-0.103565
-0.060199
0.007421
0.065042
0.102522
0.101757
0.095577
0.083712
0.072027
0.049122
-0.012268
-0.073290
-0.124824
-0.156272
-0.180929
-0.201172
-0.219066
-0.219615
-0.203450
-0.133758
-0.067168
-0.048392
-0.001970
0.035457
0.101022
0.139809
0.129820
0.108067
0.068532
0.032084
-0.007601
-0.043017
-0.098365
-0.153440
-0.177536
-0.189645
-0.197363
-0.195302
-0.164211
-0.134488
-0.094211
-0.054417
0.017176
0.049461
0.093155
0.107674
0.111548
0.105205
0.076271
0.047940
0.006091
-0.041749
-0.087012
-0.127348
-0.161089
-0.186770
-0.193924
-0.191070
-0.163709
-0.132984
-0.088781
-0.041700
-0.005241
0.028580
0.081949
0.118640
0.114652
0.112793
0.081834
0.046317
0.000473
-0.034043
-0.068063
-0.124070
-0.159900
-0.174416
-0.179115
-0.173558
-0.156456
-0.130532
-0.090479
-0.035471
0.013887
0.046953
0.088056
0.115231
0.116316
0.110713
0.087134
0.057720
0.000126
-0.049037
-0.092413
-0.129692
-0.159411
-0.177782
-0.185964
-0.173560
-0.168631
-0.135549
-0.090729
-0.046495
0.000765
0.042359
0.072112
0.087719
0.082900
0.069574
0.068688
0.068541
0.008572
-0.036190
-0.087905
-0.154250
-0.178498
-0.184870
-0.193535
-0.185284
-0.165803
-0.137399
-0.096250
-0.034667
0.011465
0.051026
0.064449
0.093618
0.122410
0.105131
0.072942
0.042747
-0.019434
-0.038761
-0.093319
-0.140622
-0.176053
-0.199567
-0.213280
-0.186172
-0.168598
-0.131407
-0.091036
-0.039869
0.005062
0.035427
0.056457
0.083739
0.091459
0.093154
0.039218
0.036005
-0.016033
-0.072648
-0.118819
-0.151691
-0.173973
-0.207474
-0.216805
-0.205464
-0.177647
-0.146035
-0.108479
-0.055263
-0.003516
0.024678
0.054632
0.075379
0.079815
0.089497
0.062888
-0.000315
-0.036769
-0.077544
-0.125345
-0.173366
-0.217808
-0.224266
-0.211803
-0.167327
-0.147300
-0.127906
-0.097284
-0.060974
-0.015533
0.007063
0.044170
0.061250
0.065064
0.059237
0.079548
0.058704
0.022257
-0.050060
-0.111219
-0.136941
-0.197504
-0.221016
-0.219007
-0.179941
-0.179360
-0.174367
-0.134602
-0.082356
-0.007180
0.048053
0.094464
0.114085
0.095994
0.071445
0.061735
0.035591
-0.016578
-0.070873
-0.119306
-0.138774
-0.168838
-0.198826
-0.207145
-0.200697
-0.193478
-0.145648
-0.107067
-0.054893
-0.005185
0.031079
0.072407
0.085725
0.073119
0.074608
0.055954
0.017125
-0.035652
-0.044816
-0.112936
-0.173640
-0.202074
-0.206807
-0.209848
-0.202274
-0.184138
-0.140005
-0.094355
-0.047162
0.001795
0.039946
0.053237
0.099732
0.098263
0.089062
0.070340
0.044710
-0.002851
-0.039114
-0.091758
-0.143858
-0.171287
-0.196390
-0.204222
-0.197054
-0.177115
-0.124137
-0.069515
-0.028997
0.030780
0.088329
0.132155
0.136975
0.142547
0.147480
0.114452
0.062324
0.017283
-0.023755
-0.061863
-0.115399
-0.159962
-0.192899
-0.190121
-0.163959
-0.161080
-0.107593
-0.083581
-0.045633
0.020089
0.073850
0.094150
0.132480
0.146602
0.150532
0.105696
0.075791
0.027436
-0.020959
-0.061837
-0.080854
-0.122359
-0.141731
-0.116307
-0.144534
-0.151502
-0.119169
-0.074353
-0.008641
0.051318
0.056199
0.118518
0.129697
0.122029
0.131547
0.110172
0.092307
0.020618
-0.038762
-0.090283
-0.133719
-0.186821
-0.215841
-0.199909
-0.195045
-0.178107
-0.124383
-0.067212
-0.043651
-0.007575
0.028522
0.079161
0.096286
0.101815
0.069201
0.037063
0.016000
-0.027862
-0.073259
-0.126178
-0.138647
-0.172537
-0.230568
-0.212042
-0.207288
-0.176046
-0.130781
-0.098922
-0.060702
-0.020371
0.011698
0.056916
0.056556
0.061518
0.063428
0.046482
0.015348
-0.041820
-0.089457
-0.136995
-0.202543
-0.232671
-0.243131
-0.248851
-0.202134
-0.177307
-0.150533
-0.117304
-0.073502
-0.025792
0.012382
0.045529
0.077903
0.091869
0.072467
0.032220
0.011848
-0.014371
-0.073046
-0.154779
-0.217375
-0.239033
-0.268130
-0.268675
-0.252266
-0.236411
-0.142732
-0.086861
-0.054878
-0.036363
0.004222
0.062927
0.082749
0.083213
0.077826
0.051935
0.008407
-0.031387
-0.073061
-0.159459
-0.159336
-0.171359
-0.220275
-0.232112
-0.232459
-0.222533
-0.178278
-0.116817
-0.069367
-0.037139
-0.014085
0.027201
0.046010
0.054423
0.043938
0.034790
0.012462
-0.017210
-0.067966
-0.122118
-0.154799
-0.144868
-0.137511
-0.128493
-0.081443
-0.043080
-0.002362
0.016410
0.073166
0.153272
0.188097
0.245184
0.310173
0.356543
0.374006
0.380589
0.381050
0.372840
0.378234
0.357050
0.340963
0.366015
0.369687
0.380051
0.455569
0.508336
0.582050
0.652228
0.736427
0.803373
0.841619
0.869629
0.863577
0.839529
0.833320
0.812648
0.759894
0.688688
0.585628
0.458334
0.351980
0.263127
0.181433
0.135658
0.087649
0.054866
0.056295
0.117371
0.152370
0.196776
0.240969
0.288610
0.275112
0.251334
0.231545
0.196373
0.140844
0.068954
-0.007012
-0.019217
-0.055577
-0.091259
-0.143821
-0.148546
-0.114121
-0.097881
-0.075563
-0.030123
0.017973
0.053488
0.105303
0.136351
0.153935
0.164657
0.155479
0.112073
0.055602
0.015537
-0.029096
-0.107604
-0.118453
-0.142646
-0.158361
-0.166166
-0.156326
-0.143073
-0.130226
-0.117457
-0.038600
0.017019
0.063356
0.114893
0.149009
0.138620
0.128824
0.120302
0.081000
0.011240
-0.040885
-0.103035
-0.122832
-0.145743
-0.175010
-0.154161
-0.167834
-0.139107
-0.107888
-0.061581
-0.019329
0.054370
0.113253
0.134097
0.154525
0.152686
0.141838
0.113534
0.061893
0.028899
-0.028585
-0.055991
-0.093380
-0.139048
-0.156561
-0.173609
-0.156248
-0.133164
-0.095853
-0.063160
-0.014561
0.039989
0.097766
0.124286
0.144489
0.153671
0.139343
0.121171
0.102149
0.056835
0.001223
-0.065083
-0.070235
-0.102453
-0.145527
-0.157282
-0.118639
-0.074849
-0.053581
-0.030171
-0.007739
0.058953
0.099177
0.142777
0.161634
0.163822
0.182954
0.185677
0.115326
0.080041
0.032352
-0.024051
-0.056892
-0.089948
-0.092956
-0.098816
-0.083107
-0.037535
-0.013796
0.019458
0.073994
0.120591
0.153719
0.175447
0.179093
0.207628
0.200152
0.185508
0.180984
0.140813
0.091156
0.028972
-0.001856
-0.031516
-0.061189
-0.076800
-0.082085
-0.059585
0.012219
0.076949
0.107684
0.136845
0.172573
0.198421
0.207473
0.211197
0.214689
0.203680
0.162255
0.136782
0.121880
0.053048
0.002630
-0.041721
-0.077555
-0.097107
-0.072037
-0.027552
-0.008541
0.033749
0.076078
0.133352
0.203131
0.233932
0.261485
0.261716
0.249508
0.202077
0.194769
0.150536
0.074084
-0.012222
-0.043516
-0.070129
-0.068211
-0.077385
-0.089489
-0.057300
-0.021798
-0.005762
0.046661
0.121644
0.185337
0.228724
0.218818
0.225615
0.201981
0.177578
0.161763
0.124051
0.054499
0.020619
-0.036032
-0.072473
-0.090302
-0.113351
-0.121488
-0.127765
-0.077227
-0.028956
0.048790
0.111608
0.118347
0.112523
0.147886
0.210588
0.196044
0.146775
0.117522
0.068642
0.003369
-0.046254
-0.079073
-0.125552
-0.116794
-0.130965
-0.130638
-0.124199
-0.100747
-0.044455
0.017951
0.062136
0.101875
0.143183
0.120398
0.116606
0.105547
0.097193
0.077861
0.050608
0.016520
-0.046968
-0.108398
-0.140709
-0.175681
-0.164682
-0.143353
-0.116860
-0.080671
-0.049108
-0.013665
0.019750
0.065286
0.095344
0.115075
0.132532
0.133531
0.092080
0.062364
0.011876
-0.047140
-0.098625
-0.127567
-0.127304
-0.178466
-0.185776
-0.177488
-0.143644
-0.114371
-0.072958
-0.025471
0.015245
0.059618
0.092196
0.124193
0.116231
0.086318
0.093091
0.049888
0.014704
-0.043161
-0.042491
-0.108546
-0.163981
-0.158615
-0.158981
-0.156997
-0.176440
-0.143982
-0.092652
-0.024977
0.038578
0.070027
0.123367
0.143225
0.146959
0.128111
0.099805
0.070925
0.015744
-0.044448
-0.091804
-0.144305
-0.184199
-0.167034
-0.155956
-0.147111
-0.137704
-0.109744
-0.064570
-0.007477
0.036659
0.068545
0.119339
0.150768
0.153487
0.139037
0.113334
0.070033
0.025224
-0.011344
-0.059167
-0.092219
-0.121890
-0.139529
-0.161335
-0.152430
-0.149158
-0.113969
-0.061182
-0.001526
0.044812
0.091399
0.106926
0.131366
0.151560
0.126292
0.103325
0.086636
0.032204
-0.018127
-0.077802
-0.127936
-0.164573
-0.205922
-0.188986
-0.164469
-0.168798
-0.125315
-0.055737
-0.015033
0.022407
0.109880
0.135865
0.176053
0.173523
0.138786
0.109876
0.062065
0.017341
-0.021640
-0.056605
-0.101158
-0.133648
-0.158062
-0.177958
-0.188641
-0.164787
-0.119435
-0.069599
-0.016726
0.013369
0.067423
0.088380
0.133312
0.149685
0.147224
0.111082
0.069792
0.028331
-0.019744
-0.059311
-0.112165
-0.142189
-0.157559
-0.167246
-0.157590
-0.129585
-0.102998
-0.063570
-0.021672
0.024061
0.076594
0.097188
0.117002
0.123390
0.103814
0.077804
0.040838
-0.005669
-0.051281
-0.075134
-0.109625
-0.111542
-0.157678
-0.178580
-0.171847
-0.167952
-0.134040
-0.081628
-0.016592
0.007420
0.053362
0.081933
0.122615
0.158355
0.129240
0.107166
0.052177
-0.007199
-0.051800
-0.103812
-0.134129
-0.158335
-0.168979
-0.169439
-0.179895
-0.160134
-0.128138
-0.069639
-0.021297
0.008961
0.054087
0.092862
0.103379
0.111961
0.089384
0.067758
0.013994
-0.019434
-0.045489
-0.073497
-0.116420
-0.161194
-0.189232
-0.202114
-0.177110
-0.156751
-0.134212
-0.088597
-0.039280
0.007887
0.059562
0.099652
0.116668
0.120516
0.107632
0.084546
0.049367
0.004341
-0.040866
-0.090694
-0.129985
-0.181262
-0.190331
-0.208016
-0.195106
-0.176746
-0.137399
-0.088360
-0.041893
-0.004722
0.046577
0.088004
0.101890
0.105958
0.109856
0.090086
0.043455
-0.010042
-0.051209
-0.098456
-0.144899
-0.168298
-0.188111
-0.195013
-0.181117
-0.167853
-0.140113
-0.090550
-0.052331
-0.010197
0.048621
0.093636
0.100493
0.131296
0.106613
0.062606
0.031183
0.006657
-0.042135
-0.090392
-0.130734
-0.181036
-0.222287
-0.214110
-0.178702
-0.162659
-0.144502
-0.101991
-0.039069
0.009256
0.032449
0.058349
0.073601
0.085968
0.092001
0.068830
0.061515
0.020359
-0.025560
-0.067795
-0.140129
-0.147295
-0.177373
-0.166670
-0.168909
-0.164875
-0.116321
-0.074236
-0.029181
0.014651
0.049615
0.080874
0.111683
0.128574
0.135661
0.107332
0.066177
0.030224
-0.011038
-0.063065
-0.122907
-0.138916
-0.153619
-0.158016
-0.138288
-0.124583
-0.106858
-0.045229
-0.003115
0.043374
0.086024
0.116938
0.137922
0.153161
0.142289
0.113583
0.067964
0.027783
-0.011149
-0.065093
-0.109267
-0.142336
-0.163363
-0.168911
-0.148730
-0.126848
-0.087091
-0.038189
0.023882
0.074452
0.111581
0.145925
0.166919
0.178123
0.171225
0.149990
0.109304
0.070405
0.033880
-0.026758
-0.076707
-0.123575
-0.154650
-0.160515
-0.159922
-0.133906
-0.097126
-0.060223
-0.014312
0.037214
0.089310
0.118211
0.125147
0.139324
0.122571
0.094401
0.044719
0.007761
-0.035115
-0.089398
-0.153678
-0.163384
-0.177679
-0.189859
-0.188477
-0.165538
-0.134489
-0.085885
-0.040060
0.005386
0.036764
0.091025
0.105133
0.109495
0.088607
0.068884
0.036623
-0.002132
-0.046250
-0.099537
-0.149779
-0.176700
-0.195278
-0.211881
-0.220326
-0.207791
-0.172975
-0.116311
-0.070857
-0.024093
0.016721
0.071155
0.076215
0.086080
0.083578
0.051099
0.009885
-0.021402
-0.054952
-0.108761
-0.165954
-0.206704
-0.223783
-0.225692
-0.222023
-0.209206
-0.165977
-0.133279
-0.060673
-0.016726
0.019036
0.078466
0.092033
0.084536
0.108347
0.091976
0.041842
-0.008257
-0.057232
-0.092092
-0.140695
-0.192929
-0.223381
-0.230301
-0.209563
-0.175158
-0.135835
-0.109043
-0.058362
-0.012506
0.022821
0.063174
0.060876
0.078864
0.082941
0.061251
0.022237
-0.022306
-0.086932
-0.101292
-0.154257
-0.208386
-0.211226
-0.219986
-0.216440
-0.195098
-0.158477
-0.132204
-0.071851
-0.017734
0.033783
0.070494
0.093773
0.108904
0.110807
0.089651
0.074379
0.049952
0.021869
-0.001464
-0.023418
-0.062860
-0.072481
-0.077644
-0.033794
0.013489
0.073313
0.132628
0.207259
0.295600
0.367369
0.430903
0.486034
0.540966
0.585228
0.573770
0.574455
0.577881
0.570656
0.539878
0.524106
0.507718
0.560001
0.595524
0.588067
0.623299
0.677129
0.727675
0.755413
0.785708
0.806812
0.814446
0.801336
0.745223
0.655180
0.559812
0.463578
0.388844
0.292103
0.185794
0.097108
0.032931
0.006411
-0.011410
-0.022519
0.000399
0.032367
0.061683
0.090902
0.126768
0.159780
0.192340
0.209408
0.208643
0.216095
0.189373
0.151842
0.090912
0.039943
-0.025121
-0.071961
-0.113255
-0.132786
-0.149733
-0.150298
-0.104450
-0.062854
-0.022433
0.012319
0.049200
0.094882
0.131730
0.141508
0.154773
0.148744
0.126385
0.090062
0.039151
-0.004990
-0.075471
-0.124950
-0.144170
-0.159078
-0.164230
-0.167197
-0.125731
-0.098225
-0.059464
-0.026834
0.027428
0.055204
0.091782
0.143119
0.142933
0.138491
0.098733
0.075145
0.044814
-0.010813
-0.058684
-0.088088
-0.138321
-0.188118
-0.144124
-0.135152
-0.121304
-0.086729
-0.041575
-0.004635
0.045217
0.085797
0.125716
0.142806
0.144087
0.146694
0.116782
0.082038
0.051489
-0.005242
-0.059731
-0.063978
-0.108681
-0.129201
-0.141942
-0.130790
-0.111519
-0.085832
-0.039531
0.003823
0.054240
0.096149
0.127429
0.155297
0.178686
0.170006
0.135796
0.112416
0.074192
0.020588
-0.012756
-0.038456
-0.084620
-0.110024
-0.126928
-0.121187
-0.096990
-0.049077
-0.007987
0.039729
0.094379
0.132740
0.180498
0.188908
0.192083
0.186011
0.169953
0.151514
0.110575
0.054253
0.007844
-0.031688
-0.073654
-0.106524
-0.109899
-0.060517
-0.022394
-0.018345
0.024462
0.090998
0.142861
0.181652
0.211831
0.227848
0.237425
0.232425
0.207026
0.173603
0.136740
0.094069
0.053340
0.012679
-0.016731
-0.044234
-0.042343
-0.043125
-0.021551
0.008468
0.054469
0.101409
0.147260
0.196423
0.217343
0.225360
0.255116
0.262575
0.241612
0.187815
0.150720
0.104013
0.044606
-0.011066
-0.032906
-0.053477
-0.070746
-0.061036
-0.017851
0.016469
0.034125
0.113438
0.159859
0.198806
0.238490
0.252972
0.248463
0.233901
0.212746
0.186114
0.139955
0.093420
0.023760
-0.015609
-0.057561
-0.077140
-0.083510
-0.073545
-0.058134
-0.009618
0.045228
0.081717
0.125335
0.175262
0.206585
0.231194
0.228166
0.224646
0.194820
0.148560
0.105188
0.061256
0.011941
-0.029897
-0.066064
-0.088270
-0.106409
-0.103059
-0.083802
-0.038106
0.009771
0.045314
0.073223
0.130215
0.163230
0.167808
0.184502
0.175348
0.144948
0.119324
0.068456
0.017054
-0.027777
-0.065174
-0.107048
-0.135232
-0.146906
-0.139587
-0.127186
-0.067942
-0.015763
0.022314
0.060496
0.085076
0.100401
0.145310
0.164428
0.139707
0.134062
0.098196
0.045984
0.007321
-0.037308
-0.079243
-0.104476
-0.138020
-0.157044
-0.157480
-0.131146
-0.089756
-0.057367
-0.023193
0.018529
0.059466
0.103499
0.132111
0.133602
0.151463
0.117546
0.113906
0.066449
-0.001960
-0.069185
-0.131562
-0.167800
-0.175327
-0.163471
-0.138545
-0.122241
-0.099114
-0.062231
-0.007532
0.016224
0.046613
0.080946
0.107849
0.108603
0.112202
0.121759
0.092122
0.051992
-0.029855
-0.076551
-0.112227
-0.151352
-0.160470
-0.150652
-0.148785
-0.125252
-0.088678
-0.049817
-0.016706
0.035396
0.063333
0.100348
0.146875
0.159188
0.145035
0.116981
0.066061
0.039637
-0.000415
-0.058647
-0.117397
-0.130473
-0.134501
-0.152235
-0.152152
-0.123316
-0.082956
-0.034114
-0.006355
0.014591
0.078948
0.116973
0.122138
0.163373
0.170510
0.144621
0.097103
0.068100
0.017358
-0.039600
-0.091433
-0.139399
-0.144180
-0.134992
-0.149515
-0.145092
-0.108810
-0.066762
-0.019306
0.035511
0.094670
0.133455
0.162311
0.161508
0.153005
0.126885
0.085528
0.053361
0.020077
-0.032299
-0.067136
-0.087763
-0.130284
-0.157343
-0.149565
-0.141740
-0.113463
-0.044361
-0.019306
0.017179
0.073683
0.139929
0.162457
0.152334
0.161772
0.139972
0.090802
0.038983
-0.007393
-0.054438
-0.093538
-0.141818
-0.165476
-0.164754
-0.149536
-0.117466
-0.059527
-0.026303
-0.006099
0.032878
0.065599
0.114424
0.131930
0.134672
0.139816
0.113985
0.078217
0.026475
-0.022993
-0.068358
-0.110711
-0.133918
-0.151856
-0.159537
-0.154811
-0.143783
-0.086684
-0.046737
-0.001871
0.038817
0.090360
0.124546
0.146692
0.121697
0.108426
0.086686
0.063157
0.019392
-0.042294
-0.118551
-0.122378
-0.123587
-0.128253
-0.167774
-0.171860
-0.153122
-0.109049
-0.071069
-0.010842
0.036920
0.077032
0.114218
0.130625
0.112955
0.104054
0.141643
0.092960
0.041760
-0.028995
-0.065789
-0.101364
-0.125917
-0.147724
-0.163519
-0.172692
-0.159831
-0.118975
-0.070005
-0.027057
0.033633
0.079682
0.100031
0.121864
0.136241
0.109748
0.096460
0.068402
0.025940
-0.011857
-0.063741
-0.114880
-0.142537
-0.174714
-0.173473
-0.159404
-0.149863
-0.106894
-0.064378
-0.020084
0.027138
0.089873
0.117401
0.130983
0.116673
0.110089
0.095294
0.074731
0.017666
-0.054651
-0.090866
-0.149153
-0.171602
-0.192855
-0.180183
-0.165078
-0.146525
-0.118966
-0.077322
-0.025548
0.018024
0.059504
0.093390
0.127725
0.143452
0.142543
0.111652
0.057847
0.005651
-0.043057
-0.080717
-0.120408
-0.157075
-0.177047
-0.176186
-0.165164
-0.154552
-0.109548
-0.068480
-0.046188
-0.002843
0.061126
0.100871
0.126726
0.119182
0.115537
0.098129
0.065655
0.013836
-0.013789
-0.072942
-0.115336
-0.148504
-0.152994
-0.172966
-0.160384
-0.134251
-0.118797
-0.076036
-0.032447
0.020064
0.060402
0.083813
0.100452
0.096137
0.126766
0.100220
0.066271
0.028628
-0.029756
-0.082092
-0.119265
-0.159533
-0.180877
-0.187312
-0.169895
-0.152240
-0.130780
-0.052939
-0.009265
0.028754
0.076254
0.120737
0.155583
0.152892
0.154900
