-0.042619
0.009272
0.050440
0.075303
0.094007
0.106775
0.100547
0.088992
0.050440
0.008179
-0.050916
-0.106382
-0.137854
-0.171491
-0.195013
-0.195381
-0.180558
-0.163378
-0.124877
-0.094587
-0.039347
0.014629
0.070962
0.105763
0.128475
0.134011
0.114719
0.099432
0.075017
0.036522
-0.002172
-0.062723
-0.102600
-0.133903
-0.161839
-0.156405
-0.138380
-0.122154
-0.088362
-0.049937
0.001522
0.049765
0.095672
0.130351
0.157097
0.168441
0.155575
0.128136
0.091688
0.053528
0.012484
-0.043860
-0.089861
-0.117754
-0.131598
-0.138936
-0.128941
-0.114482
-0.088839
-0.035606
0.013566
0.081088
0.135081
0.167650
0.194870
0.204398
0.195410
0.173707
0.127430
0.070853
0.034473
-0.014407
-0.055987
-0.100151
-0.133801
-0.146689
-0.131270
-0.120389
-0.080627
-0.028519
0.014620
0.061455
0.095698
0.131798
0.166887
0.168382
0.162175
0.138270
0.103127
0.062701
0.018997
-0.042726
-0.083757
-0.125856
-0.141533
-0.134695
-0.131072
-0.127240
-0.087411
-0.040345
0.006104
0.057399
0.101142
0.131131
0.161902
0.169392
0.169245
0.150264
0.112904
0.052843
0.001690
-0.054476
-0.097054
-0.135467
-0.162284
-0.169979
-0.170191
-0.152941
-0.115126
-0.063561
-0.029824
0.028527
0.063333
0.099866
0.116937
0.132042
0.126075
0.101634
0.069000
0.024067
-0.027566
-0.086105
-0.124604
-0.160215
-0.185624
-0.194913
-0.193021
-0.178367
-0.145108
-0.096567
-0.060602
-0.010813
0.040988
0.081882
0.111384
0.114284
0.111266
0.090327
0.033953
-0.006634
-0.044286
-0.107051
-0.149345
-0.189431
-0.217634
-0.240064
-0.226948
-0.212598
-0.192823
-0.134328
-0.078067
-0.020736
0.017596
0.058480
0.098594
0.104069
0.091110
0.068772
0.030364
-0.009182
-0.063794
-0.117097
-0.164284
-0.196364
-0.216028
-0.218944
-0.209876
-0.203155
-0.163962
-0.115992
-0.072607
-0.023437
0.026016
0.059214
0.080982
0.088862
0.085703
0.069355
0.026805
-0.004200
-0.055175
-0.111474
-0.151680
-0.195036
-0.223692
-0.233226
-0.213112
-0.187552
-0.154093
-0.106020
-0.067057
-0.022881
0.021935
0.061054
0.088300
0.102985
0.086333
0.077760
0.045148
0.000500
-0.049820
-0.111249
-0.157294
-0.190052
-0.212810
-0.218149
-0.204663
-0.184493
-0.149942
-0.105914
-0.058079
-0.001317
0.047406
0.077149
0.092090
0.098982
0.090666
0.072603
0.033469
-0.003734
-0.054160
-0.098994
-0.148375
-0.198559
-0.213610
-0.220891
-0.204562
-0.185879
-0.147798
-0.106171
-0.058398
-0.005682
0.039575
0.063116
0.091089
0.107541
0.105776
0.100523
0.063755
0.016832
-0.030764
-0.075318
-0.135662
-0.170503
-0.192544
-0.206392
-0.209112
-0.193360
-0.149002
-0.103891
-0.066604
-0.010479
0.035267
0.072923
0.088855
0.097003
0.100686
0.076072
0.049660
0.013567
-0.038048
-0.098930
-0.144537
-0.175960
-0.209147
-0.221416
-0.218057
-0.192415
-0.160153
-0.110513
-0.064812
-0.002929
0.038737
0.064874
0.095083
0.108370
0.091680
0.074316
0.039261
-0.007444
-0.053886
-0.100301
-0.132998
-0.166322
-0.200629
-0.213360
-0.197447
-0.194033
-0.147479
-0.107318
-0.055441
0.003570
0.040159
0.077008
0.079741
0.077864
0.090419
0.069722
0.030843
-0.015648
-0.062859
-0.114917
-0.159838
-0.198727
-0.221790
-0.225282
-0.214062
-0.190733
-0.151945
-0.113169
-0.068885
-0.014508
0.027514
0.061550
0.074383
0.078511
0.082614
0.077583
0.045259
-0.000857
-0.052802
-0.121903
-0.170330
-0.207600
-0.225602
-0.235493
-0.221669
-0.208578
-0.163373
-0.115263
-0.069596
-0.024177
0.017559
0.056928
0.087609
0.099935
0.078153
0.068483
0.043532
0.005704
-0.039387
-0.102259
-0.153892
-0.191962
-0.217428
-0.228738
-0.219192
-0.208870
-0.172003
-0.115523
-0.061274
-0.008924
0.037678
0.069191
0.093820
0.107694
0.092764
0.071897
0.033469
-0.004550
-0.058898
-0.116165
-0.158459
-0.177174
-0.183442
-0.194631
-0.194592
-0.175923
-0.133232
-0.087867
-0.030081
0.025675
0.072785
0.103991
0.127802
0.137242
0.119262
0.096025
0.061477
0.012165
-0.047967
-0.092402
-0.119967
-0.152600
-0.174457
-0.175717
-0.171936
-0.163597
-0.132556
-0.082494
-0.032612
0.024673
0.071899
0.110807
0.131216
0.147601
0.138295
0.113848
0.070933
0.031191
-0.015099
-0.058382
-0.108647
-0.141537
-0.155939
-0.151486
-0.159382
-0.154438
-0.113437
-0.072927
-0.021284
0.014766
0.056970
0.084198
0.110613
0.121089
0.117596
0.097760
0.058425
0.014680
-0.047363
-0.089604
-0.137976
-0.174359
-0.206598
-0.214256
-0.204677
-0.178980
-0.135544
-0.090963
-0.052253
-0.003920
0.031289
0.062810
0.083157
0.085160
0.063882
0.040611
-0.000887
-0.039211
-0.073048
-0.132340
-0.176367
-0.213003
-0.233877
-0.238568
-0.230459
-0.220939
-0.184200
-0.138976
-0.098149
-0.039066
-0.005481
0.032758
0.061413
0.068835
0.078074
0.051485
0.007126
-0.025425
-0.063950
-0.128303
-0.177565
-0.217190
-0.232573
-0.241486
-0.243360
-0.220741
-0.174240
-0.136292
-0.082272
-0.037799
0.001663
0.042356
0.063871
0.071376
0.062498
0.042785
0.006108
-0.036124
-0.081381
-0.140790
-0.185474
-0.212673
-0.221937
-0.234907
-0.232683
-0.210711
-0.179186
-0.133982
-0.080160
-0.031461
0.009986
0.042836
0.064905
0.070991
0.049857
0.034894
0.004695
-0.038581
-0.086772
-0.136968
-0.179643
-0.217209
-0.246141
-0.263401
-0.245005
-0.224613
-0.172887
-0.147339
-0.108662
-0.050209
-0.012451
0.021517
0.048664
0.067420
0.058551
0.052000
0.021161
-0.027428
-0.054684
-0.105162
-0.136093
-0.159827
-0.180229
-0.186219
-0.156103
-0.111399
-0.048453
0.003434
0.050859
0.130762
0.198555
0.248534
0.296678
0.322051
0.337898
0.372262
0.377651
0.367870
0.342069
0.325288
0.327711
0.320931
0.334534
0.360992
0.418156
0.472441
0.542256
0.622863
0.710256
0.791343
0.850455
0.881816
0.899940
0.907131
0.872424
0.832703
0.769858
0.696180
0.603938
0.483039
0.371218
0.280696
0.194626
0.139524
0.105428
0.067753
0.066071
0.096041
0.124558
0.170695
0.210700
0.243972
0.258219
0.254541
0.227309
0.203427
0.165107
0.109811
0.050688
-0.017480
-0.070136
-0.097463
-0.131788
-0.144975
-0.134329
-0.125110
-0.090692
-0.044445
0.001353
0.045945
0.087088
0.115166
0.139167
0.145175
0.130704
0.114098
0.075223
0.022559
-0.024528
-0.049974
-0.104968
-0.139888
-0.182329
-0.189063
-0.175021
-0.152314
-0.123332
-0.086658
-0.041948
0.010991
0.060777
0.084506
0.106494
0.114577
0.105717
0.099277
0.059000
0.014297
-0.030782
-0.086254
-0.125853
-0.154177
-0.185536
-0.191310
-0.176892
-0.154199
-0.130025
-0.088642
-0.041308
0.017018
0.067645
0.098848
0.122758
0.139858
0.116713
0.102043
0.066831
0.027495
-0.009918
-0.062080
-0.115222
-0.143019
-0.165976
-0.171087
-0.166794
-0.149918
-0.115065
-0.075687
-0.014958
0.033637
0.083174
0.115034
0.137473
0.149325
0.139652
0.127240
0.090828
0.049399
-0.004692
-0.055804
-0.097824
-0.125067
-0.158431
-0.165679
-0.170188
-0.155685
-0.096529
-0.038844
0.015777
0.063644
0.111134
0.141087
0.175371
0.186503
0.177759
0.162931
0.130187
0.085061
0.039442
-0.017933
-0.067515
-0.102765
-0.119002
-0.127572
-0.104369
-0.092648
-0.055216
-0.017238
0.030033
0.079860
0.130259
0.170233
0.197033
0.203294
0.191995
0.183296
0.158284
0.103565
0.045408
-0.009648
-0.046025
-0.084041
-0.100259
-0.088770
-0.084916
-0.058224
-0.031356
0.004156
0.061699
0.122709
0.171396
0.201008
0.226435
0.230749
0.216677
0.193348
0.168605
0.122922
0.072151
0.012615
-0.037582
-0.072333
-0.095003
-0.090316
-0.095036
-0.075386
-0.020849
0.034382
0.090746
0.132718
0.177154
0.210694
0.224675
0.229372
0.218774
0.194273
0.162029
0.114304
0.067400
0.012057
-0.034932
-0.073233
-0.088624
-0.098253
-0.087473
-0.071234
-0.039799
0.000624
0.040171
0.088416
0.138390
0.176236
0.193804
0.194346
0.188843
0.161362
0.117420
0.080976
0.024033
-0.011705
-0.053253
-0.087651
-0.119596
-0.143990
-0.121246
-0.101443
-0.069914
-0.029861
0.014840
0.071731
0.112731
0.139581
0.173747
0.184500
0.167443
0.144987
0.095341
0.058068
-0.003926
-0.067473
-0.120099
-0.146844
-0.160289
-0.164477
-0.151839
-0.128084
-0.094427
-0.051152
-0.007419
0.041170
0.091245
0.120476
0.138737
0.144891
0.127109
0.116108
0.076510
0.026028
-0.013930
-0.060618
-0.103866
-0.149685
-0.169419
-0.187529
-0.179652
-0.162584
-0.120666
-0.076937
-0.027982
0.027557
0.074133
0.113605
0.134544
0.132691
0.123915
0.102312
0.056403
0.001810
-0.040815
-0.076552
-0.131393
-0.168483
-0.193426
-0.193929
-0.182868
-0.165652
-0.120053
-0.073408
-0.019436
0.025632
0.065283
0.107779
0.127889
0.131456
0.119111
0.093883
0.053758
0.016719
-0.019563
-0.068037
-0.112336
-0.151705
-0.178603
-0.181745
-0.169532
-0.149997
-0.123355
-0.074665
-0.031125
0.006824
0.057753
0.095845
0.119766
0.136005
0.128864
0.107686
0.069044
0.023218
-0.028744
-0.072152
-0.110123
-0.146782
-0.157671
-0.166332
-0.167680
-0.145584
-0.092750
-0.062365
-0.014510
0.042836
0.071634
0.106710
0.136520
0.138125
0.127650
0.113203
0.066880
0.011555
-0.029854
-0.071053
-0.110756
-0.138355
-0.160830
-0.166218
-0.158549
-0.132781
-0.097720
-0.048493
-0.006799
0.035859
0.078792
0.121799
0.142683
0.151938
0.137758
0.113078
0.078140
0.044956
-0.014762
-0.066511
-0.104427
-0.131799
-0.159040
-0.169611
-0.160923
-0.138069
-0.102875
-0.061438
-0.010334
0.032841
0.076140
0.104336
0.139928
0.143171
0.132545
0.116983
0.073904
0.024492
-0.019909
-0.073755
-0.115969
-0.148112
-0.163161
-0.164439
-0.159634
-0.140904
-0.116446
-0.072269
-0.019863
0.032589
0.074517
0.105377
0.123814
0.137111
0.124784
0.112133
0.069694
0.036618
-0.009707
-0.063278
-0.114377
-0.138747
-0.160940
-0.167354
-0.156671
-0.130896
-0.095598
-0.057118
-0.019542
0.020685
0.065781
0.087530
0.109809
0.121553
0.116283
0.099830
0.065642
0.028007
-0.016889
-0.060248
-0.110277
-0.146701
-0.163450
-0.179939
-0.162792
-0.137828
-0.105444
-0.076248
-0.018317
0.023021
0.064951
0.099315
0.117587
0.121521
0.116075
0.092277
0.054305
0.010594
-0.032774
-0.075061
-0.110599
-0.147960
-0.163678
-0.173217
-0.177386
-0.163222
-0.125957
-0.070136
-0.026193
0.011341
0.065202
0.088422
0.117722
0.132287
0.119685
0.090798
0.057007
0.011066
-0.028361
-0.078520
-0.114684
-0.144609
-0.174964
-0.176007
-0.171090
-0.160763
-0.120719
-0.065301
-0.021526
0.024744
0.059772
0.085681
0.104392
0.116970
0.105399
0.089649
0.061880
0.004350
-0.040145
-0.085939
-0.123278
-0.147816
-0.166939
-0.173208
-0.154373
-0.148102
-0.116863
-0.079542
-0.034088
0.011798
0.053169
0.095752
0.120142
0.124104
0.125401
0.109438
0.072927
0.023810
-0.030185
-0.060049
-0.096530
-0.125884
-0.145202
-0.162237
-0.150085
-0.139304
-0.094884
-0.055653
-0.002204
0.047293
0.095021
0.132763
0.150020
0.152726
0.164636
0.145000
0.113255
0.081720
0.034972
-0.026479
-0.074861
-0.101718
-0.131559
-0.134715
-0.134931
-0.112711
-0.078832
-0.026585
0.021631
0.056402
0.099952
0.143404
0.168573
0.182291
0.175827
0.159626
0.125193
0.086744
0.039135
-0.000237
-0.054650
-0.086050
-0.112489
-0.129798
-0.132554
-0.117695
-0.093690
-0.049347
-0.009454
0.035969
0.078219
0.123043
0.133519
0.138170
0.141417
0.125920
0.087404
0.034861
-0.013020
-0.066577
-0.112585
-0.151331
-0.171054
-0.169734
-0.174587
-0.162686
-0.123689
-0.080708
-0.031527
0.017508
0.051511
0.077900
0.097340
0.104536
0.091624
0.087626
0.062144
0.012133
-0.030436
-0.076784
-0.116032
-0.162971
-0.183751
-0.199761
-0.199457
-0.182475
-0.150200
-0.105467
-0.053632
-0.004296
0.028192
0.065076
0.084487
0.088452
0.088849
0.081094
0.049131
0.002802
-0.046603
-0.097320
-0.132877
-0.153082
-0.187087
-0.211834
-0.207441
-0.184944
-0.145542
-0.100053
-0.053832
-0.016487
0.042442
0.084525
0.098873
0.110028
0.106302
0.079614
0.036952
0.012164
-0.032821
-0.079621
-0.138020
-0.182305
-0.192900
-0.203046
-0.196257
-0.178822
-0.145010
-0.096963
-0.047768
0.001262
0.039713
0.078086
0.095198
0.099533
0.088792
0.080096
0.044692
-0.001215
-0.047523
-0.087088
-0.136854
-0.175763
-0.204297
-0.209990
-0.204313
-0.199203
-0.164955
-0.120841
-0.071832
-0.019949
0.031113
0.068271
0.096671
0.116143
0.115731
0.119305
0.088669
0.053303
0.020684
-0.019436
-0.055173
-0.079788
-0.086931
-0.075004
-0.058187
-0.014473
0.040150
0.100237
0.166798
0.228210
0.315401
0.396063
0.463640
0.508570
0.538744
0.548273
0.551263
0.539329
0.505515
0.487913
0.482241
0.500078
0.516885
0.544893
0.571789
0.630042
0.699042
0.741394
0.779353
0.838921
0.860173
0.868777
0.888182
0.890131
0.862189
0.796795
0.683660
0.571826
0.454589
0.354451
0.243924
0.152691
0.093094
0.053308
0.034865
0.038660
0.067942
0.109960
0.158657
0.201577
0.229980
0.240618
0.243101
0.250368
0.234114
0.214352
0.174574
0.123295
0.070665
0.022682
-0.029595
-0.067632
-0.086489
-0.101749
-0.103372
-0.091427
-0.055821
-0.018248
0.031497
0.080660
0.116628
0.150925
0.159966
0.162249
0.149614
0.131085
0.095145
0.057212
0.001254
-0.053472
-0.087167
-0.119067
-0.149020
-0.148833
-0.150105
-0.117927
-0.081680
-0.037468
-0.002019
0.057478
0.100667
0.136275
0.148745
0.161637
0.160623
0.136280
0.094942
0.054165
-0.003212
-0.053910
-0.096030
-0.122944
-0.144907
-0.157879
-0.154106
-0.125224
-0.086847
-0.034930
0.019303
0.063841
0.120387
0.149253
0.166714
0.170205
0.170194
0.144537
0.108984
0.075351
0.015760
-0.034956
-0.088619
-0.122649
-0.139820
-0.134838
-0.126074
-0.114742
-0.075930
-0.026703
0.033295
0.075249
0.122990
0.160541
0.190635
0.198340
0.192242
0.174439
0.130579
0.087939
0.033000
-0.020051
-0.065841
-0.099839
-0.115330
-0.117561
-0.111798
-0.086849
-0.035943
0.003993
0.052423
0.085227
0.135524
0.172632
0.204080
0.221482
0.206125
0.187335
0.158648
0.112733
0.074172
0.029330
-0.010515
-0.044075
-0.068012
-0.075075
-0.059786
-0.033553
-0.005046
0.020700
0.063325
0.105711
0.151414
0.203984
0.240057
0.253551
0.243760
0.214699
0.195557
0.159935
0.116982
0.068850
0.014460
-0.029283
-0.055620
-0.065215
-0.058680
-0.026459
0.016388
0.060956
0.112786
0.166994
0.208179
0.245219
0.258032
0.259782
0.251989
0.239702
0.197448
0.156035
0.110595
0.055735
0.001109
-0.030568
-0.047360
-0.055296
-0.053486
-0.025623
0.016458
0.053997
0.106613
0.150501
0.203018
0.240178
0.266873
0.271450
0.259505
0.231392
0.193135
0.150059
0.089668
0.034578
-0.003354
-0.047352
-0.062345
-0.084418
-0.075334
-0.049031
0.004307
0.038872
0.085030
0.119077
0.165621
0.201471
0.223013
0.226533
0.232229
0.220919
0.168042
0.123180
0.065134
0.008457
-0.025478
-0.068401
-0.083431
-0.094591
-0.096402
-0.083879
-0.044210
0.007085
0.061479
0.111236
0.160909
0.190439
0.202271
0.210341
0.202341
0.173490
0.135503
0.091500
0.029212
-0.025854
-0.069088
-0.100670
-0.125163
-0.137973
-0.131923
-0.117530
-0.076716
-0.023367
0.020119
0.062353
0.112615
0.151605
0.161221
0.167778
0.160597
0.135081
0.101955
0.054215
-0.003647
-0.036931
-0.082055
-0.113237
-0.140026
-0.154799
-0.153052
-0.122658
-0.080052
-0.040859
0.007113
0.043267
0.100352
0.133641
0.141890
0.155721
0.156144
0.127456
0.096874
0.050515
0.000731
-0.056652
-0.094015
-0.126344
-0.159642
-0.171872
-0.160441
-0.133446
-0.095546
-0.043963
0.002027
0.057217
0.103491
0.135518
0.153116
0.154393
0.158589
0.138540
0.103724
0.062528
0.005727
-0.041041
-0.089243
-0.121274
-0.139224
-0.154625
-0.143361
-0.118209
-0.079330
-0.038957
0.022591
0.067258
0.112707
0.141713
0.166083
0.168576
0.169884
0.137602
0.099743
0.054659
0.013815
-0.035341
-0.087096
-0.124050
-0.134676
-0.140082
-0.138927
-0.115357
-0.085754
-0.052425
-0.003577
0.058669
0.108391
0.154274
0.170313
0.180316
0.178472
0.150414
0.102709
0.072502
0.015381
-0.034400
-0.074120
-0.111455
-0.125100
-0.136592
-0.131439
-0.113704
-0.072240
-0.030766
0.028767
0.074423
0.107444
0.148187
0.169621
0.173015
0.176034
0.153047
0.119146
0.075553
0.014879
-0.034607
-0.085127
-0.114273
-0.136150
-0.134112
-0.142092
-0.115495
-0.078995
-0.036449
0.014272
0.066980
0.113763
0.144243
0.176414
0.187469
0.178639
0.153183
0.107407
0.074516
0.013802
-0.033433
-0.080272
-0.107455
-0.122218
-0.139430
-0.144538
-0.120775
-0.070679
-0.024935
0.037324
0.077739
0.113776
0.152554
0.172989
0.179750
0.166844
0.135024
0.107931
0.075243
0.013852
-0.038592
-0.086110
-0.119141
-0.134552
-0.149299
-0.149776
-0.130611
-0.083151
-0.040001
0.011669
0.053397
0.096067
0.140043
0.152741
0.168124
0.164737
0.140486
0.098715
0.055920
-0.004379
-0.056057
-0.096177
-0.130849
-0.151790
-0.155740
-0.146201
-0.130790
-0.083097
-0.041004
0.011380
0.061959
0.101939
0.128518
0.148828
0.156065
0.156496
0.133510
0.095109
0.055688
-0.008716
-0.058113
-0.110350
-0.154135
-0.169602
-0.170139
-0.157003
-0.125659
-0.087865
-0.039005
0.015198
0.056591
0.094084
0.127691
0.150187
0.164070
0.160823
0.139477
0.087543
0.060483
0.005438
-0.042087
-0.086632
-0.127608
-0.144652
-0.165441
-0.155550
-0.126227
-0.080449
-0.042729
-0.001568
0.054794
0.101419
0.130908
0.143548
0.150151
0.137827
0.119635
0.083747
0.051032
-0.015470
-0.067281
-0.109531
-0.142547
-0.171135
-0.170700
-0.166416
-0.138215
-0.100641
-0.069534
-0.005926
0.046828
0.097385
0.136658
0.160370
0.167237
0.147528
0.131258
0.094195
0.047211
-0.010191
-0.063510
-0.104871
-0.141008
-0.164166
-0.162573
-0.156591
-0.134779
-0.098401
-0.059878
0.007159
0.049141
0.086214
0.120946
0.153015
0.161934
0.159661
0.125539
0.089441
0.048789
-0.008392
-0.042393
-0.085899
-0.117949
-0.140578
-0.144112
-0.133977
-0.111405
-0.069089
-0.022912
0.033073
0.073756
0.112054
0.151653
0.172668
0.186210
0.183383
0.158887
0.116791
0.074679
0.027433
-0.016952
-0.064761
-0.104418
-0.126912
-0.133361
-0.122007
-0.099581
-0.045537
-0.000811
0.041250
0.088966
0.136618
0.167812
0.182624
0.188138
0.186845
0.164884
0.120032
0.088181
0.027821
-0.019044
-0.054951
-0.078137
-0.092662
-0.086778
-0.081077
-0.061087
-0.026492
0.020587
0.059875
0.096964
0.126789
0.158631
0.170940
0.168215
0.160000
0.129548
0.093942
0.066353
0.001961
-0.036103
-0.072937
-0.110873
-0.130924
-0.144417
-0.137311
-0.099977
-0.077484
-0.053097
0.001173
0.043932
0.078910
0.118075
0.142166
0.156171
0.147578
0.125690
0.079159
0.033908
-0.019412
-0.080043
-0.117355
-0.145331
-0.171334
-0.169744
-0.155314
-0.131354
-0.085297
-0.054118
-0.009915
0.030038
0.070146
0.101174
0.112624
0.122949
0.119462
0.089392
0.047668
0.012270
-0.034193
-0.070180
-0.126727
-0.158906
-0.177530
-0.178801
-0.168683
-0.144157
-0.121389
-0.076450
-0.030577
0.026853
0.066242
0.095702
0.123208
0.143492
0.121811
0.094379
0.062351
0.020522
-0.039715
-0.085864
-0.122100
-0.160615
-0.188990
-0.199626
-0.191298
-0.159550
-0.114277
-0.060434
-0.008291
0.029434
0.053720
0.081745
0.108504
0.118143
0.126649
0.097518
0.065095
0.023504
-0.025070
-0.076153
-0.124675
-0.153949
-0.175227
-0.183245
-0.172129
-0.144102
-0.126909
-0.077831
-0.031392
0.012042
0.048916
0.071802
0.090757
0.096286
0.096014
0.082887
0.042005
0.005370
-0.042494
-0.080105
-0.114507
-0.126927
-0.134641
-0.136362
-0.125677
-0.084491
-0.027598
0.028213
0.098546
0.146191
0.196603
0.237802
0.293367
0.318225
0.326201
0.334343
0.320505
0.321076
0.301845
0.292330
0.289855
0.290485
0.306555
0.327374
0.365243
0.424063
0.507590
0.593318
0.693133
0.756634
0.835689
0.898262
0.950996
0.979117
0.970510
0.937273
0.886243
0.825770
0.758327
0.704055
0.640460
0.573061
0.482591
0.407489
0.347547
0.316004
0.290455
0.263333
0.281519
0.292072
0.307181
0.327951
0.350138
0.345447
0.334303
0.288684
0.238433
0.189481
0.114670
0.042689
0.006810
-0.034862
-0.051022
-0.047864
-0.054887
-0.034552
-0.000458
0.029279
0.068805
0.112653
0.147011
0.184543
0.200539
0.201520
0.193799
0.170336
0.135355
0.083793
0.031077
-0.018068
-0.057579
-0.086487
-0.114510
-0.118155
-0.107663
-0.091269
-0.071749
-0.042298
0.015453
0.067188
0.110232
0.145016
0.155016
0.174708
0.176222
0.153928
0.118362
0.076509
0.027395
-0.025126
-0.064586
-0.101962
-0.122767
-0.128761
-0.117455
-0.101474
-0.063612
-0.037103
0.013854
0.059006
0.098843
0.128612
0.164394
0.170529
0.160248
0.137490
0.106670
0.063780
0.019285
-0.020015
-0.048509
-0.075447
-0.096841
-0.089655
-0.105716
-0.100761
-0.064619
-0.037150
0.013493
0.063375
0.107626
0.150003
0.180031
0.190629
0.194780
0.166681
0.132305
0.098954
0.042835
-0.003923
-0.049484
-0.083765
-0.098112
-0.088703
-0.095094
-0.066203
-0.032883
0.007185
0.053017
0.091623
0.138397
0.184095
0.210506
0.223436
0.212042
0.184790
0.147456
0.115290
0.070088
0.020705
-0.018075
-0.053935
-0.073962
-0.072724
-0.069774
-0.046524
-0.013656
0.024991
0.072397
0.115312
0.166522
0.202734
0.227083
0.229420
0.235877
0.226978
0.200912
0.158731
0.107684
0.069772
0.024819
-0.012944
-0.028171
-0.034531
-0.038336
-0.010158
0.025473
0.060645
0.110380
0.152546
0.202366
0.240240
0.256173
0.258760
0.260521
0.239085
0.206005
0.173452
0.115766
0.066379
0.018579
-0.018166
-0.041299
-0.056137
-0.049173
-0.016862
0.024173
0.060421
0.118396
0.168293
0.207258
0.240595
0.251042
0.261129
0.269346
0.254492
0.214218
0.165883
0.121991
0.061921
0.016513
-0.020076
-0.038575
-0.053261
-0.053072
-0.022229
0.013340
0.048272
0.096284
0.141805
0.189699
0.215815
0.238795
0.248103
0.249535
0.229553
0.197687
0.148247
0.078882
0.030511
-0.017536
-0.063022
-0.094805
-0.094330
-0.071836
-0.049075
-0.010727
0.020921
0.073971
0.114260
0.148426
0.175834
0.213881
0.227605
0.221642
0.202290
0.162328
0.121160
0.059191
0.012269
-0.035103
-0.073125
-0.103672
-0.104991
-0.102917
-0.089816
-0.056448
-0.031149
0.017323
0.070661
0.122989
0.150127
0.168867
0.174424
0.163547
0.135437
0.110670
0.074086
0.013492
-0.034627
-0.080343
-0.108809
-0.118047
-0.123852
-0.123155
-0.121850
-0.091559
-0.050932
0.000455
0.060752
0.106047
0.141216
0.170096
0.169613
0.160702
0.128107
0.110331
0.067178
0.013176
-0.032664
-0.088903
-0.132021
-0.147422
-0.143628
-0.139898
-0.136624
-0.100939
-0.055361
0.003858
0.049209
0.088436
0.121626
0.150611
0.157212
0.164558
0.143980
0.109898
0.068094
0.011433
-0.036986
-0.088881
-0.126581
-0.152885
-0.154339
-0.148530
-0.113053
-0.092772
-0.046389
-0.002480
0.044071
0.083437
0.132373
0.153804
0.172922
0.167415
0.135926
0.102914
0.052031
0.004113
-0.037619
-0.078343
-0.120471
-0.138643
-0.141912
-0.135138
-0.117646
-0.088024
-0.051421
-0.003981
0.049419
0.091425
0.132295
0.158349
0.171748
0.175223
0.156282
0.117480
0.077487
0.025247
-0.023048
-0.064998
-0.094871
-0.119105
-0.136759
-0.140580
-0.115607
-0.084529
-0.030435
0.008057
0.057582
0.104125
0.153303
0.170521
0.175394
0.176319
0.156065
0.125907
0.074513
0.023184
-0.031971
-0.065076
-0.107544
-0.132562
-0.134256
-0.146084
-0.120759
-0.075378
-0.039575
0.005331
0.058939
0.099115
0.130950
0.153913
0.162932
0.164177
0.154007
0.117825
0.066820
0.018303
-0.030170
-0.064123
-0.097947
-0.125893
-0.132030
-0.131760
-0.108803
-0.090741
-0.046526
-0.006588
0.045123
0.093704
0.131929
0.160758
0.167105
0.157788
0.142911
0.121802
0.078131
0.015682
-0.029242
-0.067593
-0.106061
-0.132319
-0.149415
-0.156381
-0.125702
-0.096628
-0.045952
-0.001551
0.043621
0.073729
0.125447
0.163137
0.182056
0.176604
0.141710
0.109458
0.078075
0.031679
-0.036655
-0.085781
-0.127155
-0.153607
-0.157479
-0.153765
-0.130657
-0.087410
-0.048677
0.003768
0.046094
0.081263
0.112405
0.140178
0.157074
0.154762
0.132426
0.101496
0.055146
-0.001427
-0.062701
-0.093783
-0.139975
-0.163048
-0.167617
-0.158866
-0.139734
-0.094794
-0.054240
-0.002443
0.021610
0.058354
0.095824
0.129438
0.132690
0.149812
0.140942
0.104614
0.058210
0.005895
-0.056889
-0.090182
-0.124319
-0.154027
-0.156522
-0.158397
-0.143601
-0.118145
-0.060025
-0.014125
0.040615
0.078710
0.125977
0.141253
0.150991
0.146951
0.116434
0.083912
0.047575
-0.009025
-0.063204
-0.098401
-0.141031
-0.164529
-0.180843
-0.180064
-0.145447
-0.120512
-0.075331
-0.029994
0.032698
0.065804
0.116390
0.136203
0.139320
0.139914
0.116247
0.080175
0.050018
0.006249
-0.062933
-0.107822
-0.152680
-0.167950
-0.158607
-0.154500
-0.144962
-0.116631
-0.067382
-0.016381
0.034459
0.075948
0.110444
0.141345
0.142375
0.126335
0.095657
0.064597
0.019292
-0.028551
-0.065720
-0.102003
-0.135701
-0.149993
-0.171698
-0.172014
-0.149729
-0.111802
-0.066594
-0.017649
0.040301
0.082069
0.118724
0.141025
0.154303
0.159105
0.128975
0.089583
0.037597
-0.010495
-0.055339
-0.088617
-0.118042
-0.151227
-0.156009
-0.149682
-0.126069
-0.085380
-0.044964
0.009509
0.074697
0.116135
0.155294
0.185998
0.194878
0.182835
0.161872
0.120386
0.081537
0.031738
-0.016721
-0.073963
-0.112485
-0.132973
-0.142949
-0.142096
-0.118825
-0.082240
-0.036613
0.009132
0.071240
0.118291
0.151763
0.196001
0.212240
0.194257
0.170920
0.139571
0.089276
0.045349
-0.009599
-0.061405
-0.093810
-0.121435
-0.140381
-0.130427
-0.103491
-0.071471
-0.033781
0.011789
0.060296
0.094648
0.127122
0.141794
0.160788
0.164570
0.144305
0.097455
0.054573
0.005257
-0.054359
-0.100394
-0.139335
-0.157835
-0.176888
-0.170804
-0.141297
-0.112119
-0.067629
-0.017565
0.030306
0.077136
0.116332
0.130411
0.143462
0.133463
0.090493
0.058513
0.010912
-0.036908
-0.091706
-0.144425
-0.173294
-0.190736
-0.195179
-0.188535
-0.177574
-0.134104
-0.096537
-0.050300
0.000186
0.049762
0.093825
0.129683
0.122187
0.119228
0.088529
0.041234
0.002720
-0.050093
-0.096012
-0.149166
-0.177671
-0.202840
-0.214749
-0.194815
-0.167495
-0.135274
-0.100891
-0.055961
0.000684
0.045028
0.085553
0.116096
0.125613
0.112338
0.092433
0.052740
-0.002440
-0.047556
-0.104316
-0.157513
-0.190210
-0.215151
-0.217587
-0.216458
-0.188590
-0.131255
-0.084591
-0.030050
0.022453
0.069668
0.092089
0.093503
0.098749
0.093712
0.090049
0.060136
0.014989
-0.052239
-0.102903
-0.134248
-0.170109
-0.196444
-0.201466
-0.207347
-0.181168
-0.147054
-0.104315
-0.054743
-0.002196
0.044071
0.071634
0.097929
0.107012
0.108440
0.091350
0.062135
0.034390
-0.017905
-0.051034
-0.087264
-0.109979
-0.121476
-0.093991
-0.080106
-0.045598
0.008828
0.087996
0.143954
0.215626
0.288490
0.355824
0.409857
0.454036
0.487843
0.505417
0.512618
0.503151
0.472369
0.443085
0.429988
0.429051
0.462038
0.502619
0.532050
0.585888
0.661081
0.741709
0.788757
0.837703
0.876567
0.900058
0.899607
0.880388
0.863917
0.833628
0.756679
0.634072
0.512668
0.406940
0.305647
0.228199
0.159037
0.104045
0.065236
0.075822
0.097577
0.122937
0.164971
0.197397
0.213185
0.242275
0.256697
0.250669
0.233324
0.210626
0.168967
0.118289
0.069556
0.026971
-0.022222
-0.068506
-0.087273
-0.103232
-0.107018
-0.078776
-0.047624
0.001976
0.048109
0.088029
0.128748
0.159863
0.172291
0.183106
0.177292
0.142133
0.088757
0.040598
-0.002879
-0.054709
-0.097882
-0.127461
-0.136777
-0.160559
-0.161666
-0.132626
-0.090659
-0.033298
0.012688
0.058585
0.097357
0.130840
0.151688
0.165334
0.168988
0.139368
0.085850
0.048518
-0.001929
-0.053547
-0.096565
-0.136342
-0.157248
-0.147592
-0.142895
-0.117899
-0.085771
-0.035094
0.009790
0.059436
0.105115
0.140945
0.162445
0.170883
0.164261
0.145936
0.121371
0.074101
0.021711
-0.030860
-0.078236
-0.114671
-0.128823
-0.137497
-0.135041
-0.108724
-0.064186
-0.021342
0.025178
0.081142
0.116115
0.141360
0.164695
0.181525
0.170808
0.134683
0.099177
0.051898
0.005231
-0.028044
-0.073876
-0.100335
-0.121718
-0.126726
-0.120139
-0.094943
-0.044501
-0.008633
0.041048
0.100820
0.150561
0.180932
0.198850
0.199798
0.197129
0.165802
0.139924
0.089274
0.045588
-0.001100
-0.040820
-0.079762
-0.094025
-0.078749
-0.074844
-0.040073
0.002275
0.029256
0.084620
0.122109
0.166108
0.203783
0.238095
0.243776
0.246144
0.216262
0.189077
0.146241
0.088634
0.036115
-0.006514
-0.024925
-0.049892
-0.062960
-0.058217
-0.039909
0.000984
0.051876
0.094985
0.144629
0.203915
0.236397
0.249893
0.255213
0.242066
0.224097
0.187561
0.143123
0.101082
0.065595
0.018857
-0.014388
-0.051333
-0.061916
-0.051514
-0.017185
0.006443
0.052287
0.105205
0.138958
0.182533
0.223764
0.247896
0.244808
0.237572
0.215911
0.181529
0.132163
0.078038
0.029722
-0.015699
-0.047768
-0.052995
-0.073428
-0.069240
-0.041525
0.003360
0.030446
0.086296
0.139032
0.178170
0.212191
0.228730
0.229307
0.220987
0.195045
0.144212
0.109139
0.062876
0.018396
-0.031521
-0.081364
-0.103340
-0.101908
-0.093705
-0.082845
-0.039498
0.014468
0.063385
0.112731
0.144414
0.177517
0.188376
0.188443
0.184758
0.164374
0.117086
0.070978
0.026384
-0.018332
-0.063316
-0.102633
-0.134902
-0.138737
-0.132117
-0.103805
-0.064357
-0.014245
0.039077
0.077893
0.115472
0.150340
0.165720
0.158641
0.154493
0.131800
0.092585
0.041821
-0.016889
-0.072704
-0.098465
-0.131144
-0.149707
-0.159496
-0.154479
-0.127440
-0.081029
-0.033626
0.008115
0.058472
0.083884
0.112130
0.133228
0.139070
0.139864
0.125538
0.090358
0.046646
-0.013870
-0.069031
-0.100374
-0.141813
-0.163794
-0.175290
-0.161275
-0.131110
-0.101736
-0.069832
-0.032308
0.012573
0.064264
0.103863
0.143506
0.149343
0.152835
0.135807
0.087036
0.035742
-0.014364
-0.056859
-0.093114
-0.130971
-0.158840
-0.164902
-0.148502
-0.122107
-0.080820
-0.033971
-0.003913
0.053085
0.088310
0.115120
0.143583
0.133090
0.130179
0.119227
0.076089
0.032648
-0.013841
-0.050930
-0.088110
-0.121434
-0.149255
-0.153021
-0.153936
-0.134173
-0.090542
-0.038590
0.009182
0.055562
0.096788
0.125073
0.142840
0.151934
0.142677
0.128467
0.090411
0.044555
0.007294
-0.033922
-0.074090
-0.110806
-0.131771
-0.144899
-0.135510
-0.117867
-0.086452
-0.046089
-0.004845
0.053261
0.095825
0.119014
0.138272
0.146042
0.148978
0.132172
0.098314
0.055374
0.013632
-0.042885
-0.085433
-0.114786
-0.130346
-0.142268
-0.140051
-0.113977
-0.079429
-0.036641
0.013867
0.065640
0.100762
0.124759
0.146795
0.142560
0.145745
0.128515
0.095345
0.046898
0.006532
-0.035609
-0.087546
-0.130050
-0.143515
-0.153568
-0.144101
-0.130462
-0.100226
-0.045806
-0.005938
0.042818
0.079798
0.111288
0.130500
0.138350
0.136231
0.113688
0.067297
0.020543
-0.026357
-0.063688
-0.102345
-0.132776
-0.148775
-0.157417
-0.143560
-0.121904
-0.073264
-0.035828
0.002117
0.053550
0.090805
0.120451
0.128894
0.147922
0.138923
0.120136
0.080480
0.033619
-0.017687
-0.062194
-0.112324
-0.145539
-0.166724
-0.170738
-0.169470
-0.137377
-0.086309
-0.033223
0.004389
0.050601
0.076431
0.111965
0.124039
0.131852
0.124011
0.110312
0.072672
0.027431
-0.014429
-0.069082
-0.108527
-0.143556
-0.160663
-0.169797
-0.162125
-0.146848
-0.111842
-0.072284
-0.018726
0.030952
0.082821
0.100614
0.116799
0.131013
0.130164
0.101773
0.079315
0.027767
-0.019270
-0.067009
-0.108953
-0.151971
-0.173691
-0.185149
-0.192668
-0.159772
-0.124230
-0.080221
-0.027912
0.012611
0.053430
0.099131
0.122561
0.118329
0.113086
0.084877
0.069142
0.038340
-0.017617
-0.061826
-0.107737
-0.135778
-0.165774
-0.174336
-0.169901
-0.146675
-0.111873
-0.071288
-0.030577
0.013718
0.055519
0.095646
0.111333
0.121989
0.115049
0.089854
0.064829
0.016575
-0.021864
-0.064308
-0.121591
-0.148018
-0.162684
-0.186373
-0.177760
-0.156811
-0.120187
-0.082676
-0.041271
0.010126
0.051914
0.091534
0.104491
0.118532
0.122203
0.098816
0.066118
0.025880
-0.017324
-0.053619
-0.107379
-0.142002
-0.157326
-0.159003
-0.164332
-0.129965
-0.096637
-0.052008
-0.000510
0.037811
0.088440
0.121477
0.139574
0.150761
0.152964
0.120289
0.083082
0.039065
-0.002337
-0.046959
-0.090643
-0.117054
-0.130060
-0.130143
-0.131534
-0.106522
-0.074711
-0.033612
0.006411
0.048359
0.078337
0.102467
0.128704
0.146264
0.149669
0.149191
0.118096
0.071073
0.016758
-0.030073
-0.070997
-0.107519
-0.126407
-0.128636
-0.120667
-0.098547
-0.069057
-0.026406
0.014920
0.068217
0.120620
0.162440
0.184849
0.190969
0.168127
0.142211
0.102505
0.054707
0.004150
-0.047356
-0.093536
-0.115755
-0.132897
-0.155165
-0.157259
-0.136226
-0.108314
-0.063330
-0.014648
0.032035
0.069954
0.098318
0.123835
0.128530
0.120977
0.103594
0.070228
0.022095
-0.018590
-0.069346
-0.118804
-0.160474
-0.178691
-0.181810
-0.177199
-0.162655
-0.134808
-0.105514
-0.055682
0.004192
0.044369
0.078025
0.093355
0.108908
0.116119
0.089470
0.063196
0.005994
-0.045567
-0.088694
-0.132239
-0.167889
-0.196873
-0.209005
-0.199523
-0.177929
-0.154485
-0.111345
-0.062253
-0.010910
0.029269
0.061361
0.096558
0.111571
0.103892
0.093029
0.057314
0.013692
-0.048152
-0.105650
-0.155948
-0.188848
-0.207803
-0.215488
-0.205324
-0.172296
-0.142774
-0.099047
-0.057159
-0.018895
0.027329
0.068183
0.102186
0.111871
0.106345
0.072349
0.042997
-0.006243
-0.044749
-0.090684
-0.136332
-0.173820
-0.206854
-0.218426
-0.210130
-0.184695
-0.137699
-0.084436
-0.052557
-0.015997
0.028506
0.068465
0.092302
0.095942
0.090922
0.073615
0.038172
-0.010105
-0.070647
-0.126318
-0.174577
-0.216607
-0.240599
-0.255820
-0.237809
-0.200291
-0.151811
-0.094743
-0.043435
0.016522
0.081582
0.137139
0.164869
0.176089
0.178312
0.176378
0.165762
0.127506
0.100620
0.070490
0.049155
0.036186
0.044047
0.066212
0.100189
0.143411
0.218719
0.301030
0.383698
0.483372
0.572625
0.612216
0.661522
0.706972
0.741794
0.768380
0.784124
0.773580
0.754693
0.720439
0.675440
0.638768
0.623772
0.599651
0.569982
0.567186
0.584373
0.615751
0.616688
0.595157
0.586636
0.556859
0.531472
0.487031
0.441224
0.381467
0.307096
0.240263
0.176607
0.112843
0.061057
0.007925
-0.020409
-0.042316
-0.052159
-0.047071
-0.013890
0.021995
0.066748
0.100532
0.146830
0.170478
0.180977
0.192622
0.193121
0.173499
0.134249
0.059754
0.017411
-0.032838
-0.093636
-0.121838
-0.120733
-0.124151
-0.131881
-0.116761
-0.075980
-0.022664
0.022932
0.069646
0.106038
0.123992
0.143874
0.153491
0.150484
0.113539
0.080496
0.035230
-0.009406
-0.058111
-0.106695
-0.142153
-0.166567
-0.180291
-0.165827
-0.133409
-0.105805
-0.049684
-0.001607
0.047729
0.088043
0.109981
0.134009
0.159494
0.157741
0.127190
0.085605
0.031568
-0.014673
-0.078005
-0.120597
-0.152639
-0.166334
-0.174679
-0.157554
-0.123958
-0.085615
-0.050132
0.003726
0.044809
0.091409
0.137028
0.148684
0.161545
0.158156
0.134470
0.095276
0.055580
0.008510
-0.041686
-0.087659
-0.121823
-0.141088
-0.150463
-0.139279
-0.099800
-0.065377
-0.013318
0.035441
0.081763
0.123003
0.163175
0.170890
0.185818
0.168420
0.144567
0.111561
0.071147
0.033559
-0.021954
-0.068447
-0.102147
-0.114434
-0.126298
-0.113649
-0.086110
-0.061328
-0.015649
0.048733
0.109768
0.149230
0.180541
0.212592
0.230891
0.222186
0.182332
0.146443
0.107448
0.053673
0.003722
-0.028823
-0.066648
-0.091970
-0.092533
-0.083678
-0.052933
-0.014488
0.036584
0.080248
0.127942
0.171008
0.216779
0.231822
0.243583
0.235525
0.210426
0.168038
0.119391
0.052996
0.002914
-0.025615
-0.046011
-0.073309
-0.095407
-0.079120
-0.040277
0.001632
0.048721
0.094165
0.132868
0.171553
0.205902
0.226305
0.253275
0.251383
0.212710
0.172231
0.129022
0.074870
0.027774
-0.011196
-0.037593
-0.059365
-0.071214
-0.058891
-0.034480
-0.001120
0.047241
0.093409
0.128869
0.167981
0.198609
0.209114
0.217594
0.216164
0.184680
0.147987
0.104075
0.059024
0.017634
-0.017196
-0.052781
-0.087979
-0.092985
-0.083972
-0.065343
-0.028676
0.024151
0.068301
0.109140
0.145835
0.176623
0.181569
0.191690
0.185513
0.158948
0.118549
0.063359
0.022956
-0.017558
-0.064898
-0.106432
-0.118809
-0.122863
-0.104281
-0.085545
-0.061811
-0.023213
0.020906
0.063143
0.104956
0.141571
0.152189
0.159867
0.146889
0.116291
0.098504
0.052924
-0.001488
-0.051127
-0.082304
-0.105989
-0.131913
-0.142320
-0.132691
-0.116873
-0.085886
-0.040351
-0.004134
0.032835
0.061384
0.092469
0.120213
0.128324
0.131523
0.107780
0.077785
0.026856
-0.018938
-0.061870
-0.117180
-0.139350
-0.161860
-0.176271
-0.169612
-0.140456
-0.109138
-0.059295
-0.012752
0.035595
0.067378
0.098574
0.115477
0.114388
0.111340
0.097348
0.074460
0.027947
-0.031440
-0.069419
-0.111976
-0.143287
-0.162344
-0.174586
-0.156172
-0.143628
-0.100554
-0.068960
-0.031379
0.017116
0.060805
0.092968
0.111798
0.114692
0.107719
0.089975
0.059969
0.026316
-0.023227
-0.062938
-0.103536
-0.133393
-0.152288
-0.171988
-0.170908
-0.151131
-0.120637
-0.075835
-0.018747
0.031072
0.072642
0.111938
0.129006
0.130610
0.133309
0.108972
0.076010
0.033320
-0.011515
-0.073268
-0.108603
-0.134668
-0.158811
-0.168008
-0.164262
-0.139974
-0.108553
-0.048922
-0.009434
0.036945
0.072847
0.108163
0.124977
0.137971
0.126260
0.122186
0.086152
0.040321
-0.003395
-0.057036
-0.100550
-0.141388
-0.160961
-0.174306
-0.152972
-0.132613
-0.101681
-0.056083
-0.007577
0.041629
0.086460
0.115594
0.134922
0.153268
0.145825
0.120970
0.086124
0.041600
-0.007993
-0.058043
-0.104360
-0.146829
-0.165964
-0.166870
-0.160577
-0.137589
-0.106921
-0.068211
-0.024653
0.026084
0.076409
0.110197
0.138241
0.138491
0.134993
0.107550
0.072202
0.032866
-0.017502
-0.065156
-0.106400
-0.136639
-0.151769
-0.161992
-0.158699
-0.153510
-0.132731
-0.081452
-0.030068
0.021682
0.068044
0.113922
0.133235
0.136625
0.126497
0.096668
0.065699
0.036582
-0.013996
-0.060180
-0.118723
-0.150149
-0.170569
-0.183517
-0.178510
-0.153973
-0.124952
-0.079911
-0.040562
0.015458
0.055153
0.094823
0.108004
0.118000
0.119168
0.110855
0.087484
0.037573
-0.016492
-0.068715
-0.114943
-0.165419
-0.188136
-0.194331
-0.183809
-0.164927
-0.120929
-0.076235
-0.036019
0.019365
0.056799
0.088590
0.104596
0.128598
0.114008
0.094359
0.066105
0.012872
-0.035304
-0.079548
-0.115570
-0.140316
-0.171605
-0.194224
-0.176694
-0.160514
-0.133604
-0.081069
-0.045787
-0.003137
0.038649
0.080804
0.101381
0.116284
0.107808
0.083692
0.054684
0.010747
-0.032599
-0.082008
-0.130553
-0.157660
-0.181979
-0.201556
-0.190359
-0.173173
-0.148677
-0.103464
-0.055401
-0.002121
0.052870
0.084700
0.106352
0.117599
0.127772
0.101003
0.079367
0.025433
-0.029746
-0.078910
-0.119636
-0.164460
-0.188626
-0.204576
-0.196525
-0.175130
-0.150272
-0.096221
-0.059514
-0.005764
0.035030
0.069427
0.098896
0.110761
0.100546
0.089842
0.059925
0.008203
-0.051629
-0.087713
-0.132360
-0.165585
-0.196560
-0.202607
-0.182377
-0.169763
-0.144874
-0.093688
-0.033015
0.018954
0.058019
0.093581
0.103828
0.116352
0.111692
0.101051
0.064880
0.023623
-0.037543
-0.078653
-0.126455
-0.162796
-0.168719
-0.173643
-0.158730
-0.139503
-0.098594
-0.058089
-0.003817
0.049265
0.090388
0.130110
0.150676
0.167309
0.160690
0.132627
0.088546
0.034902
-0.014509
-0.067891
-0.113558
-0.138974
-0.169556
-0.178925
-0.177113
-0.141294
-0.106854
-0.059475
0.008630
0.072126
0.133746
0.155311
0.163685
0.178791
0.166663
0.148971
0.103220
0.052745
0.015222
-0.028010
-0.077130
-0.110048
-0.119520
-0.147179
-0.157884
-0.144462
-0.116402
-0.071600
-0.024542
0.023224
0.071040
0.104764
0.130974
0.152515
0.143727
0.120365
0.083335
0.020399
-0.028379
-0.072850
-0.123185
-0.162362
-0.191607
-0.211345
-0.201686
-0.174305
-0.136805
-0.092238
-0.035983
0.013156
0.055335
0.092056
0.109293
0.119197
0.089365
0.063471
0.024609
-0.016983
-0.062975
-0.116545
-0.154846
-0.189852
-0.200868
-0.212464
-0.213515
-0.186065
-0.159034
-0.116218
-0.063596
-0.017778
0.018326
0.057703
0.066704
0.089106
0.086020
0.053103
0.023288
-0.021381
-0.053755
-0.099115
-0.153871
-0.198223
-0.215148
-0.230797
-0.226488
-0.204332
-0.166138
-0.106159
-0.050499
-0.005176
0.033252
0.067166
0.079742
0.099784
0.089424
0.066299
0.032447
-0.025203
-0.080794
-0.134733
-0.178391
-0.196932
-0.216648
-0.218701
-0.217439
-0.192656
-0.158688
-0.113600
-0.055240
-0.013269
0.022600
0.055414
0.077120
0.094159
0.090430
0.063862
0.029397
-0.016148
-0.071316
-0.117359
-0.169216
-0.205731
-0.221979
-0.238502
-0.213075
-0.199006
-0.170833
-0.119761
-0.073339
-0.032370
0.014916
0.047228
0.069110
0.074636
0.064524
0.046525
0.032437
-0.017481
-0.067580
-0.106489
-0.130907
-0.138961
-0.147750
-0.136095
-0.100529
-0.055213
-0.026625
0.030136
0.106993
0.179382
0.249679
0.303205
0.343998
0.388654
0.408741
0.431796
0.427281
0.415130
0.396088
0.380962
0.351756
0.348953
0.375698
0.398380
0.454843
0.520483
0.582657
0.662835
0.749751
0.807916
0.850194
0.880946
0.889804
0.876461
0.847675
0.791951
0.742092
0.661285
0.554648
0.439272
0.336372
0.237733
0.180984
0.116843
0.077734
0.069567
0.087091
0.124412
0.157021
0.201482
0.228592
0.255525
0.255785
0.250737
0.218076
0.191144
0.153556
0.092209
0.032449
-0.015149
-0.056960
-0.096746
-0.116078
-0.135261
-0.127893
-0.096294
-0.068525
-0.027742
0.006757
0.052357
0.102597
0.133917
0.151474
0.170967
0.142148
0.112951
0.074465
0.033950
-0.022529
-0.069545
-0.117712
-0.146184
-0.163502
-0.168283
-0.165951
-0.131730
-0.092022
-0.055780
-0.015275
0.031908
0.075383
0.109506
0.127223
0.129281
0.129725
0.104870
0.063326
0.014551
-0.025416
-0.067623
-0.113743
-0.152036
-0.171739
-0.184011
-0.163110
-0.136930
-0.109980
-0.065424
-0.013884
0.031226
0.069235
0.090147
0.134384
0.150868
0.151618
0.125750
0.076794
0.029830
-0.019781
-0.061470
-0.111648
-0.138860
-0.152522
-0.164044
-0.149210
-0.136905
-0.100375
-0.051274
0.004322
0.045539
0.092612
0.126917
0.143196
0.155871
0.149605
0.129773
0.092517
0.046152
0.006962
-0.040604
-0.076816
-0.111690
-0.124244
-0.131223
-0.126672
-0.096175
-0.067181
-0.028876
0.012518
0.068893
0.108271
0.140282
0.164317
0.170512
0.161245
0.133631
0.109984
0.063787
0.027643
-0.013297
-0.046439
-0.094565
-0.109121
-0.118637
-0.113665
-0.090660
-0.057700
0.000208
0.043666
0.084407
0.137848
0.175442
0.199854
0.218124
0.195899
0.186701
0.171735
0.123015
0.073563
0.027672
-0.021739
-0.057981
-0.074990
-0.073644
-0.073941
-0.040875
-0.012233
0.023142
0.080662
0.124559
0.157671
0.193603
0.208661
0.215018
0.194834
0.181802
0.144889
0.101835
0.061226
0.015232
-0.018541
-0.047989
-0.063565
-0.085618
-0.073383
-0.050925
-0.017246
0.024314
0.066533
0.108101
0.151453
0.195619
0.211998
0.230405
0.209540
0.186611
0.153641
0.111084
0.068508
0.022168
-0.029533
-0.061601
-0.080771
-0.100955
-0.085963
-0.058113
-0.030941
0.011921
0.065645
0.102615
0.148402
0.187233
0.207498
0.207730
0.191065
0.156510
0.112939
0.082233
0.040496
-0.002091
-0.045398
-0.087785
-0.104560
-0.115951
-0.109962
-0.087024
-0.056433
-0.013662
0.032397
0.071615
0.092148
0.133208
0.150988
0.172192
0.154842
0.143177
0.104050
0.055591
0.003934
-0.060502
-0.092443
-0.120420
-0.137241
-0.157425
-0.148081
-0.126243
-0.092500
-0.049643
-0.005571
0.029414
0.062259
0.094039
0.115268
0.141225
0.136528
0.114599
0.079783
0.030930
-0.025666
-0.068676
-0.109588
-0.142055
-0.164267
-0.180687
-0.172745
-0.143340
-0.116738
-0.065330
-0.014202
0.029881
0.073455
0.104958
0.111559
0.130475
0.108484
0.078407
0.051204
0.013595
-0.028274
-0.078189
-0.132314
-0.165348
-0.181923
-0.194290
-0.179874
-0.147010
-0.123535
-0.085240
-0.029786
0.025381
0.061545
0.093337
0.110581
0.114672
0.102979
0.075418
0.039546
0.003948
-0.043887
-0.079013
-0.126341
-0.161310
-0.187017
-0.186332
-0.175056
-0.149169
-0.125948
-0.082648
-0.032049
0.007280
0.053406
0.092564
0.130751
0.134736
0.123055
0.105387
0.073843
0.033697
-0.025929
-0.079972
-0.120775
-0.147806
-0.167357
-0.190005
-0.175539
-0.141201
-0.112896
-0.069262
-0.022952
0.025124
0.069643
0.100542
0.121121
0.135254
0.122947
0.090493
0.074938
0.031981
-0.029494
-0.056717
-0.095408
-0.126295
-0.148403
-0.174047
-0.168685
-0.144581
-0.104510
-0.072862
-0.023430
0.026260
0.076400
0.103085
0.124688
0.144451
0.134679
0.103214
0.078727
0.032146
-0.011378
-0.068500
-0.110679
-0.137241
-0.162144
-0.176233
-0.170968
-0.150550
-0.118060
-0.074555
-0.017832
0.029880
0.059299
0.086606
0.109935
0.132325
0.121195
0.105910
0.062918
0.034615
-0.010645
-0.069370
-0.120580
-0.150328
-0.173842
-0.185023
-0.173364
-0.153472
-0.118950
-0.076607
-0.032985
0.012225
0.055432
0.087540
0.104499
0.106890
0.097050
0.084386
0.060192
0.026204
-0.026722
-0.084078
-0.112628
-0.151477
-0.169243
-0.197363
-0.188584
-0.166974
-0.136935
-0.090252
-0.045491
-0.000651
0.051703
0.092930
0.120423
0.130194
0.119505
0.088881
0.057828
0.005346
-0.055401
-0.097090
-0.130730
-0.156203
-0.173391
-0.196279
-0.179050
-0.157159
-0.128888
-0.081987
-0.039535
0.006852
0.047546
0.083560
0.103159
0.120833
0.112522
0.088501
0.056008
0.012520
-0.040920
-0.085485
-0.133198
-0.162626
-0.190457
-0.195290
-0.180814
-0.167513
-0.137174
-0.102238
-0.052727
-0.006355
0.043835
0.081923
0.115188
0.121509
0.101132
0.078629
0.057737
0.006373
-0.043109
-0.088032
-0.140375
-0.180332
-0.206380
-0.210678
-0.199305
-0.170848
-0.133014
-0.087775
-0.045085
-0.001064
0.040504
0.070775
0.091897
0.106578
0.097049
0.083315
0.054960
-0.001058
-0.042302
-0.089430
-0.145980
-0.176106
-0.196843
-0.229514
-0.214900
-0.187409
-0.142866
-0.098644
-0.031535
0.009366
0.041825
0.075485
0.093155
0.113714
0.100695
0.074270
0.045673
-0.005921
-0.054672
-0.107010
-0.150772
-0.196241
-0.221225
-0.219887
-0.206750
-0.182690
-0.142796
-0.109163
-0.054288
0.007809
0.066179
0.094533
0.109830
0.111270
0.093805
0.080936
0.050257
0.007186
-0.033317
-0.077409
-0.124362
-0.166085
-0.190153
-0.202284
-0.189891
-0.164386
-0.118863
-0.078019
-0.028089
0.029924
0.078450
0.117136
0.139199
0.137958
0.132830
0.116556
0.078748
0.047322
-0.008255
-0.050844
-0.106176
-0.141103
-0.163484
-0.169227
-0.166998
-0.138712
-0.104623
-0.062174
-0.018794
0.030177
0.069953
0.105951
0.128029
0.140308
0.139411
0.118680
0.084354
0.048515
-0.006622
-0.052501
-0.085962
-0.137997
-0.157267
-0.164096
-0.145379
-0.116642
-0.081218
-0.039451
0.017368
0.064167
0.091933
0.122150
0.132656
0.142210
0.130343
0.099342
0.065927
0.024441
-0.030309
-0.081369
-0.130983
-0.169601
-0.192253
-0.195032
-0.177467
-0.146493
-0.116522
-0.072721
-0.030029
0.019778
0.061664
0.089034
0.110773
0.113615
0.107813
0.089172
0.052868
0.005100
-0.048361
-0.091609
-0.136720
-0.179422
-0.203983
-0.222596
-0.220527
-0.195969
-0.161492
-0.116385
-0.068673
-0.008055
0.033674
0.060868
0.088355
0.099083
0.081093
0.054247
0.021253
-0.031205
-0.081695
-0.128868
-0.171698
-0.208051
-0.222227
-0.244432
-0.233986
-0.200626
-0.168647
-0.120315
-0.069035
-0.009734
0.031753
0.068573
0.086362
0.098725
0.097669
0.061860
0.021210
-0.015515
-0.062253
-0.110687
-0.164568
-0.196403
-0.230294
-0.235869
-0.223468
-0.175845
-0.140544
-0.102036
-0.053159
-0.015918
0.013715
0.047507
0.075096
0.089582
0.088801
0.056076
0.017741
-0.026209
-0.078067
-0.125180
-0.166854
-0.201101
-0.227178
-0.230084
-0.219736
-0.200727
-0.166777
-0.126196
-0.068858
-0.016396
0.028081
0.063874
0.076348
0.079044
0.067125
0.033731
-0.004611
-0.046461
-0.103705
-0.139818
-0.180713
-0.204182
-0.223599
-0.228167
-0.201015
-0.164256
-0.112290
-0.042859
0.026510
0.090553
0.148053
0.197992
0.228773
0.244813
0.247052
0.238503
0.213679
0.191433
0.174126
0.152714
0.153306
0.163822
0.177298
0.193682
0.220248
0.272615
0.325810
0.398903
0.469512
0.561721
0.658012
0.746467
0.807337
0.849456
0.868375
0.855224
0.820367
0.766480
0.726620
0.667291
0.606777
0.544159
0.495699
0.460456
0.423717
0.380660
0.348866
0.335956
0.346421
0.340656
0.339850
0.334497
0.313583
0.310809
0.275198
0.235023
0.214437
0.159646
0.089406
0.021178
-0.032879
-0.085558
-0.115183
-0.116041
-0.110522
-0.076664
-0.046846
0.003747
0.054811
0.087543
0.122032
0.153382
0.176130
0.179953
0.158849
0.136511
0.101992
0.040514
-0.011117
-0.064063
-0.104010
-0.135131
-0.158064
-0.171165
-0.154381
-0.136001
-0.090300
-0.056451
-0.016677
0.034706
0.068592
0.104262
0.119852
0.121332
0.114693
0.085743
0.057139
0.021857
-0.012374
-0.052931
-0.103994
-0.149452
-0.176503
-0.181595
-0.174223
-0.136960
-0.088434
-0.040428
0.007140
0.034375
0.077412
0.110144
0.140874
0.144739
0.136394
0.103485
0.072078
0.036928
-0.015035
-0.068507
-0.107479
-0.145032
-0.155908
-0.163488
-0.163554
-0.134574
-0.092407
-0.045375
0.013873
0.058541
0.101214
0.136228
0.157375
0.168121
0.153621
0.122772
0.094830
0.053022
0.005128
-0.052736
-0.089475
-0.118513
-0.148702
-0.158849
-0.141926
-0.121430
-0.075657
-0.030637
0.010416
0.055441
0.113227
0.152343
0.178988
0.190031
0.182085
0.160361
0.111468
0.059260
0.026427
-0.020675
-0.066058
-0.094738
-0.109082
-0.112828
-0.115589
-0.092328
-0.057720
-0.011084
0.047124
0.110283
0.160951
0.187368
0.213833
0.210911
0.207175
0.192940
0.147851
0.093008
0.044175
-0.007680
-0.046994
-0.069167
-0.086133
-0.094784
-0.071940
-0.046392
-0.017206
0.033652
0.093017
0.139292
0.172603
0.204993
0.228141
0.234417
0.221331
0.203285
0.167987
0.128740
0.080344
0.035584
-0.020895
-0.052671
-0.078342
-0.081652
-0.062053
-0.037336
0.010047
0.054949
0.088679
0.147160
0.178579
0.206074
0.235187
0.246044
0.243309
0.218847
0.167423
0.125866
0.074181
0.026761
-0.015100
-0.049986
-0.081699
-0.100332
-0.095651
-0.066363
-0.017386
0.033946
0.083902
0.128987
0.160957
0.211162
0.233129
0.232901
0.213937
0.186771
0.149593
0.107586
0.069481
0.018924
-0.027087
-0.058007
-0.083999
-0.100676
-0.094040
-0.071767
-0.043966
0.009794
0.069674
0.116944
0.154126
0.180395
0.190757
0.199042
0.186784
0.164389
0.111669
0.066058
0.015730
-0.030358
-0.059410
-0.098234
-0.131269
-0.142268
-0.131349
-0.104579
-0.079188
-0.042022
0.010385
0.062328
0.102930
0.139182
0.165179
0.173173
0.166233
0.137427
0.101058
0.062807
0.012828
-0.053511
-0.084144
-0.127846
-0.152151
-0.165826
-0.150991
-0.142519
-0.105764
-0.062244
-0.014628
0.031759
0.069195
0.099997
0.127476
0.125054
0.127395
0.105821
0.078285
0.033379
-0.007289
-0.065556
-0.108531
-0.142963
-0.170848
-0.175184
-0.159132
-0.121557
-0.092411
-0.050515
0.000338
0.039984
0.078094
0.106078
0.134004
0.141063
0.125000
0.101389
0.049349
0.005996
-0.044924
-0.082375
-0.102018
-0.136002
-0.171296
-0.178734
-0.177485
-0.157797
-0.116824
-0.082133
-0.020920
0.031084
0.078563
0.105896
0.135911
0.137556
0.128580
0.103014
0.073368
0.015323
-0.018408
-0.075784
-0.111420
-0.145385
-0.169757
-0.183314
-0.175591
-0.142168
-0.108797
-0.065763
-0.009574
0.041918
0.089385
0.110375
0.129058
0.143201
0.116927
0.103375
0.070025
0.025997
-0.019513
-0.060847
-0.099177
-0.136004
-0.152009
-0.161417
-0.155825
-0.132008
-0.088206
-0.049610
0.000242
0.035346
0.080638
0.121753
0.141371
0.154789
0.142723
0.120032
0.071643
0.020134
-0.028155
-0.066683
-0.113906
-0.139034
-0.153049
-0.166456
-0.156048
-0.123583
-0.102629
-0.055562
-0.011069
0.043169
0.080816
0.119130
0.147827
0.164496
0.141695
0.121071
0.077826
0.022502
-0.027347
-0.080940
-0.105907
-0.135361
-0.156684
-0.168633
-0.167467
-0.139755
-0.114850
-0.072288
-0.006236
0.049092
0.094044
0.123063
0.144635
0.152113
0.133404
0.110663
0.059122
0.006884
-0.033465
-0.072456
-0.109110
-0.150185
-0.163997
-0.173134
-0.159208
-0.144374
-0.102849
-0.055305
-0.005672
0.033984
0.078777
0.099267
0.130433
0.135990
0.128717
0.099381
0.059251
0.008909
-0.035986
-0.080711
-0.119048
-0.154615
-0.182244
-0.188341
-0.181839
-0.149383
-0.109100
-0.063134
-0.010095
0.036374
0.069141
0.099393
0.116975
0.118586
0.096062
0.075178
0.047412
0.019453
-0.027969
-0.079109
-0.118654
-0.146125
-0.175072
-0.182682
-0.164680
-0.155642
-0.109755
-0.062329
-0.013486
0.030123
0.067573
0.099273
0.126904
0.119588
0.115424
0.094982
0.049030
0.003974
-0.040853
-0.090347
-0.137578
-0.177308
-0.200571
-0.206868
-0.198649
-0.165055
-0.108506
-0.071919
-0.025632
0.022097
0.046438
0.082892
0.111734
0.120298
0.119870
0.092686
0.052409
-0.000102
-0.056759
-0.093448
-0.139016
-0.157641
-0.181405
-0.185241
-0.172863
-0.156416
-0.113814
-0.073330
-0.031272
0.012368
0.048928
0.087644
0.116338
0.121099
0.110225
0.094238
0.053544
0.001092
-0.040277
-0.076824
-0.109278
-0.151478
-0.164093
-0.172059
-0.162634
-0.137026
-0.090422
-0.052183
0.008843
0.058577
0.101741
0.131687
0.148257
0.146314
0.131159
0.109869
0.080385
0.041925
-0.011541
-0.069333
-0.103899
-0.132707
-0.154782
-0.154589
-0.138549
-0.121357
-0.084802
-0.047438
0.005977
0.055135
0.095501
0.125692
0.153543
0.153590
0.147732
0.131174
0.093917
0.052300
0.007452
-0.045777
-0.078601
-0.106164
-0.128273
-0.143767
-0.122738
-0.106137
-0.069816
-0.029392
0.017306
0.051691
0.093666
0.133460
0.146363
0.149582
0.129679
0.097387
0.069497
0.022285
-0.032220
-0.082733
-0.125397
-0.166025
-0.202032
-0.200870
-0.187404
-0.153319
-0.097691
-0.062543
-0.013116
0.032322
0.063215
0.093207
0.108487
0.128933
0.105231
0.077918
0.026272
-0.012241
-0.057550
-0.103807
-0.147540
-0.183497
-0.201498
-0.200955
-0.206853
-0.190286
-0.148388
-0.100678
-0.038696
0.001260
0.038759
0.071631
0.099059
0.100969
0.087011
0.052008
0.010570
-0.030566
-0.073095
-0.120967
-0.166773
-0.199555
-0.219072
-0.215376
-0.210810
-0.201604
-0.161307
-0.109504
-0.063403
-0.004489
0.041652
0.066259
0.091510
0.085090
0.079494
0.061417
0.020290
-0.016947
-0.070411
-0.115812
-0.159105
-0.195609
-0.221841
-0.224631
-0.213874
-0.174255
-0.148187
-0.106536
-0.064222
-0.007212
0.027969
0.051373
0.082088
0.080790
0.068971
0.044292
0.009161
-0.030762
-0.084283
-0.120401
-0.162195
-0.195405
-0.221768
-0.225441
-0.225859
-0.195978
-0.142728
-0.109903
-0.065592
-0.019502
0.013926
0.036787
0.056867
0.067305
0.054438
0.056210
0.016056
-0.033012
-0.072881
-0.110180
-0.140346
-0.167066
-0.166317
-0.166830
-0.139764
-0.102140
-0.054867
-0.006590
0.065064
0.122669
0.165559
0.233655
0.262734
0.279323
0.292177
0.299667
0.298590
0.290234
0.271259
0.251409
0.231282
0.233575
0.226192
0.245789
0.292271
0.357627
0.442969
0.522619
0.596733
0.668638
0.750939
0.808829
0.847989
0.858360
0.848731
0.815321
0.764957
0.709317
0.642002
0.580976
0.505300
0.401822
0.320888
0.250398
0.218319
0.197451
0.196004
0.199386
0.204008
0.212923
0.225498
0.231877
0.238221
0.228939
0.201854
0.166035
0.129927
0.075092
0.022430
-0.034250
-0.070161
-0.109541
-0.130191
-0.137177
-0.116962
-0.100034
-0.065315
-0.023105
0.017662
0.065153
0.112171
0.139785
0.156394
0.158582
0.141828
0.113244
0.067396
0.013596
-0.027888
-0.086802
-0.122696
-0.159053
-0.176028
-0.182345
-0.169440
-0.150871
-0.115270
-0.077089
-0.015624
0.034224
0.073701
0.090757
0.122168
0.125099
0.115365
0.093016
0.053257
0.007479
-0.033797
-0.069958
-0.121126
-0.163608
-0.188331
-0.199366
-0.191491
-0.172603
-0.120526
-0.073160
-0.011409
0.032020
0.071494
0.100838
0.131467
0.137199
0.123369
0.104127
0.061030
0.020829
-0.031050
-0.072759
-0.112205
-0.143463
-0.173835
-0.174110
-0.165066
-0.146234
-0.110163
-0.058343
-0.021407
0.036659
0.096978
0.124441
0.153512
0.161042
0.164897
0.142296
0.092077
0.047011
-0.004368
-0.056588
-0.100995
-0.136785
-0.161681
-0.170660
-0.148022
-0.123589
-0.087697
-0.044040
0.006140
0.058820
0.104434
0.126941
0.155727
0.166895
0.162389
0.139518
0.089264
0.045917
0.008671
-0.041098
-0.080860
-0.106105
-0.122455
-0.121222
-0.103952
-0.077903
-0.053401
-0.003449
0.056051
0.107471
0.137987
0.165939
0.189767
0.190318
0.194053
0.174239
0.140526
0.101913
0.052239
0.002685
-0.033705
-0.075047
-0.100903
-0.099572
-0.091180
-0.080327
-0.035370
0.017146
0.072097
0.124531
0.168322
0.193661
0.212319
0.208217
0.213643
0.199368
0.147086
0.098883
0.051321
-0.006751
-0.054713
-0.091623
-0.105421
-0.097478
-0.080531
-0.061688
-0.013518
0.020911
0.072930
0.125341
0.184118
0.204376
0.223307
0.223143
0.207392
0.180466
0.149124
0.104440
0.048798
0.000241
-0.047846
-0.080201
-0.106962
-0.112849
-0.091908
-0.071171
-0.022287
0.012394
0.063702
0.108853
0.151671
0.182270
0.204992
0.208125
0.206013
0.183980
0.132614
0.080471
0.035594
-0.009506
-0.053084
-0.100230
-0.126337
-0.129207
-0.114280
-0.097224
-0.059300
-0.016653
0.037537
0.084116
0.121020
0.148161
0.163308
0.158462
0.151439
0.143440
0.094079
0.052318
-0.005534
-0.054009
-0.101321
-0.137314
-0.151793
-0.165870
-0.153653
-0.128379
-0.100388
-0.055017
0.001150
0.043171
0.074430
0.105977
0.132782
0.144764
0.128146
0.106010
0.064063
0.013134
-0.039480
-0.089927
-0.145652
-0.156151
-0.187650
-0.194681
-0.191037
-0.170097
-0.134396
-0.076593
-0.021434
0.019245
0.059794
0.083085
0.104189
0.116060
0.119123
0.112302
0.069551
0.014361
-0.031238
-0.086700
-0.133604
-0.165798
-0.202416
-0.202403
-0.189724
-0.166879
-0.133899
-0.094297
-0.053518
-0.000337
0.042675
0.086328
0.126913
0.117417
0.111844
0.093982
0.055672
0.005635
-0.051812
-0.104990
-0.150366
-0.184517
-0.205505
-0.197123
-0.196915
-0.172593
-0.113746
-0.073724
-0.028418
0.011586
0.059514
0.087841
0.112533
0.118908
0.097931
0.083227
0.037585
-0.005591
-0.040486
-0.095878
-0.138908
-0.172436
-0.203120
-0.207614
-0.187288
-0.168588
-0.116984
-0.070511
-0.028612
0.016631
0.060124
0.093347
0.109176
0.113937
0.111352
0.092923
0.051990
-0.002289
-0.044198
-0.102162
-0.144210
-0.175662
-0.197567
-0.195712
-0.177241
-0.142871
-0.105370
-0.052279
-0.008275
0.036073
0.072005
0.098372
0.124639
0.127725
0.104681
0.089788
0.050560
0.011524
-0.032869
-0.083019
-0.122751
-0.163109
-0.190555
-0.189774
-0.181472
-0.161724
-0.116950
-0.069152
-0.020666
0.034384
0.074461
0.110275
0.134645
0.130822
0.112003
0.094297
0.048954
0.006072
-0.048963
-0.106662
-0.146838
-0.181289
-0.204256
-0.201574
-0.198367
-0.167373
-0.124630
-0.081039
-0.036037
0.007093
0.056898
0.095323
0.113187
0.109006
0.098178
0.071804
0.027518
-0.022753
-0.068155
-0.107607
-0.143528
-0.170703
-0.204268
-0.212203
-0.188475
-0.160893
-0.123008
-0.090134
-0.038489
0.003717
0.042497
0.082402
0.116260
0.118771
0.102456
0.090733
0.046198
-0.012262
-0.055986
-0.106946
-0.146529
-0.189990
-0.219831
-0.219147
-0.206511
-0.187149
-0.140581
-0.096296
-0.036651
0.000099
0.043125
0.081836
0.102583
0.112090
0.101283
0.071046
0.035346
0.001310
-0.053415
-0.094406
-0.135907
-0.167860
-0.203342
-0.197727
-0.189580
-0.182379
-0.148070
-0.098757
-0.054878
-0.017396
0.039002
0.071900
0.092755
0.099808
0.091159
0.073888
0.049645
-0.001289
-0.049729
-0.095499
-0.135070
-0.175107
-0.205560
-0.201560
-0.189276
-0.159136
-0.109964
-0.071196
-0.029542
0.021496
0.074746
0.104777
0.127331
0.141433
0.127145
0.091834
0.056334
0.007244
-0.024593
-0.080355
-0.118113
-0.137591
-0.173930
-0.186185
-0.172520
-0.160578
-0.121035
-0.080418
-0.031656
0.019420
0.078057
0.115394
0.146717
0.155405
0.150693
0.122935
0.091064
0.049665
-0.011364
-0.068215
-0.111908
-0.149812
-0.171410
-0.178041
-0.170624
-0.139394
-0.110218
-0.065185
-0.010614
0.037174
0.083853
0.113170
0.133959
0.138786
0.123466
0.099408
0.058642
0.017845
-0.031430
-0.083896
-0.128929
-0.168244
-0.192115
-0.202925
-0.195035
-0.173693
-0.132518
-0.093638
-0.043644
-0.005563
0.046324
0.085430
0.102667
0.098504
0.079841
0.054877
0.019089
-0.031303
-0.072495
-0.125012
-0.170513
-0.205868
-0.222993
-0.228327
-0.218556
-0.190927
-0.168651
-0.122850
-0.069294
-0.014273
0.026745
0.062383
0.063516
0.063470
0.056602
0.031732
-0.012789
-0.065093
-0.108922
-0.138559
-0.184007
-0.216693
-0.238459
-0.231906
-0.226557
-0.204845
-0.167851
-0.120075
-0.075942
-0.027961
0.018420
0.044010
0.060651
0.062327
0.053895
0.025224
-0.009558
-0.059644
-0.099940
-0.138747
-0.188290
-0.215696
-0.244062
-0.246166
-0.243461
-0.222320
-0.185024
-0.141244
-0.093979
-0.029833
0.016237
0.045756
0.069513
0.080012
0.058300
0.028224
-0.001249
-0.041860
-0.086367
-0.137961
-0.188875
-0.224452
-0.252150
-0.248700
-0.244299
-0.226147
-0.184567
-0.142284
-0.089513
-0.050203
-0.009521
0.026431
0.051166
0.056763
0.048944
0.017173
-0.017130
-0.060234
-0.087498
-0.128195
-0.149901
-0.177315
-0.181699
-0.172954
-0.156136
-0.123310
-0.062698
-0.001336
0.045997
0.104368
0.172433
0.223576
0.259220
0.288482
0.323993
0.332759
0.322544
0.297564
0.281838
0.265195
0.256565
0.235108
0.229191
0.269254
0.312432
0.363579
0.442267
0.526124
0.604110
0.694463
0.774048
0.830166
0.861171
0.871495
0.865972
0.823588
0.768504
0.699344
0.635400
0.554852
0.462413
0.362102
0.284878
0.209460
0.177564
0.148338
0.137430
0.133086
0.146493
0.174283
0.197113
0.215023
0.231138
0.229333
0.218373
0.192099
0.134530
0.083662
0.043352
-0.004329
-0.058791
-0.097174
-0.133460
-0.142461
-0.140484
-0.121651
-0.095804
-0.044509
-0.004001
0.039749
0.074797
0.123280
0.144848
0.160469
0.148749
0.111643
0.066778
0.014871
-0.049007
-0.099758
-0.140455
-0.164974
-0.191868
-0.202462
-0.189726
-0.171574
-0.133930
-0.088514
-0.046913
0.000757
0.050098
0.080857
0.113740
0.117145
0.110049
0.085261
0.051590
-0.012467
-0.049002
-0.092128
-0.140736
-0.171593
-0.199273
-0.217884
-0.215706
-0.195955
-0.146363
-0.091381
-0.041221
0.007733
0.051879
0.086643
0.122024
0.129584
0.116016
0.090821
0.056318
0.012435
-0.025452
-0.083330
-0.123519
-0.158784
-0.181642
-0.188195
-0.180870
-0.157268
-0.114039
-0.070074
-0.019973
0.030255
0.068097
0.102589
0.120208
0.130672
0.121618
0.099797
0.071173
0.017915
-0.027987
-0.077583
-0.119353
-0.147452
-0.175552
-0.166215
-0.159419
-0.133670
-0.081548
-0.044027
-0.003319
0.052622
0.094409
0.123933
0.153349
0.168317
0.158402
0.133349
0.090324
0.048278
-0.001032
-0.049398
-0.093920
-0.119263
-0.146668
-0.143886
-0.131460
-0.114153
-0.089268
-0.040735
-0.002684
0.042771
0.080937
0.135031
0.165081
0.179125
0.191133
0.184585
0.153845
0.097997
0.041287
-0.016832
-0.066459
-0.090866
-0.114322
-0.108998
-0.097917
-0.058825
-0.033090
0.018819
0.062215
0.105063
0.140920
0.156187
0.184304
0.185261
0.182286
0.156724
0.132671
0.088301
0.036173
-0.016247
-0.044435
-0.073310
-0.088312
-0.097816
-0.094054
-0.063831
-0.022338
0.019951
0.053578
0.106094
0.142016
0.175113
0.204059
0.214742
0.183265
0.167490
0.122355
0.080106
0.039016
-0.004511
-0.042334
-0.078305
-0.101218
-0.110504
-0.113583
-0.094075
-0.054340
-0.017075
0.026922
0.066621
0.120930
0.158208
0.175291
0.170345
0.158650
0.157655
0.110997
0.054295
0.005014
-0.033773
-0.058824
-0.098765
-0.123356
-0.140426
-0.138489
-0.113435
-0.084622
-0.049547
-0.000650
0.045837
0.083379
0.120620
0.143257
0.143293
0.127151
0.101638
0.069880
0.028307
-0.015945
-0.057775
-0.101678
-0.127572
-0.148956
-0.162631
-0.157637
-0.132073
-0.096906
-0.066276
-0.026238
0.022425
0.068927
0.106087
0.131265
0.120502
0.103151
0.072429
0.039392
-0.011259
-0.058864
-0.093454
-0.125897
-0.162399
-0.197181
-0.198092
-0.197788
-0.177304
-0.141254
-0.095675
-0.057286
-0.005220
0.039686
0.072638
0.097438
0.099000
0.078859
0.049811
0.014934
-0.007185
-0.058909
-0.104603
-0.141870
-0.181538
-0.212857
-0.221514
-0.201697
-0.165291
-0.131667
-0.099477
-0.057755
-0.011938
0.033010
0.052492
0.079393
0.093938
0.103046
0.079141
0.043749
-0.005342
-0.057615
-0.095339
-0.142278
-0.177930
-0.218429
-0.224201
-0.214287
-0.195007
-0.149375
-0.116329
-0.068435
-0.017837
0.009808
0.034785
0.067176
0.096233
0.092830
0.082589
0.046121
0.001099
-0.035739
-0.084329
-0.130604
-0.163878
-0.198125
-0.189326
-0.180066
-0.161566
-0.137441
-0.096974
-0.044664
-0.002084
0.047155
0.077564
0.108416
0.110718
0.100234
0.081308
0.049175
0.004115
-0.037290
-0.085821
-0.138918
-0.178271
-0.192855
-0.194788
-0.194135
-0.161486
-0.139225
-0.091952
-0.051624
-0.003176
0.027230
0.062497
0.092865
0.108543
0.100795
0.067457
0.030870
-0.013796
-0.049258
-0.078951
-0.129103
-0.168956
-0.183541
-0.203354
-0.189322
-0.167354
-0.125036
-0.081191
-0.045318
-0.003468
0.049561
0.082918
0.098622
0.095694
0.087974
0.070694
0.048182
0.007963
-0.047094
-0.091522
-0.131781
-0.175645
-0.200303
-0.208410
-0.198227
-0.159415
-0.124631
-0.074993
-0.046180
-0.007729
0.037172
0.076679
0.100442
0.097003
0.087222
0.068599
0.031626
-0.004215
-0.054893
-0.093443
-0.133679
-0.174231
-0.206743
-0.210095
-0.207893
-0.179185
-0.143942
-0.099803
-0.048985
-0.006318
0.041943
0.073286
0.106050
0.114764
0.096474
0.058650
0.028876
-0.011976
-0.062003
-0.106587
-0.149627
-0.189767
-0.215664
-0.208711
-0.202787
-0.177073
-0.142280
-0.103368
-0.072117
-0.028191
0.020512
0.066252
0.094221
0.096601
0.093216
0.060561
0.022360
-0.026655
-0.084601
-0.132702
-0.172879
-0.196964
-0.213835
-0.209595
-0.221723
-0.203597
-0.171564
-0.126202
-0.075281
-0.025309
0.034314
0.076169
0.094128
0.101155
0.095301
0.070043
0.037350
-0.014865
-0.058619
-0.109297
-0.161985
-0.177689
-0.204827
-0.202466
-0.204966
-0.182679
-0.140796
-0.089268
-0.037268
-0.001359
0.035622
0.077772
0.108384
0.119998
0.111331
0.090530
0.050174
0.006577
-0.049982
-0.096489
-0.136190
-0.155325
-0.160516
-0.168128
-0.176179
-0.160233
-0.129863
-0.078372
-0.039126
0.005267
0.067988
0.111261
0.138995
0.138754
0.135912
0.110959
0.064245
0.029505
-0.021519
-0.074564
-0.120118
-0.148020
-0.160879
-0.161266
-0.154507
-0.142455
-0.103382
-0.062433
-0.004673
0.036214
0.086885
0.109902
0.129601
0.132750
0.121941
0.100451
0.068201
0.021060
-0.024949
-0.085531
-0.131485
-0.166826
-0.206186
-0.215712
-0.190999
-0.174615
-0.136026
-0.071755
-0.036456
-0.000276
0.035681
0.059070
0.083588
0.097521
0.081820
0.068891
0.036082
-0.002983
-0.061324
-0.110889
-0.155332
-0.197484
-0.223803
-0.234945
-0.225544
-0.206078
-0.162530
-0.117471
-0.073031
-0.028607
0.002592
0.041015
0.059999
0.072294
0.061705
0.045027
0.006055
-0.036339
-0.082054
-0.143165
-0.184841
-0.225376
-0.252472
-0.251211
-0.240902
-0.216974
-0.179531
-0.133185
-0.088502
-0.044829
0.006467
0.039182
0.059929
0.070916
0.059614
0.041178
-0.009162
-0.050450
-0.105893
-0.159196
-0.203122
-0.228012
-0.256722
-0.259775
-0.232632
-0.203651
-0.176734
-0.140176
-0.098419
-0.052666
-0.013705
0.025849
0.050351
0.059120
0.054730
0.033523
0.000625
-0.046893
-0.104788
-0.155304
-0.200962
-0.233401
-0.247074
-0.254058
-0.233679
-0.210445
-0.177617
-0.139343
-0.092725
-0.043981
-0.007448
0.028290
0.056087
0.071871
0.052939
0.022276
-0.006037
-0.062940
-0.111227
-0.151281
-0.198109
-0.235698
-0.262737
-0.263806
-0.245884
-0.230400
-0.188071
-0.129725
-0.071267
-0.015210
0.031851
0.072117
0.102881
0.122675
0.138150
0.134127
0.129633
0.084138
0.040819
0.014743
-0.003020
-0.022314
-0.016321
0.014722
0.060220
0.121395
0.188734
0.263247
0.346522
0.435211
0.511169
0.565900
0.620103
0.662757
0.692864
0.719419
0.705544
0.692874
0.679334
0.664201
0.641930
0.609490
0.569922
0.569908
0.548941
0.553018
0.593283
0.630200
0.648278
0.651994
0.608900
0.581788
0.549271
0.495654
0.425500
0.353668
0.266518
0.190431
0.135669
0.092643
0.024952
-0.013706
-0.045170
-0.063351
-0.059803
-0.045021
-0.034616
0.004669
0.043658
0.077044
0.111617
0.153761
0.163517
0.161943
0.140207
0.116070
0.073187
0.025686
-0.032076
-0.078610
-0.121076
-0.155529
-0.179272
-0.180284
-0.160567
-0.138380
-0.106590
-0.077353
-0.037032
0.018202
0.066128
0.089284
0.110053
0.115033
0.097546
0.063234
0.034952
-0.010684
-0.051726
-0.098882
-0.143027
-0.184862
-0.207180
-0.215679
-0.207636
-0.178952
-0.128700
-0.069765
-0.010820
0.041657
0.081905
0.092673
0.101499
0.097984
0.093729
0.069919
0.033301
-0.014035
-0.054102
-0.107515
-0.142335
-0.183862
-0.199113
-0.199276
-0.199122
-0.171855
-0.130279
-0.083949
-0.031335
0.009749
0.050962
0.093403
0.117367
0.137499
0.119779
0.087568
0.054769
0.005343
-0.036888
-0.079064
-0.120562
-0.146414
-0.165283
-0.176215
-0.170547
-0.149875
-0.108110
-0.048190
0.006348
0.053226
0.098604
0.132074
0.152835
0.153216
0.143229
0.103269
0.069086
0.037616
-0.000164
-0.038169
-0.092769
-0.134774
-0.145314
-0.146062
-0.135370
-0.103229
-0.067593
-0.025137
0.017523
0.071506
0.108445
0.144037
0.175896
0.171391
0.165377
0.138657
0.102192
0.053228
0.019421
-0.021869
-0.060846
-0.094408
-0.117881
-0.117540
-0.113664
-0.081070
-0.043323
-0.005207
0.035829
0.084230
0.136799
0.166462
0.184057
0.193910
0.183087
0.148670
0.125648
0.086891
0.051753
-0.000462
-0.039901
-0.072977
-0.085362
-0.090315
-0.079600
-0.060945
-0.018348
0.030232
0.067951
0.105004
0.138762
0.181475
0.204296
0.202205
0.189955
0.177068
0.146379
0.104728
0.061349
0.007647
-0.033323
-0.076982
-0.102619
-0.090460
-0.076418
-0.054453
-0.029747
0.017233
0.057940
0.101102
0.131856
0.173994
0.206616
0.207919
0.198726
0.148998
0.119669
0.073709
0.031846
-0.014707
-0.051502
-0.081449
-0.101177
-0.113832
-0.106413
-0.083833
-0.052921
-0.014384
0.034367
0.070094
0.112636
0.138101
0.160919
0.165575
0.157758
0.132195
0.097583
0.052830
0.012791
-0.035662
-0.085167
-0.121509
-0.140732
-0.143834
-0.145512
-0.127326
-0.096720
-0.050971
-0.007151
0.029768
0.068877
0.105925
0.119201
0.121321
0.119245
0.103729
0.061342
0.017070
-0.031317
-0.082769
-0.115091
-0.146189
-0.169608
-0.164650
-0.166539
-0.144072
-0.118537
-0.079342
-0.033341
0.006753
0.049272
0.086122
0.106483
0.116325
0.095308
0.058596
0.026161
-0.009556
-0.058418
-0.106462
-0.126351
-0.166382
-0.186475
-0.193036
-0.185581
-0.159394
-0.125435
-0.100007
-0.048923
-0.003283
0.027876
0.068937
0.092210
0.112336
0.100905
0.067342
0.040295
-0.001147
-0.049704
-0.089048
-0.135190
-0.171201
-0.197165
-0.206790
-0.200491
-0.170711
-0.125773
-0.089199
-0.037071
0.001439
0.036012
0.062655
0.086463
0.105816
0.111637
0.073508
0.047361
-0.000832
-0.045460
-0.080387
-0.120328
-0.159414
-0.185971
-0.190988
-0.187548
-0.168433
-0.122844
-0.084315
-0.031621
0.007080
0.032873
0.072265
0.103491
0.105737
0.103641
0.075182
0.037359
-0.009834
-0.049822
-0.092689
-0.126292
-0.154378
-0.171733
-0.180518
-0.183065
-0.161424
-0.128810
-0.092903
-0.048084
0.007498
0.044236
0.090449
0.112374
0.124085
0.104151
0.086813
0.056748
0.023108
-0.019367
-0.066301
-0.111055
-0.150133
-0.183477
-0.184720
-0.169380
-0.153204
-0.118848
-0.074974
-0.029546
0.008289
0.058021
0.087775
0.114906
0.122387
0.109258
0.077517
0.051491
0.020361
-0.010887
-0.063640
-0.107571
-0.144917
-0.182906
-0.194719
-0.193754
-0.163259
-0.133185
-0.082240
-0.041791
0.003253
0.047884
0.078003
0.098265
0.105935
0.098699
0.078521
0.045983
0.010855
-0.040820
-0.094483
-0.140339
-0.159520
-0.201840
-0.196582
-0.195970
-0.180575
-0.145812
-0.098580
-0.042047
0.009863
0.059504
0.092181
0.117081
0.113929
0.104010
0.079282
0.042743
-0.003219
-0.044098
-0.082104
-0.131532
-0.174818
-0.190297
-0.199755
-0.182216
-0.165245
-0.139260
-0.098316
-0.063583
-0.021041
0.034221
0.077366
0.102074
0.115805
0.112122
0.075329
0.046693
0.009141
-0.042840
-0.078736
-0.133436
-0.156825
-0.176324
-0.199429
-0.190853
-0.171305
-0.147929
-0.101087
-0.057323
-0.015644
0.025820
0.072983
0.088489
0.083223
0.082266
0.063820
0.018366
-0.007489
-0.040327
-0.106123
-0.142083
-0.178174
-0.198069
-0.206022
-0.196459
-0.159281
-0.114248
-0.064773
-0.027697
0.016501
0.050852
0.087109
0.122561
0.135362
0.132300
0.096300
0.060199
0.024988
-0.015818
-0.060140
-0.096836
-0.139659
-0.152182
-0.160321
-0.160847
-0.145317
-0.109398
-0.059121
-0.023318
0.017703
0.064276
0.105441
0.127342
0.133081
0.126614
0.113017
0.079568
0.032133
-0.011225
-0.059054
-0.099130
-0.135618
-0.146553
-0.156765
-0.153071
-0.123928
-0.095701
-0.064419
-0.003457
0.053621
0.095255
0.118675
0.144428
0.147941
0.134192
0.100660
0.051216
0.006909
-0.036764
-0.088800
-0.141664
-0.183394
-0.191442
-0.200075
-0.192437
-0.172462
-0.134044
-0.075538
-0.028839
0.009528
0.044225
0.082589
0.106308
0.130277
0.137199
0.097710
0.065970
0.017610
-0.045422
-0.103076
-0.150370
-0.190990
-0.211725
-0.216623
-0.214912
-0.197594
-0.165415
-0.131974
-0.090513
-0.039215
0.007633
0.054161
0.072662
0.076291
0.079286
0.058234
0.020191
-0.032408
-0.075833
-0.126750
-0.176471
-0.211840
-0.226721
-0.246222
-0.243575
-0.203592
-0.170477
-0.142121
-0.095442
-0.051892
-0.010832
0.035081
0.049599
0.050382
0.065358
0.034044
0.009583
-0.038779
-0.068068
-0.118167
-0.175093
-0.214114
-0.245633
-0.251236
-0.235757
-0.211880
-0.174445
-0.137889
-0.079827
-0.038206
0.013380
0.055750
0.061981
0.062356
0.060408
0.035643
-0.003229
-0.047064
-0.089739
-0.136426
-0.173588
-0.207819
-0.221653
-0.244932
-0.240894
-0.209129
-0.161127
-0.109979
-0.057435
-0.013535
0.020084
0.045618
0.072739
0.079917
0.069420
0.034722
-0.008400
-0.054136
-0.112079
-0.151486
-0.190003
-0.222575
-0.242516
-0.239950
-0.232731
-0.205216
-0.176251
-0.119650
-0.062630
0.000410
0.066201
0.116474
0.140984
0.155831
0.167325
0.152803
0.133099
0.108878
0.090040
0.073002
0.049664
0.039962
0.049946
0.069778
0.113499
0.176694
0.242771
0.316695
0.390653
0.476205
0.540686
0.605428
0.667960
0.746663
0.766004
0.766920
0.755490
0.749869
0.725871
0.690059
0.637882
0.593010
0.561302
0.524158
0.516347
0.538277
0.564592
0.568371
0.558954
0.534095
0.519974
0.490381
0.459579
0.419488
0.358847
0.317627
0.260202
0.203195
0.141919
0.092566
0.037233
-0.020422
-0.062936
-0.087609
-0.102929
-0.075338
-0.055612
-0.015115
0.033518
0.086295
0.123456
0.150354
0.168384
0.173147
0.166737
0.139213
0.100444
0.051479
0.005503
-0.049425
-0.101734
-0.141965
-0.166195
-0.179356
-0.174284
-0.146233
-0.118700
-0.089268
-0.043061
0.005192
0.064051
0.110644
0.122684
0.134021
0.131032
0.089084
0.049265
0.002429
-0.043851
-0.105411
-0.155388
-0.189013
-0.200075
-0.200116
-0.190870
-0.165286
-0.120822
-0.080053
-0.032245
0.011195
0.051835
0.092575
0.104707
0.115686
0.104192
0.071447
0.039389
-0.002860
-0.048090
-0.101661
-0.144027
-0.170276
-0.175478
-0.183061
-0.171899
-0.129440
-0.095363
-0.050376
-0.001946
0.034844
0.086324
0.117601
0.138877
0.128198
0.122656
0.092679
0.051087
0.007412
-0.045212
-0.088912
-0.121618
-0.157003
-0.162150
-0.150757
-0.136392
-0.122921
-0.084516
-0.037691
0.000690
0.050343
0.099354
0.131710
0.144313
0.155028
0.160323
0.130769
0.092454
0.040885
0.000832
-0.037237
-0.080602
-0.117614
-0.124721
-0.135877
-0.128527
-0.098044
-0.062626
-0.014925
0.029864
0.074955
0.114804
0.151472
0.155072
0.160370
0.160462
0.141393
0.116734
0.077461
0.026962
-0.023660
-0.064212
-0.095893
-0.107550
-0.124580
-0.110035
-0.080138
-0.035232
0.012011
0.066463
0.105543
0.147721
0.181143
0.205954
0.215587
0.214412
0.178037
0.159515
0.113404
0.058168
0.007860
-0.033338
-0.077766
-0.107851
-0.101875
-0.096423
-0.066687
-0.024188
0.029241
0.080981
0.126775
0.168670
0.204050
0.212422
0.219090
0.209775
0.186543
0.164741
0.118468
0.066268
-0.003482
-0.042821
-0.071434
-0.089685
-0.100063
-0.088434
-0.056959
-0.016341
0.013995
0.064002
0.106176
0.139522
0.177481
0.198024
0.204887
0.206673
0.169153
0.129601
0.085087
0.038153
-0.014655
-0.055627
-0.087164
-0.103697
-0.108818
-0.095555
-0.079812
-0.051090
-0.020293
0.036759
0.081326
0.109677
0.142020
0.173582
0.180106
0.148224
0.124629
0.090604
0.050776
0.015936
-0.039365
-0.086381
-0.135230
-0.155763
-0.165039
-0.152995
-0.123236
-0.088476
-0.044315
-0.002313
0.037207
0.080885
0.120509
0.137228
0.125499
0.124113
0.092459
0.060372
0.007115
-0.025857
-0.074090
-0.135249
-0.169591
-0.193593
-0.193044
-0.179824
-0.144549
-0.110041
-0.062947
-0.027324
0.015437
0.058073
0.089449
0.102576
0.105408
0.094030
0.063691
0.036590
0.001272
-0.054011
-0.098254
-0.136835
-0.173921
-0.191845
-0.197337
-0.200637
-0.172637
-0.129749
-0.087367
-0.039540
0.008742
0.051047
0.083428
0.103559
0.100977
0.099979
0.079084
0.038539
-0.013578
-0.066738
-0.103571
-0.136568
-0.175334
-0.190416
-0.191593
-0.190523
-0.160700
-0.128482
-0.079590
-0.031413
0.004690
0.044107
0.082214
0.093136
0.104005
0.094495
0.059235
0.037975
0.011995
-0.017282
-0.072917
-0.117811
-0.174493
-0.192454
-0.194128
-0.192753
-0.161602
-0.124437
-0.083188
-0.042414
0.004707
0.042584
0.072644
0.101136
0.119918
0.125713
0.094918
0.050590
-0.000904
-0.046343
-0.087431
-0.124223
-0.161530
-0.175387
-0.187427
-0.181328
-0.154824
-0.124117
-0.082557
-0.037379
0.016192
0.055460
0.083826
0.092586
0.100958
0.109409
0.090208
0.055094
0.004626
-0.033758
-0.065666
-0.130567
-0.166529
-0.190691
-0.184945
-0.162116
-0.142700
-0.108341
-0.074887
-0.028802
0.021765
0.053284
0.096812
0.117841
0.117508
0.095188
0.069905
0.035588
0.003380
-0.039623
-0.074874
-0.116613
-0.142045
-0.167490
-0.182825
-0.177185
-0.157144
-0.133820
-0.087292
-0.030972
0.019099
0.059136
0.096938
0.110108
0.122694
0.112608
0.083527
0.055039
0.017962
-0.030526
-0.083711
-0.125731
-0.145208
-0.150301
-0.172870
-0.186276
-0.164964
-0.135990
-0.087698
-0.041171
0.004511
0.027990
0.076191
0.102513
0.116827
0.113692
0.091486
0.058258
0.006946
-0.049962
-0.099580
-0.132339
-0.175814
-0.189253
-0.197576
-0.188426
-0.159569
-0.129504
-0.101393
-0.055746
-0.007083
0.039202
0.067357
0.092168
0.100436
0.091407
0.071948
0.037932
-0.003273
-0.040416
-0.091378
-0.129264
-0.174603
-0.186066
-0.190200
-0.194126
-0.160472
-0.134253
-0.110399
-0.051967
-0.009862
0.030670
0.069323
0.085913
0.083848
0.079174
0.055127
0.020234
-0.012774
-0.048407
-0.086970
-0.141731
-0.168650
-0.200671
-0.210367
-0.212161
-0.184064
-0.153778
-0.108829
-0.057088
-0.006917
0.042710
0.095695
0.106508
0.098111
0.097404
0.075779
0.044049
-0.006424
-0.058001
-0.105258
-0.148421
-0.164846
-0.198647
-0.210406
-0.211785
-0.183909
-0.144777
-0.100318
-0.067244
-0.009689
0.028223
0.081794
0.101058
0.117723
0.111677
0.074916
0.051851
0.012987
-0.031966
-0.083965
-0.115150
-0.145372
-0.177910
-0.172493
-0.178161
-0.142975
-0.096439
-0.049934
0.003402
0.046876
0.081685
0.116329
0.139845
0.134221
0.122099
0.087663
0.051583
0.002978
-0.052238
-0.097206
-0.132396
-0.165551
-0.166503
-0.175365
-0.158619
-0.135265
-0.106778
-0.050992
0.004369
0.061358
0.091887
0.125706
0.137747
0.141469
0.153746
0.144322
0.106680
0.069086
0.006807
-0.047411
-0.108223
-0.152428
-0.178154
-0.170058
-0.169436
-0.147823
-0.119379
-0.083766
-0.044225
0.007256
0.052818
0.090921
0.105767
0.112115
0.105060
0.065227
0.022036
-0.021124
-0.054046
-0.104057
-0.151366
-0.183915
-0.194491
-0.216389
-0.217162
-0.189714
-0.154772
-0.111687
-0.070959
-0.031688
0.007322
0.046035
0.074811
0.091386
0.093609
0.064113
0.029570
-0.013037
-0.078082
-0.125683
-0.162534
-0.210313
-0.224423
-0.232381
-0.240752
-0.211345
-0.175862
-0.137054
-0.084549
-0.035377
0.016187
0.045481
0.068654
0.076843
0.078305
0.046088
0.010445
-0.035714
-0.090284
-0.138137
-0.175137
-0.215925
-0.229635
-0.221384
-0.227040
-0.203948
-0.170326
-0.120312
-0.070952
-0.025722
0.014205
0.047060
0.062192
0.075607
0.063128
0.041395
0.004014
-0.043579
-0.089378
-0.141300
-0.185167
-0.219844
-0.236282
-0.244967
-0.231624
-0.202865
-0.176925
-0.130333
-0.069155
-0.020470
0.013067
0.047004
0.066157
0.065990
0.060820
0.040450
0.004562
-0.047027
-0.097808
-0.131966
-0.187777
-0.236673
-0.227463
-0.240068
-0.235709
-0.215862
-0.184468
-0.141529
-0.082819
-0.029490
0.017556
0.072808
0.099647
0.106579
0.093818
0.072125
0.047873
0.025039
-0.018483
-0.038941
-0.057058
-0.081331
-0.097585
-0.082098
-0.047827
-0.010062
0.047903
0.117955
0.192377
0.273819
0.343534
0.416379
0.469803
0.497314
0.533902
0.549149
0.537614
0.529495
0.518197
0.514901
0.512618
0.507440
0.524650
0.538324
0.574321
0.600733
0.628731
0.676395
0.717305
0.744232
0.759227
0.768652
0.780748
0.742647
0.655400
0.580537
0.480844
0.382780
0.285699
0.190015
0.102422
0.039338
0.000316
-0.021177
-0.027899
0.005335
0.028945
0.058981
0.099090
0.126769
0.154140
0.186288
0.205657
0.183365
0.172056
0.144932
0.109120
0.059652
0.015683
-0.028910
-0.072971
-0.114039
-0.138364
-0.143500
-0.145981
-0.127789
-0.098873
-0.061190
0.006832
0.053229
0.079079
0.119715
0.135044
0.127813
0.129597
0.095631
0.060701
0.014861
-0.037228
-0.079211
-0.134861
-0.173790
-0.187093
-0.205654
-0.210379
-0.182806
-0.138047
-0.099226
-0.031991
0.030872
0.074693
0.099422
0.121521
0.124900
0.112439
0.083971
0.052285
0.010710
-0.043404
-0.084938
-0.135130
-0.169539
-0.186367
-0.182931
-0.183144
-0.149825
-0.111857
-0.074439
-0.035310
0.022126
0.069209
0.109369
0.115963
0.119384
0.108871
0.093469
0.046107
0.016806
-0.022169
-0.064230
-0.096491
-0.138936
-0.160346
-0.161552
-0.144774
-0.138816
-0.104281
-0.047555
0.003082
0.058948
0.088864
0.127221
0.147058
0.145131
0.140191
0.118960
0.080029
0.041448
0.010665
-0.042313
-0.086669
-0.129492
-0.142565
-0.151803
-0.143196
-0.089498
-0.061598
-0.023940
0.023798
0.072642
0.111792
0.161462
0.176705
0.190611
0.184482
0.157421
0.121274
0.067397
0.018864
-0.034579
-0.080559
-0.108501
-0.120940
-0.139405
-0.136662
-0.098171
-0.073229
-0.017097
0.035976
0.100534
0.152956
0.189494
0.207163
0.212879
0.198371
0.191378
0.144537
0.103162
0.047006
0.002411
-0.039209
-0.067322
-0.089767
-0.091434
-0.093379
-0.061554
-0.034015
0.019887
0.070555
0.138679
0.184064
0.218288
0.233389
0.234866
0.208465
0.182254
0.141327
0.095372
0.055371
-0.007712
-0.038359
-0.068747
-0.089472
-0.075123
-0.068060
-0.045823
-0.012996
0.023120
0.072842
0.117984
0.166309
0.190720
0.207077
0.211067
0.196841
0.167485
0.122811
0.087434
0.033088
-0.008627
-0.051857
-0.096850
-0.107602
-0.106883
-0.087820
-0.069092
-0.038814
0.016995
0.060738
0.104011
0.138785
0.185872
0.193665
0.203098
0.170876
0.154567
0.111641
0.066920
0.024376
-0.028586
-0.076809
-0.111699
-0.129655
-0.151713
-0.157053
-0.111268
-0.078552
-0.024265
0.012719
0.067309
0.101683
0.129133
0.146221
0.146480
0.142346
0.116400
0.070297
0.019243
-0.032707
-0.076585
-0.106557
-0.147084
-0.153312
-0.172905
-0.165667
-0.146765
-0.109537
-0.068695
-0.006940
0.034284
0.069056
0.094610
0.118576
0.118344
0.108502
0.082778
0.044740
0.017807
-0.035933
-0.090239
-0.133358
-0.168664
-0.177336
-0.192251
-0.185604
-0.171395
-0.146189
-0.095218
-0.038645
0.025466
0.069762
0.100975
0.110532
0.114494
0.095822
0.068859
0.037185
0.007770
-0.038503
-0.093909
-0.137427
-0.172672
-0.194127
-0.195067
-0.174387
-0.151720
-0.121223
-0.087478
-0.034431
0.010831
0.050892
0.090908
0.116093
0.107983
0.095010
0.064957
0.022659
-0.022449
-0.059192
-0.116766
-0.140524
-0.163721
-0.183195
-0.193719
-0.181816
-0.150921
-0.113001
-0.072839
-0.035752
0.023138
0.055476
0.088347
0.106642
0.118058
0.106223
0.093964
0.049164
0.014585
-0.036321
-0.070450
-0.120214
-0.172399
-0.185572
-0.187296
-0.185949
-0.156854
-0.119761
-0.070347
-0.022880
0.018432
0.060317
0.090486
0.110294
0.102722
0.099213
0.079560
0.048239
0.006396
-0.030589
-0.077275
-0.117884
-0.159985
-0.189619
-0.188532
-0.172623
-0.139803
-0.103889
-0.069189
-0.015406
0.031337
0.064360
0.094311
0.119477
0.114774
0.099547
0.074341
0.053480
0.017945
-0.026514
-0.080770
-0.114951
-0.161236
-0.173710
-0.164091
-0.155359
-0.137911
-0.102436
-0.072425
-0.034598
0.031524
0.066930
0.108212
0.118883
0.130127
0.124972
0.101379
0.055082
0.014067
-0.025171
-0.077194
-0.116186
-0.151532
-0.176384
-0.182096
-0.161629
-0.140455
-0.096108
-0.060420
-0.032869
0.000927
0.039296
0.076144
0.095755
0.116958
0.117015
0.093632
0.054768
0.004304
-0.051074
-0.086238
-0.119868
-0.148514
-0.171249
-0.189722
-0.180330
-0.155193
-0.135409
-0.099869
-0.036323
0.010659
0.043547
0.074136
0.107017
0.115409
0.098142
0.063939
0.032739
-0.012214
-0.063224
-0.101998
-0.133665
-0.170898
-0.197162
-0.196365
-0.184330
-0.151587
-0.125837
-0.093494
-0.047514
-0.002512
0.039040
0.070440
0.089532
0.098698
0.084620
0.065770
0.028226
-0.017655
-0.066395
-0.113696
-0.136892
-0.182886
-0.187730
-0.203109
-0.189591
-0.154570
-0.122744
-0.085029
-0.029815
0.001653
0.043582
0.073630
0.085169
0.092718
0.090299
0.083847
0.043547
-0.002486
-0.041890
-0.086490
-0.127610
-0.168246
-0.189133
-0.204357
-0.192697
-0.160809
-0.124615
-0.081477
-0.046504
-0.002839
0.034966
0.084074
0.082174
0.094669
0.086921
0.066250
0.029714
-0.013827
-0.047419
-0.093172
-0.135994
-0.174283
-0.187398
-0.200572
-0.209008
-0.174270
-0.146628
-0.115789
-0.060343
-0.000326
0.035720
0.081811
0.098901
0.085559
0.087553
0.078449
0.034566
-0.015579
-0.061283
-0.105834
-0.137516
-0.175353
-0.179693
-0.193940
-0.192924
-0.173382
-0.127636
-0.095301
-0.052280
-0.022462
0.028589
0.059124
0.074648
0.084519
0.070873
0.052574
0.022489
-0.020246
-0.067993
-0.106083
-0.141104
-0.169677
-0.173009
-0.166462
-0.163901
-0.160963
-0.129081
-0.092754
-0.037990
0.016638
0.055841
0.105274
0.118679
0.124365
0.116536
0.083127
0.049275
0.009854
-0.054727
-0.112345
-0.126443
-0.142785
-0.146274
-0.161760
-0.148429
-0.117677
-0.077990
-0.038174
0.009044
0.033560
0.055454
0.100540
0.117715
0.132418
0.122384
0.105505
0.065363
0.032939
-0.010241
-0.054771
-0.092428
-0.117763
-0.145927
-0.139823
-0.130844
-0.104360
-0.070184
-0.030247
0.011272
0.063389
0.093217
0.131756
0.142283
0.139594
0.129203
0.111490
0.076594
0.026328
-0.016110
-0.064538
-0.106525
-0.159274
-0.186203
-0.183499
-0.184334
-0.158941
-0.119507
-0.075907
-0.031179
0.009414
0.050303
0.075489
0.097913
0.095472
0.094912
0.081606
0.047036
-0.012392
-0.067302
-0.108128
-0.151863
-0.190238
-0.194934
-0.208928
-0.187208
-0.168387
-0.138847
-0.101831
-0.053640
-0.012826
0.019201
0.061316
0.068400
0.079430
0.070958
0.064231
0.025879
-0.021607
-0.074442
-0.116849
-0.158556
-0.198513
-0.223905
-0.223230
-0.220317
-0.201561
-0.160484
-0.127566
-0.090285
-0.025252
0.012361
0.047806
0.068186
0.082248
0.078022
0.054698
0.020287
-0.024076
-0.073650
-0.117509
-0.169670
-0.190113
-0.201011
-0.204939
-0.193612
-0.190063
-0.149445
-0.111895
-0.067655
-0.023674
0.019025
0.055775
0.078899
0.085133
0.069136
0.044699
0.006512
-0.039628
-0.068307
-0.108995
-0.152768
-0.194478
-0.221367
-0.229027
-0.209292
-0.189529
-0.148138
-0.110990
-0.067099
-0.025379
0.020681
0.062323
0.067211
0.082587
0.073864
0.058101
0.019477
-0.032689
-0.083462
-0.143204
-0.186506
-0.222780
-0.238416
-0.246229
-0.225542
-0.203797
-0.148236
-0.082881
-0.018663
0.031912
0.084317
0.137100
0.179737
0.198091
0.196531
0.176881
0.164421
0.157338
0.134010
0.112083
0.094204
0.077142
0.076419
0.114422
0.147712
0.199346
0.273062
0.338071
0.409720
0.486825
0.573543
0.638511
0.699592
0.761585
0.785573
0.814913
0.805296
0.783810
0.734259
0.692030
0.644862
0.594805
0.564093
0.539368
0.517153
0.520442
0.511638
0.487721
0.474641
0.466606
0.449992
0.447405
0.414882
0.377543
0.323849
0.294466
0.234625
0.174282
0.116330
0.080597
0.012030
-0.040816
-0.073061
-0.093170
-0.088305
-0.087719
-0.062893
-0.019730
0.038413
0.078594
0.119133
0.155479
0.171915
0.171988
0.149090
0.133217
0.102494
0.071778
0.023203
-0.033681
-0.079822
-0.125512
-0.138253
-0.154169
-0.150772
-0.134422
-0.099328
-0.059870
-0.020137
0.018910
0.065770
0.096179
0.107446
0.117157
0.113607
0.113532
0.072904
0.038864
-0.020968
-0.063484
-0.117530
-0.170545
-0.179456
-0.168857
-0.163503
-0.139325
-0.116548
-0.081598
-0.024465
0.018912
0.058635
0.102229
0.130778
0.138150
0.140511
0.113906
0.070501
0.027132
-0.023825
-0.062761
-0.098237
-0.161997
-0.170923
-0.169389
-0.166111
-0.138672
-0.104001
-0.060696
-0.006017
0.038411
0.079717
0.120662
0.146390
0.153560
0.149043
0.112034
0.080482
0.029932
-0.008105
-0.048282
-0.094164
-0.126782
-0.143128
-0.144386
-0.134076
-0.106073
-0.074113
-0.026088
0.024983
0.074348
0.107291
0.146049
0.172528
0.177826
0.168132
0.148365
0.104859
0.049844
0.000646
-0.034977
-0.073967
-0.094469
-0.110454
-0.124391
-0.115137
-0.094996
-0.052894
-0.001632
0.042233
0.088093
0.130774
0.167166
0.184551
0.191880
0.183710
0.166163
0.128552
0.090541
0.059764
0.005711
-0.030726
-0.075333
-0.097233
-0.097868
-0.080137
-0.051842
-0.008269
0.033314
0.082387
0.127128
0.171234
0.207534
0.216995
0.236407
0.222907
0.198728
0.160210
0.119674
0.078658
0.022815
-0.019932
-0.049129
-0.069590
-0.071730
-0.066549
-0.042405
-0.011946
0.033506
0.080734
0.127622
0.177040
0.205607
0.230260
0.231190
0.226257
0.194599
0.152906
0.107797
0.067121
0.016653
-0.021023
-0.064685
-0.086225
-0.082863
-0.072722
-0.051882
-0.023974
0.042641
0.106834
0.144963
0.184753
0.231743
0.244161
0.230052
0.210519
0.189746
0.155279
0.102544
0.054479
0.016723
-0.029066
-0.078484
-0.103649
-0.110249
-0.105756
-0.080417
-0.039601
0.002035
0.060104
0.114110
0.153214
0.183200
0.199663
0.201775
0.194402
0.167407
0.124394
0.084586
0.037599
-0.004890
-0.038959
-0.078014
-0.109961
-0.129984
-0.131796
-0.113619
-0.075434
-0.037617
0.016174
0.059665
0.091222
0.128902
0.148956
0.150727
0.136594
0.116489
0.074545
0.021072
-0.019297
-0.049270
-0.088937
-0.133490
-0.154845
-0.159861
-0.145608
-0.133543
-0.098037
-0.058651
-0.025566
0.021760
0.058868
0.105205
0.130567
0.141352
0.136018
0.128147
0.076622
0.032489
-0.016152
-0.067471
-0.128896
-0.153914
-0.183991
-0.191942
-0.192123
-0.156812
-0.108948
-0.074776
-0.029487
0.020019
0.068091
0.101191
0.128765
0.125904
0.115169
0.088488
0.043625
-0.001350
-0.033361
-0.081329
-0.114270
-0.139385
-0.163756
-0.164028
-0.157076
-0.135946
-0.108512
-0.065238
-0.022351
0.009639
0.068266
0.121510
0.129565
0.144988
0.133290
0.106554
0.066735
0.018983
-0.032450
-0.080545
-0.127429
-0.153786
-0.166982
-0.169181
-0.162549
-0.141008
-0.110079
-0.058523
-0.011951
0.040074
0.085783
0.111070
0.124839
0.125718
0.134921
0.112520
0.070573
0.021351
-0.023046
-0.069089
-0.103121
-0.151666
-0.160364
-0.169401
-0.169848
-0.150536
-0.108615
-0.059729
-0.008596
0.058046
0.101239
0.116070
0.127981
0.133098
0.115847
0.101602
0.066156
0.031820
-0.009888
-0.043430
-0.088010
-0.124641
-0.152897
-0.159512
-0.164453
-0.134498
-0.084816
-0.050200
0.003665
0.050475
0.085290
0.117780
0.123954
0.129197
0.119826
0.104425
0.068882
0.041830
-0.007252
-0.043617
-0.094340
-0.129333
-0.143556
-0.161976
-0.157320
-0.120215
-0.078535
-0.039864
0.003157
0.045451
0.081514
0.109304
0.133494
0.142352
0.135165
0.100453
0.061086
0.026450
-0.014959
-0.055237
-0.099577
-0.141283
-0.146836
-0.175560
-0.162751
-0.131316
-0.105491
-0.064368
-0.014452
0.050683
0.090503
0.122336
0.138525
0.142183
0.137496
0.111915
0.069341
0.024571
-0.030576
-0.071359
-0.116297
-0.146305
-0.170332
-0.183774
-0.156890
-0.126099
-0.095175
-0.055224
-0.015555
0.030565
0.067323
0.102155
0.118173
0.124209
0.111448
0.091649
0.053135
0.007210
-0.039889
-0.085790
-0.140565
-0.171547
-0.177209
-0.170233
-0.158600
-0.128320
-0.100979
-0.067157
-0.026866
0.019516
0.073278
0.119449
0.141646
0.130247
0.106651
0.075626
0.051869
0.011395
-0.028151
-0.083403
-0.120516
-0.147309
-0.172334
-0.178589
-0.166956
-0.142410
-0.104351
-0.070452
-0.030038
0.018462
0.064430
0.095202
0.116334
0.122641
0.094788
0.083977
0.041601
0.004948
-0.045048
-0.097213
-0.143973
-0.179309
-0.196654
-0.195179
-0.174217
-0.141199
-0.103378
-0.070116
-0.032531
0.021049
0.066726
0.108208
0.127530
0.120191
0.108772
0.086513
0.046445
0.007694
-0.023060
-0.065742
-0.118501
-0.150386
-0.178831
-0.196091
-0.182743
-0.148227
-0.106359
-0.068112
-0.021839
0.024340
0.056575
0.091614
0.109828
0.118192
0.105878
0.080550
0.039840
-0.005248
-0.050041
-0.084187
-0.126871
-0.154440
-0.161049
-0.173297
-0.173327
-0.151728
-0.101064
-0.058719
-0.010921
0.032987
0.063745
0.097035
0.108541
0.126761
0.112808
0.103825
0.068829
0.029266
-0.015844
-0.067218
-0.114044
-0.143883
-0.152320
-0.162038
-0.135969
-0.105132
-0.058613
-0.025868
0.011552
0.042616
0.087967
0.120465
0.134713
0.146703
0.130426
0.117085
0.079579
0.037045
-0.001902
-0.040786
-0.090795
-0.132433
-0.148067
-0.149682
-0.130115
-0.110102
-0.074809
-0.035779
0.012429
0.062534
0.114915
0.147395
0.152387
0.156852
0.161061
0.155283
0.123418
0.097145
0.040991
-0.022978
-0.057310
-0.108409
-0.133149
-0.140915
-0.138155
-0.132165
-0.103682
-0.053100
-0.007413
0.031296
0.071186
0.108599
0.142625
0.140993
0.123569
0.103869
0.075643
0.018097
-0.041493
-0.090602
-0.134163
-0.151251
-0.177098
-0.182549
-0.170522
-0.150288
-0.106125
-0.069505
-0.019841
0.012846
0.044416
0.080611
0.095569
0.111980
0.109185
0.076122
0.040353
-0.009194
-0.051298
-0.087735
-0.141674
-0.174537
-0.205697
-0.217995
-0.207802
-0.185669
-0.147351
-0.090217
-0.042200
-0.015371
0.038526
0.060849
0.077597
0.093675
0.092451
0.067137
0.026728
-0.018141
-0.065408
-0.102196
-0.141189
-0.168621
-0.187437
-0.197257
-0.198905
-0.176888
-0.134869
-0.092161
-0.042683
0.003837
0.039953
0.067224
0.086547
0.095095
0.089598
0.075017
0.034123
-0.011197
-0.060378
-0.106164
-0.152286
-0.184809
-0.207005
-0.209791
-0.197180
-0.168596
-0.142175
-0.103142
-0.043633
0.010087
0.032306
0.062328
0.084279
0.085679
0.081846
0.060763
0.024123
-0.007811
-0.045391
-0.092589
-0.136472
-0.178308
-0.205717
-0.212628
-0.211105
-0.193283
-0.151103
-0.104091
-0.050798
0.000214
0.035032
0.083861
0.097740
0.123106
0.141376
0.118155
0.102914
0.073648
0.031698
-0.010350
-0.026939
-0.061135
-0.067185
-0.052963
-0.006988
0.032019
0.083255
0.141056
0.217210
0.304989
0.371444
0.432397
0.480284
0.528976
0.547209
0.554196
0.539469
0.520180
0.500869
0.492357
0.485455
0.481042
0.512915
0.536543
0.578142
0.601303
0.627362
0.676171
0.716137
0.742313
0.770277
0.778670
0.753117
0.723899
0.662036
0.580863
0.481312
0.386788
0.300959
0.208418
0.116474
0.048993
-0.001036
-0.035276
-0.039958
-0.015781
0.011917
0.046170
0.086375
0.109469
0.156630
0.182792
0.204324
0.202899
0.202731
0.171227
0.127550
0.078505
0.027972
-0.019722
-0.056407
-0.097657
-0.128889
-0.150015
-0.127839
-0.097330
-0.057982
-0.029438
0.020621
0.069600
0.115495
0.151250
0.170230
0.166435
0.161204
0.143917
0.086579
0.038366
-0.001893
-0.052446
-0.100079
-0.130567
-0.148302
-0.154353
-0.140552
-0.127822
-0.093895
-0.053233
-0.004495
0.038581
0.084946
0.124838
0.149711
0.156127
0.146092
0.121067
0.086611
0.030350
-0.006404
-0.065420
-0.099940
-0.131248
-0.144404
-0.154458
-0.146077
-0.137545
-0.094139
-0.040489
0.001089
0.055571
0.091699
0.127636
0.144079
0.167276
0.161839
0.138910
0.094042
0.048335
-0.005426
-0.042364
-0.081293
-0.107965
-0.132945
-0.144218
-0.143749
-0.120666
-0.089083
-0.043324
0.009096
0.056323
0.104317
0.136811
0.180836
0.195482
0.178667
0.157328
0.119623
0.071273
0.020245
-0.027383
-0.066638
-0.111690
-0.131119
-0.120130
-0.095597
-0.064560
-0.037264
0.005249
0.061704
0.093234
0.138860
0.183793
0.196988
0.208470
0.209854
0.191846
0.159433
0.105399
0.053894
0.010396
-0.036717
-0.063324
-0.082780
-0.083980
-0.072563
-0.042260
-0.007089
0.038614
0.089028
0.137476
0.182935
0.193863
0.221366
0.226014
0.215719
0.202498
0.160236
0.128351
0.084915
0.040199
-0.013471
-0.048021
-0.069017
-0.059171
-0.045900
-0.018198
0.020577
0.064958
0.113377
0.162451
0.200531
0.229925
0.234144
0.242486
0.246188
0.224100
0.189608
0.151865
0.095953
0.041065
-0.005233
-0.039134
-0.047539
-0.052249
-0.047059
-0.029700
0.007914
0.040235
0.085384
0.145213
0.194622
0.224038
0.236312
0.238148
0.224205
0.197730
0.159095
0.123307
0.095378
0.042946
0.000401
-0.034785
-0.060986
-0.067285
-0.066355
-0.041438
-0.012846
0.030918
0.077235
0.114586
0.151210
0.185316
0.211265
0.214614
0.202683
0.193461
0.159329
0.108173
0.059827
0.009367
-0.037403
-0.071460
-0.098507
-0.115050
-0.100100
-0.075370
-0.035438
-0.009668
0.048440
0.079696
0.124515
0.162635
0.192127
0.195429
0.171998
0.144249
0.101214
0.055437
0.003793
-0.030898
-0.066846
-0.106138
-0.123655
-0.137932
-0.133031
-0.103113
-0.078883
-0.033902
0.023644
0.085799
0.112675
0.143361
0.157457
0.152743
0.135176
0.120521
0.096715
0.042725
-0.016348
-0.073365
-0.114668
-0.152076
-0.174551
-0.168873
-0.150680
-0.120544
-0.086032
-0.051268
-0.006006
0.044105
0.103582
0.123587
0.129061
0.142254
0.127638
0.116691
0.082554
0.042212
-0.011084
-0.072378
-0.114369
-0.149414
-0.165176
-0.169759
-0.162579
-0.149835
-0.109698
-0.075190
-0.029261
0.031576
0.081183
0.108518
0.137556
0.152964
0.132212
0.119303
0.080981
0.033332
-0.012733
-0.061856
-0.111152
-0.138279
-0.149172
-0.152594
-0.143165
-0.112709
-0.079885
-0.046500
-0.010588
0.037253
0.081379
0.124291
0.143653
0.143178
0.134505
0.111299
0.078525
0.028376
-0.014555
-0.050147
-0.097060
-0.129198
-0.145923
-0.152641
-0.145595
-0.122916
-0.095188
-0.051623
-0.001630
0.059376
0.104337
0.141016
0.155707
0.168816
0.146627
0.115248
0.074271
0.031059
-0.003140
-0.058306
-0.099023
-0.131710
-0.143729
-0.167224
-0.147684
-0.127839
-0.091250
-0.055119
0.014465
0.063910
0.104981
0.133290
0.156724
0.150598
0.141501
0.117967
0.074168
0.034424
-0.012113
-0.053287
-0.078755
-0.112055
-0.136936
-0.158212
-0.146666
-0.121804
-0.075962
-0.032364
0.020355
0.059462
0.102662
0.138062
0.157129
0.153325
0.146626
0.126617
0.093400
0.035801
-0.013392
-0.061031
-0.098744
-0.132280
-0.158193
-0.166620
-0.137815
-0.120849
-0.085418
-0.052168
-0.010544
0.046458
0.081908
0.117168
0.142017
0.158387
0.134469
0.117016
0.063902
0.016243
-0.029687
-0.070791
-0.118963
-0.135220
-0.159125
-0.155566
-0.145418
-0.117614
-0.091715
-0.053459
-0.017781
0.040434
0.084748
0.117694
0.150137
0.155243
0.146530
0.126006
0.072030
0.017242
-0.023614
-0.072536
-0.107540
-0.142545
-0.166716
-0.165997
-0.149818
-0.142528
-0.097463
-0.059866
-0.017403
0.027467
0.075162
0.103649
0.130338
0.144502
0.128503
0.108537
0.065168
0.021596
-0.030324
-0.089588
-0.122631
-0.155048
-0.166092
-0.183618
-0.163746
-0.134034
-0.103813
-0.069200
-0.025715
0.025575
0.076576
0.112870
0.131737
0.151040
0.146191
0.123322
0.074718
0.029251
-0.025640
-0.082408
-0.117635
-0.154094
-0.181020
-0.181680
-0.164618
-0.151987
-0.123828
-0.061946
-0.016272
0.035511
0.088249
0.110897
0.111267
0.117297
0.095076
0.086633
0.056448
0.013609
-0.033026
-0.083888
-0.126457
-0.145482
-0.168390
-0.184116
-0.162232
-0.144193
-0.103512
-0.062241
-0.021583
0.023984
0.065016
0.116177
0.140714
0.150210
0.131650
0.091493
0.045977
0.015808
-0.028663
-0.082605
-0.127617
-0.138140
-0.173389
-0.194941
-0.180321
-0.148167
-0.120675
-0.075926
-0.019325
0.022446
0.074318
0.093242
0.119359
0.125529
0.101947
0.078246
0.042538
0.006765
-0.039612
-0.083304
-0.113678
-0.149061
-0.176809
-0.198206
-0.170563
-0.145801
-0.107459
-0.063955
-0.008847
0.029320
0.075927
0.102187
0.126742
0.137041
0.134597
0.115830
0.069353
0.017706
-0.014568
-0.071320
-0.113032
-0.139218
-0.168589
-0.185231
-0.163301
-0.125475
-0.105467
-0.053235
0.002422
0.053245
0.104984
0.138323
0.158778
0.182925
0.151500
0.134454
0.096266
0.053196
-0.002038
-0.043584
-0.091277
-0.113618
-0.129262
-0.153728
-0.145796
-0.114204
-0.080796
-0.038235
0.014315
0.066279
0.102506
0.118028
0.136766
0.172456
0.157529
0.141209
0.112841
0.062637
0.014466
-0.023132
-0.067858
-0.105126
-0.115349
-0.108073
-0.096736
-0.067431
-0.046091
-0.016496
0.023204
0.064153
0.102125
0.131193
0.161216
0.164643
0.153551
0.124348
0.095277
0.030835
-0.006822
-0.053418
-0.098833
-0.126128
-0.148731
-0.162104
-0.155227
-0.152160
-0.110281
-0.056076
-0.011158
0.032150
0.072991
0.115551
0.127317
0.125138
0.116381
0.093914
0.049932
0.002442
-0.044421
-0.086403
-0.138488
-0.164105
-0.193901
-0.194334
-0.185745
-0.160602
-0.114334
-0.076699
-0.039629
0.005188
0.042489
0.073243
0.100019
0.095457
0.090069
0.061835
0.040993
-0.002202
-0.042799
-0.098464
-0.154389
-0.181669
-0.217151
-0.215334
-0.183569
-0.152035
-0.119674
-0.073579
-0.026568
0.021963
0.052720
0.088556
0.095029
0.095273
0.085802
0.069420
0.044457
0.001768
-0.049673
-0.092650
-0.135957
-0.161973
-0.187494
-0.198173
-0.183482
-0.158346
-0.128653
-0.081947
-0.041779
0.002318
0.052787
0.087906
0.108994
0.118828
0.111900
0.079301
0.042347
-0.011904
-0.063216
-0.110763
-0.153114
-0.184129
-0.196539
-0.218700
-0.195024
-0.167550
-0.122434
-0.086309
-0.045994
-0.005278
0.048741
0.085668
0.101344
0.114192
0.104724
0.076445
0.038448
-0.021037
-0.081946
-0.112441
-0.135557
-0.159687
-0.166497
-0.163372
-0.144581
-0.117928
-0.072931
-0.021102
0.046672
0.128216
0.183804
0.219285
0.248926
0.286832
0.299401
0.292379
0.280270
0.270956
0.251725
0.241970
0.226387
0.219704
0.225766
0.256344
0.302129
0.355556
0.434361
0.518354
0.596600
0.663880
0.743585
0.816226
0.877368
0.897775
0.879023
0.862142
0.830223
0.777308
0.719054
0.641679
0.569318
0.507709
0.432114
0.360750
0.331139
0.303588
0.285651
0.284114
0.271466
0.271123
0.277703
0.291549
0.297887
0.280583
0.250881
0.216873
0.181170
0.146735
0.084600
0.027241
-0.028542
-0.055609
-0.072332
-0.086344
-0.085273
-0.060738
-0.033002
0.000933
0.055253
0.090193
0.129477
0.152790
0.168885
0.171494
0.145227
0.127810
0.092808
0.055818
0.010603
-0.054984
-0.106772
-0.127291
-0.131637
-0.138992
-0.125015
-0.091699
-0.064345
-0.035959
0.010163
0.047393
0.105684
0.130588
0.149241
0.156765
0.143065
0.128560
0.098238
0.045953
0.002715
-0.041227
-0.082078
-0.114021
-0.139982
-0.154452
-0.134460
-0.105141
-0.084206
-0.048313
0.005138
0.053559
0.091276
0.127245
0.160389
0.168531
0.156105
0.129522
0.097582
0.044460
-0.003683
-0.048859
-0.097144
-0.120873
-0.128559
-0.141316
-0.117266
-0.088739
-0.042747
-0.012611
0.027456
0.062738
0.097905
0.131207
0.158588
0.170818
0.171602
0.147370
0.107283
0.063168
0.018782
-0.024261
-0.064215
-0.087534
-0.110936
-0.123583
-0.119252
-0.086325
-0.050856
-0.010340
0.038643
0.098129
0.137661
0.156758
0.167134
0.181795
0.175200
0.165104
0.149393
0.087377
0.039188
-0.003656
-0.045864
-0.072962
-0.076606
-0.092691
-0.073592
-0.036257
-0.005346
0.022781
0.066243
0.123415
0.174832
0.202473
0.216793
0.243693
0.225255
0.190115
0.149888
0.099305
0.056835
0.026061
-0.010177
-0.025877
-0.044478
-0.050024
-0.044861
-0.028854
0.004719
0.039223
0.103143
0.142998
0.193918
0.221362
0.240702
0.251653
0.244953
0.213727
0.180857
0.142025
0.085376
0.054200
0.009188
-0.015144
-0.031996
-0.041684
-0.029859
-0.009802
0.024372
0.063313
0.110474
0.150996
0.197604
0.222813
0.242509
0.258034
0.242980
0.205574
0.162894
0.129315
0.099139
0.051303
0.007859
-0.027161
-0.049703
-0.059806
-0.048832
-0.008827
0.021877
0.070138
0.113408
0.140728
0.177555
0.204077
0.226279
0.243684
0.230661
0.214366
0.178297
0.131402
0.065419
0.030860
-0.025890
-0.054522
-0.078467
-0.087280
-0.071952
-0.044715
-0.018079
0.022640
0.060028
0.112418
0.146040
0.174927
0.194901
0.204027
0.193882
0.165885
0.135394
0.095566
0.045719
-0.001379
-0.056050
-0.081683
-0.108819
-0.122022
-0.110563
-0.090166
-0.055256
-0.007299
0.037301
0.080092
0.122093
0.142401
0.155352
0.172657
0.153941
0.122495
0.088892
0.044772
-0.011228
-0.066787
-0.099861
-0.118104
-0.135322
-0.144995
-0.125078
-0.107768
-0.075798
-0.026417
0.016355
0.053218
0.109791
0.138304
0.162334
0.167236
0.157135
0.116612
0.088384
0.046348
-0.001058
-0.040718
-0.108309
-0.125501
-0.137279
-0.158330
-0.148672
-0.121571
-0.086783
-0.059626
-0.015426
0.040627
0.091797
0.118721
0.127217
0.136406
0.126099
0.103078
0.078501
0.031676
-0.005758
-0.056014
-0.100509
-0.132376
-0.154148
-0.160761
-0.152692
-0.119807
-0.086584
-0.045091
-0.007449
0.036477
0.078588
0.115080
0.136675
0.145089
0.136885
0.120192
0.087275
0.037553
-0.015238
-0.052169
-0.100913
-0.129309
-0.151191
-0.167457
-0.139991
-0.114491
-0.075801
-0.040196
0.011522
0.055106
0.094948
0.118586
0.147439
0.164736
0.143090
0.117496
0.083822
0.030161
-0.006610
-0.044644
-0.092259
-0.124488
-0.138536
-0.157139
-0.143586
-0.117778
-0.088335
-0.045800
0.008547
0.063824
0.130595
0.149635
0.156866
0.170253
0.163671
0.134936
0.098070
0.042925
0.000549
-0.040386
-0.094792
-0.115490
-0.148342
-0.146640
-0.138338
-0.106388
-0.066131
-0.026220
0.023141
0.064130
0.110313
0.136691
0.154687
0.157132
0.156173
0.130595
0.085897
0.046200
0.013106
-0.037139
-0.084430
-0.115809
-0.135783
-0.151927
-0.142008
-0.111434
-0.065963
-0.030684
0.008745
0.061574
0.106843
0.128218
0.154951
0.163158
0.146049
0.120746
0.078719
0.042724
-0.003632
-0.057542
-0.101161
-0.119557
-0.143860
-0.163227
-0.150355
-0.119705
-0.087383
-0.038809
0.003304
0.045954
0.102616
0.141133
0.157844
0.158739
0.134223
0.105871
0.080466
0.043328
-0.001992
-0.045468
-0.101007
-0.132560
-0.146897
-0.159185
-0.137069
-0.098791
-0.082705
-0.045030
-0.004021
0.043588
0.090732
0.121473
0.141976
0.148448
0.132790
0.095499
0.071569
0.034836
-0.022766
-0.069639
-0.105117
-0.148209
-0.168382
-0.162725
-0.143839
-0.120810
-0.085433
-0.048135
0.006136
0.041129
0.089100
0.119051
0.138285
0.144658
0.125904
0.116061
0.092619
0.038233
-0.016833
-0.064347
-0.102048
-0.140736
-0.158890
-0.169047
-0.169503
-0.145008
-0.114631
-0.073745
-0.031596
0.022089
0.075490
0.115351
0.138496
0.142659
0.141281
0.108814
0.066206
0.024590
-0.020440
-0.060961
-0.101275
-0.127016
-0.164709
-0.179153
-0.161969
-0.143733
-0.127840
-0.080532
-0.018990
0.024697
0.069934
0.089989
0.106649
0.113996
0.112801
0.085712
0.058202
0.020359
-0.018879
-0.068271
-0.122528
-0.156383
-0.173655
-0.183596
-0.168497
-0.141733
-0.099923
-0.058833
-0.014469
0.026785
0.075887
0.107346
0.117174
0.122307
0.118240
0.104921
0.073837
0.021610
-0.022161
-0.081695
-0.143418
-0.157993
-0.179654
-0.182599
-0.163973
-0.147024
-0.113858
-0.074610
-0.030905
0.027498
0.093302
0.124457
0.127805
0.125642
0.103659
0.090719
0.058153
0.016456
-0.027949
-0.067812
-0.131265
-0.158947
-0.180060
-0.193019
-0.177462
-0.139145
-0.107608
-0.057477
0.000369
0.037182
0.094484
0.120594
0.133316
0.136931
0.126752
0.106166
0.077363
0.021656
-0.028134
-0.080514
-0.111205
-0.132070
-0.139860
-0.137933
-0.131701
-0.104629
-0.069656
-0.020653
0.028390
0.072770
0.122984
0.143446
0.161619
0.170338
0.154797
0.125056
0.089226
0.039824
-0.014687
-0.056175
-0.092756
-0.115729
-0.139445
-0.146671
-0.123915
-0.090674
-0.047967
-0.011824
0.031036
0.083573
0.130782
0.159151
0.174518
0.181369
0.172474
0.142215
0.113368
0.065573
0.028036
-0.032136
-0.091303
-0.120908
-0.147669
-0.158677
-0.151939
-0.117153
-0.082393
-0.038745
0.003237
0.043624
0.087494
0.118599
0.141726
0.161804
0.145751
0.111441
0.076408
0.021760
-0.034712
-0.086282
-0.133822
-0.158449
-0.183928
-0.179589
-0.168132
-0.138322
-0.118963
-0.077628
-0.030376
0.014143
0.072468
0.087776
0.097107
0.097499
0.092737
0.064850
0.034503
-0.004870
-0.058443
-0.090233
-0.136669
-0.178886
-0.198671
-0.212605
-0.197910
-0.183199
-0.140027
-0.094476
-0.047594
-0.001020
0.046563
0.066679
0.086765
0.091335
0.075817
0.042526
0.016461
-0.018948
-0.058974
-0.101471
-0.150997
-0.179426
-0.191121
-0.216924
-0.208963
-0.182863
-0.152033
-0.108072
-0.070837
-0.019888
0.046004
0.077545
0.102343
0.107733
0.095763
0.064415
0.030791
-0.020888
-0.065451
-0.098105
-0.154691
-0.192348
-0.201504
-0.197004
-0.194081
-0.171336
-0.148083
-0.106938
-0.059497
-0.015074
0.029444
0.057012
0.078361
0.085444
0.065261
0.037661
0.019675
-0.011949
-0.054286
-0.106800
-0.159156
-0.187167
-0.212321
-0.223396
-0.218869
-0.192786
-0.156140
-0.116685
-0.069359
-0.023681
0.024290
0.059294
0.084043
0.101825
0.110806
0.097915
0.075509
0.041438
0.005480
-0.028249
-0.077954
-0.088376
-0.079598
-0.068834
-0.036254
0.009516
0.055934
0.140207
0.206210
0.273116
0.346592
0.426116
0.478078
0.516959
0.549316
0.549359
0.545240
0.525313
0.507932
0.503170
0.506560
0.541241
0.551577
0.564889
0.601908
0.656894
0.700786
0.736465
0.783261
0.819103
0.838474
0.847409
0.850055
0.824702
0.782725
0.692916
0.602504
0.476069
0.375961
0.280128
0.175956
0.097254
0.044746
0.018933
0.024627
0.036299
0.069116
0.110717
0.143803
0.165761
0.208486
0.203263
0.197564
0.201256
0.188883
0.169686
0.133777
0.089159
0.040594
0.004218
-0.057536
-0.107422
-0.140163
-0.157194
-0.133088
-0.101614
-0.061410
-0.018342
0.021931
0.062353
0.109746
0.135093
0.144958
0.155360
0.146695
0.116134
0.076301
0.033182
-0.010775
-0.065524
-0.117511
-0.145791
-0.174734
-0.172847
-0.164826
-0.140586
-0.114091
-0.080730
-0.016213
0.032299
0.078433
0.106991
0.133615
0.122422
0.098766
0.072307
0.054018
0.016207
-0.031459
-0.082670
-0.137026
-0.167240
-0.180796
-0.186780
-0.163540
-0.141842
-0.105228
-0.047010
-0.019192
0.029942
0.075057
0.119058
0.144204
0.148200
0.121932
0.103229
0.075423
0.028338
-0.026348
-0.060221
-0.095012
-0.116318
-0.157356
-0.158805
-0.147553
-0.117149
-0.085344
-0.048262
-0.003675
0.039112
0.101930
0.131753
0.162588
0.158333
0.131728
0.112955
0.088497
0.035768
0.000015
-0.044287
-0.078368
-0.111942
-0.127186
-0.137723
-0.125655
-0.097824
-0.059616
-0.024100
0.023520
0.060463
0.109073
0.137221
0.153437
0.159672
0.174883
0.157272
0.118948
0.079632
0.036468
-0.016528
-0.071008
-0.082455
-0.099543
-0.107672
-0.084050
-0.060863
-0.033178
0.015524
0.053488
0.108919
0.154223
0.181968
0.190497
0.198279
0.201526
0.175627
0.153365
0.117274
0.054819
0.004583
-0.036933
-0.053430
-0.072610
-0.082489
-0.076682
-0.038966
-0.001622
0.032789
0.090274
0.140814
0.193713
0.214591
0.235123
0.224229
0.212169
0.198818
0.158405
0.128480
0.085219
0.031985
-0.020947
-0.053623
-0.074528
-0.075547
-0.062591
-0.047005
-0.017945
0.029777
0.057011
0.119517
0.154600
0.207763
0.231880
0.231929
0.222202
0.200165
0.164364
0.118297
0.065580
0.024743
-0.031031
-0.062971
-0.086172
-0.084778
-0.094020
-0.070147
-0.040044
0.004198
0.046119
0.076678
0.138850
0.165080
0.194926
0.192028
0.177154
0.156227
0.126668
0.077033
0.041152
-0.020109
-0.073229
-0.096348
-0.109044
-0.108722
-0.087995
-0.073157
-0.046838
-0.006612
0.023921
0.064916
0.098974
0.131583
0.160463
0.151273
0.129238
0.106721
0.076316
0.034600
-0.019753
-0.077207
-0.133600
-0.148837
-0.159080
-0.157733
-0.159031
-0.138288
-0.096084
-0.041382
0.005639
0.042744
0.077582
0.104424
0.127037
0.124147
0.100875
0.075566
0.047097
-0.003050
-0.048263
-0.102238
-0.134753
-0.163145
-0.189871
-0.204072
-0.183873
-0.153992
-0.120320
-0.069893
-0.019090
0.021478
0.064008
0.088198
0.113672
0.112113
0.089952
0.061878
0.021592
-0.046300
-0.081881
-0.098218
-0.127205
-0.167208
-0.191078
-0.195788
-0.181361
-0.159971
-0.145415
-0.094174
-0.041102
0.010712
0.051251
0.084441
0.097514
0.098214
0.093155
0.078758
0.051320
0.003872
-0.040488
-0.098271
-0.148028
-0.178344
-0.197905
-0.205990
-0.190168
-0.167982
-0.134895
-0.092556
-0.044240
-0.000981
0.044158
0.067489
0.093600
0.099125
0.089388
0.073440
0.060684
0.010819
-0.037992
-0.087312
-0.137851
-0.169420
-0.185837
-0.186177
-0.179751
-0.158439
-0.140281
-0.111459
-0.066368
-0.021363
0.043469
0.099528
0.125505
0.122269
0.116704
0.090223
0.055090
0.015293
-0.040598
-0.082584
-0.116669
-0.173388
-0.196817
-0.203412
-0.180201
-0.151317
-0.113649
-0.075921
-0.023607
0.018904
0.059234
0.102140
0.112450
0.118761
0.116097
0.095587
0.063803
0.017785
-0.033063
-0.085482
-0.141548
-0.178651
-0.213051
-0.209784
-0.183676
-0.159009
-0.125820
-0.081060
-0.029796
0.014846
0.063736
0.093732
0.113523
0.107741
0.096066
0.071230
0.041487
-0.005376
-0.043378
-0.085022
-0.123554
-0.164329
-0.185755
-0.183333
-0.178274
-0.157163
-0.125687
-0.088639
-0.035871
0.014641
0.067714
0.088189
0.109708
0.100055
0.075929
0.052687
0.030083
-0.006778
-0.052022
-0.097683
-0.140303
-0.169130
-0.189995
-0.211443
-0.193355
-0.173095
-0.142441
-0.095754
-0.043274
0.009308
0.042359
0.066471
0.098329
0.098951
0.097132
0.068611
0.033221
-0.032522
-0.076724
-0.100510
-0.156569
-0.188974
-0.198289
-0.206529
-0.188227
-0.168480
-0.147012
-0.110956
-0.054549
0.004414
0.053297
0.079064
0.103245
0.100935
0.082894
0.059561
0.025049
-0.023315
-0.059144
-0.105657
-0.158966
-0.185630
-0.208238
-0.210271
-0.203124
-0.175937
-0.158795
-0.110236
-0.060571
-0.017636
0.042718
0.059696
0.079574
0.075749
0.075351
0.049143
0.020830
-0.022552
-0.073337
-0.122792
-0.164787
-0.192495
-0.209385
-0.214640
-0.206020
-0.189039
-0.160598
-0.109305
-0.059870
-0.012260
0.020145
0.050180
0.067957
0.068329
0.060765
0.045109
0.010714
-0.029035
-0.070790
-0.119834
-0.172318
-0.213045
-0.242782
-0.228918
-0.203639
-0.180744
-0.140556
-0.104323
-0.066908
-0.004758
0.020423
0.053324
0.065458
0.086915
0.080595
0.048785
0.014574
-0.027369
-0.064046
-0.117041
-0.149231
-0.187603
-0.209968
-0.230521
-0.218096
-0.202036
-0.163732
-0.112874
-0.058799
-0.017519
0.020081
0.044430
0.063699
0.068446
0.063262
0.043145
0.018470
-0.016637
-0.063066
-0.114693
-0.169333
-0.194065
-0.218947
-0.228360
-0.213554
-0.197321
-0.162483
-0.118341
-0.064296
-0.010879
0.035496
0.070657
0.081745
0.076311
0.071243
0.051462
0.016921
-0.025445
-0.069316
-0.122120
-0.158717
-0.171300
-0.183642
-0.187626
-0.188891
-0.155743
-0.126840
-0.096410
-0.048730
0.009543
0.053089
0.085379
0.111832
0.116220
0.110990
0.087824
0.046711
-0.010619
-0.055966
-0.106602
-0.141085
-0.168002
-0.188614
-0.190161
-0.176792
-0.151353
-0.122553
-0.074644
-0.026248
0.028468
0.073334
0.101792
0.130180
0.146561
0.120416
0.102658
0.067686
0.024388
-0.023462
-0.049735
-0.080747
-0.122804
-0.145029
-0.161979
-0.161861
-0.145478
-0.124417
-0.089440
-0.047817
-0.006491
0.049920
0.081614
0.097412
0.095666
0.081784
0.064208
0.036537
-0.015040
-0.069197
-0.124528
-0.169352
-0.206933
-0.225918
-0.228770
-0.212402
-0.189203
-0.154283
-0.118312
-0.065258
-0.014538
0.030596
0.056054
0.070803
0.061511
0.063326
0.030138
-0.001425
-0.034727
-0.090910
-0.140079
-0.189898
-0.221960
-0.250018
-0.246075
-0.226630
-0.206964
-0.188101
-0.148629
-0.115383
-0.056837
-0.010539
0.028268
0.045102
0.053945
0.040758
0.013194
-0.023412
-0.063781
-0.113747
-0.152311
-0.198231
-0.228745
-0.253421
-0.245494
-0.234629
-0.211531
-0.170345
-0.133852
-0.092856
-0.043747
0.017738
0.046751
0.060824
0.056095
0.043441
0.018390
-0.008281
-0.059318
-0.099940
-0.154246
-0.197983
-0.218524
-0.248159
-0.249532
-0.239503
-0.217281
-0.187296
-0.149674
-0.098082
-0.035519
0.014009
0.041054
0.056204
0.053967
0.025714
0.004345
-0.013998
-0.060026
-0.098629
-0.143083
-0.186096
-0.213830
-0.245034
-0.250636
-0.255149
-0.224213
-0.194469
-0.163553
-0.114190
-0.065951
-0.006312
0.026269
0.052911
0.051867
0.029350
0.015660
-0.003124
-0.031864
-0.070482
-0.110645
-0.134643
-0.138214
-0.146700
-0.138672
-0.117122
-0.092183
-0.040733
0.023739
0.086972
0.150292
0.219250
0.293188
0.339569
0.383785
0.405770
0.422813
0.424682
0.406522
0.396596
0.388967
0.378489
0.366991
0.397669
0.452448
0.493348
0.543830
0.612514
0.684189
0.761566
0.805377
0.840121
0.882273
0.880361
0.848914
0.816003
0.768716
0.709940
0.625913
0.495435
0.393093
0.296544
0.204860
0.121608
0.065328
0.034850
0.035045
0.057962
0.083915
0.116542
0.170692
0.190913
0.204863
0.215833
0.210449
0.181852
0.154336
0.112328
0.063597
0.007743
-0.043460
-0.088691
-0.119516
-0.150891
-0.158181
-0.144159
-0.127912
-0.104368
-0.069794
-0.022139
0.022198
0.067702
0.089127
0.107913
0.108120
0.104895
0.072317
0.034723
-0.001464
-0.039634
-0.091808
-0.143261
-0.167722
-0.190601
-0.199154
-0.182709
-0.164723
-0.137558
-0.081082
-0.041203
-0.003271
0.044582
0.070731
0.081972
0.089121
0.088574
0.067818
0.045285
-0.018859
-0.067650
-0.122189
-0.160564
-0.166846
-0.183756
-0.198739
-0.190919
-0.164421
-0.138464
-0.082334
-0.027760
0.014583
0.060607
0.090480
0.115419
0.113732
0.099897
0.084403
0.038464
-0.001327
-0.041888
-0.087363
-0.124541
-0.159963
-0.187126
-0.182530
-0.179098
-0.147349
-0.096976
-0.053377
-0.012511
0.028518
0.063863
0.090442
0.124887
0.124865
0.114951
0.091533
0.050580
0.006822
-0.017963
-0.062516
-0.118792
-0.131092
-0.153837
-0.163487
-0.158316
-0.128394
-0.093821
-0.050910
-0.001038
0.056624
0.101269
0.130485
0.150201
0.153543
0.143634
0.116916
0.096362
0.055968
-0.003310
-0.050969
-0.094925
-0.109828
-0.119676
-0.120809
-0.116523
-0.089825
-0.053121
-0.006819
0.039140
0.086736
0.122159
0.157812
0.172494
0.192000
0.183384
0.170220
0.131744
0.084390
0.033166
-0.022475
-0.044032
-0.074531
-0.100424
-0.095738
-0.092117
-0.067330
-0.026182
0.018334
0.059647
0.105898
0.138508
0.176384
0.202172
0.203161
0.187124
0.184024
0.155235
0.111539
0.068210
0.016050
-0.017671
-0.051283
-0.068315
-0.077078
-0.064563
-0.048549
-0.013099
0.030149
0.057970
0.103787
0.151925
0.176629
0.193194
0.208499
0.206061
0.183775
0.149623
0.106374
0.056014
-0.007050
-0.047367
-0.078573
-0.092182
-0.098255
-0.089462
-0.062676
-0.027832
-0.000949
0.037851
0.080793
0.125822
0.167221
0.184875
0.182048
0.183024
0.163032
0.118844
0.079736
0.035568
-0.025413
-0.059320
-0.095103
-0.118182
-0.121533
-0.111234
-0.101206
-0.069658
-0.029922
0.027762
0.069167
0.100909
0.129263
0.140822
0.135389
0.130358
0.103100
0.071163
0.034791
-0.016461
-0.060603
-0.098599
-0.130838
-0.154781
-0.164995
-0.164134
-0.139895
-0.110352
-0.076454
-0.028231
0.019967
0.060703
0.095256
0.109811
0.113262
0.109499
0.085959
0.044062
-0.003500
-0.058977
-0.101732
-0.139546
-0.177654
-0.188880
-0.193802
-0.196187
-0.168761
-0.141214
-0.110962
-0.065253
-0.016192
0.017351
0.043275
0.068660
0.088088
0.079549
0.052007
0.023029
-0.015178
-0.054597
-0.108447
-0.137509
-0.179449
-0.193391
-0.196837
-0.187470
-0.152832
-0.126914
-0.090446
-0.054885
-0.016254
0.035258
0.065546
0.102428
0.099333
0.080775
0.068211
0.031811
-0.004582
-0.052026
-0.096135
-0.143685
-0.188708
-0.211110
-0.214407
-0.213280
-0.187694
-0.145667
-0.091614
-0.044747
-0.004816
0.033139
0.062651
0.085238
0.101779
0.080636
0.056274
0.025619
-0.016452
-0.066879
-0.111627
-0.143596
-0.163133
-0.182680
-0.185683
-0.179518
-0.154815
-0.126079
-0.082581
-0.031244
0.014748
0.051614
0.075112
0.096596
0.098147
0.092803
0.073802
0.045162
-0.000580
-0.048768
-0.097761
-0.132225
-0.169284
-0.196503
-0.198654
-0.176954
-0.151112
-0.112515
-0.069702
-0.037467
0.003114
0.045998
0.098227
0.113710
0.107946
0.089601
0.079542
0.035103
0.003819
-0.040886
-0.088620
-0.132699
-0.164922
-0.185913
-0.196723
-0.180689
-0.159203
-0.136862
-0.088395
-0.035217
0.009724
0.064607
0.099746
0.131658
0.117585
0.104620
0.095889
0.054957
0.003527
-0.043920
-0.088954
-0.144403
-0.176248
-0.188360
-0.192837
-0.178013
-0.151468
-0.120848
-0.075131
-0.027589
0.000987
0.058738
0.079626
0.093614
0.088498
0.081101
0.076653
0.035175
-0.012316
-0.048854
-0.113559
-0.144283
-0.163011
-0.181843
-0.190114
-0.187263
-0.160088
-0.125996
-0.084306
-0.043055
0.008672
0.051252
0.078757
0.107618
0.098803
0.093201
0.074138
0.044145
0.001069
-0.053023
-0.093582
-0.133583
-0.172469
-0.197398
-0.205284
-0.198269
-0.177978
-0.139705
-0.100504
-0.046973
0.006841
0.047404
0.073155
0.085062
0.077231
0.067726
0.056897
0.022114
-0.015312
-0.066736
-0.097146
-0.136390
-0.188072
-0.209177
-0.218589
-0.195391
-0.176872
-0.143060
-0.100689
-0.053248
-0.003594
0.040507
0.074407
0.095896
0.093744
0.081968
0.063401
0.031544
-0.006406
-0.058079
-0.104799
-0.147201
-0.173366
-0.206646
-0.212143
-0.212087
-0.184524
-0.149674
-0.106908
-0.056736
0.006276
0.040894
0.065769
0.099357
0.090653
0.083403
0.063611
0.020004
-0.023019
-0.070383
-0.111154
-0.153846
-0.183955
-0.222673
-0.221261
-0.210566
-0.179638
-0.137683
-0.097141
-0.052985
-0.009059
0.046385
0.074034
0.084143
0.092581
0.082550
0.052156
0.015615
-0.024809
-0.060552
-0.105615
-0.143655
-0.181925
-0.204638
-0.203252
-0.202069
-0.184263
-0.150855
-0.105858
-0.054255
-0.007533
0.039443
0.064854
0.081162
0.096755
0.095099
0.078759
0.028836
-0.023618
-0.074479
-0.120265
-0.153696
-0.183722
-0.208977
-0.214047
-0.203567
-0.183617
-0.150944
-0.109865
-0.054524
-0.018213
0.015129
0.057104
0.061687
0.073942
0.073718
0.053787
0.022890
-0.015807
-0.057264
-0.102247
-0.144460
-0.174834
-0.201290
-0.208075
-0.205887
-0.184076
-0.141024
-0.102719
-0.057569
-0.012461
0.029035
0.064827
0.087899
0.088910
0.105420
0.088666
0.054639
0.001050
-0.026779
-0.064773
-0.116133
-0.149859
-0.179361
-0.178204
-0.169497
-0.147584
-0.108763
-0.071499
-0.023006
0.027874
0.080316
0.098146
0.120738
0.120287
0.116654
0.104396
0.079323
0.026544
-0.018825
-0.067819
-0.118511
-0.162695
-0.178455
-0.176045
-0.160816
-0.135092
-0.094293
-0.041033
0.008799
0.062214
0.102012
0.131077
0.162290
0.154645
0.136241
0.116991
0.092787
0.058377
-0.000227
-0.052345
-0.107459
-0.143800
-0.170937
-0.167523
-0.169573
-0.145585
-0.105409
-0.066957
-0.034789
0.010084
0.060629
0.091659
0.103512
0.110637
0.123408
0.098875
0.063648
0.018271
-0.037611
-0.082261
-0.134889
-0.178896
-0.204032
-0.188375
-0.181132
-0.162557
-0.133972
-0.096252
-0.053303
-0.002473
0.046266
0.062739
0.079145
0.087397
0.077355
0.050115
0.020751
-0.015497
-0.056941
-0.104063
-0.145220
-0.186697
-0.210221
-0.228592
-0.225996
-0.207712
-0.171461
-0.128761
-0.079485
-0.035836
0.001386
0.031156
0.062040
0.059457
0.061841
0.043554
0.014552
-0.030344
-0.084721
-0.136475
-0.177410
-0.207218
-0.223120
-0.218114
-0.215117
-0.204907
-0.166789
-0.119246
-0.072104
-0.016540
0.024208
0.059125
0.081543
0.072107
0.068556
0.054178
0.021069
-0.016844
-0.065698
-0.127380
-0.166322
-0.187583
-0.220542
-0.218635
-0.207690
-0.193389
-0.168460
-0.125581
-0.073800
-0.020498
0.021458
0.050536
0.064635
0.060374
0.056098
0.039982
0.008849
-0.029554
-0.074208
-0.118214
-0.156455
-0.193735
-0.223741
-0.221367
-0.209632
-0.177190
-0.141443
-0.097290
-0.061757
-0.011729
0.023094
0.055336
0.074339
0.062971
0.074953
0.076724
0.066520
0.024850
-0.008580
-0.044688
-0.060143
-0.081378
-0.088892
-0.086733
-0.075948
-0.031907
0.040614
0.090543
0.151988
0.227920
0.295808
0.346753
0.401120
0.442653
0.472575
0.492111
0.492445
0.477484
0.456723
0.443836
0.460471
0.488629
0.521559
0.556915
0.578519
0.628902
0.688629
0.712948
0.746122
0.799938
0.823554
0.819381
0.822280
0.821715
0.792418
0.727413
0.613840
0.511589
0.406683
0.312069
0.219048
0.136636
0.071058
0.047031
0.036362
0.047369
0.056045
0.086932
0.122110
0.159975
0.191630
0.211627
0.217972
0.209135
0.194892
0.159521
0.122732
0.092591
0.033391
-0.013014
-0.059441
-0.091560
-0.136366
-0.137537
-0.120151
-0.098883
-0.058219
-0.016320
0.027214
0.059767
0.092468
0.116094
0.148966
0.145877
0.133276
0.107480
0.080627
0.047737
-0.008515
-0.056154
-0.110815
-0.143606
-0.160822
-0.155736
-0.153035
-0.126134
-0.098869
-0.054650
-0.021616
0.014055
0.053720
0.088140
0.096970
0.102860
0.090026
0.076899
0.066827
0.027557
-0.015636
-0.063031
-0.092136
-0.129298
-0.156370
-0.146844
-0.140152
-0.138174
-0.099315
-0.055965
-0.005662
0.039057
0.074727
0.110329
0.145823
0.149735
0.139838
0.114056
0.076012
0.038947
-0.016677
-0.070986
-0.113705
-0.136285
-0.147279
-0.141787
-0.140076
-0.109670
-0.089686
-0.048163
-0.000165
0.052867
0.108360
0.155166
0.165332
0.163316
0.153266
0.132557
0.090652
0.058972
0.023270
-0.016692
-0.060848
-0.090262
-0.121931
-0.118959
-0.098253
-0.072446
-0.039935
0.002600
0.051758
0.099633
0.136190
0.162714
0.176620
0.185501
0.170716
0.151817
0.129254
0.077388
0.032255
-0.012170
-0.047363
-0.066358
-0.093697
-0.083699
-0.070947
-0.054431
-0.037939
0.013718
0.076137
0.131349
0.178014
0.196964
0.218776
0.225608
0.219743
0.192815
0.148507
0.123685
0.085330
0.025595
-0.010008
-0.031644
-0.058955
-0.074729
-0.061058
-0.044940
-0.007770
0.044110
0.087732
0.144783
0.193410
0.224731
0.240985
0.244436
0.239184
0.219207
0.191932
0.151313
0.105731
0.044341
0.002490
-0.040005
-0.056806
-0.048473
-0.036742
-0.008350
0.028894
0.079576
0.122932
0.168996
0.207515
0.249849
0.269938
0.260028
0.242844
0.216216
0.178942
0.137072
0.079036
0.023671
-0.016982
-0.033869
-0.063267
-0.062626
-0.049922
-0.033919
-0.007211
0.029492
0.081739
0.126650
0.157969
0.203519
0.223339
0.228703
0.221838
0.184129
0.145120
0.098574
0.049389
-0.006877
-0.065096
-0.091857
-0.123955
-0.126163
-0.101739
-0.081775
-0.037977
0.013176
0.044579
0.097501
0.138559
0.152488
0.163538
0.176387
0.160996
0.146855
0.113414
0.080891
0.036300
-0.025988
-0.073079
-0.094649
-0.125376
-0.130017
-0.119248
-0.096230
-0.063334
