0.070234
0.123361
0.155159
0.200849
0.227990
0.220864
0.204315
0.220769
0.183774
0.142243
0.074739
0.009231
-0.027289
-0.055550
-0.080454
-0.105866
-0.099932
-0.065114
-0.024385
0.012584
0.047124
0.102188
0.148420
0.187256
0.195639
0.200523
0.202485
0.178723
0.140966
0.101490
0.069276
0.002115
-0.044705
-0.053018
-0.071003
-0.122108
-0.110369
-0.087902
-0.052073
-0.023775
0.007105
0.068747
0.123050
0.149771
0.166802
0.176252
0.178642
0.177973
0.134312
0.082604
0.022066
-0.035521
-0.082943
-0.129006
-0.143263
-0.149387
-0.139201
-0.124575
-0.099947
-0.064136
0.021481
0.058730
0.076974
0.103774
0.143317
0.145224
0.130236
0.100969
0.074486
0.018487
-0.030993
-0.040647
-0.088480
-0.128865
-0.158376
-0.166499
-0.152829
-0.143730
-0.114749
-0.071015
-0.022440
0.013835
0.056954
0.091778
0.116992
0.115637
0.111293
0.087189
0.056061
0.010110
-0.039421
-0.078120
-0.122260
-0.144337
-0.180710
-0.202132
-0.192030
-0.175268
-0.120683
-0.070237
-0.044801
-0.003371
0.053655
0.063043
0.116671
0.117031
0.097028
0.078301
0.036565
-0.004075
-0.042350
-0.082809
-0.120070
-0.151817
-0.178925
-0.200691
-0.192393
-0.190051
-0.123398
-0.069726
-0.024423
0.022534
0.051978
0.082064
0.106595
0.111143
0.091382
0.080995
0.040297
-0.014271
-0.051346
-0.087991
-0.125824
-0.156527
-0.180104
-0.187208
-0.189505
-0.158892
-0.118651
-0.081285
-0.015552
0.044262
0.076670
0.104098
0.124229
0.117994
0.120651
0.102367
0.074561
0.031130
-0.013036
-0.082200
-0.126513
-0.158477
-0.185166
-0.175306
-0.176548
-0.142647
-0.108528
-0.053052
-0.010631
0.039996
0.051408
0.096274
0.135013
0.141892
0.136409
0.109650
0.071678
0.025529
-0.017678
-0.063590
-0.107712
-0.149202
-0.185533
-0.191026
-0.151575
-0.141625
-0.110517
-0.057316
-0.019339
0.030321
0.072906
0.101424
0.119056
0.129725
0.108963
0.088595
0.041317
-0.003588
-0.056625
-0.073384
-0.111839
-0.140693
-0.161617
-0.162846
-0.147043
-0.149528
-0.133442
-0.099317
-0.051667
-0.008649
0.033005
0.089692
0.127264
0.115245
0.126571
0.094667
0.062000
0.044324
-0.016375
-0.088321
-0.124200
-0.150775
-0.183436
-0.218614
-0.183564
-0.160681
-0.135326
-0.096685
-0.049357
0.000605
0.052155
0.093766
0.118314
0.116730
0.112627
0.102096
0.067194
0.010751
-0.026362
-0.081992
-0.117998
-0.153636
-0.177751
-0.202792
-0.176131
-0.162918
-0.133382
-0.109674
-0.050510
0.008890
0.044986
0.078970
0.092572
0.109868
0.111080
0.104501
0.076875
-0.002430
-0.062374
-0.088154
-0.124292
-0.172712
-0.179067
-0.173375
-0.181665
-0.178866
-0.131435
-0.091889
-0.049994
-0.009747
0.036557
0.082578
0.102166
0.112176
0.114401
0.077713
0.025502
-0.003028
-0.027511
-0.070944
-0.132281
-0.171109
-0.156917
-0.159417
-0.191020
-0.213739
-0.168875
-0.137607
-0.085772
-0.011975
0.061442
0.067684
0.081066
0.107581
0.092179
0.068305
0.056747
-0.008320
-0.057057
-0.093833
-0.151132
-0.174213
-0.169760
-0.178276
-0.188198
-0.165802
-0.115659
-0.091838
-0.044307
-0.015287
0.014057
0.060484
0.083130
0.104976
0.066872
0.055989
0.073140
0.037075
-0.039076
-0.105718
-0.150394
-0.171771
-0.176911
-0.181920
-0.173908
-0.156835
-0.148338
-0.103189
-0.048065
0.021796
0.059047
0.102637
0.091432
0.106314
0.100923
0.091356
0.066899
0.038666
0.001796
-0.070641
-0.135974
-0.165869
-0.170204
-0.149127
-0.153751
-0.153478
-0.141745
-0.077487
-0.012754
0.035231
0.046736
0.071901
0.128493
0.150328
0.137938
0.120263
0.074356
0.037247
-0.021622
-0.066877
-0.096674
-0.139100
-0.149537
-0.161536
-0.159289
-0.159510
-0.124269
-0.034310
0.020365
0.083357
0.127406
0.135525
0.156078
0.153705
0.156181
0.159319
0.144706
0.078439
0.018349
-0.041704
-0.112797
-0.161698
-0.147468
-0.171878
-0.183346
-0.159980
-0.121213
-0.072197
-0.035869
-0.002406
0.062811
0.091959
0.128237
0.121264
0.098604
0.078038
0.078425
0.015437
-0.060306
-0.115017
-0.142843
-0.170891
-0.200827
-0.218663
-0.210328
-0.195367
-0.153853
-0.080767
-0.036568
0.017839
0.022455
0.053217
0.082317
0.082139
0.090813
0.048998
0.021834
-0.010787
-0.064060
-0.125754
-0.166992
-0.213313
-0.229211
-0.249348
-0.234869
-0.213429
-0.164920
-0.129309
-0.076292
-0.012471
0.025692
0.044746
0.068905
0.085883
0.079210
0.058890
0.014798
-0.032895
-0.073690
-0.139073
-0.192226
-0.212510
-0.214500
-0.214487
-0.210316
-0.194317
-0.178477
-0.138337
-0.094497
-0.036164
-0.002379
0.035421
0.064198
0.077221
0.066447
0.056255
0.022129
-0.031572
-0.075039
-0.110361
-0.158341
-0.203174
-0.235346
-0.247129
-0.232758
-0.216258
-0.167941
-0.129760
-0.080410
-0.031584
0.009238
-0.002777
0.037371
0.072838
0.060428
0.033246
0.005874
-0.056556
-0.102197
-0.151001
-0.180939
-0.194010
-0.213246
-0.231753
-0.223383
-0.203330
-0.155690
-0.138621
-0.120658
-0.081897
-0.010054
0.049876
0.113448
0.142149
0.153423
0.138627
0.093747
0.057931
0.045230
0.012777
-0.055076
-0.043493
-0.051864
-0.053163
-0.007535
0.051627
0.125882
0.199820
0.234526
0.325461
0.403844
0.477203
0.524027
0.575430
0.576483
0.587022
0.592920
0.573061
0.568360
0.526667
0.517858
0.537285
0.566697
0.562927
0.577382
0.582198
0.578116
0.612690
0.631761
0.650279
0.640812
0.607377
0.588873
0.535949
0.447220
0.377898
0.311725
0.229274
0.148334
0.059181
0.006854
-0.042405
-0.087494
-0.081654
-0.091081
-0.085327
-0.060295
-0.021708
-0.016893
0.064520
0.100669
0.130470
0.176788
0.196225
0.160381
0.143913
0.107066
0.038042
-0.012140
-0.064628
-0.116324
-0.117847
-0.135995
-0.150781
-0.165452
-0.149296
-0.113432
-0.072626
-0.027353
0.031067
0.050143
0.077194
0.104856
0.103816
0.095289
0.098762
0.081773
0.017449
-0.040333
-0.098731
-0.137187
-0.158723
-0.191890
-0.196041
-0.179450
-0.172405
-0.152784
-0.105180
-0.071799
-0.008454
0.012870
0.064379
0.116017
0.140553
0.112457
0.079425
0.049414
0.011587
-0.033002
-0.094216
-0.137560
-0.173344
-0.180363
-0.185954
-0.176622
-0.149425
-0.115453
-0.081725
-0.025134
0.018147
0.050795
0.056776
0.067098
0.093671
0.081174
0.086997
0.075068
0.048439
-0.022900
-0.084064
-0.086105
-0.135993
-0.170895
-0.180024
-0.178014
-0.159381
-0.129240
-0.067306
-0.019993
0.025067
0.079347
0.110448
0.127066
0.132249
0.128268
0.125401
0.079679
0.033582
-0.006282
-0.052118
-0.099080
-0.136325
-0.150761
-0.156069
-0.126034
-0.096014
-0.068076
-0.042310
-0.000497
0.061139
0.105936
0.133324
0.156089
0.173836
0.167630
0.168685
0.133621
0.072121
-0.000370
-0.043213
-0.073698
-0.073682
-0.111005
-0.128927
-0.142043
-0.102419
-0.050583
0.001032
0.045418
0.066079
0.142411
0.187634
0.184118
0.203034
0.217588
0.212137
0.167722
0.103883
0.021679
0.005590
-0.015950
-0.048422
-0.098894
-0.099783
-0.089333
-0.084405
-0.039624
-0.003409
0.058085
0.104390
0.164528
0.243115
0.240694
0.186945
0.223926
0.190074
0.136410
0.112824
0.076339
0.014066
-0.038540
-0.091654
-0.084430
-0.100333
-0.086789
-0.096833
-0.047821
0.011071
0.035235
0.083361
0.145542
0.177583
0.205221
0.219381
0.206314
0.197497
0.131276
0.077251
0.035403
-0.007429
-0.065279
-0.095613
-0.130412
-0.123857
-0.117702
-0.114877
-0.070173
-0.015520
0.032745
0.086455
0.140283
0.183775
0.182702
0.173866
0.146927
0.132393
0.104818
0.056480
0.009786
-0.050020
-0.094186
-0.141619
-0.139350
-0.116843
-0.122955
-0.104989
-0.132118
-0.113115
-0.039815
0.035001
0.043305
0.078966
0.129283
0.148024
0.129649
0.092898
0.081225
0.042000
-0.021025
-0.068886
-0.113307
-0.144499
-0.162803
-0.173553
-0.174321
-0.171087
-0.139392
-0.099812
-0.065655
-0.010807
0.040245
0.066554
0.110967
0.116956
0.103261
0.079938
0.040231
-0.005787
-0.060625
-0.092167
-0.148072
-0.190452
-0.203006
-0.222623
-0.221691
-0.191626
-0.107701
-0.097809
-0.078874
-0.014697
0.056557
0.055360
0.072217
0.076261
0.095401
0.076329
0.060710
0.011116
-0.070450
-0.107656
-0.154624
-0.203964
-0.237808
-0.234307
-0.204326
-0.184961
-0.172885
-0.140299
-0.082773
-0.029089
0.031163
0.062807
0.094353
0.102612
0.066095
0.058927
0.027914
-0.009706
-0.066110
-0.125108
-0.136462
-0.177476
-0.190084
-0.223746
-0.216034
-0.191424
-0.132203
-0.091351
-0.041246
0.007372
0.046316
0.088223
0.105709
0.112656
0.099795
0.088126
0.035659
-0.014287
-0.054023
-0.103810
-0.157699
-0.179382
-0.223101
-0.194265
-0.171990
-0.174435
-0.159420
-0.113447
-0.053320
-0.005624
0.036724
0.072459
0.085380
0.090694
0.096963
0.084004
0.040916
-0.008408
-0.031600
-0.082321
-0.163210
-0.155183
-0.151968
-0.195157
-0.194810
-0.185333
-0.133386
-0.087644
-0.061570
-0.012559
0.042401
0.077165
0.097145
0.098958
0.074103
0.051199
0.007851
0.020758
-0.056974
-0.118032
-0.182448
-0.196534
-0.212226
-0.222795
-0.212829
-0.201995
-0.157559
-0.100456
-0.067110
-0.042862
0.034456
0.095389
0.094868
0.115461
0.091001
0.076017
0.028520
0.002385
-0.034472
-0.091631
-0.169325
-0.199346
-0.212724
-0.199841
-0.174192
-0.183211
-0.155362
-0.117885
-0.050860
-0.019344
0.031186
0.063567
0.082864
0.101991
0.078954
0.036858
0.017281
0.004066
-0.068941
-0.108260
-0.142226
-0.189611
-0.220558
-0.216959
-0.233504
-0.218084
-0.179582
-0.092254
-0.049255
-0.019491
0.029586
0.039600
0.020823
0.035231
0.066641
0.059899
0.064375
0.033636
-0.055526
-0.110712
-0.145543
-0.175450
-0.192898
-0.228470
-0.242119
-0.195595
-0.174736
-0.116745
-0.063823
0.001562
0.032088
0.035978
0.050144
0.046786
0.047695
0.029324
0.019492
-0.003873
-0.065349
-0.147920
-0.196669
-0.212105
-0.203576
-0.219252
-0.202512
-0.205755
-0.180351
-0.134473
-0.094910
-0.032709
-0.004880
0.024112
0.071445
0.091487
0.056947
0.041308
0.020972
-0.035832
-0.072554
-0.135079
-0.181671
-0.201035
-0.223029
-0.222338
-0.219735
-0.206467
-0.175763
-0.119640
-0.099267
-0.084481
-0.025612
0.020559
0.056739
0.091572
0.080570
0.056571
0.036854
-0.002119
-0.072656
-0.124213
-0.158702
-0.179882
-0.207677
-0.217956
-0.217344
-0.188016
-0.163942
-0.126732
-0.082780
-0.033690
-0.008727
0.040771
0.069683
0.078604
0.082795
0.065704
0.028267
-0.005300
-0.054417
-0.107750
-0.137180
-0.173008
-0.203968
-0.224855
-0.192361
-0.155135
-0.137313
-0.115250
-0.057322
-0.001932
0.055796
0.092220
0.107893
0.104290
0.066930
0.031651
-0.005471
-0.025133
-0.070178
-0.097732
-0.132111
-0.193535
-0.204764
-0.178641
-0.180331
-0.179494
-0.141912
-0.105887
-0.042587
0.023571
0.060394
0.083857
0.093760
0.106744
0.129383
0.118343
0.087398
0.040166
-0.005883
-0.054738
-0.121895
-0.148279
-0.179387
-0.216389
-0.248020
-0.241367
-0.203481
-0.140232
-0.039041
-0.006092
0.018495
0.039086
0.069685
0.083000
0.053295
0.015152
0.001426
-0.020982
-0.071947
-0.112280
-0.141625
-0.176548
-0.222865
-0.232040
-0.233186
-0.213999
-0.198967
-0.166497
-0.092681
-0.036526
-0.004256
0.009189
0.038734
0.055549
0.024408
-0.025013
-0.061536
-0.065291
-0.105948
-0.171415
-0.188414
-0.214718
-0.251538
-0.288915
-0.326011
-0.294672
-0.195823
-0.124071
-0.095436
-0.056897
-0.020141
0.006535
0.029476
0.047554
0.058455
0.008793
-0.073596
-0.101407
-0.117573
-0.184189
-0.212073
-0.235144
-0.253796
-0.265022
-0.255110
-0.261973
-0.218979
-0.123571
-0.123412
-0.090186
-0.037574
0.000697
0.038730
0.037532
-0.002509
-0.030919
-0.045951
-0.071691
-0.106872
-0.163043
-0.227480
-0.246177
-0.253765
-0.235806
-0.245228
-0.272990
-0.212785
-0.183743
-0.115261
-0.080713
-0.036364
0.040283
0.051900
0.040752
0.034520
0.020278
-0.037332
-0.106055
-0.146760
-0.205846
-0.254310
-0.240461
-0.252897
-0.271567
-0.274284
-0.269462
-0.223730
-0.154203
-0.117977
-0.069664
-0.000989
0.050956
0.110260
0.119067
0.108796
0.094366
0.096664
0.070563
0.038079
-0.045636
-0.075420
-0.119366
-0.081772
-0.032247
-0.006339
0.061309
0.150820
0.237028
0.289603
0.372129
0.441353
0.471565
0.484887
0.490329
0.556986
0.602874
0.587156
0.580929
0.583190
0.565322
0.533581
0.521117
0.528293
0.475312
0.514847
0.509201
0.526831
0.558601
0.573073
0.582762
0.553929
0.510124
0.478580
0.481769
0.389990
0.287206
0.231653
0.139813
0.059723
0.029755
-0.036981
-0.148273
-0.154728
-0.159099
-0.144208
-0.133761
-0.146447
-0.093930
-0.025463
0.031688
0.079290
0.105446
0.105614
0.105046
0.125069
0.105426
0.049387
0.002314
-0.011242
-0.074978
-0.116616
-0.157938
-0.201265
-0.218819
-0.236096
-0.244011
-0.174533
-0.125177
-0.067251
-0.046024
0.014584
0.063636
0.061185
0.052826
0.046174
0.056783
0.021656
0.007109
-0.090668
-0.124516
-0.139330
-0.215546
-0.259900
-0.252954
-0.222723
-0.219364
-0.207566
-0.159896
-0.094425
-0.047652
0.008238
0.049990
0.049696
0.029581
0.013434
0.050725
0.015495
-0.027416
-0.061755
-0.108208
-0.159192
-0.205270
-0.215650
-0.203746
-0.202842
-0.195064
-0.148849
-0.129910
-0.085887
-0.054011
0.001733
0.041369
0.070309
0.085191
0.071733
0.035677
-0.003134
-0.017889
-0.039886
-0.101763
-0.145367
-0.172697
-0.196939
-0.196883
-0.219488
-0.189870
-0.139648
-0.091232
-0.048265
-0.003844
0.044897
0.062141
0.073932
0.103590
0.106822
0.071773
0.031229
-0.013846
-0.049044
-0.093965
-0.112176
-0.150237
-0.180869
-0.175699
-0.169005
-0.134089
-0.078358
-0.076785
-0.076820
0.012018
0.059425
0.094404
0.130056
0.143112
0.114433
0.060863
0.050156
0.012195
-0.023561
-0.058592
-0.120882
-0.122692
-0.154356
-0.167406
-0.143959
-0.130310
-0.082546
-0.034496
-0.015331
0.027653
0.087123
0.137961
0.191435
0.178014
0.151845
0.128078
0.100947
0.064982
0.028771
-0.002880
-0.057929
-0.114081
-0.165346
-0.137345
-0.086275
-0.067987
-0.031439
-0.012923
0.017220
0.014860
0.082900
0.118969
0.133271
0.161482
0.203141
0.192600
0.120975
0.059227
0.010832
-0.033598
-0.047758
-0.083963
-0.094913
-0.110088
-0.138263
-0.105843
-0.079038
-0.049965
0.016959
0.090425
0.122776
0.146687
0.171723
0.162092
0.148197
0.134009
0.104165
0.060875
-0.006594
-0.072043
-0.118728
-0.120234
-0.129036
-0.156282
-0.166564
-0.134184
-0.094989
-0.053560
-0.002223
0.041893
0.075602
0.110485
0.156676
0.168750
0.165153
0.123863
0.094473
0.011877
-0.055151
-0.071159
-0.103268
-0.150522
-0.156115
-0.169234
-0.197088
-0.205452
-0.160707
-0.090810
-0.046866
-0.018436
0.054204
0.104103
0.117314
0.108304
0.107776
0.099078
0.023462
-0.028644
-0.089315
-0.147361
-0.181992
-0.184474
-0.192744
-0.212612
-0.214171
-0.185145
-0.143768
-0.131117
-0.059105
-0.019352
-0.014791
-0.012191
0.037153
0.086801
0.079028
0.045909
0.047121
-0.012288
-0.071282
-0.157488
-0.198262
-0.212565
-0.204846
-0.224508
-0.217864
-0.200973
-0.158042
-0.139720
-0.098417
-0.015792
0.020397
0.050153
0.052380
0.053564
0.065676
0.070407
0.051555
-0.033108
-0.087952
-0.112934
-0.182401
-0.214073
-0.239058
-0.270152
-0.264090
-0.251320
-0.202813
-0.140400
-0.077958
-0.034269
0.027147
0.016808
0.027311
0.052927
0.062330
0.060820
0.025174
-0.029834
-0.062267
-0.093034
-0.162550
-0.220859
-0.233479
-0.236661
-0.248391
-0.216621
-0.161044
-0.140270
-0.073548
-0.035512
-0.000486
0.018657
0.052540
0.084764
0.073391
0.041384
0.026997
0.003457
-0.066306
-0.102025
-0.134898
-0.202410
-0.236314
-0.223913
-0.220110
-0.215515
-0.188756
-0.142641
-0.066423
-0.023227
0.008444
0.035771
0.050878
0.051664
0.044366
-0.006884
-0.007472
0.015886
-0.020800
-0.076527
-0.126084
-0.165160
-0.199180
-0.214413
-0.193023
-0.163511
-0.128650
-0.103574
-0.077526
-0.037763
0.004709
0.052157
0.063471
0.053147
0.049998
0.050078
0.024179
-0.023037
-0.087575
-0.124957
-0.166247
-0.202244
-0.207590
-0.208301
-0.212654
-0.212426
-0.163254
-0.114642
-0.059947
-0.020055
0.006485
0.037824
0.042737
0.061817
0.075983
0.065480
0.015381
-0.035188
-0.086377
-0.118894
-0.166590
-0.204300
-0.196176
-0.204818
-0.213457
-0.189868
-0.167409
-0.109766
-0.051305
-0.036447
0.000721
0.057999
0.063079
0.038579
0.086279
0.051269
-0.017540
-0.036223
-0.075951
-0.131567
-0.181010
-0.203405
-0.208988
-0.216692
-0.220805
-0.216662
-0.194241
-0.148202
-0.071975
-0.024367
0.011080
0.064943
0.057758
0.050415
0.019407
0.012831
-0.009214
-0.038371
-0.081404
-0.140031
-0.161588
-0.207607
-0.230535
-0.235094
-0.210765
-0.178631
-0.208312
-0.146311
-0.090073
-0.036433
0.000695
0.036230
0.026141
0.047585
0.057763
0.035230
0.010986
-0.031001
-0.096506
-0.142174
-0.154594
-0.203898
-0.232712
-0.239451
-0.234921
-0.218896
-0.181804
-0.136735
-0.101364
-0.047273
0.038131
0.057795
0.033171
0.059429
0.081863
0.062663
0.020914
-0.052271
-0.096532
-0.171284
-0.180834
-0.198371
-0.233493
-0.216370
-0.235753
-0.232541
-0.186111
-0.134470
-0.078424
-0.033595
-0.010838
0.026691
0.059004
0.068692
0.073561
0.045200
-0.012659
-0.055761
-0.081073
-0.100169
-0.163842
-0.218659
-0.225801
-0.228398
-0.200674
-0.182315
-0.151741
-0.116897
-0.059338
-0.018207
0.008007
0.040285
0.078857
0.118473
0.122464
0.093810
0.042480
-0.000654
-0.075054
-0.117105
-0.126556
-0.163415
-0.178202
-0.178908
-0.189094
-0.174101
-0.144783
-0.128474
-0.088083
-0.014296
0.039852
0.078366
0.109197
0.107247
0.104326
0.088585
0.062541
0.024474
-0.028182
-0.083468
-0.129796
-0.168917
-0.180199
-0.180884
-0.174389
-0.151397
-0.123422
-0.077643
-0.052808
-0.030537
0.021118
0.057600
0.093505
0.096625
0.096343
0.066857
0.021351
-0.021924
-0.060424
-0.107182
-0.156293
-0.163965
-0.175503
-0.187579
-0.199268
-0.213040
-0.205665
-0.158066
-0.076059
-0.034336
-0.013030
0.021804
0.073103
0.063111
0.076076
0.069997
0.017432
-0.043122
-0.084273
-0.146004
-0.167059
-0.222987
-0.262497
-0.263249
-0.250876
-0.242459
-0.202991
-0.180204
-0.148124
-0.074808
-0.025841
0.022216
0.016727
0.012577
0.051444
0.031711
-0.037519
-0.077172
-0.100531
-0.148577
-0.199645
-0.227791
-0.245383
-0.264410
-0.247184
-0.221943
-0.196770
-0.181701
-0.142548
-0.080659
-0.013589
0.022812
0.067158
0.075378
0.068802
0.040985
-0.009947
-0.029750
-0.097346
-0.183586
-0.215182
-0.226221
-0.233590
-0.227138
-0.251279
-0.241866
-0.179065
-0.166180
-0.111149
-0.044976
-0.024531
0.016569
0.015356
0.033824
0.031932
0.024706
-0.000103
-0.050750
-0.111677
-0.140660
-0.188297
-0.231259
-0.261969
-0.243188
-0.237394
-0.216173
-0.229893
-0.178417
-0.112254
-0.074107
-0.028636
-0.001166
0.002451
0.011107
-0.000511
0.006669
0.007646
-0.045394
-0.116223
-0.170020
-0.181943
-0.193155
-0.194594
-0.225437
-0.174157
-0.139598
-0.088921
0.003326
0.071546
0.131750
0.188464
0.199531
0.230772
0.257880
0.318512
0.336581
0.330446
0.339002
0.310662
0.247535
0.240805
0.244821
0.252977
0.279335
0.348367
0.473839
0.548912
0.598984
0.697870
0.769506
0.816909
0.842613
0.839881
0.873651
0.876780
0.838380
0.790229
0.691807
0.593097
0.479370
0.367590
0.289141
0.204719
0.179210
0.157126
0.112875
0.060826
0.044468
0.105591
0.173098
0.210884
0.232942
0.238058
0.245318
0.206434
0.187120
0.135436
0.085201
0.025225
-0.020043
-0.103834
-0.164808
-0.163992
-0.149316
-0.120657
-0.112738
-0.125634
-0.103207
-0.026231
0.019017
0.046486
0.071073
0.120295
0.140716
0.128379
0.097200
0.048127
0.006208
-0.049736
-0.095035
-0.142563
-0.178876
-0.220180
-0.202181
-0.197259
-0.173147
-0.131456
-0.107271
-0.058778
0.003014
0.047078
0.103228
0.086823
0.066430
0.051338
0.019464
0.022698
-0.009722
-0.059660
-0.112923
-0.156231
-0.192542
-0.197547
-0.173844
-0.186348
-0.175345
-0.152313
-0.120764
-0.058840
0.002224
0.064693
0.091021
0.106488
0.127634
0.133809
0.067824
0.001782
-0.058364
-0.063462
-0.079338
-0.113927
-0.152370
-0.173464
-0.198895
-0.203247
-0.184330
-0.157816
-0.091944
-0.031994
0.038000
0.089196
0.082585
0.100589
0.123632
0.122413
0.118472
0.073974
0.008822
-0.044977
-0.070691
-0.114534
-0.163666
-0.179959
-0.170180
-0.155711
-0.136478
-0.091218
-0.064287
-0.027032
0.033492
0.075537
0.107929
0.135226
0.142365
0.135339
0.132560
0.106121
0.066075
0.016364
-0.020813
-0.061679
-0.094400
-0.139440
-0.165362
-0.146934
-0.111623
-0.079060
-0.034540
0.019281
0.067551
0.120085
0.174683
0.183797
0.171970
0.166221
0.149071
0.114860
0.066710
0.047095
-0.000250
-0.052570
-0.098501
-0.090561
-0.110910
-0.113954
-0.115471
-0.049474
0.025543
0.062488
0.085219
0.155204
0.180793
0.191916
0.215135
0.207063
0.185888
0.146810
0.103056
0.052916
0.034546
-0.027733
-0.076167
-0.098737
-0.095431
-0.106263
-0.085383
-0.051189
-0.001133
0.056328
0.099820
0.122843
0.144530
0.179281
0.184300
0.169516
0.145774
0.134072
0.096071
0.042304
-0.009451
-0.049559
-0.077369
-0.108699
-0.133790
-0.135582
-0.079454
-0.043755
-0.019413
0.028898
0.072196
0.108359
0.158845
0.166738
0.159294
0.158159
0.150786
0.128142
0.048941
-0.012997
-0.051780
-0.094969
-0.115875
-0.103873
-0.110006
-0.118758
-0.115255
-0.082279
-0.055601
-0.015123
0.051820
0.088822
0.124068
0.144220
0.139557
0.139206
0.105537
0.063343
0.038292
-0.020731
-0.080290
-0.145445
-0.166320
-0.194640
-0.185516
-0.173690
-0.139133
-0.090572
-0.069465
-0.034356
-0.012531
0.046135
0.105387
0.106785
0.086682
0.094534
0.062965
0.029904
-0.007225
-0.080910
-0.137432
-0.166255
-0.175092
-0.176776
-0.201454
-0.212547
-0.186946
-0.157514
-0.128099
-0.081235
-0.018996
0.038225
0.079426
0.117196
0.124099
0.100972
0.057985
0.021355
-0.017761
-0.055155
-0.098597
-0.146769
-0.209466
-0.232399
-0.234990
-0.226604
-0.215477
-0.180413
-0.124251
-0.063101
-0.012622
0.023061
0.060152
0.100430
0.115431
0.116160
0.075510
0.038341
-0.016477
-0.078612
-0.113836
-0.135722
-0.180648
-0.189567
-0.229046
-0.245789
-0.229032
-0.163261
-0.083708
-0.048999
0.001750
0.030881
0.066805
0.087201
0.094705
0.089504
0.068575
0.023452
-0.035449
-0.086151
-0.104429
-0.127642
-0.143225
-0.187011
-0.208109
-0.207099
-0.179501
-0.151922
-0.107588
-0.037201
-0.002047
0.021985
0.053869
0.073224
0.092894
0.100705
0.090840
0.053293
0.007436
-0.032159
-0.060928
-0.129159
-0.184790
-0.192263
-0.190234
-0.192640
-0.183239
-0.137617
-0.094429
-0.043228
-0.015848
0.007800
0.026135
0.091386
0.101576
0.088201
0.099705
0.079389
0.020950
-0.048851
-0.096100
-0.158066
-0.198287
-0.192597
-0.172594
-0.177314
-0.173374
-0.146924
-0.090807
-0.047662
-0.033491
-0.002185
0.066274
0.115502
0.109186
0.089502
0.018569
-0.012907
0.012020
-0.006360
-0.067208
-0.112377
-0.144200
-0.185313
-0.192174
-0.199374
-0.189739
-0.155527
-0.112394
-0.081517
-0.065834
-0.009425
0.073142
0.105849
0.081138
0.077783
0.078090
0.051385
-0.004369
-0.109341
-0.153542
-0.173481
-0.176398
-0.208156
-0.204752
-0.193588
-0.166206
-0.135744
-0.088295
-0.061689
-0.014437
0.017285
0.075195
0.083402
0.088548
0.085710
0.051192
0.015678
-0.002341
-0.055456
-0.095200
-0.133728
-0.199720
-0.219807
-0.249527
-0.229958
-0.169208
-0.128763
-0.101229
-0.066717
-0.032400
0.036239
0.054306
0.061723
0.075397
0.066743
0.061268
0.020416
-0.023945
-0.063027
-0.126378
-0.163532
-0.210068
-0.233564
-0.258494
-0.247920
-0.213064
-0.143251
-0.119970
-0.052486
-0.022720
0.026868
0.040515
0.089540
0.098553
0.086519
0.055047
0.025167
-0.046582
-0.078228
-0.126900
-0.156953
-0.210830
-0.255687
-0.265868
-0.240971
-0.214558
-0.185556
-0.158161
-0.064302
-0.008789
0.022800
0.056375
0.085273
0.124378
0.126268
0.069314
0.016554
-0.015411
-0.065371
-0.130631
-0.186280
-0.213166
-0.225217
-0.266669
-0.258087
-0.175812
-0.117770
-0.082324
-0.067166
-0.027700
0.001082
0.027842
0.069823
0.094715
0.079892
0.048075
0.019107
-0.013748
-0.061527
-0.103919
-0.146299
-0.167420
-0.198173
-0.198022
-0.196808
-0.211398
-0.168702
-0.098266
-0.039855
0.009129
0.055858
0.073977
0.105679
0.117188
0.098569
0.123194
0.079230
0.014230
-0.060456
-0.092478
-0.125042
-0.176850
-0.177196
-0.177415
-0.180978
-0.155847
-0.112603
-0.089904
-0.054740
-0.017713
0.035397
0.076761
0.086720
0.095583
0.098141
0.085357
0.045461
0.026993
-0.017947
-0.071591
-0.111395
-0.137259
-0.135817
-0.143535
-0.155700
-0.127738
-0.120550
-0.086371
-0.019214
0.052378
0.095100
0.117408
0.117401
0.112371
0.118375
0.094618
0.061895
0.022588
-0.032317
-0.083245
-0.129691
-0.167145
-0.190666
-0.208603
-0.186074
-0.180271
-0.167472
-0.146308
-0.085805
-0.044610
0.029750
0.071029
0.058176
0.084598
0.082495
0.060951
0.021125
-0.031961
-0.067863
-0.100955
-0.158080
-0.197335
-0.229419
-0.230696
-0.229723
-0.206721
-0.190161
-0.135392
-0.082959
-0.046201
0.004241
0.026412
0.050057
0.069894
0.070231
0.037596
-0.002614
-0.023270
-0.095208
-0.146971
-0.170857
-0.212692
-0.249039
-0.245646
-0.255955
-0.245421
-0.215777
-0.154188
-0.108670
-0.071328
-0.012500
0.028900
0.041708
0.025236
0.044885
0.030472
-0.016489
-0.063923
-0.098519
-0.145836
-0.181966
-0.213540
-0.235003
-0.259791
-0.252773
-0.216433
-0.189839
-0.165172
-0.111076
-0.067586
-0.028254
0.016850
0.051377
0.046438
0.034319
0.025256
-0.020422
-0.064121
-0.113540
-0.162405
-0.188287
-0.235270
-0.241165
-0.238860
-0.265915
-0.262687
-0.185030
-0.105486
-0.088506
-0.055931
-0.004921
0.030434
0.046582
0.038968
0.028147
-0.011117
-0.050402
-0.065295
-0.092628
-0.165769
-0.230324
-0.259704
-0.276813
-0.248758
-0.239381
-0.228459
-0.208319
-0.142335
-0.001202
0.046692
0.127161
0.175372
0.203166
0.187267
0.209002
0.223881
0.198404
0.185028
0.168006
0.149412
0.118011
0.125378
0.128783
0.164282
0.210481
0.279576
0.350026
0.423186
0.503039
0.584230
0.692131
0.764498
0.820102
0.839256
0.853123
0.855709
0.824137
0.771275
0.730185
0.679425
0.589093
0.548880
0.544391
0.482836
0.423858
0.374562
0.340587
0.323051
0.314452
0.306826
0.287027
0.260475
0.261259
0.285497
0.264072
0.233858
0.198500
0.131330
0.063055
-0.001136
-0.055358
-0.091202
-0.122257
-0.134346
-0.122340
-0.112031
-0.085280
-0.057845
0.001709
0.055486
0.091083
0.120075
0.138289
0.115199
0.106721
0.097331
0.077758
0.012253
-0.054176
-0.103125
-0.155989
-0.182657
-0.191697
-0.196360
-0.215195
-0.202086
-0.157346
-0.097203
-0.052228
-0.009680
0.025791
0.061419
0.088176
0.096488
0.101062
0.087026
0.045125
0.015983
-0.041152
-0.078863
-0.134946
-0.189043
-0.211752
-0.218448
-0.220114
-0.185895
-0.163765
-0.113141
-0.072891
-0.027570
0.010039
0.048930
0.073268
0.078981
0.083097
0.050626
0.036872
0.009958
-0.005866
-0.063727
-0.127284
-0.170185
-0.182872
-0.199235
-0.203081
-0.172506
-0.157015
-0.120115
-0.058719
-0.021564
0.036538
0.082539
0.108833
0.087902
0.131916
0.134437
0.093687
0.015633
-0.036918
-0.083054
-0.127389
-0.166719
-0.180747
-0.180855
-0.201351
-0.178967
-0.135752
-0.075511
-0.052013
0.008359
0.082722
0.098562
0.119623
0.139146
0.142871
0.115400
0.082290
0.059425
0.017584
-0.024856
-0.073482
-0.119077
-0.156551
-0.143013
-0.152206
-0.142508
-0.094116
-0.013778
0.027971
0.053455
0.089285
0.112663
0.150890
0.159134
0.150250
0.135253
0.101168
0.061637
0.033785
0.005766
-0.034679
-0.067702
-0.081608
-0.100398
-0.099359
-0.073564
-0.045030
0.006116
0.051648
0.092238
0.114292
0.167068
0.201696
0.206271
0.217673
0.183434
0.137262
0.100706
0.055620
-0.004016
-0.016617
-0.056463
-0.096645
-0.097333
-0.099517
-0.068486
-0.045653
-0.002071
0.063565
0.105457
0.139498
0.195721
0.209883
0.209631
0.194863
0.173413
0.139642
0.107103
0.053923
-0.009160
-0.039844
-0.066710
-0.089922
-0.086679
-0.096203
-0.075126
-0.037510
-0.005502
0.040581
0.087806
0.113810
0.141946
0.176698
0.181918
0.152470
0.136657
0.107048
0.071375
0.013157
-0.030185
-0.053781
-0.086654
-0.102403
-0.125965
-0.144162
-0.136200
-0.071726
-0.032071
0.008596
0.059843
0.093613
0.113927
0.145853
0.158940
0.177143
0.132396
0.105192
0.064874
0.001905
-0.033802
-0.080356
-0.147586
-0.181016
-0.180429
-0.178580
-0.156347
-0.114791
-0.073924
-0.012818
0.032889
0.071542
0.104137
0.112268
0.120829
0.103650
0.068192
0.041157
0.005665
-0.033118
-0.074841
-0.136053
-0.171310
-0.185477
-0.223423
-0.217824
-0.181824
-0.143712
-0.079011
-0.040858
0.022209
0.035750
0.058110
0.099833
0.102807
0.076397
0.051974
0.012277
-0.012040
-0.051636
-0.101296
-0.140540
-0.172134
-0.224712
-0.221925
-0.217352
-0.199374
-0.142400
-0.113154
-0.057499
-0.015579
0.014070
0.059870
0.074485
0.070931
0.096367
0.075559
0.019788
-0.000222
-0.040176
-0.101075
-0.141396
-0.188092
-0.180091
-0.202610
-0.220875
-0.193570
-0.141474
-0.112193
-0.069637
-0.020942
0.013780
0.057866
0.083960
0.117214
0.107572
0.076160
0.027854
-0.019668
-0.039962
-0.065057
-0.106998
-0.141913
-0.175796
-0.177937
-0.199803
-0.171718
-0.137407
-0.105718
-0.063417
0.000324
0.035562
0.047464
0.071556
0.089557
0.113507
0.089590
0.061934
0.026340
-0.032193
-0.091253
-0.131395
-0.155676
-0.174399
-0.189778
-0.199275
-0.182192
-0.137020
-0.092259
-0.056270
-0.018764
0.032600
0.060424
0.089187
0.111958
0.107646
0.086207
0.038393
-0.014528
-0.064169
-0.094831
-0.114137
-0.149221
-0.180880
-0.202727
-0.192273
-0.160195
-0.139075
-0.099068
-0.056194
0.006135
0.022646
0.074677
0.058873
0.081631
0.096869
0.083861
0.055457
0.003809
-0.048228
-0.112700
-0.109998
-0.128432
-0.166916
-0.182985
-0.187644
-0.154369
-0.125386
-0.092778
-0.042680
-0.013606
0.030098
0.071410
0.101731
0.088953
0.083221
0.062180
0.014988
-0.021566
-0.052490
-0.093315
-0.125527
-0.148672
-0.188044
-0.192400
-0.175384
-0.160685
-0.138960
-0.112735
-0.070891
-0.017881
0.039061
0.084693
0.098374
0.093232
0.088709
0.059888
0.028220
-0.001668
-0.055539
-0.114556
-0.139031
-0.183555
-0.192665
-0.217601
-0.217854
-0.200107
-0.163361
-0.133830
-0.096148
-0.016849
0.047671
0.101912
0.120482
0.083021
0.080838
0.057471
0.019234
-0.007975
-0.050565
-0.099516
-0.121638
-0.163064
-0.181856
-0.198177
-0.205249
-0.180783
-0.135560
-0.096824
-0.063574
-0.025613
0.012167
0.044170
0.082214
0.080055
0.054255
0.056394
0.050512
-0.003680
-0.063235
-0.115980
-0.149471
-0.158453
-0.192928
-0.211442
-0.202034
-0.168233
-0.143060
-0.103287
-0.054181
0.003313
0.042188
0.082114
0.110038
0.122897
0.113151
0.053875
-0.007812
-0.034613
-0.078417
-0.142036
-0.177528
-0.200368
-0.214320
-0.210129
-0.194852
-0.186328
-0.144354
-0.088694
-0.046931
-0.015645
0.032912
0.088779
0.095396
0.099269
0.068900
0.040017
0.012317
0.000758
-0.060283
-0.116737
-0.148852
-0.187422
-0.222342
-0.206558
-0.186320
-0.175163
-0.127448
-0.081595
-0.044389
-0.002779
0.031420
0.068470
0.095557
0.102953
0.099469
0.096313
0.074301
0.021017
-0.010249
-0.056082
-0.102487
-0.150390
-0.164616
-0.185841
-0.178213
-0.141950
-0.118121
-0.054944
-0.008577
0.023922
0.056568
0.102318
0.136793
0.129787
0.120219
0.069046
0.037636
0.055126
0.017787
-0.037401
-0.109557
-0.147340
-0.178269
-0.188740
-0.179844
-0.145748
-0.103533
-0.062930
0.013741
0.071397
0.111529
0.136768
0.150110
0.150804
0.133389
0.161196
0.128905
0.080600
0.027793
-0.043399
-0.090723
-0.122492
-0.156458
-0.169741
-0.168782
-0.151240
-0.130765
-0.063042
-0.005733
0.042270
0.065174
0.082655
0.100461
0.116128
0.115429
0.087001
0.055584
0.001814
-0.052682
-0.084945
-0.122702
-0.159413
-0.185569
-0.196360
-0.195304
-0.183178
-0.130139
-0.093096
-0.056682
-0.025346
0.023353
0.064071
0.102918
0.115012
0.113219
0.075187
0.050360
-0.031543
-0.093697
-0.114569
-0.140727
-0.186747
-0.230368
-0.227553
-0.222496
-0.179782
-0.175346
-0.142006
-0.072943
-0.045111
-0.009354
0.024779
0.064009
0.072575
0.061791
0.060858
0.021176
-0.029644
-0.062627
-0.106010
-0.157329
-0.192703
-0.218952
-0.217388
-0.204578
-0.180812
-0.167688
-0.102880
-0.047728
-0.018997
0.000212
0.037857
0.071711
0.079662
0.083833
0.060634
0.018480
-0.032478
-0.080755
-0.117926
-0.163173
-0.191575
-0.213148
-0.213122
-0.229247
-0.215186
-0.178222
-0.118002
-0.089216
-0.011304
0.027490
0.040761
0.062790
0.073732
0.077776
0.046944
0.006859
-0.043106
-0.073242
-0.113897
-0.164023
-0.190934
-0.229738
-0.206908
-0.209783
-0.205928
-0.170896
-0.139146
-0.093350
-0.052014
-0.007030
0.038825
0.083722
0.124945
0.152432
0.108246
0.066267
0.024324
0.013497
0.000080
-0.018025
-0.044716
-0.074898
-0.072365
-0.049058
-0.005310
0.054751
0.135219
0.208698
0.283317
0.365621
0.460156
0.504807
0.537760
0.566624
0.583092
0.580336
0.559443
0.545249
0.552730
0.556419
0.562701
0.551483
0.581689
0.608816
0.614929
0.636891
0.701606
0.719590
0.771970
0.817421
0.820248
0.824501
0.792676
0.686828
0.591855
0.488347
0.390789
0.284058
0.175664
0.098533
0.034054
-0.010231
-0.031575
-0.024729
0.015612
0.066276
0.077579
0.115127
0.145864
0.161641
0.187415
0.187429
0.198162
0.179247
0.170316
0.144278
0.100123
0.053191
-0.005773
-0.069374
-0.132161
-0.157905
-0.122046
-0.119616
-0.102625
-0.083654
-0.054814
-0.008239
0.018008
0.063130
0.099896
0.138360
0.145188
0.133322
0.093971
0.099380
0.061478
0.005901
-0.060966
-0.098613
-0.126321
-0.153261
-0.178641
-0.183807
-0.158204
-0.128882
-0.089398
-0.047587
0.026495
0.084743
0.097453
0.081104
0.114961
0.121189
0.068703
0.033755
0.018387
0.009953
-0.030030
-0.052434
-0.090109
-0.127777
-0.189509
-0.185451
-0.156392
-0.140576
-0.111113
-0.036749
0.036157
0.090558
0.127940
0.136590
0.141273
0.159061
0.151787
0.084011
0.003052
-0.039061
-0.071430
-0.065037
-0.096702
-0.111904
-0.103799
-0.121406
-0.133842
-0.108204
-0.074905
0.001411
0.062828
0.094588
0.112184
0.142848
0.144381
0.156288
0.144271
0.119077
0.063125
0.020163
-0.013862
-0.083784
-0.085262
-0.103708
-0.116242
-0.105032
-0.066438
-0.051792
-0.012503
0.042660
0.047544
0.086951
0.141138
0.182010
0.189440
0.168767
0.145449
0.108472
0.055231
0.026110
0.009506
0.015043
-0.002008
-0.058934
-0.102487
-0.115236
-0.052693
0.002395
0.068024
0.090510
0.134525
0.196406
0.205832
0.210933
0.204260
0.214264
0.150595
0.143597
0.134000
0.088175
0.044118
0.007262
-0.040922
-0.005776
-0.028803
-0.012812
0.007991
-0.007570
0.014058
0.064557
0.148520
0.200273
0.221050
0.187307
0.284713
0.264615
0.252697
0.188637
0.153623
0.135198
0.099776
0.029778
-0.013709
-0.025235
-0.048938
-0.044286
-0.091007
-0.061976
0.027985
0.130162
0.219973
0.217000
0.203563
0.233681
0.245240
0.233109
0.214669
0.189641
0.136498
0.066834
0.016651
0.006325
-0.017354
-0.044201
-0.067277
-0.081297
-0.085870
-0.043057
0.027642
0.056692
0.110868
0.190854
0.212954
0.218971
0.210869
0.188519
0.174665
0.156780
0.103789
0.043381
0.000974
-0.058263
-0.087442
-0.122194
-0.108141
-0.116766
-0.114757
-0.082686
-0.034789
0.030213
0.073942
0.101569
0.130774
0.179988
0.192371
0.178074
0.143759
0.117396
0.074110
0.026599
-0.050825
-0.096427
-0.113467
-0.122068
-0.125405
-0.131352
-0.118481
-0.113781
-0.056135
-0.059798
0.022025
0.072358
0.095229
0.111268
0.121129
0.091868
0.050711
0.056255
-0.017586
-0.050641
-0.055890
-0.078633
-0.122003
-0.171629
-0.187669
-0.150091
-0.160893
-0.183928
-0.144726
-0.042409
0.078810
0.145893
0.160777
0.146187
0.139647
0.122139
0.118871
0.078155
0.025267
-0.037245
-0.078186
-0.133534
-0.166459
-0.186490
-0.195328
-0.210031
-0.166496
-0.135703
-0.097991
-0.063369
0.035289
0.105567
0.126175
0.157409
0.117666
0.087685
0.088727
0.059339
0.014807
-0.031348
-0.048534
-0.075279
-0.139947
-0.148115
-0.170790
-0.162300
-0.142876
-0.110969
-0.096665
-0.022068
0.050048
0.076034
0.109456
0.130030
0.123877
0.114126
0.080627
0.036406
0.002946
-0.025351
-0.075620
-0.105687
-0.122007
-0.137865
-0.155747
-0.156484
-0.136817
-0.113471
-0.066329
-0.025652
0.028718
0.110415
0.114901
0.099885
0.105054
0.118162
0.089586
0.059469
0.012032
-0.036683
-0.073278
-0.105471
-0.129640
-0.173446
-0.179854
-0.148659
-0.130984
-0.092528
-0.065432
-0.024462
0.034299
0.086987
0.116067
0.144432
0.155434
0.139966
0.108913
0.072042
0.027366
-0.031027
-0.076586
-0.105304
-0.152868
-0.203135
-0.155521
-0.151184
-0.155662
-0.119732
-0.075947
-0.034672
0.007870
0.058591
0.098920
0.124426
0.142491
0.132600
0.111614
0.086624
0.039647
-0.019124
-0.074570
-0.111532
-0.141988
-0.163549
-0.178617
-0.177180
-0.152286
-0.108110
-0.053172
-0.007598
0.047863
0.052701
0.117841
0.128274
0.134038
0.098808
0.076842
0.046235
0.007944
-0.005408
-0.057534
-0.090583
-0.122335
-0.171551
-0.190845
-0.161133
-0.132520
-0.113296
-0.067109
-0.006615
0.029450
0.052619
0.074680
0.122190
0.112469
0.100420
0.087464
0.055815
0.016835
-0.030742
-0.063006
-0.098044
-0.167718
-0.190604
-0.185458
-0.179595
-0.162698
-0.130113
-0.061795
-0.015507
0.043845
0.080297
0.098300
0.125368
0.104831
0.086951
0.085174
0.055985
0.010780
-0.051722
-0.103497
-0.123370
-0.167034
-0.198308
-0.199196
-0.178326
-0.163191
-0.128632
-0.080531
-0.036064
0.010408
0.069795
0.117108
0.127602
0.118395
0.122901
0.094982
0.047998
-0.000997
-0.059875
-0.079008
-0.122871
-0.142226
-0.179415
-0.180019
-0.193191
-0.167465
-0.133740
-0.074160
-0.013242
0.039040
0.032954
0.065878
0.102873
0.127734
0.131579
0.113378
0.065326
0.020811
0.009927
-0.101626
-0.164419
-0.176957
-0.210682
-0.222592
-0.212237
-0.156718
-0.148557
-0.097566
-0.050849
0.005678
0.058305
0.085871
0.050017
0.044534
0.089139
0.094825
0.079961
0.030469
-0.044662
-0.070217
-0.104379
-0.134306
-0.147323
-0.153648
-0.139081
-0.122699
-0.111291
-0.047816
0.005747
0.044424
0.073064
0.119839
0.143258
0.135720
0.124124
0.122936
0.091235
0.045347
0.010324
-0.027360
-0.058057
-0.109187
-0.155718
-0.183636
-0.160048
-0.137540
-0.095591
-0.050112
-0.018886
0.029603
0.086972
0.111586
0.124540
0.152384
0.099812
0.115822
0.138457
0.067871
0.001136
-0.043350
-0.068603
-0.061224
-0.104329
-0.118390
-0.115637
-0.093565
-0.056818
-0.023501
-0.004891
0.016696
0.075977
0.164350
0.181566
0.195842
0.183202
0.129690
0.082933
0.036023
0.018128
-0.038139
-0.100986
-0.139834
-0.153515
-0.160047
-0.164743
-0.148570
-0.116958
-0.066722
-0.047914
-0.005929
0.022156
0.069193
0.126850
0.120478
0.109773
0.074117
0.039506
0.006751
-0.037332
-0.103300
-0.133523
-0.154471
-0.193916
-0.196818
-0.180417
-0.149980
-0.144880
-0.100572
-0.046519
0.016248
0.052620
0.093232
0.119304
0.107031
0.060344
0.067510
0.063695
0.020308
-0.053247
-0.106913
-0.157257
-0.197972
-0.207342
-0.213451
-0.189651
-0.183322
-0.141873
-0.080183
-0.050313
-0.009165
0.020037
0.074638
0.103920
0.094088
0.083561
0.073222
0.068388
0.011974
-0.048066
-0.101200
-0.146629
-0.178918
-0.203265
-0.214815
-0.186331
-0.199740
-0.160263
-0.112406
-0.054901
0.002316
0.027478
0.049452
0.076458
0.094333
0.083575
0.024208
-0.015439
-0.021463
-0.064291
-0.101902
-0.127556
-0.161817
-0.207671
-0.208729
-0.207824
-0.197134
-0.136777
-0.084891
-0.044109
-0.008854
0.033621
0.062308
0.096419
0.100623
0.077752
0.076725
0.008785
-0.038272
-0.082117
-0.127928
-0.177833
-0.166399
-0.149950
-0.142173
-0.178490
-0.149202
-0.092143
-0.037173
0.017947
0.117549
0.180830
0.224996
0.282147
0.283245
0.262050
0.278000
0.282954
0.245988
0.197703
0.191512
0.208372
0.215753
0.221968
0.228641
0.278388
0.316927
0.357290
0.461468
0.547216
0.645702
0.713647
0.762583
0.832141
0.870914
0.872585
0.835223
0.801124
0.740757
0.691438
0.641657
0.542977
0.442911
0.385263
0.340141
0.310061
0.276880
0.223950
0.222076
0.232806
0.216017
0.220103
0.229599
0.209814
0.218725
0.203599
0.209927
0.169581
0.111310
0.041943
-0.011379
-0.051768
-0.085655
-0.101377
-0.104480
-0.090627
-0.064248
-0.058121
-0.011718
0.038672
0.100401
0.114070
0.138767
0.162185
0.161639
0.149153
0.129985
0.114842
0.050024
-0.032944
-0.036889
-0.024940
-0.088328
-0.141756
-0.196518
-0.166073
-0.111269
-0.084807
-0.036579
-0.010478
0.028639
0.067995
0.105222
0.128456
0.147605
0.136841
0.117385
0.074642
0.035132
-0.014463
-0.074122
-0.119682
-0.148464
-0.160839
-0.171520
-0.157128
-0.115340
-0.090113
-0.044145
0.009495
0.048752
0.061337
0.096130
0.121332
0.144413
0.155281
0.125138
0.102632
0.055484
0.025578
-0.037572
-0.101867
-0.151487
-0.145971
-0.133057
-0.135027
-0.123999
-0.105809
-0.055616
-0.003698
0.031964
0.063991
0.106419
0.139545
0.158380
0.131597
0.174328
0.148265
0.082723
0.017992
-0.059190
-0.101907
-0.135507
-0.146797
-0.163139
-0.158877
-0.113626
-0.063847
-0.016044
0.022230
0.101359
0.138004
0.165813
0.190856
0.177759
0.190788
0.185092
0.140941
0.071304
0.044791
0.019754
-0.025802
-0.060152
-0.088634
-0.106740
-0.112404
-0.077666
-0.042796
-0.009511
0.051675
0.108292
0.163718
0.198857
0.230567
0.214108
0.193757
0.191433
0.191120
0.139346
0.080272
0.044853
-0.018156
-0.065209
-0.081059
-0.077048
-0.076928
-0.046336
0.012830
0.048614
0.102882
0.139589
0.185845
0.230078
0.262258
0.274737
0.239594
0.220285
0.197609
0.132097
0.070569
0.029350
-0.013871
-0.050059
-0.057495
-0.028899
-0.026083
0.001906
0.006146
0.040017
0.070954
0.147245
0.209047
0.224742
0.250602
0.246673
0.231599
0.247512
0.208019
0.128776
0.101298
0.036616
0.004835
-0.034126
-0.060922
-0.069915
-0.061799
-0.036585
-0.018659
0.032037
0.081564
0.153185
0.181250
0.199864
0.196551
0.207087
0.212118
0.198090
0.160138
0.122051
0.089720
0.043080
0.029258
-0.004271
-0.044134
-0.068005
-0.095552
-0.074236
-0.032505
-0.012150
0.030224
0.080218
0.146811
0.178848
0.206103
0.220530
0.202573
0.165581
0.140418
0.092273
0.032272
-0.023937
-0.047218
-0.068311
-0.084201
-0.100817
-0.112400
-0.098401
-0.080608
-0.036939
-0.009219
0.063239
0.125838
0.164262
0.175993
0.155462
0.153093
0.142096
0.095346
0.059343
0.005062
-0.050401
-0.088446
-0.093639
-0.143413
-0.142114
-0.148198
-0.141225
-0.126851
-0.077862
-0.037939
0.013618
0.073060
0.105244
0.121484
0.185181
0.168707
0.108573
0.073859
0.052634
-0.014265
-0.041368
-0.076708
-0.129091
-0.175484
-0.197748
-0.182289
-0.142430
-0.137499
-0.058915
-0.004209
0.048417
0.070597
0.116359
0.131976
0.140751
0.152283
0.138295
0.088867
0.017448
-0.037829
-0.079929
-0.113263
-0.139436
-0.145226
-0.159000
-0.159118
-0.143369
-0.102826
-0.064496
-0.012607
0.042118
0.069005
0.088827
0.128706
0.148661
0.120430
0.102699
0.074002
0.028637
-0.027512
-0.070081
-0.106298
-0.126811
-0.130827
-0.155961
-0.147229
-0.109212
-0.105712
-0.085006
-0.025321
0.029420
0.081122
0.117550
0.123909
0.132746
0.142088
0.122718
0.082990
0.052235
0.024425
-0.042437
-0.121530
-0.148993
-0.138921
-0.158116
-0.152676
-0.140799
-0.094388
-0.062608
-0.001644
0.028691
0.028765
0.090643
0.130006
0.156466
0.161102
0.114490
0.095206
0.033878
-0.029506
-0.052376
-0.080376
-0.100992
-0.129737
-0.145543
-0.141977
-0.094581
-0.065274
-0.063335
-0.018255
0.024871
0.055818
0.111566
0.149540
0.175108
0.161361
0.125337
0.108324
0.037015
-0.028524
-0.075645
-0.090769
-0.118787
-0.147322
-0.166102
-0.141517
-0.135832
-0.111841
-0.058832
-0.026649
0.023185
0.066502
0.118683
0.143447
0.177749
0.153027
0.110671
0.081056
0.016024
-0.001178
-0.027531
-0.072100
-0.140824
-0.188258
-0.223930
-0.224100
-0.191557
-0.084973
-0.020531
0.005195
0.027343
0.041419
0.099294
0.136635
0.148422
0.138550
0.101655
0.074707
0.038362
0.003718
-0.041682
-0.082175
-0.152740
-0.186928
-0.204860
-0.169860
-0.114400
-0.088776
-0.056130
-0.028020
0.001588
0.041362
0.089516
0.104044
0.104877
0.105648
0.088130
0.059673
0.013588
-0.024604
-0.069297
-0.128396
-0.146124
-0.136414
-0.173393
-0.175071
-0.144008
-0.137170
-0.081322
-0.015904
0.034811
0.068489
0.125365
0.157722
0.167062
0.118755
0.096060
0.089691
0.054822
-0.038479
-0.103846
-0.114545
-0.138223
-0.157606
-0.183302
-0.190641
-0.156285
-0.102765
-0.077093
-0.030090
-0.005986
0.042384
0.092637
0.118171
0.129193
0.146099
0.086356
0.049645
0.016950
-0.002342
-0.067448
-0.141403
-0.162350
-0.178488
-0.185967
-0.166549
-0.139231
-0.118799
-0.060298
-0.022413
-0.002186
0.052599
0.133766
0.160601
0.154228
0.139947
0.130118
0.114090
0.063140
0.014325
-0.040100
-0.081281
-0.111063
-0.127804
-0.140388
-0.139932
-0.111099
-0.092358
-0.057222
-0.055120
0.023354
0.109237
0.152312
0.180381
0.175514
0.143534
0.154200
0.137556
0.063828
0.001662
-0.063913
-0.099516
-0.125306
-0.115527
-0.143622
-0.125439
-0.093533
-0.055127
-0.002966
0.054332
0.079446
0.111515
0.168467
0.214613
0.211909
0.189832
0.131298
0.067012
0.046037
0.009557
-0.048286
-0.089795
-0.101767
-0.130522
-0.151357
-0.127214
-0.097616
-0.099017
-0.083336
-0.008873
0.021152
0.059776
0.116412
0.147659
0.190583
0.182270
0.140162
0.083763
0.037811
-0.033238
-0.105518
-0.125489
-0.134264
-0.165075
-0.197119
-0.204998
-0.167188
-0.106721
-0.060337
-0.030505
0.033964
0.066562
0.081111
0.098026
0.113736
0.098700
0.078280
0.042063
0.006371
-0.019571
-0.074023
-0.147329
-0.169667
-0.221146
-0.219481
-0.188020
-0.170435
-0.166487
-0.107365
-0.056785
-0.021639
0.030764
0.040476
0.071001
0.110099
0.094763
0.074995
0.022559
-0.030216
-0.069003
-0.100158
-0.129976
-0.179996
-0.186511
-0.195416
-0.204449
-0.182371
-0.161049
-0.128047
-0.041777
0.017550
0.043831
0.076663
0.078612
0.073645
0.083339
0.081110
0.081737
0.023454
-0.061908
-0.098736
-0.139622
-0.169298
-0.198986
-0.226372
-0.223264
-0.214418
-0.167942
-0.107259
-0.058677
0.012825
0.053627
0.061440
0.075748
0.096804
0.088436
0.060522
0.035397
-0.015678
-0.076942
-0.125002
-0.144992
-0.161361
-0.181802
-0.189199
-0.195428
-0.192403
-0.193630
-0.149372
-0.060448
0.009211
0.058058
0.081263
0.117407
0.163523
0.182944
0.194797
0.205230
0.154864
0.130607
0.067379
0.043406
0.022467
0.020346
0.038949
0.079298
0.108218
0.168001
0.273380
0.345568
0.399159
0.456995
0.523829
0.576696
0.619500
0.659057
0.686133
0.694446
0.705042
0.730253
0.687332
0.632349
0.586427
0.542907
0.546209
0.565650
0.590810
0.606538
0.640867
0.660151
0.647702
0.592656
0.554466
0.543999
0.511908
0.463946
0.398489
0.316555
0.233792
0.147679
0.094574
0.026950
-0.028453
-0.056873
-0.074752
-0.058061
-0.039943
-0.027080
0.006019
0.040395
0.078025
0.144948
0.166432
0.157206
0.170044
0.191475
0.165015
0.120062
0.085273
0.035189
-0.031863
-0.058507
-0.075538
-0.120560
-0.143078
-0.142891
-0.132174
-0.104254
-0.056536
-0.001006
0.051026
0.083423
0.126544
0.138667
0.151511
0.139521
0.112089
0.074474
0.021875
-0.023124
-0.066577
-0.104614
-0.134779
-0.130924
-0.158755
-0.172047
-0.155375
-0.096626
-0.058676
-0.011808
0.049313
0.072502
0.113615
0.118469
0.094734
0.128126
0.122876
0.072085
0.018288
-0.031103
-0.071696
-0.102643
-0.139561
-0.161367
-0.157253
-0.148829
-0.110990
-0.069100
-0.031699
-0.002697
0.064837
0.103366
0.136555
0.178857
0.197036
0.174067
0.160867
0.109591
0.034205
-0.007673
-0.064999
-0.141405
-0.146301
-0.120449
-0.138940
-0.111316
-0.073408
-0.068228
-0.026553
-0.001584
0.057328
0.116863
0.143395
0.176332
0.206353
0.204570
0.167685
0.106189
0.043935
0.007110
-0.029362
-0.079969
-0.101512
-0.082057
-0.094892
-0.111952
-0.104471
-0.053511
0.011561
0.039741
0.060856
0.121738
0.148734
0.185981
0.234185
0.217826
0.219242
0.168708
0.122200
0.060734
0.026284
-0.013798
-0.042023
-0.078693
-0.059925
-0.056049
-0.063153
-0.031566
0.002657
0.082641
0.123875
0.168184
0.216154
0.234442
0.230034
0.241428
0.225096
0.196968
0.121868
0.064860
0.031211
0.002189
-0.064357
-0.095685
-0.081898
-0.050505
-0.037072
0.000461
0.053657
0.109954
0.123256
0.153304
0.216957
0.277826
0.267228
0.253880
0.238734
0.190177
0.139723
0.092120
0.045850
0.018703
-0.017347
-0.027836
-0.078374
-0.081376
-0.061292
-0.017413
0.033975
0.083186
0.147866
0.188194
0.226494
0.235841
0.214712
0.237878
0.243476
0.175938
0.116723
0.049444
0.007876
-0.023570
-0.024102
-0.036915
-0.076336
-0.080561
-0.051062
-0.026175
0.018695
0.068069
0.121693
0.177740
0.191120
0.179001
0.183276
0.191173
0.177045
0.147826
0.114709
0.068862
0.002564
-0.060423
-0.078897
-0.113321
-0.137326
-0.122457
-0.104957
-0.066955
-0.024915
0.034261
0.066533
0.119182
0.146532
0.151194
0.182544
0.179821
0.142883
0.091720
0.056685
-0.011506
-0.056216
-0.079680
-0.107765
-0.131180
-0.154447
-0.148980
-0.122682
-0.082438
-0.034541
0.006483
0.040026
0.073384
0.110500
0.125697
0.142857
0.138532
0.114562
0.088859
0.000237
-0.028520
-0.053296
-0.077604
-0.134837
-0.157657
-0.171697
-0.156362
-0.118094
-0.073279
-0.014401
0.040538
0.054780
0.048360
0.091077
0.103659
0.107244
0.098678
0.097338
0.087522
0.042318
-0.016098
-0.063219
-0.113390
-0.147028
-0.156624
-0.165673
-0.165869
-0.149938
-0.121011
-0.071760
0.014311
0.064963
0.098462
0.136319
0.148457
0.145311
0.142818
0.114279
0.080585
0.030211
-0.020879
-0.064026
-0.101363
-0.140320
-0.151557
-0.175472
-0.178707
-0.154972
-0.112290
-0.050763
0.023075
0.064544
0.091479
0.106272
0.121364
0.161181
0.147796
0.135593
0.084346
0.053917
0.041664
-0.020208
-0.090647
-0.120626
-0.163588
-0.212287
-0.197690
-0.140140
-0.093689
-0.034034
-0.006369
0.041086
0.115972
0.163640
0.192328
0.182149
0.153268
0.120642
0.052967
-0.000359
-0.017928
-0.042755
-0.062749
-0.114956
-0.133111
-0.149482
-0.166812
-0.126785
-0.081421
-0.054719
0.007111
0.062500
0.095654
0.115854
0.131020
0.153005
0.165547
0.136419
0.080509
0.031816
0.013348
-0.034404
-0.086279
-0.124018
-0.155775
-0.137949
-0.130655
-0.133371
-0.113837
-0.065906
0.019605
0.059307
0.076170
0.119038
0.141566
0.170312
0.164739
0.137740
0.097662
0.031417
-0.008063
-0.035509
-0.085885
-0.128792
-0.148619
-0.161249
-0.149296
-0.130315
-0.107088
-0.073733
-0.018120
0.017087
0.037839
0.085700
0.136279
0.163418
0.103357
0.106105
0.109611
0.047229
-0.003159
-0.060394
-0.119779
-0.136945
-0.128898
-0.155146
-0.140403
-0.131885
-0.108686
-0.064105
-0.019889
-0.008535
0.037026
0.092688
0.121828
0.139941
0.125500
0.104954
0.081432
0.034998
-0.009208
-0.054031
-0.104726
-0.157356
-0.187467
-0.213209
-0.186280
-0.148484
-0.085055
-0.027087
0.008675
0.020372
0.025414
0.048587
0.096370
0.092893
0.107743
0.119890
0.094472
0.051150
-0.005182
-0.076080
-0.147364
-0.192207
-0.169346
-0.160664
-0.152857
-0.146992
-0.117504
-0.061544
-0.016642
0.026364
0.062809
0.082474
0.109243
0.121810
0.126329
0.111558
0.073073
0.010707
-0.060417
-0.116315
-0.133048
-0.113218
-0.148229
-0.174494
-0.181476
-0.146927
-0.110324
-0.070118
-0.002160
0.083951
0.084443
0.089215
0.122676
0.144838
0.130548
0.098100
0.052774
0.029416
-0.005074
-0.037280
-0.065958
-0.111064
-0.152979
-0.142740
-0.116031
-0.090345
-0.082010
-0.064676
0.008362
0.075407
0.117495
0.178431
0.180596
0.145788
0.135084
0.115553
0.085023
0.031963
-0.022386
-0.052027
-0.108433
-0.144566
-0.109900
-0.100392
-0.139771
-0.119129
-0.074409
-0.019609
0.025408
0.074652
0.101093
0.125464
0.177431
0.182004
0.188263
0.163005
0.127274
0.060969
0.006407
-0.038714
-0.067077
-0.114876
-0.141382
-0.152752
-0.147273
-0.147318
-0.085215
-0.038672
-0.011742
0.052468
0.098808
0.106580
0.138179
0.173139
0.150209
0.126929
0.095764
0.036389
-0.014136
-0.079671
-0.135712
-0.168799
-0.203053
-0.192432
-0.161043
-0.131147
-0.113480
-0.086617
-0.031948
0.011807
0.041506
0.076016
0.094078
0.089327
0.086194
0.096584
0.054389
0.021254
-0.058394
-0.105162
-0.144729
-0.191539
-0.203245
-0.223823
-0.206844
-0.153799
-0.116478
-0.104909
-0.058413
-0.036900
0.001790
0.068805
0.093650
0.087158
0.078540
0.054562
0.029080
-0.001950
-0.053268
-0.133267
-0.159028
-0.188977
-0.187880
-0.196508
-0.216905
-0.174230
-0.146203
-0.089210
-0.028336
0.003885
0.045144
0.064691
0.082568
0.080365
0.081397
0.062488
0.013284
-0.016827
-0.053378
-0.109627
-0.161827
-0.177778
-0.212841
-0.234532
-0.222322
-0.200958
-0.165905
-0.122029
-0.073245
-0.016464
0.036640
0.072101
0.091742
0.100611
0.091844
0.065172
0.035845
-0.003068
-0.046417
-0.093964
-0.153092
-0.199016
-0.218006
-0.227564
-0.222765
-0.193155
-0.178411
-0.146308
-0.092466
-0.052875
0.004280
0.059947
0.098966
0.118113
0.119397
0.117330
0.082913
0.059185
0.028440
0.002854
-0.028134
-0.041025
-0.046777
-0.038307
-0.011757
0.030776
0.107402
0.180860
0.259482
0.338080
0.411085
0.501107
0.536180
0.571123
0.604296
0.615121
0.614635
0.628676
0.643588
0.657854
0.627150
0.597972
0.600813
0.603449
0.597415
0.630746
0.679453
0.717383
0.733110
0.766548
0.793021
0.785568
0.764743
0.688134
0.608566
0.528373
0.446336
0.350688
0.256570
0.159323
0.086491
0.035325
0.027175
0.017657
0.021529
0.021123
0.026308
0.036512
0.074317
0.104382
0.144139
0.171300
0.179445
0.182885
0.167755
0.147251
0.105007
0.049897
-0.004133
-0.037599
-0.079620
-0.111057
-0.133311
-0.136366
-0.125719
-0.105839
-0.086594
-0.055616
-0.011964
0.017198
0.072362
0.104795
0.114614
0.121261
0.131741
0.104999
0.040518
0.000248
-0.033504
-0.091119
-0.136147
-0.171792
-0.183186
-0.187266
-0.176164
-0.152647
-0.122206
-0.067335
-0.014996
0.014678
0.071669
0.116159
0.114177
0.138588
0.106908
0.072664
0.034345
-0.013016
-0.062436
-0.097497
-0.110658
-0.127258
-0.157216
-0.188451
-0.190621
-0.161067
-0.113161
-0.075382
-0.038330
0.011549
0.068449
0.106382
0.144256
0.159068
0.137951
0.095779
0.071969
0.022934
-0.034782
-0.091414
-0.134966
-0.199244
-0.182389
-0.157697
-0.117398
-0.081265
-0.049850
-0.035237
-0.007228
0.060072
0.096486
0.148680
0.188184
0.166369
0.160171
0.140178
0.107145
0.061514
0.015774
-0.044170
-0.077238
-0.101105
-0.123508
-0.138662
-0.126426
-0.112720
-0.079475
-0.028983
0.041302
0.081535
0.126669
0.158905
0.193479
0.196858
0.192045
0.164697
0.125769
0.067231
0.009993
-0.030288
-0.062776
-0.103117
-0.112440
-0.127879
-0.115287
-0.091501
-0.042797
0.002967
0.051629
0.101623
0.139923
0.181036
0.222689
0.240198
0.237862
0.219298
0.180667
0.120005
0.061112
-0.006958
-0.032434
-0.052746
-0.070625
-0.100791
-0.094990
-0.055173
-0.002106
0.027484
0.082680
0.141380
0.201534
0.245410
0.240773
0.237565
0.201128
0.140516
0.094058
0.095535
0.090857
0.059725
0.002783
-0.067196
-0.090614
-0.104274
-0.093246
-0.075420
-0.048177
0.031503
0.096558
0.146225
0.142801
0.163863
0.191809
0.211263
0.221031
0.206011
0.167557
0.134276
0.066670
0.012299
-0.047359
-0.108437
-0.137534
-0.123305
-0.107452
-0.079458
-0.033835
0.000961
0.049488
0.089089
0.102329
0.128514
0.144361
0.179728
0.218554
0.212718
0.139618
0.089704
0.046116
-0.017821
-0.079613
-0.117492
-0.131041
-0.142124
-0.157624
-0.179903
-0.125142
-0.036416
0.006774
0.057465
0.122615
0.147478
0.151494
0.127143
0.102820
0.091760
0.112562
0.055217
0.025239
-0.034489
-0.098264
-0.144932
-0.179057
-0.191438
-0.191880
-0.181711
-0.128630
-0.079386
-0.027720
0.027790
0.093742
0.092866
0.087976
0.132507
0.140436
0.074502
0.058436
0.028000
-0.013032
-0.071652
-0.113804
-0.160593
-0.201855
-0.213328
-0.179648
-0.153793
-0.133431
-0.097914
-0.047181
-0.004779
0.047920
0.076618
0.101116
0.100428
0.114684
0.058188
0.033431
0.011155
-0.022948
-0.064291
-0.115885
-0.152988
-0.185489
-0.204698
-0.219944
-0.217526
-0.166213
-0.108255
-0.063725
-0.013929
0.012692
0.034134
0.065270
0.095949
0.111105
0.106718
0.067167
0.030086
-0.041252
-0.076224
-0.111823
-0.145888
-0.164358
-0.202345
-0.203079
-0.166057
-0.114820
-0.080478
-0.041720
-0.007331
0.030935
0.064815
0.070423
0.078962
0.090137
0.081320
0.057677
0.027261
0.009793
-0.056658
-0.105142
-0.141407
-0.165785
-0.169044
-0.171280
-0.178797
-0.133759
-0.078202
-0.022503
0.021578
0.050717
0.073823
0.118501
0.136710
0.091128
0.062396
0.046147
0.015176
-0.039663
-0.082013
-0.103103
-0.132005
-0.166590
-0.164848
-0.157480
-0.134237
-0.108471
-0.078574
-0.031740
-0.007182
0.016021
0.031002
0.092580
0.142519
0.130658
0.091254
0.059454
0.025909
-0.024503
-0.074146
-0.116844
-0.152274
-0.174425
-0.172119
-0.158902
-0.130028
-0.106391
-0.063352
-0.011706
0.026278
0.066723
0.087934
0.099490
0.100958
0.123372
0.091752
0.052668
0.028371
-0.044936
-0.092493
-0.120248
-0.146893
-0.161935
-0.178581
-0.165793
-0.128515
-0.109710
-0.083911
-0.052871
0.003289
0.059545
0.108409
0.126036
0.111411
0.096402
0.073130
0.031033
0.003417
-0.038711
-0.055777
-0.116253
-0.192382
-0.229196
-0.237271
-0.209478
-0.176157
-0.116304
-0.079020
-0.030789
-0.005055
0.042509
0.076771
0.102003
0.120241
0.107788
0.082588
0.014272
0.010048
-0.028226
-0.096743
-0.145193
-0.170735
-0.181835
-0.193264
-0.189194
-0.194039
-0.161036
-0.101804
-0.055480
-0.011438
0.057121
0.107667
0.122610
0.130272
0.114530
0.066422
-0.027728
-0.077483
-0.115858
-0.117394
-0.115350
-0.156068
-0.178430
-0.203951
-0.205532
-0.191787
-0.123263
-0.088626
-0.062188
0.010576
0.040993
0.076033
0.093319
0.109739
0.137567
0.100792
0.044256
-0.010690
-0.049649
-0.107537
-0.106107
-0.163910
-0.207339
-0.220311
-0.214588
-0.188237
-0.138658
-0.114220
-0.078903
-0.025852
-0.013497
0.060135
0.129873
0.150178
0.127725
0.071697
-0.003336
-0.025092
-0.013051
-0.060871
-0.111567
-0.153219
-0.215108
-0.198305
-0.169467
-0.163199
-0.134664
-0.099826
-0.045474
0.019335
0.092294
0.116487
0.127931
0.137177
0.145412
0.120106
0.100953
0.070575
0.000182
-0.063561
-0.113040
-0.151190
-0.177693
-0.178754
-0.146817
-0.133947
-0.108355
-0.070588
-0.027519
0.023319
0.067097
0.090369
0.115268
0.120395
0.116585
0.122192
0.116448
0.065385
0.011066
-0.028256
-0.061898
-0.104052
-0.151128
-0.171355
-0.132044
-0.115472
-0.099312
-0.038539
0.022590
0.065647
0.094888
0.143808
0.154725
0.142393
0.111948
0.094306
0.087026
0.052045
0.002113
-0.053193
-0.096435
-0.128391
-0.163132
-0.181041
-0.167050
-0.156242
-0.118737
-0.099333
-0.063510
-0.008409
0.037169
0.052505
0.088181
0.104179
0.107152
0.070247
0.003687
-0.022365
-0.045357
-0.077619
-0.130088
-0.174656
-0.219455
-0.213681
-0.197221
-0.186148
-0.201011
-0.108556
-0.069234
-0.019052
0.015492
0.072707
0.071715
0.034457
0.059152
0.063637
0.016272
-0.027259
-0.064050
-0.100429
-0.127622
-0.186127
-0.236451
-0.224289
-0.218408
-0.199946
-0.166965
-0.125905
-0.066071
-0.023881
0.009173
0.032794
0.061998
0.084664
0.076580
0.051313
0.002752
-0.046303
-0.105349
-0.126419
-0.163627
-0.191516
-0.209923
-0.223444
-0.231718
-0.192970
-0.148079
-0.102721
-0.052218
-0.016723
0.011467
0.055136
0.052660
0.046745
0.061072
0.042887
0.028799
-0.029396
-0.092779
-0.134653
-0.164158
-0.211944
-0.212197
-0.211990
-0.221120
-0.194423
-0.169855
-0.119095
-0.061637
-0.022619
-0.011223
0.026432
0.076616
0.083656
0.064366
0.040371
0.017561
-0.026891
-0.078487
-0.120345
-0.172970
-0.215915
-0.237070
-0.196926
-0.159564
-0.136398
-0.108651
-0.069609
0.006546
0.073656
0.162111
0.211241
0.244560
0.274837
0.275485
0.280128
0.252951
0.243246
0.226706
0.209627
0.191055
0.204088
0.220840
0.219448
0.247118
0.342347
0.437516
0.479433
0.601465
0.695125
0.758593
0.824622
0.894590
0.919563
0.892255
0.871574
0.837117
0.778290
0.708769
0.649206
0.584442
0.516368
0.433503
0.342839
0.290786
0.260862
0.242414
0.222104
0.219136
0.238218
0.255328
0.271696
0.291418
0.307325
0.290133
0.251787
0.201110
0.140005
0.069048
0.003979
-0.048342
-0.103511
-0.125305
-0.129278
-0.135452
-0.139453
-0.104271
-0.058700
0.002319
0.049363
0.097780
0.157983
0.179473
0.157423
0.128570
0.111035
0.077477
0.047542
-0.002908
-0.073417
-0.144377
-0.165088
-0.199629
-0.203615
-0.160621
-0.162065
-0.140560
-0.106732
-0.047899
0.017873
0.071008
0.085986
0.111474
0.115911
0.118740
0.095305
0.057177
0.008579
-0.028811
-0.058960
-0.105882
-0.146696
-0.171881
-0.190780
-0.200901
-0.200935
-0.148000
-0.065225
-0.011978
-0.003221
0.040905
0.085842
0.109576
0.124369
0.130778
0.106368
0.065392
0.010191
-0.022007
-0.071140
-0.095704
-0.114842
-0.145201
-0.179021
-0.190117
-0.176137
-0.159142
-0.111259
0.016583
0.063629
0.073403
0.105961
0.134952
0.148272
0.142880
0.115307
0.054955
0.046799
0.001365
-0.045531
-0.079769
-0.134947
-0.149696
-0.157451
-0.143320
-0.105737
-0.074303
-0.041843
-0.006231
0.034889
0.078769
0.110378
0.126372
0.126933
0.153625
0.132399
0.116070
0.064215
0.033492
-0.017695
-0.057963
-0.080609
-0.101564
-0.115915
-0.120707
-0.080491
-0.044331
-0.006496
0.041445
0.106756
0.132695
0.172382
0.184828
0.177131
0.160870
0.135931
0.118743
0.077016
0.002460
-0.015188
-0.023415
-0.053408
-0.084042
-0.097215
-0.048768
-0.022248
-0.002241
0.039229
0.072935
0.121139
0.154138
0.192015
0.207500
0.204353
0.187239
0.163478
0.138265
0.090878
0.054420
0.036735
0.000022
-0.032543
-0.054620
-0.062365
-0.056929
-0.051984
-0.018703
0.018775
0.070122
0.120383
0.185148
0.212811
0.242226
0.241871
0.227633
0.203568
0.174938
0.102293
0.055528
-0.000033
-0.030599
-0.045985
-0.061551
-0.070431
-0.050175
-0.056811
-0.061939
0.000362
0.068561
0.132254
0.187842
0.181522
0.181885
0.169909
0.204587
0.180157
0.141518
0.111978
0.081711
0.028667
-0.022097
-0.071960
-0.110994
-0.125046
-0.110570
-0.092441
-0.069934
-0.030228
0.012966
0.070183
0.108834
0.156818
0.185108
0.185347
0.169353
0.158498
0.105226
0.064405
0.036443
-0.038240
-0.094995
-0.129682
-0.174732
-0.180988
-0.174037
-0.121491
-0.084935
-0.044633
0.014134
0.049967
0.090420
0.110566
0.131575
0.151106
0.159823
0.120477
0.064770
0.010114
-0.017256
-0.059984
-0.128731
-0.169248
-0.204792
-0.194529
-0.178090
-0.162026
-0.132066
-0.086337
-0.015297
0.031127
0.066046
0.098939
0.121524
0.147619
0.102558
0.082658
0.050605
-0.007703
-0.040876
-0.092079
-0.117110
-0.148346
-0.150084
-0.183299
-0.203061
-0.177079
-0.122613
-0.087671
-0.050993
-0.016325
0.038154
0.058821
0.084937
0.102218
0.119560
0.094382
0.057388
-0.004602
-0.029742
-0.078321
-0.115251
-0.136441
-0.159741
-0.185271
-0.189926
-0.181772
-0.147096
-0.095541
-0.029869
0.011373
0.044899
0.064849
0.089711
0.098323
0.094258
0.094670
0.064846
0.009243
-0.028827
-0.071048
-0.108027
-0.140935
-0.177419
-0.190595
-0.190684
-0.150326
-0.111964
-0.080115
-0.037047
0.004938
0.052351
0.086096
0.120972
0.127164
0.103371
0.087829
0.056732
0.019955
-0.034261
-0.075891
-0.104077
-0.144061
-0.194062
-0.213439
-0.160820
-0.130939
-0.106583
-0.058108
-0.017751
0.019764
0.064742
0.092024
0.130126
0.119096
0.095409
0.074207
0.039857
0.000530
-0.013862
-0.076804
-0.099559
-0.131126
-0.147359
-0.163012
-0.172985
-0.135899
-0.106305
-0.080972
-0.024749
0.024815
0.067540
0.103643
0.088233
0.079613
0.103865
0.082786
0.048083
-0.008489
-0.071163
-0.077831
-0.115082
-0.152006
-0.185323
-0.185729
-0.154555
-0.131071
-0.101862
-0.053711
-0.027895
0.017606
0.072758
0.096317
0.131728
0.133481
0.135599
0.095254
0.052093
0.018658
-0.023668
-0.090348
-0.135236
-0.148580
-0.171063
-0.168958
-0.176310
-0.154271
-0.120982
-0.066506
-0.033311
0.010910
0.064095
0.088217
0.116958
0.120496
0.099024
0.074779
0.043162
0.001378
-0.039296
-0.082688
-0.133436
-0.167588
-0.197165
-0.200949
-0.188134
-0.163545
-0.134554
-0.089346
-0.038687
-0.007384
0.030325
0.073891
0.098224
0.091519
0.074768
0.078696
0.054337
0.032081
-0.026903
-0.091612
-0.138969
-0.177680
-0.201288
-0.206445
-0.186292
-0.181229
-0.156050
-0.097818
-0.048576
0.005715
0.053378
0.076436
0.114350
0.127552
0.105485
0.081248
0.064477
0.010028
-0.059048
-0.110009
-0.153504
-0.192523
-0.213664
-0.210676
-0.195913
-0.173518
-0.144427
-0.127482
-0.069153
0.000108
0.073866
0.092684
0.092874
0.082511
0.096710
0.085051
0.075240
0.032527
-0.022315
-0.096104
-0.127691
-0.166743
-0.193705
-0.197278
-0.165284
-0.181181
-0.135598
-0.093547
-0.046166
-0.001768
0.087237
0.105778
0.122304
0.130631
0.126129
0.102650
0.068492
0.032034
-0.007152
-0.057734
-0.115542
-0.151376
-0.164991
-0.176295
-0.175479
-0.150336
-0.119949
-0.071075
-0.009081
0.049089
0.100423
0.113708
0.130188
0.135765
0.132102
0.114672
0.063329
0.021770
-0.033354
-0.083178
-0.128228
-0.151740
-0.185987
-0.140764
-0.137933
-0.113649
-0.094450
-0.068274
0.001728
0.072757
0.117727
0.146708
0.156385
0.169571
0.130363
0.152498
0.138239
0.071231
0.018491
-0.016710
-0.051286
-0.083230
-0.142330
-0.185133
-0.201868
-0.173368
-0.138682
-0.061968
-0.033378
-0.002260
0.044467
0.108501
0.149498
0.140086
0.126723
0.110073
0.059948
0.006707
-0.042877
-0.088961
-0.144575
-0.203152
-0.218407
-0.189913
-0.200443
-0.156047
-0.141766
-0.123822
-0.082093
-0.038825
0.018600
0.059475
0.094245
0.099538
0.080965
0.022320
0.001515
-0.014843
-0.072451
-0.107590
-0.142227
-0.172428
-0.216995
-0.218645
-0.210178
-0.188439
-0.159971
-0.131430
-0.074991
-0.033184
0.011952
0.031462
0.032204
0.026276
0.046168
0.050672
0.041480
-0.013333
-0.071938
-0.110285
-0.162928
-0.202996
-0.220173
-0.206065
-0.193128
-0.172302
-0.147687
-0.117716
-0.082373
-0.039150
0.006903
0.023356
0.066702
0.080753
0.050571
0.065268
0.042561
-0.005792
-0.052938
-0.111451
-0.154736
-0.186270
-0.236308
-0.233830
-0.224170
-0.193449
-0.153075
-0.107785
-0.119205
-0.029186
0.021895
0.053339
0.074691
0.051946
0.045265
0.010082
0.002371
-0.038006
-0.073303
-0.102215
-0.132657
-0.200333
-0.229037
-0.235528
-0.234067
-0.246429
-0.200834
-0.097746
-0.061412
0.000794
0.078673
0.100035
0.134393
0.161849
0.167670
0.155049
0.112421
0.055879
0.025775
-0.010862
-0.019029
-0.020604
-0.019720
-0.012428
0.015916
0.054891
0.117079
0.182023
0.266329
0.344393
0.424125
0.494086
0.535733
0.573919
0.587991
0.593018
0.589275
0.576210
0.592721
0.611431
0.584215
0.566646
0.525864
0.531318
0.531835
0.580408
0.616403
0.647453
0.643427
0.636980
0.651290
0.614820
0.579751
0.515459
0.500309
0.444301
0.363783
0.253662
0.143760
0.073612
0.003757
-0.063679
-0.090638
-0.079081
-0.056813
-0.065889
-0.044138
-0.005775
0.039303
0.083171
0.141354
0.182721
0.201720
0.204174
0.193120
0.141878
0.076777
0.040402
0.025357
-0.062349
-0.092885
-0.117349
-0.139689
-0.164209
-0.177279
-0.185965
-0.124915
-0.087424
-0.023457
0.020854
0.066062
0.093571
0.110470
0.130318
0.107305
0.066120
0.044473
0.020871
-0.026483
-0.065200
-0.130570
-0.156667
-0.181359
-0.213565
-0.211615
-0.179129
-0.154402
-0.100244
-0.030640
0.016399
0.054744
0.087620
0.123485
0.133195
0.123942
0.112174
0.074519
0.020709
-0.029019
-0.053554
-0.103758
-0.141772
-0.174520
-0.182007
-0.183473
-0.164941
-0.127041
-0.077199
-0.021469
0.032206
0.067010
0.102952
0.117236
0.117204
0.116913
0.092571
0.078196
0.034299
0.007384
-0.050309
-0.097418
-0.135838
-0.164419
-0.169434
-0.180504
-0.170576
-0.120480
-0.073415
0.000844
0.047410
0.076387
0.121544
0.150347
0.148781
0.130105
0.103465
0.085923
0.052751
0.011822
-0.035424
-0.085390
-0.150817
-0.201353
-0.198297
-0.144050
-0.099783
-0.044256
-0.018762
0.013710
0.053990
0.110086
0.149926
0.156029
0.150573
0.144518
0.142582
0.131977
0.090297
0.019985
-0.001646
-0.041909
-0.094675
-0.115731
-0.108030
-0.088084
-0.066939
-0.046999
0.008107
0.051304
0.093024
0.134013
0.166596
0.190965
0.196189
0.191078
0.192856
0.165566
0.127554
0.072077
0.039187
-0.003857
-0.040247
-0.056522
-0.075521
-0.069969
-0.049642
-0.015057
0.030287
0.064986
0.097145
0.132228
0.172079
0.239791
0.250635
0.218571
0.166535
0.140168
0.083318
0.045188
0.037175
0.002226
-0.041971
-0.088574
-0.100786
-0.080198
-0.051494
-0.015022
0.024931
0.059241
0.110185
0.159766
0.200601
0.211828
0.206790
0.184729
0.171061
0.150786
0.101920
0.044779
0.002476
-0.044322
-0.077974
-0.122585
-0.117103
-0.119473
-0.085448
-0.041322
0.003538
0.033821
0.101737
0.152838
0.175952
0.191543
0.200347
0.183864
0.145135
0.108376
0.067835
0.024559
-0.027872
-0.070896
-0.111872
-0.130988
-0.131467
-0.118746
-0.096803
-0.068482
-0.031953
0.016287
0.075421
0.091718
0.114376
0.147172
0.146845
0.123445
0.105002
0.055790
-0.003894
-0.043680
-0.062867
-0.095041
-0.137236
-0.162515
-0.186467
-0.182260
-0.154302
-0.109141
-0.080958
-0.029003
0.043271
0.085075
0.116141
0.128004
0.132527
0.122443
0.083052
0.045212
-0.004318
-0.049103
-0.093713
-0.142409
-0.174220
-0.185616
-0.201265
-0.192899
-0.170364
-0.159192
-0.107324
-0.053875
0.001661
0.058329
0.080457
0.103319
0.112926
0.095528
0.059664
0.040104
0.003748
-0.058727
-0.105059
-0.146721
-0.185463
-0.200033
-0.209333
-0.182738
-0.158799
-0.141254
-0.113577
-0.065791
-0.013976
0.048691
0.085366
0.114432
0.117278
0.107657
0.088673
0.050289
-0.002590
-0.042463
-0.086543
-0.134094
-0.194870
-0.219944
-0.197796
-0.173460
-0.155932
-0.118917
-0.082927
-0.030721
0.015610
0.070653
0.114285
0.115550
0.122543
0.101388
0.082431
0.052530
0.008373
-0.036407
-0.064796
-0.115088
-0.146430
-0.175970
-0.175723
-0.162409
-0.166569
-0.136621
-0.085146
-0.040254
0.013361
0.070400
0.104236
0.116500
0.100980
0.106025
0.097282
0.079958
0.023638
-0.019135
-0.080291
-0.115771
-0.152448
-0.174126
-0.178361
-0.163100
-0.151939
-0.134593
-0.085740
-0.040870
-0.002403
0.040474
0.076689
0.106592
0.130318
0.136216
0.105993
0.058402
0.024142
-0.033642
-0.078694
-0.109580
-0.131564
-0.183198
-0.211387
-0.209590
-0.170217
-0.134980
-0.110967
-0.057649
-0.019222
0.045605
0.090123
0.115627
0.123500
0.112281
0.078493
0.050851
0.016572
-0.019475
-0.067806
-0.108986
-0.149331
-0.185497
-0.210329
-0.190270
-0.166890
-0.139227
-0.093311
-0.056857
0.007326
0.069532
0.100035
0.113208
0.113284
0.101428
0.084530
0.042883
-0.025223
-0.059920
-0.101642
-0.115859
-0.139622
-0.172328
-0.188914
-0.179400
-0.168646
-0.139477
-0.087164
-0.039153
0.003453
0.049950
0.072762
0.099803
0.100286
0.089943
0.064497
0.028770
-0.011658
-0.043661
-0.078821
-0.134183
-0.172318
-0.189239
-0.206275
-0.204478
-0.175095
-0.140510
-0.098108
-0.054235
-0.010697
0.036882
0.083956
0.102985
0.084469
0.082339
0.047505
0.021416
0.001611
-0.059059
-0.095939
-0.144983
-0.189522
-0.198551
-0.202554
-0.189552
-0.171900
-0.146538
-0.101890
-0.053166
-0.000760
0.029094
0.063174
0.075731
0.090616
0.085593
0.074986
0.049142
0.001829
-0.037965
-0.093576
-0.152182
-0.199327
-0.223893
-0.218020
-0.206752
-0.182263
-0.150698
-0.119871
-0.061707
0.001483
0.027929
0.064179
0.082485
0.132558
0.115198
0.084223
0.043652
-0.002181
-0.056960
-0.099708
-0.119629
-0.157926
-0.180689
-0.199760
-0.185640
-0.153406
-0.124175
-0.066158
-0.018379
0.026362
0.076366
0.116561
0.119644
0.113686
0.113937
0.123464
0.089146
0.025872
-0.028659
-0.075288
-0.127109
-0.168665
-0.190111
-0.194952
-0.181080
-0.151639
-0.114047
-0.063937
-0.004790
0.034466
0.095735
0.126433
0.164396
0.172635
0.163026
0.127607
0.091646
0.050475
0.010797
-0.028652
-0.082572
-0.135177
-0.152832
-0.165590
-0.169748
-0.142201
-0.117042
-0.083699
-0.052309
0.009601
0.061012
0.097794
0.119915
0.135932
0.130777
0.083735
0.042923
0.004198
-0.045959
-0.105291
-0.139048
-0.173399
-0.209172
-0.192830
-0.184273
-0.162143
-0.145671
-0.114274
-0.062628
-0.023410
0.020046
0.074275
0.084096
0.099047
0.095365
0.052501
0.018760
-0.035185
-0.068641
-0.122528
-0.169115
-0.191826
-0.197374
-0.220613
-0.245371
-0.232443
-0.207333
-0.157974
-0.106463
-0.061226
-0.009471
0.032383
0.041532
0.063371
0.060560
0.061079
-0.006223
-0.055244
-0.074395
-0.113809
-0.158956
-0.208105
-0.234133
-0.252431
-0.212298
-0.178123
-0.157767
-0.123501
-0.076360
-0.030029
0.011672
0.053209
0.051816
0.057549
0.066900
0.052604
0.008918
-0.042598
-0.082167
-0.131651
-0.188815
-0.222488
-0.245538
-0.259867
-0.258098
-0.215003
-0.170357
-0.119802
-0.076428
-0.038436
0.005249
0.035266
0.079160
0.064821
0.049613
0.033026
-0.003382
-0.051081
-0.084122
-0.129986
-0.182780
-0.223899
-0.237501
-0.222489
-0.218198
-0.214967
-0.197301
-0.149102
-0.098695
-0.047992
0.022463
0.053478
0.068762
0.078969
0.084478
0.073843
0.056886
0.018588
-0.009892
-0.037769
-0.075349
-0.084305
-0.085351
-0.086359
-0.045023
0.011898
0.041989
0.099378
0.150063
0.235319
0.302771
0.363602
0.423596
0.463688
0.469847
0.458014
0.454652
0.449189
0.437637
0.438129
0.451297
0.433236
0.443760
0.479238
0.509606
0.555109
0.597359
0.622487
0.657968
0.724650
0.770070
0.796574
0.765231
0.744576
0.673148
0.557953
0.475645
0.376991
0.298538
0.213870
0.098701
0.021004
-0.029712
-0.059269
-0.071025
-0.063325
-0.041661
-0.016983
0.039926
0.081400
0.123593
0.160395
0.183006
0.187143
0.172717
0.132315
0.103152
0.046986
-0.012074
-0.061849
-0.112926
-0.139777
-0.175239
-0.195541
-0.189055
-0.161653
-0.105885
-0.070035
-0.027995
0.016690
0.062551
0.103695
0.122459
0.127600
0.119103
0.084397
0.055554
0.001766
-0.037545
-0.086834
-0.136249
-0.176024
-0.188375
-0.204274
-0.195543
-0.167415
-0.140684
-0.095743
-0.044500
0.007677
0.055240
0.086348
0.094433
0.097346
0.071142
0.082936
0.055942
-0.008244
-0.042716
-0.074292
-0.145767
-0.173618
-0.181686
-0.215667
-0.197905
-0.156487
-0.121187
-0.087177
-0.044841
0.015156
0.045488
0.087800
0.113383
0.141847
0.127444
0.085769
0.038133
0.009028
-0.048663
-0.110292
-0.106566
-0.152705
-0.189195
-0.193927
-0.183578
-0.153787
-0.118710
-0.063964
-0.021783
0.015423
0.063552
0.085163
0.098349
0.112380
0.128979
0.107094
0.071504
0.023225
-0.029515
-0.078708
-0.101182
-0.130579
-0.139853
-0.154260
-0.171764
-0.147364
-0.084235
-0.060745
-0.013971
0.041734
0.090319
0.114585
0.141131
0.154254
0.153707
0.122872
0.077772
0.037344
-0.014591
-0.039299
-0.072407
-0.109083
-0.123888
-0.114690
-0.112971
-0.084614
-0.051828
-0.027608
0.006220
0.063182
0.105639
0.149608
0.169334
0.177467
0.175067
0.155350
0.116912
0.087998
0.028202
-0.004874
-0.046271
-0.095742
-0.116999
-0.119993
-0.122330
-0.095404
-0.047779
-0.003235
0.034952
0.113076
0.141881
0.164675
0.171691
0.163426
0.186400
0.173240
0.151258
0.092753
0.027125
-0.026787
-0.066003
-0.080644
-0.108764
-0.124794
-0.113115
-0.064738
-0.005228
0.020280
0.040759
0.084114
0.124171
0.154444
0.186238
0.209329
0.173108
0.136041
0.099855
0.062643
0.021839
-0.020191
-0.057911
-0.103647
-0.113088
-0.106150
-0.103797
-0.091681
-0.056332
-0.002189
0.049827
0.082037
0.116581
0.146748
0.167865
0.164402
0.152385
0.137176
0.106667
0.052286
0.003324
-0.043464
-0.071704
-0.129825
-0.150377
-0.173768
-0.159976
-0.136244
-0.094453
-0.047445
-0.000766
0.037119
0.086418
0.105802
0.114488
0.133447
0.128129
0.105678
0.064472
0.015317
-0.041378
-0.086507
-0.118561
-0.151794
-0.200952
-0.227787
-0.212406
-0.177149
-0.144019
-0.103322
-0.032795
0.027177
0.067515
0.085717
0.102793
0.108679
0.098832
0.066065
0.036392
-0.006970
-0.081295
-0.126987
-0.139362
-0.175361
-0.210626
-0.246655
-0.215701
-0.159951
-0.139079
-0.100584
-0.079818
-0.024002
0.049205
0.094014
0.092094
0.091235
0.102115
0.059747
0.019211
-0.002714
-0.056685
-0.106201
-0.138258
-0.184708
-0.229445
-0.252308
-0.241718
-0.192759
-0.143554
-0.120233
-0.070914
-0.008032
0.028856
0.060795
0.080441
0.098783
0.117997
0.072983
0.031847
-0.009430
-0.063735
-0.109390
-0.134223
-0.198019
-0.234394
-0.208353
-0.192983
-0.184402
-0.154130
-0.112594
-0.068990
-0.019736
0.026640
0.078134
0.108817
0.111532
0.123011
0.097450
0.053302
0.010319
-0.038454
-0.095882
-0.137173
-0.178996
-0.198107
-0.216687
-0.194661
-0.164842
-0.145411
-0.089021
-0.025182
-0.009224
0.015601
0.051923
0.098878
0.102453
0.119128
0.089063
0.033597
-0.034917
-0.044594
-0.098793
-0.151657
-0.220220
-0.220578
-0.170027
-0.173021
-0.169936
-0.113516
-0.054640
-0.045417
-0.020490
0.035598
0.072540
0.091300
0.123084
0.131939
0.094969
0.039531
0.004354
-0.054041
-0.133939
-0.192944
-0.206317
-0.201073
-0.190797
-0.185393
-0.157277
-0.128216
-0.069305
-0.028541
0.009442
0.041667
0.052968
0.076547
0.094121
0.094393
0.062905
0.040256
0.005485
-0.045478
-0.084905
-0.121095
-0.158077
-0.191045
-0.180450
-0.198796
-0.187626
-0.150929
-0.108738
-0.062681
-0.001266
0.050006
0.088819
0.107877
0.107869
0.108814
0.071909
0.019891
-0.040676
-0.060938
-0.093996
-0.131482
-0.145821
-0.175060
-0.199725
-0.212951
-0.161501
-0.134750
-0.111871
-0.067749
-0.041654
-0.007207
0.053667
0.074586
0.101255
0.075719
0.068266
0.055489
0.015177
-0.063913
-0.132662
-0.159573
-0.175872
-0.195408
-0.200888
-0.207834
-0.174988
-0.136789
-0.080938
-0.068842
-0.041342
0.004467
0.057355
0.082204
0.113899
0.092922
0.056662
0.027047
-0.023420
-0.071413
-0.125322
-0.179274
-0.183656
-0.202046
-0.217607
-0.226942
-0.194839
-0.166076
-0.117303
-0.073059
-0.018541
0.008222
0.041513
0.060080
0.095456
0.103805
0.076686
0.029857
-0.040652
-0.091127
-0.121863
-0.158154
-0.211955
-0.193245
-0.174882
-0.160168
-0.139507
-0.096369
-0.078677
-0.036026
0.054348
0.085768
0.108449
0.096642
0.083807
0.100726
0.084077
0.028324
-0.009335
-0.036464
-0.080509
-0.115753
-0.138415
-0.157786
-0.178742
-0.186016
-0.158293
-0.133404
-0.078239
-0.013479
0.029174
0.067570
0.097613
0.112796
0.120193
0.112772
0.088194
0.056384
0.014765
-0.044715
-0.081730
-0.115649
-0.145417
-0.162704
-0.167945
-0.155232
-0.121464
-0.091124
-0.051057
0.010586
0.047819
0.088050
0.137753
0.150255
0.152482
0.136641
0.103805
0.042581
0.002722
-0.045906
-0.095259
-0.143001
-0.186140
-0.206146
-0.192217
-0.180269
-0.158753
-0.136770
-0.107007
-0.024921
0.025307
0.070221
0.101190
0.109694
0.104460
0.103038
0.077431
0.009157
-0.054363
-0.098619
-0.141788
-0.168491
-0.202770
-0.225111
-0.218412
-0.218612
-0.198686
-0.180603
-0.125690
-0.083544
-0.037012
0.023825
0.066226
0.072346
0.072494
0.060195
0.027729
-0.010719
-0.037794
-0.080767
-0.135572
-0.178412
-0.242918
-0.260951
-0.272537
-0.266167
-0.234075
-0.168976
-0.120329
-0.089897
-0.047852
0.007398
0.040053
0.069028
0.079475
0.052875
0.033129
0.006073
-0.035088
-0.089325
-0.148671
-0.204795
-0.242200
-0.239168
-0.258564
-0.254149
-0.222609
-0.202801
-0.162077
-0.112276
-0.059621
-0.039598
-0.023314
-0.013900
0.056795
0.091322
0.065197
0.015097
-0.011110
-0.068742
-0.131166
-0.175281
-0.220107
-0.238499
-0.245796
-0.246148
-0.247881
-0.192360
-0.163498
-0.144126
-0.047967
0.017735
0.052930
0.063015
0.067760
0.026941
-0.014766
-0.032773
-0.050247
-0.101355
-0.145537
-0.156959
-0.205708
-0.215142
-0.228384
-0.213975
-0.189259
-0.142379
-0.094377
-0.039890
0.018838
0.095279
0.172884
0.197078
0.208564
0.224917
0.231722
0.235171
0.215423
0.178135
0.149317
0.136364
0.137410
0.147096
0.171871
0.203463
0.261385
0.324538
0.395743
0.458706
0.572332
0.622966
0.711748
0.752127
0.798315
0.829581
0.848739
0.799773
0.756344
0.697497
0.648458
0.590493
0.528925
0.480093
0.438154
0.408162
0.357611
0.309122
0.275151
0.298178
0.308196
0.285195
0.272452
0.258405
0.246895
0.238575
0.197949
0.170239
0.121613
0.054535
0.008251
-0.048963
-0.089733
-0.100216
-0.111007
-0.124172
-0.113001
-0.083914
-0.036185
0.004912
0.043881
0.085685
0.113910
0.124088
0.115411
0.121614
0.105131
0.055025
0.014460
-0.026197
-0.064666
-0.120247
-0.174404
-0.180710
-0.144788
-0.134192
-0.120316
-0.107671
-0.079516
-0.035266
-0.021480
0.023186
0.078545
0.124930
0.100835
0.095602
0.073235
0.029774
-0.007326
-0.053618
-0.117802
-0.157826
-0.176942
-0.191235
-0.197415
-0.193271
-0.162928
-0.111205
-0.075376
-0.034716
0.013349
0.073616
0.102112
0.107204
0.118563
0.110912
0.084141
0.043843
0.001895
-0.047000
-0.085232
-0.148014
-0.190056
-0.211595
-0.214255
-0.190228
-0.144702
-0.118811
-0.074920
-0.018309
0.042619
0.072364
0.103827
0.132677
0.146462
0.132007
0.114946
0.076354
0.030620
-0.005417
-0.065681
-0.106798
-0.138852
-0.167775
-0.192694
-0.167306
-0.135990
-0.097962
-0.052731
0.002664
0.043135
0.070364
0.100912
0.136126
0.156337
0.156137
0.134704
0.090253
0.038481
-0.000406
-0.044297
-0.077450
-0.119807
-0.135135
-0.141508
-0.132319
-0.106761
-0.076321
-0.036246
0.014044
0.070015
0.107035
0.164275
0.202311
0.198617
0.183005
0.162993
0.133651
0.087148
0.026716
-0.004622
-0.048032
-0.104334
-0.106904
-0.111044
-0.107643
-0.097074
-0.055461
-0.002623
0.043564
0.082710
0.125746
0.171174
0.210171
0.224630
0.219564
0.181722
0.149696
0.128224
0.088599
0.040042
-0.017205
-0.064716
-0.117709
-0.146841
-0.102020
-0.063368
-0.022121
0.001368
0.061916
0.121071
0.165655
0.186278
0.197215
0.204766
0.207367
0.178940
0.142913
0.102930
0.055886
-0.008691
-0.045034
-0.076095
-0.082634
-0.096451
-0.088803
-0.056642
-0.036441
-0.002985
0.033217
0.075880
0.119411
0.159655
0.198098
0.198491
0.185190
0.169636
0.141716
0.103744
0.047649
-0.010649
-0.056699
-0.098456
-0.111776
-0.108870
-0.112976
-0.099746
-0.077914
-0.028073
0.036100
0.069839
0.114966
0.132407
0.151343
0.163167
0.160165
0.134565
0.088796
0.046211
-0.012205
-0.060262
-0.092692
-0.129638
-0.153483
-0.151265
-0.137204
-0.128843
-0.100649
-0.056048
0.002605
0.043472
0.076197
0.099737
0.091881
0.090574
0.104565
0.103579
0.075744
0.027825
-0.028442
-0.063591
-0.109898
-0.143969
-0.173059
-0.188637
-0.186879
-0.167384
-0.135930
-0.089575
-0.039610
0.002359
0.051044
0.078956
0.102637
0.117355
0.106595
0.087155
0.067851
-0.004000
-0.036572
-0.097645
-0.147019
-0.178675
-0.196389
-0.209572
-0.192437
-0.181098
-0.147776
-0.099599
-0.045611
-0.011329
0.037036
0.088744
0.110384
0.090166
0.076917
0.064599
0.039634
-0.018383
-0.054827
-0.099844
-0.142414
-0.191967
-0.217342
-0.205917
-0.172885
-0.147619
-0.135419
-0.093860
-0.046150
-0.002549
0.050326
0.080306
0.108912
0.115842
0.109339
0.099741
0.061606
-0.000316
-0.077991
-0.111434
-0.130082
-0.165583
-0.211099
-0.206814
-0.211461
-0.166546
-0.104060
-0.077980
-0.048560
0.002472
0.051991
0.092530
0.117583
0.116578
0.114640
0.086542
0.050977
0.007190
-0.039558
-0.092086
-0.139196
-0.171926
-0.190487
-0.188929
-0.181091
-0.157469
-0.124138
-0.068741
-0.028991
0.011873
0.066545
0.095687
0.093083
0.118875
0.105850
0.082575
0.049771
0.014427
-0.038242
-0.081441
-0.117052
-0.161753
-0.180902
-0.179279
-0.171327
-0.149914
-0.117852
-0.088820
-0.046223
-0.002544
0.039437
0.091768
0.127271
0.134437
0.108008
0.088177
0.042507
-0.004711
-0.038946
-0.089857
-0.127355
-0.166905
-0.185461
-0.196710
-0.194470
-0.159300
-0.132292
-0.088731
-0.058393
-0.015265
0.023536
0.061214
0.116752
0.142888
0.111824
0.075371
0.047048
0.035898
-0.005825
-0.078914
-0.145461
-0.176742
-0.182954
-0.198707
-0.195615
-0.188785
-0.141958
-0.093228
-0.054446
0.000747
0.037416
0.058799
0.069704
0.099118
0.084485
0.058662
0.038133
0.015644
-0.011261
-0.056348
-0.125393
-0.184425
-0.220423
-0.220387
-0.214136
-0.180507
-0.131164
-0.076221
-0.044063
-0.025235
0.028935
0.062206
0.089871
0.107930
0.095961
0.071663
0.064710
0.012713
-0.055856
-0.111306
-0.150420
-0.175749
-0.198734
-0.205838
-0.200939
-0.182824
-0.155460
-0.105872
-0.055753
-0.025084
0.009380
0.084266
0.102492
0.102258
0.095979
0.062862
0.035653
-0.010042
-0.048712
-0.107422
-0.147176
-0.175541
-0.200465
-0.198574
-0.178831
-0.168844
-0.136302
-0.112245
-0.051274
0.000604
0.039632
0.068523
0.097071
0.090148
0.098698
0.052843
-0.014919
-0.064982
-0.056652
-0.075442
-0.113309
-0.158401
-0.180159
-0.193649
-0.183725
-0.163860
-0.116766
-0.077369
-0.029015
0.017202
0.072486
0.095551
0.111738
0.099072
0.086501
0.078034
0.037364
-0.009457
-0.045706
-0.068635
-0.087360
-0.125667
-0.158218
-0.172729
-0.174699
-0.147499
-0.087886
-0.050442
-0.016787
0.035996
0.084579
0.109023
0.120462
0.140088
0.101212
0.096850
0.081906
0.014994
-0.013509
-0.062027
-0.086896
-0.118468
-0.137786
-0.153883
-0.141198
-0.106570
-0.095178
-0.047579
0.010035
0.058948
0.105525
0.136013
0.151692
0.164588
0.138904
0.113380
0.071453
0.022146
-0.030892
-0.086805
-0.140052
-0.182041
-0.198733
-0.185165
-0.179857
-0.157708
-0.122024
-0.086895
-0.035788
0.021361
0.058867
0.082950
0.099034
0.109179
0.110398
0.082045
0.047880
-0.021341
-0.068789
-0.126438
-0.175295
-0.210461
-0.218530
-0.227316
-0.223673
-0.209257
-0.157471
-0.099420
-0.041714
-0.024870
0.012364
0.052948
0.061541
0.062359
0.038154
0.041520
0.010492
-0.033724
-0.084870
-0.140575
-0.193792
-0.241846
-0.257366
-0.268793
-0.260147
-0.245697
-0.207292
-0.171135
-0.096659
-0.028182
0.045516
0.080992
0.086310
0.113797
0.088591
0.045154
-0.013443
-0.030723
-0.073229
-0.134063
-0.180070
-0.228138
-0.261983
-0.281539
-0.251530
-0.218940
-0.168513
-0.132186
-0.099125
-0.044820
-0.010752
0.038487
0.077096
0.086068
0.069692
0.049960
0.021739
-0.021937
-0.079357
-0.119394
-0.165176
-0.201352
-0.223051
-0.222079
-0.225515
-0.218151
-0.175249
-0.126576
-0.101163
-0.064578
0.006077
0.043631
0.052264
0.053822
0.052199
0.054560
0.001779
-0.058451
-0.110697
-0.159386
-0.198870
-0.241741
-0.265582
-0.246616
-0.233799
-0.203885
-0.156743
-0.097336
-0.033609
0.023137
0.068552
0.126845
0.165832
0.190054
0.190648
0.184163
0.166041
0.148134
0.105856
0.087260
0.094550
0.086328
0.094148
0.112156
0.149712
0.204612
0.271293
0.345658
0.444503
0.541297
0.601168
0.682268
0.760542
0.813998
0.829237
0.828494
0.827961
0.810410
0.785966
0.729090
0.688784
0.637893
0.577323
0.547511
0.540378
0.522646
0.464183
0.402812
0.406181
0.407386
0.428295
0.400643
0.363336
0.338219
0.301522
0.277707
0.245243
0.179542
0.118904
0.057599
-0.005938
-0.039808
-0.063344
-0.094733
-0.099377
-0.087654
-0.054371
-0.010528
0.043910
0.070455
0.093071
0.114263
0.132573
0.156751
0.143933
0.122372
0.064751
0.030537
-0.024125
-0.089189
-0.103981
-0.136616
-0.182822
-0.201424
-0.182448
-0.158787
-0.142019
-0.089842
-0.009881
0.033211
0.062529
0.075662
0.084453
0.108872
0.097089
0.087763
0.060076
0.006870
-0.028714
-0.079010
-0.150573
-0.192129
-0.178515
-0.177935
-0.193710
-0.159793
-0.121580
-0.088217
-0.034211
0.007363
0.052348
0.086065
0.104533
0.106340
0.061375
0.048303
0.016552
-0.036251
-0.063603
-0.070209
-0.113105
-0.147169
-0.183700
-0.186713
-0.164159
-0.126019
-0.095517
-0.049571
-0.004510
0.015569
0.052270
0.058100
0.051323
0.068049
0.071359
0.078668
0.049488
0.027228
-0.037828
-0.061363
-0.092625
-0.120177
-0.120406
-0.150286
-0.165283
-0.132228
-0.109675
-0.081986
-0.025669
0.058918
0.110923
0.128591
0.149493
0.177818
0.163244
0.117395
0.075234
0.040631
0.001173
-0.051729
-0.080391
-0.125134
-0.156487
-0.132663
-0.108946
-0.106554
-0.065678
-0.013099
0.026306
0.072141
0.104669
0.118228
0.157616
0.160605
0.182058
0.184930
0.137792
0.098983
0.053350
-0.014215
-0.068179
-0.087024
-0.114768
-0.135652
-0.105679
-0.078733
-0.051345
-0.002127
0.066427
0.128239
0.183200
0.200025
0.201832
0.196524
0.219433
0.197730
0.167440
0.091717
0.046686
0.035207
-0.027169
-0.062327
-0.092684
-0.087030
-0.078574
-0.071184
-0.020579
0.034103
0.071866
0.114886
0.157789
0.161866
0.135372
0.158953
0.155880
0.211487
0.188206
0.132333
0.081254
0.060466
0.013989
-0.042855
-0.092908
-0.129144
-0.117045
-0.119739
-0.090886
-0.022769
0.067191
0.143371
0.195747
0.185920
0.181351
0.203970
0.223732
0.226070
0.188491
0.133474
0.074206
0.020148
-0.039119
-0.093822
-0.126510
-0.132935
-0.143210
-0.105543
-0.043668
0.002184
0.028768
0.061425
0.099870
0.149932
0.160683
0.175104
0.167754
0.169506
0.138912
0.074361
0.008884
-0.017528
-0.053616
-0.110166
-0.133658
-0.142896
-0.153768
-0.132308
-0.082523
-0.071742
-0.030440
0.067820
0.117255
0.133806
0.123464
0.140013
0.128395
0.096887
0.060849
0.004764
-0.031507
-0.076682
-0.119378
-0.145002
-0.153569
-0.164833
-0.159228
-0.151681
-0.119582
-0.090663
-0.041454
-0.005110
0.029796
0.087526
0.143173
0.152555
0.113569
0.076658
0.039721
-0.009758
-0.051316
-0.100823
-0.123540
-0.164315
-0.183929
-0.190916
-0.194576
-0.157317
-0.129972
-0.086331
-0.043705
0.009851
0.046345
0.093916
0.128413
0.109963
0.104513
0.084175
0.022287
-0.008284
-0.070043
-0.085542
-0.164017
-0.168611
-0.170875
-0.166240
-0.169511
-0.148664
-0.093406
-0.067231
-0.020760
0.013544
0.073320
0.090476
0.086247
0.085897
0.066269
0.058961
0.048859
0.003590
-0.068293
-0.108286
-0.145598
-0.170097
-0.160369
-0.167241
-0.165129
-0.149876
-0.122750
-0.059713
-0.013787
0.023035
0.063067
0.079826
0.155078
0.156176
0.122034
0.079714
0.053443
0.011838
-0.054866
-0.106764
-0.152087
-0.175545
-0.178000
-0.182127
-0.171301
-0.131449
-0.102761
-0.098430
-0.008721
0.058616
0.097040
0.118507
0.134522
0.137415
0.098756
0.088697
0.069244
0.022526
-0.025285
-0.086881
-0.129066
-0.146015
-0.177500
-0.178452
-0.139540
-0.126818
-0.111917
-0.081578
-0.032838
0.026162
0.083101
0.091976
0.085442
0.101276
0.133045
0.137651
0.094626
0.029359
-0.030685
-0.071262
-0.150093
-0.172971
-0.174726
-0.180070
-0.166849
-0.144133
-0.105135
-0.068741
-0.043284
0.007556
0.076542
0.115922
0.140820
0.162073
0.124728
0.094635
0.063466
0.021316
-0.031980
-0.084189
-0.118940
-0.138055
-0.168866
-0.191746
-0.185890
-0.180366
-0.158858
-0.120104
-0.044241
0.025777
0.070044
0.108853
0.134119
0.141849
0.102477
0.080493
0.053791
0.039178
-0.032115
-0.057668
-0.123931
-0.156761
-0.162137
-0.186455
-0.159359
-0.137678
-0.112654
-0.098490
-0.099130
-0.014552
0.059190
0.103325
0.115839
0.139349
0.128002
0.081735
0.045236
0.001209
-0.037531
-0.077972
-0.130165
-0.171856
-0.177965
-0.182774
-0.174508
-0.158662
-0.153681
-0.117729
-0.087435
-0.055030
0.012651
0.093831
0.128740
0.144531
0.132594
0.066041
0.032059
0.012349
-0.036964
-0.088575
-0.160451
-0.218870
-0.210016
-0.199462
-0.189853
-0.183352
-0.156350
-0.106341
-0.064403
-0.022043
0.039579
0.094033
0.074731
0.083505
0.078050
0.082242
0.083421
0.025331
-0.035974
-0.060737
-0.109547
-0.204883
-0.271015
-0.198926
-0.186619
-0.160225
-0.114011
-0.085707
-0.038986
-0.003357
0.044660
0.057505
0.081323
0.095738
0.094313
0.098778
0.063875
0.041219
-0.019403
-0.090080
-0.138963
-0.154463
-0.163553
-0.152873
-0.155552
-0.129460
-0.099992
-0.068326
-0.048410
-0.018068
0.042298
0.099363
0.131474
0.142561
0.165138
0.132675
0.096047
0.050253
-0.012053
-0.066516
-0.115422
-0.139928
-0.156108
-0.172856
-0.160596
-0.136759
-0.088512
-0.049282
-0.012021
0.032428
0.067649
0.110311
0.119673
0.128854
0.126427
0.113072
0.067568
0.039668
-0.038336
-0.039801
-0.094564
-0.135092
-0.152326
-0.142675
-0.130750
-0.068228
-0.029898
-0.025276
0.014570
0.059974
0.089079
0.113127
0.110266
0.174841
0.138724
0.077626
0.043639
0.019647
-0.031509
-0.053426
-0.100519
-0.149193
-0.172829
-0.169555
-0.140346
-0.125121
-0.130984
-0.108543
-0.048794
0.012046
0.067151
0.103748
0.121458
0.126998
0.096467
0.073605
0.055017
0.018628
-0.044855
-0.101417
-0.157140
-0.191566
-0.211915
-0.224378
-0.201079
-0.183220
-0.149295
-0.104100
-0.056801
-0.007267
0.053326
0.084861
0.115020
0.100391
0.082000
0.029026
-0.011343
-0.052827
-0.085582
-0.120712
-0.178536
-0.212093
-0.247417
-0.233572
-0.230490
-0.214169
-0.175746
-0.107791
-0.089545
-0.065129
-0.017790
0.012116
0.056041
0.100749
0.139830
0.069276
0.009384
-0.031539
-0.077839
-0.148993
-0.186936
-0.195945
-0.192942
-0.209506
-0.224832
-0.198492
-0.163853
-0.130216
-0.094348
-0.021849
0.038049
0.064164
0.069377
0.047696
0.032458
0.027444
0.028948
0.008659
-0.070385
-0.157573
-0.182972
-0.207072
-0.215927
-0.228425
-0.232003
-0.216788
-0.175982
-0.145107
-0.084189
-0.014932
0.073998
0.068589
0.066833
0.077120
0.089246
0.069942
0.032971
-0.020052
-0.080675
-0.113362
-0.174636
-0.207769
-0.213472
-0.214425
-0.197937
-0.166494
-0.115962
-0.077016
-0.024592
0.054615
0.125703
0.168442
0.210008
0.212510
0.200632
0.210647
0.214771
0.202683
0.172897
0.175769
0.171766
0.156353
0.193815
0.227364
0.252223
0.301603
0.363784
0.438757
0.525627
0.613407
0.707307
0.749754
0.803587
0.809394
0.835802
0.858649
0.840211
0.805193
0.747944
0.681018
0.629260
0.618787
0.579712
0.467880
0.349599
0.272587
0.309632
0.283017
0.280317
0.280937
0.281681
0.276044
0.304204
0.299879
0.282719
0.268804
0.234544
0.190943
0.106209
0.029259
-0.036524
-0.057705
-0.088791
-0.126203
-0.133034
-0.099257
-0.052470
-0.015294
0.043611
0.093905
0.129934
0.141056
0.152296
0.150241
0.158156
0.134237
0.090071
0.039124
-0.005175
-0.054270
-0.094890
-0.121459
-0.154124
-0.185015
-0.177232
-0.131311
-0.095649
-0.059297
-0.023827
0.014162
0.067344
0.097525
0.116532
0.126916
0.122098
0.092996
0.013949
-0.010967
-0.045794
-0.091633
-0.136399
-0.156218
-0.165399
-0.167244
-0.186175
-0.166956
-0.145433
-0.073297
0.004207
0.040770
0.089920
0.108022
0.115419
0.132983
0.116423
0.086512
0.059458
0.004975
-0.022227
-0.062488
-0.131374
-0.159221
-0.188526
-0.174125
-0.145027
-0.133088
-0.107035
-0.051677
-0.006431
0.059997
0.078191
0.105730
0.134272
0.156286
0.147448
0.122804
0.061122
0.006473
-0.048989
-0.077823
-0.130171
-0.165498
-0.169254
-0.159220
-0.148503
-0.077489
-0.067636
-0.070850
-0.002442
0.025737
0.101680
0.175437
0.224859
0.197875
0.170984
0.164099
0.126240
0.058490
0.019619
-0.051418
-0.091710
-0.087808
-0.127308
-0.142298
-0.119310
-0.064664
-0.019437
0.017889
0.043190
0.086028
0.131645
0.166109
0.209473
0.236462
0.216829
0.190164
0.147800
0.105971
0.042800
0.003680
-0.031111
-0.060781
-0.090371
-0.130957
-0.108647
-0.072231
-0.041811
0.026936
0.088776
0.138248
0.171901
0.219205
0.238300
0.258451
0.236862
0.218363
0.194320
0.149682
0.096869
0.036128
-0.028849
-0.043420
-0.052760
-0.067951
-0.045450
-0.027338
-0.026985
0.011722
0.067365
0.128561
0.165996
0.221328
0.255309
0.258273
0.249867
0.217170
0.175611
0.130528
0.078192
0.035796
-0.011950
-0.042445
-0.096842
-0.108318
-0.074381
-0.014101
-0.001138
0.020320
0.030208
0.053730
0.106210
0.194639
0.234076
0.224350
0.215957
0.184610
0.187608
0.143652
0.081617
0.020962
-0.042442
-0.075085
-0.100429
-0.081182
-0.074710
-0.050770
-0.049716
-0.018752
0.021234
0.093251
0.142209
0.168501
0.160781
0.151364
0.155059
0.165313
0.142301
0.094976
0.030350
-0.011265
-0.061158
-0.095014
-0.137541
-0.150386
-0.126581
-0.113906
-0.081784
-0.037971
-0.004616
0.039980
0.062903
0.104939
0.138452
0.160887
0.152407
0.118460
0.092564
0.037293
-0.006798
-0.047229
-0.099101
-0.156261
-0.170469
-0.174313
-0.152684
-0.130241
-0.083891
-0.027701
0.023727
0.027877
0.057685
0.082822
0.138056
0.133916
0.127246
0.081761
0.030902
0.019100
-0.015161
-0.036770
-0.098527
-0.140606
-0.144603
-0.165486
-0.187618
-0.164102
-0.108022
-0.070197
-0.010140
0.026537
0.054173
0.117379
0.157183
0.113481
0.076832
0.092162
0.056929
0.035765
-0.035668
-0.079529
-0.088170
-0.127047
-0.154223
-0.154371
-0.180394
-0.141640
-0.074851
-0.061966
-0.014460
0.016208
0.049902
0.070183
0.098581
0.127447
0.127086
0.098772
0.083202
0.015226
-0.044854
-0.059923
-0.116743
-0.146611
-0.155131
-0.163063
-0.120142
-0.102561
-0.097796
-0.084758
-0.035116
0.032533
0.080421
0.148555
0.156197
0.159108
0.147608
0.125333
0.090676
0.033464
-0.018414
-0.049881
-0.098015
-0.136350
-0.157788
-0.178170
-0.183283
-0.108525
-0.070033
-0.057753
-0.022820
0.045569
0.119620
0.168135
0.191329
0.144563
0.100445
0.079960
0.055998
0.031477
-0.009664
-0.030748
-0.114091
-0.186350
-0.196991
-0.208791
-0.177388
-0.124759
-0.087062
-0.031937
0.013997
0.080243
0.109024
0.161195
0.149868
0.150261
0.152021
0.132450
0.100551
0.050828
0.008414
-0.043244
-0.080443
-0.110137
-0.140180
-0.163709
-0.165549
-0.130967
-0.115706
-0.074939
-0.013889
0.042673
0.082605
0.129390
0.132360
0.137768
0.142911
0.143843
0.122914
0.035213
-0.040193
-0.101733
-0.113862
-0.142489
-0.146515
-0.176175
-0.167742
-0.138138
-0.099032
-0.055944
-0.009538
0.046578
0.083621
0.091257
0.122313
0.127457
0.116877
0.106294
0.082591
0.079304
0.035747
-0.014270
-0.071876
-0.121440
-0.154068
-0.165459
-0.152915
-0.156891
-0.151329
-0.102850
-0.046441
0.006035
0.044253
0.049372
0.104939
0.152250
0.146357
0.114616
0.087797
0.069385
-0.017997
-0.048064
-0.098326
-0.154414
-0.230377
-0.246166
-0.205036
-0.146105
-0.120975
-0.072879
0.002856
0.056361
0.084175
0.117170
0.106275
0.111172
0.091045
0.019747
0.010235
0.019372
-0.012072
-0.070574
-0.085746
-0.100654
-0.134144
-0.127308
-0.128806
-0.120250
-0.138916
-0.116876
-0.059231
0.013501
0.084598
0.102072
0.100593
0.114754
0.122279
0.113931
0.097057
0.057061
0.007577
-0.078450
-0.121554
-0.154003
-0.151619
-0.152048
-0.168041
-0.155842
-0.129852
-0.088297
-0.031018
0.033401
0.048672
0.087466
0.129581
0.142132
0.122953
0.059061
0.008740
-0.027353
-0.048537
-0.079857
-0.097993
-0.139146
-0.157353
-0.149558
-0.161916
-0.140139
-0.078405
-0.031565
-0.005000
0.004874
0.053272
0.131400
0.156566
0.151675
0.153592
0.105842
0.081853
0.057485
0.027595
-0.028800
-0.078962
-0.094943
-0.113134
-0.134934
-0.134830
-0.121234
-0.092006
-0.032261
0.003125
0.044660
0.101036
0.157985
0.181118
0.169206
0.159514
0.125313
0.095160
0.027160
-0.010512
-0.049792
-0.071856
-0.102508
-0.099786
-0.090838
-0.081611
-0.073350
-0.059687
-0.025127
0.032308
0.092238
0.148467
0.194699
0.196103
0.193097
0.163862
0.127594
0.087186
0.041985
-0.014347
-0.061397
-0.086008
-0.148322
-0.203106
-0.122892
-0.099382
-0.090395
-0.078892
-0.046725
0.012666
0.058788
0.096982
0.127091
0.141626
0.165050
0.161534
0.121445
0.088337
0.019641
-0.028555
-0.075738
-0.109574
-0.140630
-0.187653
-0.162354
-0.151900
-0.140939
-0.119556
-0.085904
-0.030013
0.004491
0.061612
0.103949
0.121643
0.122622
0.115615
0.085065
0.043754
-0.001743
-0.077987
-0.117532
-0.155159
-0.187727
-0.221577
-0.231168
-0.225227
-0.174770
-0.106574
-0.074054
-0.042753
0.014164
0.060923
0.091335
0.101808
0.121510
0.096109
0.056560
0.034663
0.002265
-0.067872
-0.123580
-0.168426
-0.197970
-0.220532
-0.202766
-0.200948
-0.166570
-0.161546
-0.105489
-0.042519
-0.009237
0.027346
0.104499
0.085916
0.071647
0.079693
0.085148
0.101699
0.027788
-0.022803
-0.091045
-0.150465
-0.164983
-0.189978
-0.197493
-0.184425
-0.162797
-0.136750
-0.093191
-0.040820
-0.014402
0.051821
0.109081
0.125765
0.124781
0.110578
0.079953
0.009335
-0.015164
-0.050484
-0.110182
-0.137398
-0.176416
-0.193020
-0.202761
-0.203143
-0.158672
-0.108458
-0.048719
0.025694
0.076579
0.114355
0.163478
0.215038
0.239259
0.247015
0.219987
0.214744
0.208844
0.176942
0.143582
0.133371
0.128827
0.103952
0.141002
0.205932
0.258698
0.311142
0.372225
0.416983
0.500921
0.616549
0.669559
0.716640
0.774104
0.806735
0.809050
0.789823
0.745028
0.700199
0.659326
0.625555
0.571926
0.535064
0.517993
0.475289
0.471552
0.440369
0.413722
0.411119
0.408863
0.404101
0.401921
0.363253
0.326102
0.294871
0.246467
0.211248
0.169238
0.099674
0.023678
-0.030310
-0.078953
-0.103746
-0.116274
-0.073080
-0.051790
-0.044263
0.022048
0.053832
0.089505
0.136151
0.155174
0.170398
0.189432
0.203491
0.172413
0.137307
0.053019
-0.010649
-0.042797
-0.084921
-0.127020
-0.147898
-0.139259
-0.106552
-0.081774
-0.083373
-0.058570
-0.031825
0.079562
0.123345
0.127367
0.136447
0.133672
0.142928
0.100583
0.081029
0.020571
-0.000588
-0.046656
-0.123370
-0.141078
-0.161478
-0.189718
-0.179586
-0.161441
-0.130133
-0.028985
0.030308
0.086976
0.124200
0.135600
0.149101
0.156451
0.160771
0.146395
0.119734
0.062364
0.014752
-0.037974
-0.099086
-0.133926
-0.150261
-0.143642
-0.141138
-0.135950
-0.119121
-0.069535
0.000550
0.067438
0.133446
0.177166
0.179477
0.166052
0.168346
0.158430
0.114195
0.052866
-0.006055
-0.026458
-0.066024
-0.104802
-0.141769
-0.149394
-0.138590
-0.104848
-0.063839
-0.032217
0.021921
0.089282
0.119985
0.145089
0.180763
0.200054
0.197786
0.171244
0.133389
0.088209
0.050907
0.015262
-0.025292
-0.070152
-0.135750
-0.129672
-0.102261
-0.064779
-0.015992
0.009678
0.016606
0.054997
0.124363
0.182317
0.221427
0.223497
0.215730
0.204466
0.171019
0.123622
0.072613
0.033202
0.001667
-0.054508
-0.093474
-0.089551
-0.069105
-0.052065
-0.021540
0.040200
0.087602
0.136569
0.166915
0.220124
0.252896
0.231029
0.232851
0.213269
0.165873
0.135602
0.087369
0.052668
0.010818
-0.043989
-0.047014
-0.029064
-0.013950
-0.000425
0.025126
0.061327
0.101153
0.152412
0.176834
0.212519
0.244382
0.261370
0.249721
0.207427
0.188359
0.144468
0.073257
0.044332
0.020622
-0.034587
-0.065844
-0.074305
-0.077542
-0.065463
-0.023505
0.053878
0.103152
0.140503
0.181763
0.212965
0.236095
0.246026
0.211681
0.195163
0.143359
0.116612
0.088269
0.042943
0.005840
-0.051145
-0.093505
-0.109270
-0.087753
-0.040055
0.009895
0.050531
0.057906
0.110132
0.144081
0.182107
0.184016
0.196947
0.209838
0.185900
0.145886
0.085164
0.025071
-0.023028
-0.023001
-0.058606
-0.112280
-0.126885
-0.113255
-0.083381
-0.056914
-0.029511
0.034329
0.090628
0.123499
0.149653
0.176447
0.190280
0.155551
0.118663
0.058456
-0.023529
-0.036310
-0.051424
-0.120321
-0.150352
-0.170751
-0.166474
-0.125892
-0.104563
-0.095762
-0.076613
-0.013675
0.059176
0.108255
0.155497
0.210497
0.196168
0.171433
0.118226
0.057730
0.014539
-0.028551
-0.107619
-0.169676
-0.191450
-0.190020
-0.168907
-0.121253
-0.125335
-0.104053
-0.047062
-0.007198
0.019065
0.062779
0.095339
0.123145
0.136508
0.143766
0.113744
0.090154
0.055307
-0.008614
-0.068325
-0.099379
-0.128566
-0.176677
-0.189446
-0.171984
-0.143726
-0.089469
-0.055414
-0.007035
0.016693
0.071113
0.114022
0.162492
0.160076
0.138313
0.109878
0.078116
0.038236
-0.022609
-0.089849
-0.123912
-0.144102
-0.143684
-0.145686
-0.161001
-0.152269
-0.116847
-0.076680
-0.013974
0.036496
0.071795
0.122027
0.157303
0.144279
0.134825
0.123700
0.101982
0.056298
0.025694
-0.030719
-0.085939
-0.138312
-0.177128
-0.177665
-0.173052
-0.143218
-0.121170
-0.048055
0.019393
0.064279
0.094433
0.113850
0.128466
0.142555
0.151558
0.136755
0.079699
0.031410
-0.025484
-0.068772
-0.107792
-0.141426
-0.149723
-0.157237
-0.168447
-0.164806
-0.125345
-0.056260
0.016706
0.087024
0.113586
0.129110
0.180874
0.189122
0.140989
0.112532
0.054899
0.042347
-0.000183
-0.059863
-0.144912
-0.174433
-0.209516
-0.200153
-0.146659
-0.131975
-0.093050
-0.045077
-0.005927
0.041484
0.073367
0.092506
0.133874
0.147229
0.157294
0.147204
0.107290
0.001972
-0.020080
-0.074810
-0.095877
-0.131615
-0.143626
-0.168180
-0.156768
-0.139459
-0.109388
-0.056186
-0.007394
0.040203
0.072678
0.092487
0.139356
0.154325
0.130393
0.088877
0.048608
0.012174
-0.024969
-0.064725
-0.100089
-0.149199
-0.173486
-0.146283
-0.142613
-0.158062
-0.122501
-0.083090
-0.027156
0.039379
0.070651
0.107537
0.126730
0.121715
0.103872
0.077123
0.056917
0.012354
-0.027185
-0.075450
-0.113761
-0.145557
-0.190310
-0.187855
-0.195905
-0.193735
-0.146892
-0.071082
-0.008211
0.062324
0.096457
0.107715
0.115873
0.125219
0.112588
0.096176
0.080089
0.022015
-0.044361
-0.092046
-0.145384
-0.166409
-0.192055
-0.184809
-0.183831
-0.167730
-0.093077
-0.039000
0.008784
0.034487
0.057369
0.084169
0.114425
0.140872
0.122355
0.112696
0.077120
0.022478
-0.032148
-0.087800
-0.126239
-0.182903
-0.213334
-0.181480
-0.123745
-0.144008
-0.139454
-0.106845
-0.040818
0.035086
0.087511
0.140693
0.176945
0.167261
0.155488
0.138680
0.094109
0.051160
-0.003512
-0.072935
-0.117725
-0.154993
-0.162373
-0.146419
-0.122443
-0.104540
-0.080879
-0.047477
-0.001305
0.054688
0.098717
0.136888
0.170507
0.167178
0.145580
0.123594
0.091188
0.049638
-0.004156
-0.066453
-0.092532
-0.121789
-0.153804
-0.167820
-0.149612
-0.150079
-0.120495
-0.056860
0.041973
0.096029
0.122741
0.144342
0.175323
0.158831
0.161166
0.169444
0.133927
0.083921
0.046291
-0.011256
-0.075619
-0.126337
-0.151580
-0.160124
-0.158914
-0.143096
-0.132893
-0.079758
-0.016743
0.054870
0.100364
0.111647
0.136496
0.125111
0.085842
0.073774
0.090014
0.033461
0.000705
-0.067727
-0.085293
-0.148243
-0.198770
-0.210528
-0.204749
-0.178617
-0.132843
-0.079986
-0.032645
0.001883
0.038645
0.046538
0.041706
0.059604
0.084862
0.096884
0.045579
-0.011977
-0.075424
-0.104036
-0.125219
-0.153695
-0.234941
-0.224020
-0.188971
-0.137579
-0.088420
-0.059726
-0.048245
-0.020230
0.037033
0.044494
0.055642
0.065497
0.075672
0.066058
0.028425
-0.019801
-0.087321
-0.150537
-0.165294
-0.201689
-0.218377
-0.217653
-0.205095
-0.167289
-0.118914
-0.086729
-0.061325
-0.022666
0.033882
0.081420
0.076692
0.085789
0.054978
0.065269
0.049238
-0.006848
-0.061323
-0.128010
-0.170714
-0.211059
-0.226828
-0.231552
-0.248410
-0.228319
-0.136084
-0.066602
-0.034109
0.005662
0.035964
0.050147
0.086321
0.093823
0.079945
0.061527
0.012518
-0.024504
-0.077735
-0.137287
-0.170871
-0.202539
-0.221046
-0.218354
-0.204795
-0.176524
-0.139927
-0.103979
-0.059949
-0.002693
0.053650
0.107076
0.129655
0.135768
0.150867
0.156070
0.129038
0.096694
0.063538
0.033642
-0.006208
-0.039565
-0.018555
0.010520
0.041295
0.093744
0.146604
0.204181
0.275191
0.345477
0.398655
0.451033
0.529508
0.577338
0.602876
0.600266
0.593371
0.603881
0.597930
0.566649
0.576104
0.581839
0.569333
0.574296
0.588428
0.599531
0.616610
0.634324
0.652861
0.702810
0.705900
0.678135
0.625899
0.566073
0.483760
0.428215
0.356173
0.258680
0.172593
0.081385
-0.002293
-0.027786
-0.063359
-0.112146
-0.116999
-0.084405
-0.027865
0.005463
0.039332
0.078854
0.129609
0.158112
0.153292
0.163496
0.155833
0.148351
0.151650
0.107945
0.030130
-0.032854
-0.079558
-0.112429
-0.129741
-0.151601
-0.157467
-0.123279
-0.098139
-0.054239
-0.012998
0.019053
0.087716
0.116040
0.131251
0.133444
0.126918
0.079606
0.056339
0.038950
0.004155
-0.054468
-0.104868
-0.147945
-0.167308
-0.186228
-0.167885
-0.135401
-0.126094
-0.074994
-0.030663
0.000864
0.025188
0.071573
0.110461
0.134547
0.133633
0.098853
0.094151
0.039741
-0.005613
-0.050355
-0.109306
-0.148434
-0.155751
-0.207674
-0.202995
-0.153042
-0.082994
-0.055682
-0.041853
0.027427
0.080172
0.109650
0.131853
0.134579
0.147479
0.124142
0.072706
0.037055
-0.010924
-0.082931
-0.115355
-0.117044
-0.139487
-0.143757
-0.120123
-0.083889
-0.062158
-0.062757
-0.031693
0.025436
0.083143
0.114583
0.117073
0.177571
0.168761
0.141603
0.111424
0.058013
0.017041
-0.045224
-0.082199
-0.100364
-0.101470
-0.101410
-0.103645
-0.086033
-0.047629
-0.012169
0.024779
0.074831
0.125818
0.177946
0.195934
0.189673
0.171046
0.158724
0.114613
0.060838
0.035331
-0.045245
-0.085582
-0.109736
-0.106938
-0.039543
-0.059113
-0.065807
-0.022815
0.016169
0.056150
0.112286
0.162237
0.201951
0.217507
0.230852
0.220804
0.191089
0.158087
0.089607
0.031002
-0.019303
-0.037864
-0.049526
-0.049050
-0.057535
-0.027259
-0.028253
-0.013095
0.021583
0.063452
0.105956
0.178053
0.199703
0.206214
0.208761
0.257465
0.250554
0.193386
0.118140
0.052616
0.015885
-0.007204
-0.051455
-0.098252
-0.091072
-0.072554
-0.038605
-0.006378
0.022194
0.079977
0.158309
0.193728
0.229096
0.234543
0.228577
0.211893
0.198091
0.151700
0.104002
0.061774
-0.001443
-0.052644
-0.076612
-0.096050
-0.120719
-0.065811
-0.060167
-0.051913
0.013069
0.054903
0.096085
0.159542
0.189946
0.201322
0.204433
0.192808
0.179008
0.140684
0.084043
0.031232
-0.013761
-0.067175
-0.111721
-0.112476
-0.127075
-0.123110
-0.112149
-0.071187
-0.017704
0.020303
0.058391
0.101595
0.139954
0.146316
0.145896
0.135820
0.139886
0.110194
0.071441
0.014742
-0.056884
-0.108677
-0.139546
-0.153526
-0.164854
-0.162495
-0.134123
-0.112961
-0.086068
-0.032677
0.015874
0.046158
0.070768
0.091815
0.121324
0.111012
0.110566
0.097003
0.009703
-0.055163
-0.076107
-0.098536
-0.161437
-0.206539
-0.170709
-0.153156
-0.159574
-0.138583
-0.077122
-0.004610
0.024968
0.084964
0.095860
0.082554
0.099571
0.110322
0.083081
0.055777
0.008578
-0.016611
-0.061916
-0.108870
-0.153306
-0.177894
-0.179257
-0.176274
-0.171047
-0.122983
-0.082833
-0.032572
0.037881
0.068148
0.093309
0.104100
0.119275
0.078793
0.066419
0.071070
0.031391
-0.015429
-0.086744
-0.149220
-0.174288
-0.210514
-0.220652
-0.177538
-0.135341
-0.118333
-0.057013
0.049446
0.075154
0.102871
0.137287
0.141457
0.107460
0.084617
0.070783
0.034999
0.024745
-0.025281
-0.060150
-0.097412
-0.142422
-0.173931
-0.187979
-0.177110
-0.139046
-0.105986
-0.061656
-0.000691
0.041618
0.098227
0.132230
0.134847
0.128829
0.114524
0.099160
0.077119
0.041470
-0.038525
-0.121666
-0.122321
-0.155829
-0.152480
-0.143874
-0.148957
-0.109238
-0.110894
-0.074833
-0.008392
0.044644
0.113440
0.132410
0.142459
0.147374
0.112942
0.066095
0.034572
0.004660
-0.052157
-0.062479
-0.129143
-0.185716
-0.167794
-0.146707
-0.146286
-0.140456
-0.133446
-0.077435
-0.009922
0.045316
0.085340
0.110717
0.139662
0.152266
0.141780
0.110010
0.066796
0.026229
-0.021908
-0.067166
-0.104162
-0.129447
-0.155609
-0.197374
-0.171172
-0.172268
-0.142410
-0.088493
-0.041284
-0.003000
0.062311
0.075057
0.119336
0.124297
0.141235
0.112993
0.070616
0.023791
-0.045676
-0.104574
-0.146173
-0.167115
-0.188932
-0.210044
-0.198113
-0.176151
-0.120994
-0.080269
-0.027041
0.019020
0.051727
0.093718
0.114152
0.122083
0.130100
0.087966
0.036943
-0.026277
-0.071163
-0.113022
-0.163846
-0.179026
-0.179238
-0.209523
-0.211098
-0.172117
-0.128350
-0.056192
-0.051737
0.019899
0.073164
0.046664
0.060634
0.128189
0.105039
0.080331
0.034958
-0.035027
-0.059777
-0.073433
-0.110628
-0.154575
-0.171760
-0.177610
-0.175697
-0.148136
-0.093212
-0.084297
-0.050119
-0.007146
0.053195
0.083063
0.078775
0.072805
0.062792
0.036148
-0.014565
-0.021625
-0.028943
-0.034499
-0.042303
-0.106401
-0.182660
-0.177094
-0.154587
-0.174858
-0.104233
-0.064628
-0.062457
-0.012789
0.053187
0.086740
0.118923
0.156167
0.183924
0.117579
0.066700
0.051753
0.013451
0.000447
-0.040576
-0.120521
-0.156460
-0.168069
-0.145953
-0.107157
-0.072821
-0.046091
-0.007072
0.017596
0.074336
0.124933
0.131162
0.124998
0.098436
0.071334
0.060833
0.059104
0.022794
-0.064620
-0.101737
-0.096311
-0.096035
-0.120664
-0.161347
-0.168859
-0.069496
0.010677
0.076027
0.094967
0.116996
0.140691
0.142938
0.145263
0.122020
0.123974
0.091034
0.051389
-0.035184
-0.088946
-0.134008
-0.163015
-0.158574
-0.139135
-0.132845
-0.134184
-0.119145
-0.082887
-0.036574
0.024636
0.083732
0.124384
0.118772
0.113054
0.121332
0.104281
0.053772
-0.008972
-0.068921
-0.115380
-0.170762
-0.165151
-0.206430
-0.236826
-0.214166
-0.173629
-0.126612
-0.074569
-0.000844
0.027475
0.043579
0.068659
0.092546
0.087015
0.070266
0.051952
0.024747
-0.030126
-0.083441
-0.133889
-0.232204
-0.272503
-0.234038
-0.221567
-0.208338
-0.168691
-0.144390
-0.113487
-0.045212
-0.001839
0.045103
0.093241
0.100235
0.119356
0.109793
0.064725
0.028923
-0.015519
-0.078565
-0.101725
-0.132432
-0.191883
-0.222559
-0.224860
-0.215258
-0.199449
-0.177015
-0.128622
-0.071506
-0.025614
0.029951
0.061848
0.097916
0.099501
0.081893
0.057274
0.010503
-0.036555
-0.063061
-0.079846
-0.142254
-0.186924
-0.214887
-0.260621
-0.251800
-0.222168
-0.173357
-0.098643
-0.046423
-0.010512
0.020870
0.041951
0.058321
0.087214
0.072848
0.033615
0.016522
-0.043835
-0.115058
-0.166045
-0.215506
-0.259832
-0.228328
-0.202013
-0.189719
-0.150341
-0.120508
-0.086304
-0.010732
0.057551
0.110992
0.144839
0.173922
0.214796
0.231810
0.231527
0.254569
0.212334
0.191432
0.172500
0.129994
0.112442
0.097819
0.161885
0.205663
0.263095
0.326279
0.409974
0.498595
0.565040
0.650063
0.732028
0.732464
0.767157
0.811652
0.850225
0.872156
0.814638
0.762192
0.727932
0.672054
0.628450
0.560388
0.517793
0.487399
0.454739
0.419156
0.392867
0.367990
0.402274
0.392310
0.353856
0.326655
0.288922
0.254850
0.251711
0.221805
0.178396
0.106885
0.027525
-0.021436
-0.062210
-0.097817
-0.090310
-0.074699
-0.060172
-0.035371
-0.010980
0.030742
0.087440
0.140106
0.168423
0.192238
0.147935
0.114405
0.087159
0.060735
0.040549
-0.019979
-0.047204
-0.092482
-0.121520
-0.164781
-0.176845
-0.157987
-0.132396
-0.078687
-0.049890
-0.009292
0.038817
0.099374
0.114676
0.154333
0.175386
0.150235
0.105266
0.058585
0.000230
-0.067165
-0.100459
-0.158809
-0.162003
-0.183791
-0.178280
-0.186430
-0.177009
-0.122149
-0.074790
-0.032905
0.024992
0.093025
0.138968
0.136642
0.119771
0.139838
0.096346
0.064090
0.033221
-0.021959
-0.086278
-0.146134
-0.209531
-0.196713
-0.184391
-0.146806
-0.148612
-0.141610
-0.087625
-0.007387
0.062692
0.073087
0.077114
0.124511
0.130150
0.138886
0.123465
0.108709
0.110434
0.033576
-0.061445
-0.115486
-0.146015
-0.120350
-0.121334
-0.138717
-0.127568
-0.058943
-0.035486
0.018748
0.053847
0.073229
0.124210
0.144020
0.176125
0.173328
0.165519
0.130171
0.095561
0.028118
-0.044175
-0.095209
-0.125222
-0.138145
-0.130031
-0.152064
-0.130140
-0.067429
-0.016163
0.037984
0.086677
0.128716
0.183040
0.193629
0.151265
0.180606
0.197876
0.153824
0.104057
0.068305
0.019004
-0.021428
-0.052915
-0.058627
-0.085573
-0.091851
-0.050827
-0.028002
-0.009926
0.047714
0.094490
0.137349
0.162029
0.211445
0.244834
0.236454
0.205572
0.179276
0.152673
0.095085
0.056157
0.035953
-0.022475
-0.054815
-0.062166
-0.076458
-0.070972
-0.043940
0.021117
0.099103
0.145448
0.189368
0.199693
0.222150
0.229161
0.208178
0.188395
0.161706
0.118766
0.069136
0.020680
-0.008295
-0.041885
-0.067386
-0.076447
-0.070456
-0.052488
-0.015093
0.028472
0.052827
0.094180
0.137902
0.202806
0.206307
0.198581
0.219448
0.189272
0.124996
0.097514
0.059964
0.008216
-0.028568
-0.065176
-0.086342
-0.107077
-0.109754
-0.099417
-0.028533
-0.005812
0.050043
0.090002
0.141825
0.165683
0.173864
0.159593
0.180896
0.164025
0.131102
0.067947
-0.002577
-0.045747
-0.089509
-0.114015
-0.110828
-0.126830
-0.141523
-0.122452
-0.091919
-0.059630
-0.020749
0.023608
0.104363
0.139983
0.153038
0.151169
0.136600
0.116831
0.079455
0.034280
-0.024228
-0.094865
-0.134222
-0.133620
-0.177321
-0.180555
-0.173986
-0.149048
-0.088024
-0.039717
0.005877
0.036837
0.076374
0.106119
0.108541
0.131868
0.130846
0.092154
0.054453
0.024842
-0.019471
-0.072706
-0.120857
-0.177982
-0.203639
-0.212139
-0.190455
-0.156801
-0.108893
-0.059891
-0.035644
0.017503
0.080795
0.127343
0.136333
0.118064
0.087441
0.071543
0.038252
0.016455
-0.015551
-0.070049
-0.115532
-0.136412
-0.174607
-0.201545
-0.191849
-0.199886
-0.194613
-0.108204
-0.013629
0.020869
0.077655
0.108192
0.136176
0.138968
0.143832
0.106485
0.071127
0.026296
-0.058086
-0.113291
-0.147176
-0.154346
-0.149413
-0.154114
-0.138028
-0.121159
-0.083117
-0.054366
-0.014086
0.036614
0.079590
0.104360
0.113415
0.134709
0.147928
0.119186
0.062015
0.011308
-0.007040
-0.039009
-0.080575
-0.123165
-0.167079
-0.191269
-0.170657
-0.151432
-0.126660
-0.109550
-0.025625
0.030220
0.056504
0.095307
0.133072
0.158038
0.133428
0.122064
0.111210
0.056557
-0.015527
-0.073399
-0.105464
-0.133433
-0.161708
-0.156603
-0.156442
-0.134009
-0.095673
-0.062985
-0.028764
0.009776
0.061898
0.090335
0.128043
0.132129
0.104857
0.067610
0.040776
0.008770
-0.049119
-0.077628
-0.109898
-0.137874
-0.165033
-0.180455
-0.180769
-0.144633
-0.083768
-0.061808
-0.021400
0.029073
0.061815
0.079735
0.100872
0.114081
0.124609
0.095669
0.063778
0.016358
-0.051366
-0.090527
-0.120145
-0.157160
-0.173000
-0.166686
-0.140089
-0.128014
-0.098921
-0.064268
-0.003081
0.052453
0.068386
0.103673
0.124336
0.130242
0.124317
0.071796
0.028057
-0.007681
-0.057373
-0.095501
-0.117115
-0.148666
-0.169098
-0.185356
-0.180685
-0.158448
-0.104226
-0.079815
-0.032296
0.022258
0.061447
0.083803
0.096518
0.106562
0.103477
0.083916
0.040531
-0.011799
-0.054389
-0.095546
-0.134536
-0.153772
-0.181501
-0.211279
-0.215397
-0.180108
-0.121948
-0.080627
-0.023818
0.036808
0.093429
0.110464
0.116167
0.111562
0.101858
0.083494
0.054356
0.018413
-0.036439
-0.105985
-0.154963
-0.198736
-0.214160
-0.188259
-0.173576
-0.150164
-0.123266
-0.080127
-0.029062
0.027844
0.060824
0.099155
0.114031
0.108738
0.117118
0.116847
0.081907
0.003066
-0.075477
-0.116982
-0.156115
-0.185828
-0.186883
-0.196312
-0.179681
-0.134551
-0.111340
-0.092831
-0.057722
-0.007670
0.027207
0.082588
0.118958
0.129899
0.130335
0.128860
0.103130
0.040478
-0.017896
-0.063115
-0.103188
-0.148359
-0.169568
-0.168923
-0.162635
-0.133077
-0.082098
-0.043316
0.005288
0.051855
0.081036
0.133490
0.118451
0.132478
0.142737
0.122004
0.072062
0.031931
-0.015483
-0.063266
-0.096733
-0.132240
-0.147149
-0.155709
-0.127453
-0.097449
-0.078231
-0.049704
-0.008566
0.024866
0.097385
0.160085
0.196456
0.180947
0.184182
0.137762
0.105844
0.060899
0.013306
-0.046593
-0.098528
-0.133032
-0.154668
-0.172129
-0.168344
-0.139587
-0.120970
-0.074300
-0.007595
0.031300
0.053394
0.077323
0.102391
0.125274
0.117314
0.104947
0.047786
0.006220
-0.026564
-0.068345
-0.120346
-0.160624
-0.188562
-0.192030
-0.201267
-0.178859
-0.122872
-0.066550
-0.027327
0.002725
0.043606
0.063942
0.082691
0.090249
0.078786
0.047184
0.004228
-0.023506
-0.064438
-0.098381
-0.124063
-0.167159
-0.206675
-0.225906
-0.195648
-0.171286
-0.148203
-0.098507
-0.067876
-0.037739
0.007083
0.043848
0.082655
0.078800
0.077779
0.045647
0.020097
-0.011796
-0.082135
-0.140708
-0.163121
-0.196940
-0.217449
-0.224912
-0.218024
-0.203246
-0.179251
-0.137559
-0.064859
0.007621
0.037807
0.061616
0.098053
0.081229
0.076711
0.025150
-0.005527
-0.066600
-0.094970
-0.141303
-0.180358
-0.215660
-0.239829
-0.249483
-0.222916
-0.194429
-0.172757
-0.116420
-0.069272
-0.015447
0.048764
0.090968
0.082313
0.058628
0.073018
0.069333
0.049536
-0.000099
-0.052140
-0.107888
-0.182069
-0.232207
-0.252935
-0.257733
-0.241374
-0.218839
-0.208441
-0.123868
-0.046989
-0.003227
0.037282
0.086163
0.120737
0.136263
0.127108
0.104076
0.126472
0.112034
0.064647
0.017936
-0.026423
-0.026875
-0.044532
-0.013408
0.065877
0.105223
0.129132
0.180420
0.266891
0.340961
0.433185
0.544068
0.637628
0.685447
0.702106
0.705685
0.687650
0.698600
0.653152
0.598872
0.628807
0.636305
0.627276
0.599537
0.601940
0.605381
0.626622
0.624126
0.648853
0.653843
0.683289
0.655677
0.580946
0.532290
0.458590
0.396669
0.317631
0.215128
0.162930
0.097950
0.035808
-0.004095
-0.020952
-0.046784
-0.045679
-0.026287
0.018306
0.058110
0.077796
0.093810
0.121879
0.137429
0.169318
0.178276
0.159927
0.136667
0.076785
0.037046
-0.006707
-0.053722
-0.090827
-0.122574
-0.156451
-0.170544
-0.167227
-0.157460
-0.101910
-0.032355
-0.007440
0.059789
0.102686
0.120212
0.128228
0.119859
0.108620
0.085864
0.057793
0.012459
-0.061530
-0.109662
-0.175265
-0.198176
-0.162762
-0.157698
-0.131193
-0.156140
-0.096319
-0.017071
0.007877
0.037352
0.065249
0.089343
0.123848
0.107081
0.084782
0.052154
0.050672
0.002727
-0.041145
-0.077621
-0.106980
-0.149737
-0.163616
-0.214275
-0.211386
-0.146924
-0.120412
-0.054999
-0.006566
0.044517
0.048834
0.085027
0.133723
0.146447
0.161095
0.112602
0.057889
-0.002220
-0.067414
-0.083721
-0.137768
-0.186459
-0.173427
-0.173377
-0.134074
-0.106094
-0.082860
-0.027969
-0.001849
0.036501
0.093028
0.123552
0.163568
0.166545
0.115088
0.110746
0.097047
0.076413
0.027013
-0.029930
-0.088802
-0.141675
-0.144993
-0.161677
-0.154984
-0.107217
-0.069169
-0.039533
0.000073
0.067571
0.108097
0.177319
0.188412
0.206861
0.192101
0.166658
0.143919
0.088675
0.030574
-0.039606
-0.077214
-0.107629
-0.111122
-0.135581
-0.109300
-0.049067
-0.032833
-0.007070
0.041497
0.114193
0.166609
0.215397
0.243027
0.248558
0.227465
0.178215
0.121000
0.137041
0.087789
0.041563
-0.008482
-0.030675
-0.076836
-0.085501
-0.083067
-0.067525
-0.047493
0.017799
0.061357
0.097868
0.174180
0.229230
0.251995
0.227149
0.234275
0.210933
0.194140
0.144343
0.100051
0.036995
0.001260
-0.076139
-0.098196
-0.068099
-0.058594
-0.035067
-0.017381
-0.004976
0.044791
0.109755
0.124772
0.172560
0.218072
0.209703
0.204817
0.228852
0.195452
0.101159
0.018772
0.011188
-0.006942
-0.055292
-0.087550
-0.099158
-0.072882
-0.061304
-0.050480
0.010331
0.041898
0.080634
0.118047
0.160636
0.159459
0.155665
0.162867
0.156174
0.139373
0.101899
0.053873
-0.024127
-0.085319
-0.120115
-0.131678
-0.122985
-0.108591
-0.115128
-0.090537
-0.041737
0.004247
0.058346
0.113988
0.139052
0.153317
0.127123
0.104372
0.112115
0.079706
0.021040
-0.023202
-0.050043
-0.098339
-0.139549
-0.171346
-0.169824
-0.145501
-0.121354
-0.105642
-0.084126
-0.031706
0.022823
0.051112
0.087283
0.110224
0.109312
0.107192
0.103061
0.051348
0.000981
-0.028476
-0.095308
-0.114856
-0.151430
-0.213310
-0.215478
-0.191497
-0.182341
-0.132603
-0.068282
0.001725
0.035143
0.048349
0.084762
0.083180
0.075049
0.091351
0.070815
0.025546
-0.037202
-0.052791
-0.092304
-0.125272
-0.154150
-0.172539
-0.181365
-0.181337
-0.177602
-0.145627
-0.066499
-0.018768
0.016546
0.044275
0.065478
0.089730
0.117893
0.120425
0.105864
0.056271
-0.030165
-0.062362
-0.092157
-0.119864
-0.150015
-0.152557
-0.178055
-0.187952
-0.171433
-0.159070
-0.083291
-0.022755
0.051801
0.102652
0.105566
0.096610
0.098224
0.085971
0.081836
0.044016
-0.016974
-0.051649
-0.074011
-0.103514
-0.138176
-0.169251
-0.174897
-0.190061
-0.189634
-0.163949
-0.091103
-0.024874
0.048126
0.087696
0.107172
0.117930
0.131104
0.109174
0.102142
0.061391
-0.008133
-0.054776
-0.080015
-0.102446
-0.122169
-0.165038
-0.182240
-0.194744
-0.169587
-0.104648
-0.091740
-0.052853
0.003232
0.068064
0.127778
0.148998
0.125426
0.135465
0.096228
0.051997
0.018658
-0.027243
-0.082686
-0.132070
-0.170728
-0.174634
-0.147818
-0.139000
-0.131976
-0.106921
-0.069162
-0.029259
0.005447
0.051917
0.106853
0.144472
0.147872
0.124159
0.104987
0.067897
0.018903
-0.049880
-0.105736
-0.187267
-0.208995
-0.230166
-0.218763
-0.187566
-0.143167
-0.109565
-0.071273
-0.026647
0.028605
0.034887
0.052568
0.090905
0.111411
0.087381
0.046069
0.038543
0.012346
-0.004819
-0.069040
-0.106796
-0.164544
-0.176895
-0.192058
-0.144385
-0.130871
-0.118969
-0.087210
-0.056451
-0.013854
0.057741
0.103635
0.106164
0.136662
0.110039
0.091730
0.061761
0.004635
-0.042886
-0.077121
-0.132210
-0.173078
-0.174904
-0.191529
-0.177071
-0.166677
-0.136517
-0.092028
-0.038889
0.013545
0.045598
0.071848
0.081856
0.085571
0.065895
0.057517
0.062392
0.024841
-0.029852
-0.104972
-0.165161
-0.212656
-0.216731
-0.220402
-0.207558
-0.174318
-0.141169
-0.082755
-0.020673
0.003566
0.077428
0.103718
0.105821
0.091072
0.072862
0.047327
0.015420
-0.033461
-0.044441
-0.079372
-0.139222
-0.197125
-0.221323
-0.204000
-0.172845
-0.172839
-0.160521
-0.105586
-0.050124
0.003386
0.058986
0.070421
0.097237
0.157502
0.136173
0.084547
0.040101
-0.015434
-0.062565
-0.100565
-0.123964
-0.149414
-0.165340
-0.172552
-0.156296
-0.104789
-0.083594
-0.042681
-0.001551
0.050022
0.087609
0.102779
0.130167
0.151037
0.148578
0.091553
0.051445
0.003611
-0.046465
-0.090381
-0.134786
-0.162666
-0.166131
-0.157111
-0.154179
-0.146027
-0.102357
-0.051548
0.009289
0.068255
0.109837
0.135788
0.153644
0.163746
0.154310
0.136681
0.108276
0.058311
-0.005639
-0.052349
-0.082782
-0.129014
-0.153999
-0.162622
-0.148474
-0.133209
-0.102725
-0.048726
-0.021007
0.017835
0.073961
0.097698
0.106995
0.121586
0.125360
0.102598
0.053663
-0.011446
-0.059672
-0.105866
-0.144818
-0.166097
-0.182259
-0.194645
-0.208726
-0.193483
-0.133243
-0.072385
-0.035173
-0.003836
0.031963
0.049409
0.064257
0.062918
0.085536
0.086615
0.049779
-0.008474
-0.059476
-0.112450
-0.158525
-0.193818
-0.218637
-0.229180
-0.225692
-0.204948
-0.179805
-0.130681
-0.101913
-0.068845
-0.014874
0.049452
0.067801
0.084072
0.073683
0.033201
-0.008640
-0.055537
-0.114161
-0.098996
-0.141843
-0.194632
-0.242613
-0.225800
-0.206888
-0.212699
-0.187573
-0.130244
-0.094009
-0.034664
0.001797
0.038262
0.075615
0.093048
0.085163
0.036308
-0.012534
-0.035176
-0.074739
-0.129627
-0.185971
-0.218532
-0.229981
-0.244759
-0.229525
-0.207248
-0.166666
-0.117884
-0.085173
-0.042268
0.006175
0.037317
0.057706
0.070569
0.057010
0.042122
0.012132
-0.046306
-0.084982
-0.124135
-0.165281
-0.208118
-0.232352
-0.243154
-0.228145
-0.210522
-0.178873
-0.125981
-0.089371
-0.043002
-0.002956
0.040745
0.058031
0.060809
0.044208
0.029831
0.019164
-0.010737
-0.030053
-0.057841
-0.086012
-0.108627
-0.108917
-0.105873
-0.080338
-0.055859
0.001902
0.065758
0.120266
0.194283
0.252453
0.303200
0.365690
0.410671
0.478785
0.521426
0.478153
0.457457
0.467561
0.440124
0.413549
0.401613
0.440427
0.460271
0.512421
0.563070
0.641098
0.702702
0.728579
0.782416
0.804970
0.819088
0.800658
0.776244
0.756067
0.693384
0.582686
0.477696
0.370598
0.262225
0.172443
0.093115
0.058227
0.009545
-0.019886
-0.007758
0.018597
0.087596
0.121123
0.156529
0.174055
0.185732
0.196228
0.201857
0.174233
0.154914
0.104707
0.040415
