-0.099016
-0.055639
-0.025346
0.008412
0.031877
0.031525
0.029017
0.027016
-0.004159
-0.044549
-0.101553
-0.159780
-0.217979
-0.260664
-0.262934
-0.258822
-0.251971
-0.227613
-0.199060
-0.163079
-0.109876
-0.053080
-0.022590
0.015215
0.038411
0.040685
0.021999
0.008817
-0.030516
-0.077364
-0.130656
-0.173708
-0.218888
-0.239471
-0.262216
-0.276179
-0.271829
-0.249116
-0.220373
-0.176502
-0.133983
-0.099420
-0.053024
-0.016778
0.010262
0.019211
0.020803
-0.018926
-0.070503
-0.110985
-0.169529
-0.197330
-0.245784
-0.273367
-0.288713
-0.305850
-0.300020
-0.296650
-0.237935
-0.200229
-0.153979
-0.113617
-0.076936
-0.048396
-0.032305
-0.019887
-0.032314
-0.056216
-0.090463
-0.130638
-0.176552
-0.238941
-0.312269
-0.361665
-0.347001
-0.335464
-0.331891
-0.305926
-0.255651
-0.212146
-0.172607
-0.129927
-0.086531
-0.052080
-0.024297
-0.023693
-0.003224
-0.025348
-0.064509
-0.104641
-0.148772
-0.195303
-0.237205
-0.273575
-0.292150
-0.303868
-0.301823
-0.282528
-0.235700
-0.190728
-0.151590
-0.108216
-0.055885
-0.019621
0.006784
0.017749
0.005534
-0.026585
-0.063282
-0.097936
-0.144662
-0.189599
-0.235289
-0.277508
-0.306646
-0.292941
-0.298291
-0.266466
-0.223581
-0.189505
-0.142382
-0.102584
-0.049716
-0.002072
0.021941
0.026317
0.011287
-0.024798
-0.044023
-0.098395
-0.149478
-0.173435
-0.223243
-0.249372
-0.283591
-0.276987
-0.250302
-0.230941
-0.215135
-0.167937
-0.141202
-0.065386
-0.018900
-0.001166
0.008590
0.017860
0.003677
-0.009473
-0.040667
-0.088233
-0.139315
-0.195013
-0.232922
-0.256172
-0.287134
-0.315676
-0.297046
-0.255008
-0.212766
-0.170231
-0.118169
-0.085580
-0.025606
0.004485
0.037393
0.027191
0.005530
-0.012680
-0.045394
-0.095455
-0.150433
-0.179327
-0.201905
-0.238046
-0.274599
-0.298045
-0.273884
-0.258428
-0.232413
-0.160663
-0.108330
-0.065018
-0.044266
0.002729
0.039580
0.042801
0.038655
0.013428
-0.030282
-0.078545
-0.132224
-0.192028
-0.230046
-0.261451
-0.278242
-0.298719
-0.300509
-0.275947
-0.225037
-0.178021
-0.123454
-0.070842
-0.048008
-0.009860
0.010240
0.025961
0.014446
-0.008136
-0.028838
-0.070735
-0.108344
-0.162653
-0.242372
-0.239406
-0.275139
-0.283063
-0.288689
-0.283189
-0.232238
-0.188519
-0.127440
-0.080179
-0.046850
-0.000969
0.003772
0.006032
0.018639
0.012886
-0.005532
-0.052787
-0.095510
-0.149230
-0.217858
-0.259371
-0.240843
-0.245412
-0.225189
-0.220239
-0.199740
-0.168508
-0.112231
-0.054593
-0.004826
0.020912
0.054438
0.061810
0.042854
0.019141
-0.022124
-0.078995
-0.129048
-0.159309
-0.186618
-0.230268
-0.263327
-0.249321
-0.247486
-0.217298
-0.180009
-0.152708
-0.090034
-0.034509
0.032255
0.081770
0.090672
0.067240
0.048597
0.031711
-0.007853
-0.016835
-0.061129
-0.126663
-0.188290
-0.209724
-0.218915
-0.240268
-0.241027
-0.196765
-0.142162
-0.114531
-0.077125
-0.046837
-0.007048
0.015640
0.027508
0.031126
0.058578
0.020445
-0.022684
-0.074383
-0.123245
-0.172073
-0.211878
-0.231229
-0.256859
-0.270013
-0.269631
-0.257755
-0.226706
-0.168165
-0.098277
-0.069786
-0.037031
-0.035703
0.018028
0.045374
0.022912
-0.016514
-0.056817
-0.093530
-0.126219
-0.173516
-0.243701
-0.278580
-0.287456
-0.295728
-0.285591
-0.281561
-0.245459
-0.203249
-0.151493
-0.114962
-0.078406
-0.023649
-0.011812
-0.014059
-0.038679
-0.037772
-0.065157
-0.115399
-0.173134
-0.217118
-0.236030
-0.229131
-0.253561
-0.263464
-0.265366
-0.256458
-0.221250
-0.185580
-0.137508
-0.084567
-0.043594
-0.034107
-0.002802
-0.002054
-0.004854
-0.045405
-0.114944
-0.124957
-0.169983
-0.199958
-0.237728
-0.264520
-0.278771
-0.276239
-0.284619
-0.266936
-0.233957
-0.199719
-0.134956
-0.085771
-0.048874
-0.001553
0.029927
0.025973
0.002476
-0.021109
-0.053524
-0.112629
-0.164969
-0.210507
-0.254793
-0.306672
-0.343001
-0.336998
-0.328238
-0.328133
-0.223586
-0.186443
-0.169705
-0.140244
-0.052459
-0.021940
0.001948
0.025481
0.043798
0.032119
0.018408
-0.057482
-0.083219
-0.120451
-0.164917
-0.212991
-0.173623
-0.166175
-0.144361
-0.093312
-0.003840
0.047199
0.119774
0.204836
0.291014
0.381399
0.430095
0.461882
0.470771
0.469981
0.466008
0.449053
0.461424
0.456303
0.448787
0.448050
0.458995
0.436247
0.426966
0.455195
0.503181
0.556719
0.605139
0.624766
0.641447
0.625123
0.563550
0.520289
0.451438
0.353714
0.299391
0.231696
0.144317
0.072987
0.000726
-0.064943
-0.107371
-0.127851
-0.117978
-0.091264
-0.053976
-0.029868
0.012012
0.055442
0.083284
0.113017
0.118515
0.117663
0.094795
0.110033
0.059905
0.003656
-0.066245
-0.110760
-0.147142
-0.188850
-0.208863
-0.212771
-0.223581
-0.204907
-0.167984
-0.132444
-0.065479
-0.025957
0.013793
0.052237
0.066534
0.068352
0.074905
0.057107
0.015321
-0.019782
-0.089066
-0.145017
-0.202020
-0.236123
-0.280789
-0.285585
-0.262770
-0.215341
-0.191990
-0.134956
-0.089574
-0.021715
0.018488
0.022819
0.038967
0.058651
0.058979
0.031359
0.002297
-0.030578
-0.081883
-0.136210
-0.166591
-0.202763
-0.230913
-0.261084
-0.247673
-0.225171
-0.175606
-0.116504
-0.058452
-0.014918
0.022758
0.052198
0.063706
0.074489
0.086578
0.069682
0.036916
-0.005538
-0.072532
-0.131585
-0.163832
-0.186530
-0.190056
-0.217322
-0.208909
-0.211404
-0.164056
-0.116506
-0.067474
-0.024481
0.011501
0.047607
0.064420
0.080132
0.086892
0.095839
0.063143
0.006219
-0.034836
-0.076474
-0.114437
-0.180356
-0.183191
-0.182221
-0.153857
-0.131250
-0.100362
-0.066124
-0.045443
-0.018425
0.016980
0.040926
0.095955
0.091536
0.104173
0.083073
0.055801
-0.009779
-0.088665
-0.111104
-0.139718
-0.184775
-0.200577
-0.209065
-0.171852
-0.137731
-0.082635
-0.038499
-0.001636
0.018431
0.044321
0.088570
0.141258
0.149495
0.145210
0.102074
0.074346
0.046479
-0.029577
-0.074229
-0.127795
-0.163683
-0.166567
-0.142430
-0.125582
-0.107965
-0.071954
-0.034993
0.017039
0.063551
0.113365
0.152044
0.154988
0.147067
0.135247
0.104265
0.062331
0.031379
-0.033893
-0.082721
-0.112648
-0.145446
-0.166316
-0.189903
-0.140314
-0.091535
-0.084736
-0.067246
-0.007515
0.047808
0.101867
0.125120
0.149906
0.143356
0.128876
0.115871
0.084622
0.033609
-0.013069
-0.070310
-0.113492
-0.155903
-0.171406
-0.174420
-0.150159
-0.129544
-0.094388
-0.056361
-0.014577
0.030593
0.073104
0.108917
0.125476
0.125775
0.122028
0.112184
0.057388
0.015555
-0.032862
-0.091845
-0.140212
-0.155308
-0.179729
-0.207263
-0.216707
-0.174085
-0.115148
-0.087554
-0.057775
-0.009449
0.043674
0.088628
0.114175
0.118419
0.096159
0.080321
0.029266
-0.025436
-0.074972
-0.112596
-0.154673
-0.182297
-0.205289
-0.210884
-0.196172
-0.174140
-0.153264
-0.100162
-0.046498
-0.006989
0.015270
0.081396
0.076240
0.087639
0.079844
0.033649
-0.014065
-0.083319
-0.159152
-0.153914
-0.155726
-0.181138
-0.209039
-0.244795
-0.249229
-0.194154
-0.148823
-0.115758
-0.085254
-0.051109
0.007720
0.037690
0.078588
0.083608
0.071457
0.024246
0.019808
-0.019560
-0.074856
-0.101576
-0.172614
-0.233982
-0.238422
-0.259572
-0.252892
-0.231972
-0.162985
-0.125704
-0.077810
-0.032012
0.013138
0.053280
0.041765
0.003972
0.030960
0.020992
0.009342
-0.042292
-0.093021
-0.153807
-0.191458
-0.248171
-0.269721
-0.253969
-0.238915
-0.231664
-0.197427
-0.160633
-0.103114
-0.041011
0.002391
0.032132
0.062607
0.060433
0.042430
0.031551
0.005842
-0.046541
-0.110107
-0.170742
-0.223830
-0.232154
-0.258556
-0.227087
-0.214981
-0.222848
-0.178714
-0.134135
-0.064484
-0.028246
0.000365
0.047865
0.072539
0.049858
0.052097
0.031551
0.007691
-0.043258
-0.089574
-0.091958
-0.155130
-0.178266
-0.205944
-0.216732
-0.213580
-0.160735
-0.122940
-0.115579
-0.080866
-0.049643
0.007005
0.012236
0.049576
0.066628
0.068162
0.042094
-0.030423
-0.052040
-0.090829
-0.153877
-0.194961
-0.232791
-0.228690
-0.214632
-0.209717
-0.197566
-0.171439
-0.115546
-0.060774
-0.022135
0.034742
0.056678
0.071064
0.094096
0.063034
0.028008
-0.012262
-0.046174
-0.105592
-0.154118
-0.182581
-0.222155
-0.240366
-0.220029
-0.198334
-0.173007
-0.119568
-0.106486
-0.054237
-0.013342
0.015287
0.051458
0.100952
0.103134
0.083200
0.064021
0.063114
0.003170
-0.075989
-0.115755
-0.158124
-0.229799
-0.262747
-0.270893
-0.204908
-0.166075
-0.121787
-0.095741
-0.069282
-0.005696
0.054832
0.077017
0.107682
0.103712
0.089141
0.085425
0.076157
0.016666
-0.056643
-0.076468
-0.147153
-0.153857
-0.180734
-0.171186
-0.151193
-0.158696
-0.125456
-0.082552
-0.005566
0.028097
0.062996
0.095418
0.106568
0.118539
0.126155
0.079342
0.064245
0.035791
-0.046956
-0.100081
-0.108141
-0.152574
-0.183761
-0.191676
-0.204013
-0.190370
-0.116070
-0.066435
-0.028725
0.005352
0.047716
0.071451
0.080579
0.085738
0.075978
0.061879
0.012383
-0.003200
-0.066221
-0.109776
-0.152980
-0.195167
-0.222445
-0.239990
-0.213243
-0.197949
-0.172842
-0.146862
-0.077727
-0.052991
-0.028002
0.006694
0.028872
0.054324
0.050856
0.015915
-0.006081
-0.060791
-0.102267
-0.105374
-0.166059
-0.245462
-0.231982
-0.233399
-0.235627
-0.216517
-0.190481
-0.140152
-0.077077
-0.039311
0.002560
0.026595
0.042208
0.065598
0.063984
0.034779
-0.022044
-0.062180
-0.131875
-0.184453
-0.194910
-0.194344
-0.214594
-0.266437
-0.201732
-0.218444
-0.189333
-0.151105
-0.108899
-0.065229
-0.012833
0.025481
0.041237
0.063109
0.053359
0.023279
0.000175
-0.027051
-0.076598
-0.142936
-0.219484
-0.217778
-0.242703
-0.237525
-0.250357
-0.242507
-0.197801
-0.149473
-0.109426
-0.067103
-0.020771
0.018083
0.039365
0.054256
0.054489
0.023997
-0.009651
-0.054262
-0.096392
-0.183227
-0.227674
-0.230117
-0.248768
-0.255298
-0.236634
-0.190773
-0.167360
-0.121747
-0.061357
0.001412
0.032310
0.092784
0.125704
0.152589
0.127252
0.119807
0.126604
0.112280
0.071155
0.046751
0.028414
0.024934
0.041156
0.049381
0.088717
0.137034
0.184852
0.286234
0.377145
0.444728
0.511466
0.580115
0.631843
0.676988
0.705194
0.740198
0.733715
0.679117
0.639312
0.582214
0.502924
0.449805
0.448072
0.423900
0.372114
0.367122
0.348293
0.351645
0.373252
0.368972
0.382494
0.381725
0.343456
0.308541
0.276509
0.225181
0.217681
0.139864
0.068779
-0.010434
-0.026761
-0.055809
-0.096310
-0.109721
-0.126091
-0.098282
-0.063551
-0.018461
0.047269
0.082948
0.122548
0.142610
0.158072
0.171167
0.149628
0.110391
0.076866
0.034883
-0.016362
-0.068751
-0.114954
-0.159349
-0.167603
-0.182170
-0.172633
-0.150224
-0.111162
-0.054759
0.006764
0.033804
0.066371
0.103352
0.140575
0.162990
0.135553
0.090848
0.066179
0.023426
-0.011471
-0.065435
-0.116022
-0.143843
-0.179617
-0.153906
-0.136632
-0.156740
-0.134977
-0.092747
-0.032373
0.016341
0.082976
0.117251
0.149251
0.149489
0.132228
0.111250
0.074116
0.024916
-0.027852
-0.050054
-0.064438
-0.104024
-0.140399
-0.147831
-0.140558
-0.125126
-0.101128
-0.064904
0.011233
0.042303
0.076137
0.127101
0.146970
0.163801
0.145701
0.103493
0.085133
0.036563
-0.011756
-0.054964
-0.062605
-0.096081
-0.106412
-0.126766
-0.129308
-0.083935
-0.051876
-0.000247
0.028613
0.067864
0.120324
0.166932
0.168727
0.152569
0.148367
0.140140
0.094282
0.065176
0.004872
-0.037812
-0.046575
-0.080467
-0.106880
-0.080119
-0.071611
-0.056055
-0.032095
0.007011
0.058001
0.123108
0.146222
0.197559
0.226140
0.222959
0.200597
0.181161
0.143325
0.088249
0.051973
0.029898
-0.021940
-0.056160
-0.076430
-0.078801
-0.082486
-0.056098
-0.004886
0.034120
0.094700
0.126746
0.210709
0.242295
0.237250
0.243739
0.255104
0.235527
0.196007
0.132792
0.063766
0.033961
0.006533
-0.041346
-0.054785
-0.061571
-0.047600
-0.039836
-0.005112
0.022452
0.052396
0.085773
0.150847
0.182007
0.248905
0.282226
0.279139
0.270167
0.211473
0.142982
0.115999
0.078638
0.031026
-0.026223
-0.040789
-0.057880
-0.064516
-0.036477
-0.028092
0.023329
0.064434
0.123974
0.164020
0.215058
0.231238
0.240711
0.232531
0.209748
0.169058
0.121820
0.066966
0.021679
-0.008602
-0.043273
-0.045095
-0.038489
-0.056335
-0.030314
-0.002949
0.020435
0.080247
0.123274
0.147935
0.180543
0.222673
0.210959
0.194702
0.177195
0.135474
0.100207
0.044498
-0.002868
-0.050292
-0.096688
-0.081527
-0.066159
-0.082501
-0.055072
-0.025707
-0.007620
0.044745
0.074698
0.108663
0.189272
0.186654
0.212909
0.205615
0.160383
0.121643
0.083365
0.026257
-0.024822
-0.067889
-0.102822
-0.122116
-0.146375
-0.133285
-0.103931
-0.063732
-0.029720
0.058641
0.088606
0.122102
0.145365
0.155101
0.172626
0.170082
0.149166
0.097836
0.058152
0.000859
-0.054923
-0.069740
-0.099060
-0.128269
-0.130451
-0.119041
-0.097814
-0.078149
-0.011425
0.042896
0.092666
0.130038
0.165086
0.174869
0.191435
0.169311
0.145799
0.113647
0.082955
0.018155
-0.021468
-0.062430
-0.102378
-0.129179
-0.136065
-0.130964
-0.096198
-0.071577
-0.026838
0.017496
0.078266
0.121451
0.156211
0.170569
0.182767
0.186943
0.171095
0.127566
0.053761
0.021229
-0.004925
-0.045544
-0.058978
-0.117005
-0.126441
-0.134930
-0.121412
-0.064739
-0.023035
0.067091
0.091420
0.139984
0.168190
0.186781
0.182087
0.153674
0.165214
0.124539
0.074420
0.025452
-0.030278
-0.073837
-0.122465
-0.113427
-0.116977
-0.124275
-0.100785
-0.073829
-0.028218
0.034577
0.086503
0.121993
0.149480
0.177289
0.176103
0.144076
0.157583
0.129131
0.089752
0.057047
-0.004621
-0.070603
-0.091142
-0.101651
-0.111603
-0.102274
-0.092164
-0.043561
-0.006636
0.037145
0.072674
0.117867
0.145016
0.160309
0.167622
0.173887
0.152745
0.127428
0.078157
0.015470
-0.037211
-0.085064
-0.113623
-0.130763
-0.142763
-0.125005
-0.107035
-0.080162
-0.028934
0.035971
0.106889
0.122913
0.152626
0.180165
0.191761
0.185098
0.173078
0.151393
0.102609
0.022346
-0.018734
-0.072521
-0.086237
-0.117793
-0.117407
-0.132172
-0.139514
-0.066297
-0.017179
0.035197
0.066530
0.088098
0.162238
0.202867
0.231802
0.231980
0.212253
0.178945
0.112067
0.047432
0.010598
-0.038477
-0.078959
-0.096588
-0.096203
-0.091547
-0.071274
-0.025035
0.013269
0.051135
0.088706
0.122767
0.156991
0.173228
0.183413
0.174536
0.162629
0.109530
0.116469
0.082031
0.028339
-0.021810
-0.054658
-0.060612
-0.075767
-0.057312
-0.007166
0.015913
0.060409
0.110474
0.130613
0.172491
0.204737
0.211884
0.212814
0.192319
0.171905
0.132169
0.094614
0.048758
-0.013364
-0.069389
-0.105634
-0.108320
-0.109779
-0.107318
-0.080391
-0.052348
-0.005209
0.041731
0.091691
0.130703
0.162802
0.181587
0.182563
0.178299
0.148509
0.100444
0.062329
0.001704
-0.026269
-0.088265
-0.131533
-0.156618
-0.147820
-0.145651
-0.138622
-0.091807
-0.041458
-0.015043
0.046534
0.105835
0.146620
0.170288
0.172066
0.151402
0.127824
0.086814
0.034780
-0.026709
-0.052768
-0.101322
-0.143124
-0.160923
-0.159445
-0.147546
-0.141815
-0.098278
-0.050749
0.005194
0.023887
0.080275
0.127042
0.142120
0.145411
0.141677
0.104013
0.076927
0.044510
-0.004623
-0.047342
-0.099476
-0.135143
-0.153191
-0.167634
-0.148698
-0.116267
-0.096701
-0.057177
0.004883
0.037024
0.084299
0.146063
0.144300
0.165719
0.134730
0.093011
0.068530
0.020411
-0.012642
-0.032264
-0.091913
-0.163731
-0.161727
-0.154880
-0.163657
-0.135673
-0.086296
-0.044987
-0.009587
0.035051
0.086150
0.116616
0.138570
0.137841
0.127037
0.097415
0.057491
0.025629
-0.014049
-0.070504
-0.097308
-0.107839
-0.092426
-0.101374
-0.077628
-0.075812
0.018260
0.047824
0.095651
0.198855
0.292183
0.338343
0.353441
0.360575
0.400100
0.423445
0.431342
0.405342
0.363432
0.344623
0.332496
0.331368
0.335873
0.352233
0.378624
0.475511
0.549676
0.616191
0.690590
0.774615
0.808901
0.861372
0.908442
0.894161
0.851454
0.811587
0.760057
0.683630
0.582135
0.457614
0.337429
0.275831
0.227153
0.171892
0.143719
0.125703
0.136932
0.154547
0.180650
0.210135
0.252056
0.288840
0.292475
0.278735
0.262156
0.238874
0.190878
0.156485
0.110411
0.068672
0.022834
-0.003906
-0.037342
-0.060863
-0.068549
-0.055731
-0.020861
0.015634
0.059362
0.100513
0.163007
0.198268
0.205285
0.213626
0.223488
0.177989
0.137303
0.098646
0.025128
-0.013461
-0.068757
-0.120446
-0.078489
-0.070693
-0.087797
-0.067752
-0.061508
-0.006140
0.071222
0.099822
0.160260
0.187955
0.188087
0.166461
0.154692
0.151547
0.140708
0.093108
0.023070
-0.018908
-0.053571
-0.078634
-0.085548
-0.115188
-0.118983
-0.085254
-0.036493
0.018149
0.072465
0.108495
0.135982
0.163263
0.180664
0.193854
0.190185
0.168417
0.146830
0.095265
0.040480
-0.002392
-0.052345
-0.077661
-0.101263
-0.097067
-0.081195
-0.051628
-0.009454
0.029808
0.073029
0.129709
0.161204
0.189129
0.213157
0.227641
0.199906
0.202389
0.180954
0.150187
0.080513
0.011578
-0.026507
-0.054535
-0.077393
-0.067695
-0.072205
-0.074396
-0.021306
0.039372
0.063003
0.150317
0.190716
0.219059
0.257209
0.291951
0.252545
0.205132
0.201927
0.146013
0.091407
0.048996
0.004060
-0.009149
-0.026713
-0.048764
-0.035969
-0.026394
-0.002173
0.035812
0.102345
0.135986
0.150324
0.176285
0.283992
0.322978
0.292934
0.258651
0.238436
0.207199
0.164528
0.106630
0.059055
0.022845
0.007942
-0.029833
-0.019173
0.008424
0.045557
0.084666
0.129535
0.164833
0.209174
0.254209
0.253526
0.274493
0.254938
0.250634
0.226900
0.190076
0.128854
0.063816
0.017400
-0.005451
-0.008564
-0.002008
0.014273
0.036025
0.052812
0.089097
0.128154
0.167085
0.236112
0.270574
0.295494
0.292102
0.252143
0.221785
0.187329
0.156111
0.112766
0.061784
0.012785
-0.006680
-0.008335
-0.043420
-0.025688
0.009062
0.054776
0.075657
0.130515
0.167345
0.168751
0.238248
0.279228
0.287500
0.285051
0.254963
0.216143
0.151835
0.098030
0.055612
0.019581
-0.008544
-0.036352
-0.085209
-0.056568
-0.031312
0.006101
0.048278
0.100776
0.138491
0.177013
0.214501
0.246746
0.241782
0.238243
0.230193
0.196881
0.131248
0.073234
0.020078
-0.009856
-0.035872
-0.066654
-0.092668
-0.094515
-0.058743
-0.028664
0.010742
0.051842
0.106628
0.145867
0.188122
0.212808
0.206528
0.211328
0.181077
0.145739
0.091325
0.050892
0.013598
-0.041844
-0.066025
-0.085681
-0.104802
-0.098982
-0.087180
-0.044535
-0.009115
0.038132
0.080753
0.123191
0.173142
0.193313
0.177450
0.184246
0.159496
0.130713
0.088622
0.058126
0.021140
-0.011955
-0.043527
-0.072736
-0.090783
-0.081381
-0.059454
-0.037571
-0.007473
0.016967
0.081952
0.137246
0.165883
0.180120
0.188536
0.181773
0.161222
0.139142
0.093420
0.051791
0.008119
-0.039316
-0.079626
-0.091217
-0.101355
-0.088251
-0.078836
-0.050508
0.004077
0.094810
0.118522
0.146974
0.191497
0.206103
0.208810
0.197825
0.176638
0.149091
0.098987
0.041541
-0.006435
-0.051905
-0.084169
-0.099944
-0.113417
-0.102375
-0.069248
-0.031223
0.018000
0.071228
0.103067
0.139591
0.171482
0.194454
0.209888
0.202737
0.186263
0.149269
0.102847
0.042584
0.008711
-0.038330
-0.076405
-0.113352
-0.130379
-0.116023
-0.086726
-0.065088
-0.016201
0.051371
0.103081
0.161366
0.179068
0.191849
0.198581
0.194470
0.183344
0.148623
0.097995
0.064264
0.018581
-0.031980
-0.090104
-0.113430
-0.131957
-0.122337
-0.104806
-0.066368
-0.023762
0.039862
0.101932
0.136840
0.159469
0.198239
0.206018
0.210768
0.186842
0.143120
0.092992
0.040863
0.009557
-0.033084
-0.081173
-0.108765
-0.114501
-0.108350
-0.080257
-0.043183
0.009594
0.050936
0.098900
0.154685
0.164662
0.195706
0.202724
0.205477
0.178009
0.150597
0.087539
0.044886
0.011826
-0.012498
-0.053754
-0.095234
-0.090689
-0.080896
-0.065323
-0.024440
0.032326
0.070822
0.104571
0.147228
0.196544
0.215968
0.214996
0.217109
0.195179
0.153957
0.109359
0.051517
0.018163
-0.015960
-0.042239
-0.077079
-0.088557
-0.072941
-0.086752
-0.046409
0.055506
0.126478
0.164875
0.223476
0.225953
0.219925
0.226292
0.178183
0.177561
0.159644
0.106548
0.072193
0.026863
0.010758
-0.016068
-0.079635
-0.097088
-0.080338
-0.043226
0.015226
0.062757
0.091597
0.120817
0.147619
0.190563
0.220716
0.217384
0.208170
0.170620
0.129287
0.091631
0.046374
0.001352
-0.046735
-0.092639
-0.136101
-0.148076
-0.123148
-0.118417
-0.101856
-0.066937
-0.018369
0.081962
0.120148
0.131372
0.126599
0.131660
0.125755
0.118772
0.041841
0.012512
-0.012485
-0.066793
-0.103195
-0.141190
-0.171546
-0.174563
-0.164480
-0.137574
-0.109764
-0.083243
-0.040771
0.059878
0.111301
0.110674
0.135530
0.105349
0.101643
0.064377
0.061407
0.020990
-0.060515
-0.113251
-0.128854
-0.179401
-0.212029
-0.202929
-0.201402
-0.174086
-0.141234
-0.089438
-0.039245
0.032462
0.088943
0.111018
0.116665
0.135665
0.095360
0.031777
0.005655
-0.037289
-0.081239
-0.119660
-0.180308
-0.209716
-0.221608
-0.196670
-0.200788
-0.195367
-0.174982
-0.126456
-0.081007
-0.046615
-0.008723
0.033864
0.072648
0.089452
0.090943
0.057653
0.013204
-0.051888
-0.116499
-0.166330
-0.214048
-0.228811
-0.197794
-0.229763
-0.247573
-0.265481
-0.233685
-0.175046
-0.090775
-0.010888
0.021153
0.069690
0.099514
0.120815
0.147926
0.168646
0.137259
0.070278
0.045611
0.036174
0.016423
0.020471
0.049742
0.096594
0.129518
0.209633
0.225539
0.231858
0.317712
0.452969
0.529156
0.597284
0.665662
0.718573
0.742762
0.769309
0.750491
0.722237
0.713392
0.676999
0.629458
0.595914
0.583175
0.560716
0.520609
0.516636
0.557889
0.545345
0.432964
0.394027
0.369376
0.330368
0.320403
0.337974
0.359495
0.308282
0.207484
0.097147
0.053728
0.050558
0.010022
-0.066873
-0.080188
-0.087038
-0.099385
-0.088042
-0.042674
-0.004722
0.071459
0.085397
0.108453
0.135709
0.149394
0.168722
0.160154
0.121100
0.082862
0.050079
-0.018354
-0.062277
-0.122694
-0.152524
-0.172881
-0.188954
-0.177831
-0.164833
-0.134200
-0.112411
-0.032077
-0.006344
0.065877
0.138904
0.162140
0.137397
0.065393
0.017209
-0.022436
-0.063240
-0.078464
-0.102085
-0.186399
-0.206083
-0.209576
-0.210665
-0.209930
-0.185757
-0.157774
-0.125237
-0.080215
-0.050570
0.008191
0.037499
0.049312
0.080822
0.062246
0.013342
-0.014628
-0.032675
-0.073719
-0.152566
-0.210170
-0.260102
-0.266315
-0.253253
-0.255208
-0.227581
-0.198456
-0.157978
-0.105140
-0.053009
-0.017962
-0.002038
0.047726
0.079782
0.058386
0.030466
-0.006000
-0.034425
-0.071220
-0.104605
-0.168011
-0.248119
-0.279812
-0.265758
-0.270403
-0.233036
-0.202110
-0.146187
-0.084148
-0.016725
-0.005266
0.007005
0.047083
0.080626
0.055129
0.036691
0.027290
-0.003930
-0.063068
-0.135856
-0.189039
-0.211927
-0.259434
-0.286536
-0.190633
-0.152327
-0.145594
-0.121243
-0.073432
-0.029831
0.022013
0.024956
0.068210
0.097466
0.091729
0.059563
0.037563
-0.011505
-0.064821
-0.110571
-0.152572
-0.178177
-0.193496
-0.174782
-0.183424
-0.195689
-0.180314
-0.121920
-0.057573
-0.014095
0.028279
0.040803
0.080538
0.074285
0.067483
0.075134
0.048770
-0.029293
-0.088589
-0.137462
-0.159372
-0.189294
-0.202528
-0.190233
-0.168940
-0.134008
-0.134050
-0.098060
-0.036750
0.021185
0.038139
0.070095
0.078417
0.080785
0.075484
0.033838
0.010832
-0.022675
-0.067706
-0.106433
-0.162613
-0.185427
-0.182327
-0.219923
-0.223760
-0.201421
-0.156832
-0.102935
-0.064565
-0.003663
0.024153
0.045747
0.080002
0.098463
0.104472
0.075040
0.027674
-0.044978
-0.085167
-0.128578
-0.164906
-0.212345
-0.240269
-0.245047
-0.224206
-0.212590
-0.182960
-0.142085
-0.083567
-0.033502
0.014523
0.051276
0.031449
0.028539
0.033593
0.015055
-0.011738
-0.067158
-0.091720
-0.134908
-0.190609
-0.253699
-0.259895
-0.278982
-0.252643
-0.232466
-0.208959
-0.166143
-0.125272
-0.073863
-0.029911
0.013244
0.027855
0.044788
0.040706
0.003459
-0.044256
-0.111173
-0.129125
-0.170615
-0.214345
-0.258780
-0.278084
-0.286454
-0.272317
-0.248678
-0.224608
-0.174703
-0.118218
-0.076608
-0.063461
-0.022499
0.040610
0.006245
-0.031551
-0.043232
-0.085717
-0.104739
-0.108218
-0.190222
-0.261572
-0.289405
-0.270803
-0.293982
-0.289233
-0.275616
-0.248676
-0.190624
-0.117246
-0.064958
-0.023473
-0.023248
-0.004055
0.034550
0.041329
0.008278
-0.041619
-0.120129
-0.175305
-0.210063
-0.241611
-0.280354
-0.300499
-0.279205
-0.268193
-0.250758
-0.230888
-0.195617
-0.130121
-0.065980
-0.032877
0.006379
0.033920
0.034555
0.022228
-0.032386
-0.097147
-0.120999
-0.148034
-0.190984
-0.291524
-0.323455
-0.280231
-0.307934
-0.296060
-0.292093
-0.233187
-0.170032
-0.131030
-0.057438
-0.055568
-0.022870
0.015258
0.040426
0.029347
-0.017368
-0.056573
-0.086718
-0.125787
-0.170333
-0.205832
-0.221449
-0.234641
-0.289014
-0.292469
-0.265391
-0.216588
-0.174098
-0.120714
-0.060561
-0.015032
-0.004149
0.023772
0.031333
-0.015593
-0.044958
-0.068072
-0.100593
-0.145911
-0.206533
-0.204567
-0.227999
-0.263315
-0.285966
-0.250142
-0.233139
-0.208804
-0.171087
-0.123659
-0.085356
-0.044785
-0.016766
-0.016717
-0.003613
0.004438
0.008614
-0.023177
-0.075493
-0.122921
-0.190943
-0.243798
-0.258284
-0.314012
-0.352752
-0.321457
-0.302945
-0.248257
-0.166561
-0.132588
-0.124770
-0.085950
-0.011980
0.038015
0.098504
0.084874
0.024018
-0.059735
-0.095496
-0.126606
-0.165120
-0.208698
-0.242511
-0.245263
-0.267539
-0.251606
-0.248979
-0.215612
-0.159868
-0.111124
-0.052984
-0.012670
0.008376
0.050571
0.070040
0.068797
-0.004704
-0.058275
-0.090186
-0.117393
-0.111833
-0.194315
-0.238826
-0.247511
-0.267215
-0.280980
-0.262246
-0.213799
-0.162439
-0.111632
-0.050267
0.007702
0.040572
0.055027
0.068296
0.066939
0.035579
-0.020946
-0.046469
-0.055229
-0.141089
-0.184119
-0.228122
-0.233235
-0.242704
-0.242723
-0.228659
-0.187801
-0.147345
-0.098654
-0.052055
-0.010237
0.017858
0.037647
0.051419
0.028014
0.006002
-0.034867
-0.078929
-0.127807
-0.202984
-0.257543
-0.294489
-0.281691
-0.283996
-0.274690
-0.261085
-0.235388
-0.183390
-0.124170
-0.076973
-0.064326
-0.044468
-0.037741
-0.052490
-0.058011
-0.047572
-0.083367
-0.131167
-0.178218
-0.220668
-0.243938
-0.283361
-0.302765
-0.309004
-0.313001
-0.307100
-0.274310
-0.248864
-0.192804
-0.127812
-0.115160
-0.097183
-0.062074
-0.043505
-0.016026
-0.056426
-0.103303
-0.145918
-0.203766
-0.250202
-0.263122
-0.297168
-0.339020
-0.352859
-0.329595
-0.310248
-0.264108
-0.217197
-0.192941
-0.145147
-0.084047
-0.043895
-0.040942
-0.008650
-0.005917
-0.044328
-0.084590
-0.108795
-0.157777
-0.210685
-0.300124
-0.372955
-0.408037
-0.370902
-0.335766
-0.311434
-0.271903
-0.239166
-0.200332
-0.135377
-0.104996
-0.077674
-0.056429
-0.042923
-0.039416
-0.069077
-0.109522
-0.141238
-0.187298
-0.224733
-0.296522
-0.353218
-0.387395
-0.414822
-0.417945
-0.378400
-0.326145
-0.248121
-0.205620
-0.139276
-0.096259
-0.070232
-0.012767
-0.031481
-0.033753
-0.035259
-0.051605
-0.074409
-0.090261
-0.124521
-0.151718
-0.192323
-0.183660
-0.160923
-0.144872
-0.128776
-0.075158
0.023860
0.106833
0.184793
0.246234
0.326355
0.367547
0.407985
0.435740
0.410251
0.409407
0.433136
0.429884
0.410260
0.400743
0.420938
0.424715
0.443282
0.461146
0.492279
0.530922
0.554992
0.583037
0.602968
0.625827
0.644217
0.627199
0.516397
0.429489
0.328990
0.251799
0.186267
0.099606
-0.007007
-0.096347
-0.135841
-0.182253
-0.189910
-0.202223
-0.207654
-0.136851
-0.090055
-0.064616
0.005903
0.050731
0.083970
0.106044
0.124532
0.102891
0.071680
0.045676
-0.002438
-0.070226
-0.176779
-0.271219
-0.323987
-0.297142
-0.276563
-0.279115
-0.274602
-0.232006
-0.195060
-0.166160
-0.126813
-0.061881
-0.021833
0.016090
0.028894
0.023463
0.029061
-0.002714
-0.097769
-0.146594
-0.206221
-0.271730
-0.298723
-0.300576
-0.282403
-0.301201
-0.295920
-0.282540
-0.224020
-0.163604
-0.118583
-0.077904
-0.023919
0.005063
0.016912
0.008361
0.024313
-0.020667
-0.082888
-0.162581
-0.205646
-0.256810
-0.290912
-0.293785
-0.277216
-0.263544
-0.237059
-0.199093
-0.150360
-0.116173
-0.101425
-0.078401
-0.042222
-0.010253
0.003528
-0.011417
-0.025871
-0.026120
-0.047410
-0.116227
-0.190697
-0.215478
-0.255225
-0.291865
-0.290977
-0.268218
-0.251903
-0.221208
-0.176113
-0.119459
-0.062089
-0.013228
0.022926
0.044352
0.033406
0.042503
0.027605
-0.015667
-0.044648
-0.055375
-0.100708
-0.187012
-0.263120
-0.291980
-0.272070
-0.271592
-0.242067
-0.202520
-0.164886
-0.108428
-0.046891
0.015178
0.056907
0.074880
0.071516
0.078752
0.044548
-0.001257
-0.057522
-0.089683
-0.119402
-0.165531
-0.185861
-0.197504
-0.235315
-0.231482
-0.196428
-0.166834
-0.107436
-0.103372
-0.033185
0.009256
0.091106
0.107987
0.111468
0.100848
0.066954
0.027662
-0.008893
-0.057821
-0.109414
-0.142848
-0.164196
-0.216442
-0.233877
-0.198029
-0.191548
-0.157767
-0.127694
-0.076794
-0.014212
0.044492
0.068325
0.075355
0.090448
0.097794
0.064111
0.018525
-0.028938
-0.064082
-0.120199
-0.161905
-0.179305
-0.190265
-0.205040
-0.201497
-0.208209
-0.143236
-0.074979
-0.005183
0.022919
0.009537
0.027202
0.034292
0.054729
0.055505
0.049489
0.019985
-0.029600
-0.088791
-0.161724
-0.193267
-0.240891
-0.269854
-0.259909
-0.207283
-0.195795
-0.159632
-0.124602
-0.071662
-0.014802
0.028156
0.039416
0.040744
0.045365
0.029320
0.028433
0.012102
-0.023730
-0.087338
-0.157633
-0.221878
-0.230177
-0.269946
-0.296078
-0.291490
-0.267145
-0.204252
-0.140248
-0.080379
-0.046445
-0.024191
0.004989
0.031878
0.054786
0.027192
0.016393
-0.002756
-0.062197
-0.119276
-0.170366
-0.236550
-0.272700
-0.271158
-0.274115
-0.286275
-0.247807
-0.239800
-0.202093
-0.130251
-0.074217
-0.013619
0.014187
0.023474
0.022268
-0.009127
-0.014369
-0.031916
-0.059466
-0.135122
-0.209876
-0.249139
-0.280312
-0.316812
-0.337157
-0.320242
-0.285299
-0.223898
-0.180168
-0.128702
-0.093210
-0.047079
-0.003902
0.022933
0.044569
0.033588
0.004527
-0.019773
-0.087481
-0.123097
-0.194949
-0.270150
-0.325690
-0.346814
-0.315711
-0.286174
-0.252798
-0.221770
-0.203015
-0.134338
-0.071975
-0.021144
0.003132
0.019120
0.026553
0.009976
-0.030247
-0.051376
-0.104582
-0.157706
-0.207161
-0.244411
-0.248383
-0.270509
-0.303651
-0.282615
-0.257737
-0.238864
-0.185453
-0.110576
-0.081391
-0.061903
-0.016527
0.010277
0.022424
0.002184
-0.014241
-0.021951
-0.064444
-0.099076
-0.188633
-0.251850
-0.294992
-0.302770
-0.303399
-0.296641
-0.245267
-0.219044
-0.184820
-0.137349
-0.098807
-0.019239
0.019125
0.038279
0.031052
-0.015633
-0.046334
-0.027450
-0.076421
-0.153752
-0.189749
-0.213801
-0.249127
-0.268867
-0.273369
-0.276709
-0.296947
-0.227532
-0.158314
-0.102950
-0.058565
-0.008911
0.039506
0.009651
-0.009112
0.020085
-0.010496
-0.066037
-0.113523
-0.150136
-0.185094
-0.223574
-0.258580
-0.296128
-0.311777
-0.301636
-0.283276
-0.221497
-0.172249
-0.122062
-0.103764
-0.059212
0.015805
0.032327
0.052510
0.019132
-0.029137
-0.056183
-0.077002
-0.114630
-0.173823
-0.242793
-0.300325
-0.338467
-0.336672
-0.323513
-0.299686
-0.248818
-0.193760
-0.141962
-0.088655
-0.056852
-0.015400
0.014478
0.036079
0.033138
-0.001547
-0.019043
-0.119398
-0.183620
-0.195142
-0.201206
-0.232691
-0.265097
-0.282512
-0.295311
-0.286579
-0.231018
-0.175394
-0.150300
-0.081466
-0.012069
0.036709
0.058585
0.060381
0.059068
0.035507
-0.028261
-0.089700
-0.137559
-0.157975
-0.217101
-0.248492
-0.292865
-0.299506
-0.297236
-0.303203
-0.247850
-0.165706
-0.153950
-0.052881
0.012303
0.033241
0.056205
0.060777
0.047859
0.028630
0.002589
-0.048400
-0.098412
-0.150485
-0.222609
-0.251932
-0.256872
-0.245508
-0.241194
-0.226510
-0.188267
-0.150008
-0.119194
-0.059983
-0.017534
0.022719
0.041682
0.071944
0.053961
0.030087
-0.035810
-0.105011
-0.132015
-0.215159
-0.346122
-0.353283
-0.358009
-0.335476
-0.279632
-0.253878
-0.228688
-0.198903
-0.138179
-0.078384
-0.051075
-0.059473
-0.033828
-0.017206
-0.004976
-0.029985
-0.066202
-0.120587
-0.194301
-0.275602
-0.298873
-0.313792
-0.374596
-0.348113
-0.288347
-0.285663
-0.268053
-0.210820
-0.177892
-0.140756
-0.069436
-0.025194
-0.005716
-0.012430
-0.056141
-0.106367
-0.142367
-0.150027
-0.175994
-0.226133
-0.277271
-0.324241
-0.345448
-0.345211
-0.326060
-0.320500
-0.305000
-0.248372
-0.188378
-0.129352
-0.095036
-0.063905
-0.034207
-0.038701
-0.073884
-0.082061
-0.091503
-0.129153
-0.168078
-0.216849
-0.273265
-0.337948
-0.351147
-0.328498
-0.329036
-0.338269
-0.312503
-0.242381
-0.161047
-0.089808
-0.061667
-0.059335
-0.078676
-0.057019
-0.050834
-0.065964
-0.099022
-0.152424
-0.212024
-0.259134
-0.287149
-0.332719
-0.349257
-0.349726
-0.364411
-0.349036
-0.277171
-0.256618
-0.230981
-0.147200
-0.068219
-0.036727
-0.042778
-0.046582
-0.014358
-0.039953
-0.051420
-0.095385
-0.119359
-0.123043
-0.158446
-0.163030
-0.168764
-0.159447
-0.123351
-0.071713
0.029887
0.121823
0.203117
0.247353
0.316269
0.379652
0.428380
0.421920
0.386774
0.445366
0.468138
0.457989
0.456996
0.430485
0.427786
0.451579
0.462939
0.482637
0.527556
0.535019
0.512287
0.513762
0.558269
0.617690
0.619686
0.628897
0.583899
0.510257
0.440446
0.370636
0.243138
0.134871
0.062234
-0.013287
-0.074553
-0.141575
-0.199966
-0.215288
-0.208337
-0.209816
-0.147548
-0.077542
-0.047042
0.007641
0.024628
0.069848
0.096869
0.073690
0.054006
0.030869
0.010620
-0.030946
-0.086140
-0.164065
-0.222654
-0.262058
-0.280557
-0.295751
-0.287457
-0.284754
-0.260300
-0.209345
-0.155966
-0.113881
-0.086006
-0.059427
-0.026773
0.015905
-0.016269
-0.036820
-0.055509
-0.097512
-0.156162
-0.227051
-0.243836
-0.267087
-0.315604
-0.309381
-0.283220
-0.254028
-0.225300
-0.194448
-0.163612
-0.103036
-0.052794
-0.009507
-0.001041
-0.020643
-0.021169
-0.047913
-0.066491
-0.097883
-0.164197
-0.215842
-0.258473
-0.292754
-0.306698
-0.334187
-0.319140
-0.275142
-0.211256
-0.180509
-0.147222
-0.073449
-0.029093
-0.015923
-0.000080
-0.002952
0.004111
-0.022190
-0.039240
-0.080753
-0.145631
-0.192483
-0.211770
-0.254361
-0.288577
-0.292827
-0.273238
-0.249314
-0.212353
-0.162322
-0.137603
-0.061963
-0.017014
0.017694
0.038186
0.062080
0.023180
-0.017959
-0.028787
-0.086389
-0.154300
-0.179337
-0.212572
-0.261441
-0.276147
-0.258788
-0.240137
-0.226530
-0.174958
-0.150730
-0.128295
-0.041433
-0.015402
0.015241
0.059148
0.067124
0.042931
0.024438
0.008404
-0.033539
-0.080884
-0.131131
-0.160948
-0.203210
-0.247219
-0.235181
-0.223993
-0.196950
-0.153905
-0.090702
-0.064584
-0.060135
-0.034202
0.058407
0.082680
0.090899
0.085790
0.068854
0.027865
-0.021969
-0.089283
-0.105733
-0.159365
-0.192416
-0.216784
-0.201182
-0.199073
-0.192346
-0.159282
-0.084907
-0.059397
-0.032678
0.006319
0.051854
0.087004
0.093213
0.083087
0.055671
0.034471
-0.002388
-0.063463
-0.134535
-0.175052
-0.216849
-0.219530
-0.216723
-0.205414
-0.201556
-0.153776
-0.090883
-0.067464
-0.020099
0.038239
0.062360
0.082689
0.066462
0.061832
0.040441
0.017348
-0.051746
-0.061539
-0.108600
-0.163902
-0.222505
-0.289264
-0.261351
-0.228428
-0.208625
-0.178170
-0.152600
-0.105208
-0.047727
0.015658
0.073718
0.080055
0.052661
0.022526
0.004349
-0.025186
-0.063979
-0.105113
-0.171038
-0.203151
-0.205368
-0.243557
-0.272846
-0.273849
-0.245913
-0.241075
-0.195677
-0.130611
-0.053179
-0.010176
0.009001
0.030102
0.030654
0.028832
0.028619
-0.039830
-0.086389
-0.145077
-0.195845
-0.213865
-0.256505
-0.313852
-0.320799
-0.301814
-0.279871
-0.224625
-0.186939
-0.132857
-0.074896
-0.025360
0.008222
-0.003908
-0.008860
0.005691
0.018585
-0.008387
-0.080680
-0.128367
-0.196036
-0.266137
-0.296227
-0.307453
-0.314059
-0.308095
-0.295309
-0.275252
-0.241587
-0.170177
-0.100391
-0.057490
-0.003643
0.004556
0.010500
-0.007857
-0.028057
-0.068069
-0.108745
-0.136723
-0.177651
-0.229134
-0.255179
-0.284212
-0.305054
-0.332285
-0.267215
-0.217513
-0.165137
-0.160842
-0.108556
-0.053931
-0.032880
-0.010405
0.013088
0.005835
0.005927
-0.050303
-0.056367
-0.115549
-0.184427
-0.242936
-0.263238
-0.277575
-0.286956
-0.273706
-0.248045
-0.215822
-0.178630
-0.121931
-0.072057
-0.055404
-0.005065
0.026829
0.012844
-0.050408
-0.050526
-0.058133
-0.090119
-0.145680
-0.182453
-0.215453
-0.231226
-0.249714
-0.294221
-0.262689
-0.235355
-0.216815
-0.185115
-0.129193
-0.077320
-0.033235
-0.001137
0.020929
0.022239
0.011890
-0.009086
-0.034074
-0.075227
-0.142855
-0.195173
-0.219887
-0.265943
-0.281635
-0.278452
-0.271096
-0.234816
-0.232980
-0.196227
-0.142226
-0.095152
-0.026827
0.039774
0.049234
0.004524
0.000352
-0.025523
-0.038300
-0.082948
-0.146699
-0.184862
-0.221204
-0.260074
-0.278873
-0.273509
-0.270538
-0.249553
-0.204804
-0.146974
-0.129038
-0.090929
-0.027441
-0.014499
-0.005589
-0.001805
-0.022771
-0.041662
-0.044656
-0.088382
-0.113589
-0.179038
-0.222338
-0.244508
-0.289640
-0.286570
-0.290300
-0.278900
-0.263187
-0.198650
-0.135720
-0.063149
-0.035931
0.002152
0.016855
0.065293
0.067038
0.008315
-0.053919
-0.121172
-0.165788
-0.209751
-0.251790
-0.265172
-0.277538
-0.286131
-0.274439
-0.247405
-0.222874
-0.185329
-0.130094
-0.080793
-0.052788
-0.015800
0.028688
0.021152
-0.008036
-0.031284
-0.066648
-0.080729
-0.124539
-0.166898
-0.204131
-0.246936
-0.268512
-0.280416
-0.264933
-0.240277
-0.199840
-0.142241
-0.111340
-0.072265
-0.038397
0.016142
0.034261
0.063921
0.071003
0.045069
0.006913
-0.068652
-0.108575
-0.182330
-0.222315
-0.244288
-0.284139
-0.263921
-0.244664
-0.241235
-0.231176
-0.176761
-0.102728
-0.035173
0.022670
0.058173
0.079402
0.039492
0.039661
0.053673
0.011954
-0.054548
-0.113594
-0.166155
-0.196605
-0.209209
-0.221501
-0.239905
-0.232379
-0.223866
-0.176561
-0.127602
-0.098823
-0.048182
-0.001181
0.034781
0.062200
0.042638
0.022247
0.021496
-0.020729
-0.059988
-0.131500
-0.193786
-0.239354
-0.254225
-0.267690
-0.291035
-0.319931
-0.284817
-0.241170
-0.188870
-0.150290
-0.103100
-0.025644
-0.002656
-0.003325
0.003784
0.014675
-0.010684
-0.071571
-0.104946
-0.155198
-0.209291
-0.254924
-0.275154
-0.299829
-0.314370
-0.313220
-0.291247
-0.252871
-0.222644
-0.192691
-0.174401
-0.094595
-0.043271
-0.013491
-0.029540
0.015822
-0.033232
-0.097072
-0.103458
-0.123211
-0.196768
-0.276022
-0.311548
-0.349174
-0.332831
-0.305081
-0.270319
-0.239655
-0.192150
-0.164510
-0.153498
-0.101982
-0.075055
-0.041213
0.002944
-0.022277
-0.054971
-0.083709
-0.117067
-0.169411
-0.215752
-0.263238
-0.295433
-0.318864
-0.317021
-0.324226
-0.298843
-0.250665
-0.222067
-0.166916
-0.118746
-0.081721
-0.046556
-0.056789
-0.047458
-0.024180
-0.068444
-0.110661
-0.151058
-0.184490
-0.227070
-0.258234
-0.286615
-0.340116
-0.334640
-0.317768
-0.303781
-0.276847
-0.212685
-0.165389
-0.097075
-0.063218
-0.059679
-0.031345
0.006704
0.010856
0.002693
-0.026831
-0.029177
-0.076959
-0.131476
-0.140202
-0.178236
-0.210389
-0.219510
-0.165715
-0.110096
-0.018873
0.036282
0.119844
0.239621
0.298901
0.354293
0.421244
0.468476
0.488120
0.477928
0.460578
0.455536
0.435460
0.453050
0.440628
0.458115
0.495976
0.543238
0.580217
0.574874
0.609923
0.642069
0.679603
0.713560
0.738064
0.758103
0.770214
0.677057
0.617012
0.548350
0.453581
0.349013
0.245934
0.076306
-0.068110
-0.082291
-0.119493
-0.140246
-0.109485
-0.102215
-0.095740
-0.060523
-0.020208
0.027138
0.083861
0.097127
0.114779
0.112157
0.091649
0.056419
0.006276
-0.047181
-0.066173
-0.111804
-0.210228
-0.229378
-0.255513
-0.267571
-0.230530
-0.237270
-0.213030
-0.131245
-0.073982
-0.056225
-0.018572
0.020800
0.041881
0.029300
0.020971
0.001808
-0.047642
-0.105572
-0.150093
-0.166317
-0.198198
-0.282650
-0.326436
-0.323566
-0.303392
-0.265749
-0.207063
-0.146768
-0.124655
-0.079363
-0.042564
0.006434
0.027584
0.022725
0.020638
-0.009584
-0.062059
-0.095377
-0.144304
-0.200358
-0.238851
-0.266826
-0.261275
-0.270392
-0.240722
-0.220220
-0.227698
-0.196437
-0.121557
-0.076847
-0.036658
-0.003818
0.023491
0.021856
0.006439
-0.017378
-0.023893
-0.088313
-0.108304
-0.158963
-0.179666
-0.205846
-0.260798
-0.270229
-0.268412
-0.232693
-0.195695
-0.141598
-0.094100
-0.038404
0.007591
0.037585
0.047550
0.045702
0.031269
-0.015479
-0.026707
-0.080648
-0.094480
-0.132929
-0.205528
-0.236176
-0.261772
-0.259363
-0.199633
-0.193858
-0.155876
-0.112173
-0.068997
-0.009326
0.023074
0.060167
0.088691
0.081643
0.083654
0.066539
0.047289
-0.018339
-0.074060
-0.149814
-0.174449
-0.189159
-0.205415
-0.234424
-0.232146
-0.219554
-0.139533
-0.079515
-0.042312
0.011214
0.050738
0.083338
0.106879
0.101866
0.089931
0.097265
0.048499
0.026065
-0.012194
-0.092206
-0.149698
-0.175316
-0.184810
-0.210297
-0.179436
-0.158320
-0.141939
-0.115030
-0.036353
0.020193
0.071964
0.114256
0.110402
0.096538
0.094784
0.091807
0.046386
-0.000063
-0.023678
-0.063458
-0.107447
-0.129172
-0.178885
-0.217346
-0.219245
-0.178999
-0.124234
-0.067702
-0.023798
0.015821
0.069478
0.080770
0.107389
0.105338
0.101560
0.067320
0.050479
0.019738
-0.050137
-0.114275
-0.137664
-0.161387
-0.191193
-0.182995
-0.186018
-0.169949
-0.161389
-0.106941
-0.057479
-0.011678
0.030060
0.073022
0.107321
0.104389
0.076128
0.037982
0.025243
-0.001102
-0.084892
-0.136591
-0.156249
-0.216467
-0.233290
-0.247228
-0.244586
-0.223599
-0.170685
-0.115444
-0.056160
-0.001596
0.021348
0.043770
0.065455
0.058817
0.043230
0.031733
-0.030077
-0.075249
-0.111015
-0.151455
-0.222830
-0.269763
-0.264339
-0.292845
-0.227367
-0.190674
-0.187301
-0.173887
-0.110228
-0.040346
-0.024661
0.004412
0.042641
0.079235
0.053881
0.026852
-0.015213
-0.042732
-0.099589
-0.141107
-0.180573
-0.206956
-0.261483
-0.290740
-0.269778
-0.222719
-0.197871
-0.166905
-0.129053
-0.051772
-0.009233
-0.001814
0.022999
0.026738
0.029797
0.003278
-0.016823
-0.059234
-0.097809
-0.156151
-0.173903
-0.208823
-0.255572
-0.250445
-0.223386
-0.199628
-0.166829
-0.136903
-0.080709
-0.032174
0.010098
0.028001
0.055281
0.081493
0.108639
0.066591
0.028158
-0.024439
-0.097281
-0.155251
-0.167415
-0.180848
-0.196008
-0.202983
-0.199449
-0.187956
-0.159850
-0.126637
-0.060825
0.001200
0.031659
0.062932
0.102195
0.084509
0.081539
0.046707
-0.040512
-0.087433
-0.129170
-0.128560
-0.108017
-0.141980
-0.198604
-0.198363
-0.197302
-0.186491
-0.147059
-0.080495
-0.044720
0.002734
0.073559
0.106642
0.110787
0.108722
0.105136
0.067863
0.050291
-0.001281
-0.058622
-0.118603
-0.154373
-0.197084
-0.216433
-0.231161
-0.202289
-0.180036
-0.115631
-0.069672
-0.059797
0.040399
0.082076
0.086852
0.101029
0.107495
0.100861
0.104545
0.060143
0.001748
-0.051122
-0.075994
-0.105738
-0.164097
-0.175659
-0.168184
-0.178355
-0.171038
-0.138230
-0.087166
-0.042753
0.006275
0.057000
0.096622
0.111808
0.121303
0.104771
0.055990
0.062111
0.003477
-0.045039
-0.094487
-0.116532
-0.154063
-0.182031
-0.185693
-0.191540
-0.167403
-0.103349
-0.071593
-0.033525
0.019901
0.063869
0.091083
0.099948
0.128591
0.120860
0.085799
0.070390
0.044715
0.006793
-0.038245
-0.078639
-0.119852
-0.156195
-0.171909
-0.159988
-0.101252
-0.092815
-0.068506
-0.016170
0.044020
0.072320
0.110601
0.156591
0.156436
0.149168
0.110441
0.062760
0.037808
-0.011003
-0.050166
-0.082687
-0.114946
-0.125973
-0.125078
-0.141478
-0.125011
-0.068227
-0.017146
0.026744
0.071353
0.101610
0.106329
0.131206
0.157539
0.155971
0.145220
0.112712
0.084274
0.028884
-0.033922
-0.068875
-0.090391
-0.135188
-0.150670
-0.140377
-0.113666
-0.069351
-0.025968
0.007269
0.037489
0.080860
0.115783
0.143412
0.147000
0.134400
0.091746
0.078152
0.037033
-0.054424
-0.101080
-0.100245
-0.139821
-0.185851
-0.216914
-0.198102
-0.149263
-0.111272
-0.047430
-0.016403
0.009348
0.056085
0.072466
0.098530
0.103196
0.084392
0.054600
0.044113
0.020938
-0.024065
-0.075270
-0.115426
-0.174936
-0.216617
-0.226168
-0.216989
-0.185932
-0.142721
-0.104042
-0.058941
-0.005490
0.053769
0.080947
0.083089
0.084835
0.077610
0.100383
0.064866
0.006364
-0.042184
-0.105123
-0.161828
-0.196511
-0.216738
-0.206171
-0.194714
-0.185998
-0.151880
-0.123351
-0.063326
0.004493
0.053885
0.073544
0.080369
0.095884
0.096962
0.079904
0.046396
-0.008389
-0.051277
-0.100727
-0.157256
-0.199617
-0.220393
-0.220706
-0.238702
-0.195738
-0.116526
-0.035536
-0.020838
0.005692
0.060896
0.101166
0.100251
0.097314
0.085314
0.072741
0.038224
-0.023254
-0.074634
-0.120013
-0.172750
-0.193394
-0.209033
-0.204627
-0.195086
-0.181280
-0.143083
-0.086459
-0.024399
0.055888
0.121041
0.166056
0.183802
0.199930
0.215615
0.205088
0.186084
0.162439
0.135337
0.115242
0.081929
0.072416
0.110856
0.126102
0.162367
0.185947
0.314946
0.396038
0.472569
0.557255
0.635429
0.711184
0.748775
0.806250
0.855412
0.869644
0.859488
0.835921
0.786394
0.729404
0.696988
0.662430
0.607539
0.576623
0.564973
0.540876
0.516292
0.477626
0.462457
0.441439
0.455745
0.428582
0.397095
0.355629
0.331075
0.300999
0.260703
0.225345
0.163131
0.107253
0.040173
-0.016788
-0.066894
-0.090686
-0.063996
-0.034414
0.002918
0.043748
0.095366
0.112442
0.135389
0.189035
0.237533
0.222128
0.192904
0.160023
0.130063
0.098083
0.047155
-0.003471
-0.045933
-0.085611
-0.113105
-0.132130
-0.095755
-0.098581
-0.088853
-0.042819
0.006180
0.068519
0.113439
0.140792
0.181697
0.182757
0.146208
0.118393
0.133970
0.102047
0.036941
-0.036633
-0.087608
-0.112580
-0.126472
-0.142697
-0.130531
-0.113476
-0.062635
0.000596
0.057781
0.081929
0.112841
0.154339
0.185514
0.172321
0.156344
0.138060
0.094737
0.059965
0.031745
-0.030058
-0.069853
-0.100519
-0.126056
-0.125024
-0.111771
-0.084095
-0.068498
-0.012272
0.040147
0.073161
0.155231
0.182989
0.215792
0.178732
0.157515
0.150347
0.110841
0.074442
0.044476
-0.018136
-0.061640
-0.083086
-0.084955
-0.080088
-0.086379
-0.067217
-0.041996
0.017904
0.079994
0.127102
0.174727
0.201198
0.225999
0.225097
0.220674
0.218330
0.160897
0.100726
0.041816
0.002841
-0.019382
-0.053231
-0.094981
-0.062064
-0.046317
-0.052792
0.001162
0.053794
0.107325
0.153122
0.193213
0.234760
0.249770
0.253396
0.266643
0.240936
0.212601
0.171431
0.110967
0.053595
0.024019
-0.001088
-0.032467
-0.054617
-0.044053
0.004493
0.033976
0.074648
0.120260
0.165360
0.204191
0.260933
0.277089
0.271419
0.235870
0.250306
0.229396
0.180341
0.125616
0.094248
0.065879
0.016241
-0.016555
-0.016676
-0.021528
0.037344
0.069445
0.099727
0.140036
0.189282
0.185360
0.241691
0.276615
0.275673
0.269800
0.245527
0.197530
0.160280
0.122510
0.081612
0.024769
-0.023336
-0.017991
-0.006181
-0.001658
0.017193
0.038969
0.077900
0.133555
0.197619
0.215434
0.223833
0.257350
0.251772
0.257253
0.219412
0.190507
0.145339
0.110116
0.046188
-0.002961
-0.024521
-0.051993
-0.072551
-0.059144
-0.016669
0.056362
0.070189
0.113902
0.159663
0.196790
0.218549
0.257905
0.269628
0.235448
0.174828
0.173088
0.182906
0.135201
0.060403
-0.037866
-0.063215
-0.059199
-0.082740
-0.098545
-0.062291
-0.042002
0.035787
0.105684
0.108268
0.158499
0.203161
0.222448
0.221962
0.223131
0.208296
0.160627
0.117455
0.060093
-0.000122
-0.036635
-0.065266
-0.085514
-0.099280
-0.086042
-0.056961
-0.022878
0.037103
0.072970
0.093549
0.141905
0.212785
0.222575
0.216224
0.212638
0.193194
0.157432
0.093858
0.032744
-0.022145
-0.059527
-0.058662
-0.104775
-0.103077
-0.062228
-0.064166
-0.048600
0.013172
0.074358
0.106572
0.151314
0.174387
0.202032
0.209145
0.201226
0.168450
0.151308
0.088892
0.037844
0.008178
-0.010479
-0.053410
-0.077355
-0.070678
-0.069209
-0.027854
0.002924
0.036866
0.070445
0.126144
0.173696
0.190619
0.207666
0.203897
0.206636
0.169100
0.156318
0.124099
0.069048
0.028466
-0.046317
-0.050161
-0.053108
-0.047719
-0.031753
-0.048980
-0.036623
0.020852
0.063615
0.120458
0.143092
0.178298
0.208231
0.222468
0.225950
0.202410
0.176108
0.153490
0.079303
0.006143
-0.030176
-0.052966
-0.078447
-0.081297
-0.084686
-0.081102
-0.001212
0.068709
0.094678
0.118282
0.160445
0.207256
0.221103
0.264100
0.240884
0.211826
0.158119
0.121613
0.073078
-0.013169
-0.049529
-0.052370
-0.054473
-0.065332
-0.077443
-0.071316
-0.034406
0.010543
0.094674
0.113792
0.139811
0.204444
0.220294
0.201121
0.186982
0.206494
0.174670
0.134779
0.068084
0.035753
-0.011244
-0.049643
-0.059626
-0.089126
-0.102693
-0.044788
-0.005190
0.009337
0.049607
0.095716
0.142344
0.190546
0.199982
0.206068
0.226629
0.194846
0.146062
0.100652
0.072959
0.010626
-0.037364
-0.057661
-0.087160
-0.106067
-0.078565
-0.076293
-0.036037
0.013455
0.047290
0.101561
0.156146
0.192979
0.198867
0.183897
0.162051
0.162862
0.166476
0.196365
0.108298
-0.003750
-0.050079
-0.067369
-0.088616
-0.097810
-0.097888
-0.069111
-0.031123
0.020302
0.061593
0.101680
0.139433
0.172910
0.210600
0.193240
0.248770
0.205450
0.151871
0.099834
0.036468
-0.019526
-0.041665
-0.040674
-0.074891
-0.085098
-0.076987
-0.049149
-0.016929
0.019350
0.087727
0.129565
0.179864
0.228365
0.234624
0.249388
0.264253
0.226440
0.184453
0.108827
0.088883
0.050868
0.001336
-0.032022
-0.073294
-0.082476
-0.063092
-0.037438
-0.024771
0.026564
0.079654
0.144127
0.177939
0.187617
0.213240
0.244774
0.243770
0.236982
0.198586
0.156559
0.086767
0.048941
0.015574
-0.023721
-0.031662
-0.042977
-0.047407
-0.006391
0.040898
0.072240
0.082771
0.170460
0.222853
0.257886
0.265965
0.257033
0.260244
0.240979
0.194448
0.137449
0.083733
0.045491
-0.022152
-0.070688
-0.079541
-0.076347
-0.076625
-0.054418
-0.002891
0.051099
0.119617
0.194868
0.182592
0.154512
0.210090
0.204803
0.168936
0.144193
0.120753
0.093765
0.047448
0.014069
-0.050031
-0.075829
-0.099201
-0.090720
-0.082864
-0.078354
-0.045955
-0.013717
0.045183
0.077859
0.112921
0.144850
0.169696
0.188715
0.181458
0.151259
0.112677
0.058635
0.002236
-0.038727
-0.064730
-0.112702
-0.128606
-0.124111
-0.076040
-0.059383
-0.036349
0.017221
0.024959
0.092142
0.161105
0.182547
0.202061
0.212482
0.192921
0.160762
0.117948
0.067315
0.008848
-0.035098
-0.058939
-0.081819
-0.114635
-0.105785
-0.128580
-0.123988
-0.095363
-0.001403
0.054403
0.103102
0.134867
0.164012
0.167302
0.193689
0.182171
0.166685
0.149464
0.102087
0.039491
0.010420
-0.034643
-0.063501
-0.114067
-0.133059
-0.136511
-0.097008
-0.025962
0.038367
0.037658
0.068507
0.141224
0.170426
0.158694
0.184767
0.189367
0.158786
0.119588
0.073398
0.046468
0.065138
0.074958
-0.021088
-0.082069
-0.072436
-0.024478
0.021292
0.085090
0.137319
0.186188
0.248388
0.334301
0.368144
0.393167
0.427610
0.459474
0.482296
0.509244
0.517414
0.478876
0.455661
0.458544
0.455317
0.448860
0.467456
0.532950
0.598681
0.663561
0.771185
0.868398
0.925529
0.944330
0.958806
0.986223
0.996838
0.982017
0.938463
0.858987
0.786767
0.693620
0.564794
0.444195
0.332952
0.252181
0.192398
0.168552
0.169796
0.207912
0.252956
0.267259
0.302783
0.340793
0.356700
0.371031
0.367121
0.348290
0.310464
0.266436
0.219466
0.154932
0.103458
0.044951
0.025485
0.007072
-0.007439
-0.016799
-0.003907
0.023567
0.066978
0.108337
0.182196
0.232499
0.248264
0.269295
0.260344
0.284583
0.238610
0.178492
0.126652
0.088417
0.032703
-0.014057
-0.016097
-0.058463
-0.098108
-0.063099
-0.024066
-0.007510
0.041452
0.102029
0.156245
0.207792
0.230349
0.262101
0.238919
0.207314
0.191526
0.166426
0.128425
0.084379
0.037000
0.003292
-0.028744
-0.052067
-0.059646
-0.056103
-0.034271
-0.001902
0.041577
0.080162
0.113592
0.165301
0.200812
0.231937
0.282092
0.280386
0.225160
0.174700
0.132408
0.106196
0.044880
0.018694
-0.017644
-0.059489
-0.069084
-0.074515
-0.035587
0.020959
0.056565
0.092191
0.152328
0.212573
0.252905
0.260381
0.269506
0.255856
0.207131
0.179466
0.162190
0.151327
0.088804
0.038667
0.003591
-0.014706
-0.019701
-0.008510
0.010164
0.052647
0.086570
0.125903
0.165721
0.234376
0.263910
0.281528
0.296160
0.289823
0.288706
0.254547
0.189167
0.136605
0.085093
0.038205
-0.001837
0.005223
0.010255
0.016014
0.062655
0.110058
0.151517
0.164335
0.187476
0.262634
0.332027
0.313059
0.322145
0.306962
0.290271
0.269536
0.221801
0.178102
0.128808
0.104018
0.059532
0.056851
0.030320
0.000696
0.025399
0.083288
0.124933
0.184555
0.225246
0.270380
0.297925
0.317827
0.356774
0.346824
0.323430
0.321198
0.272236
0.213024
0.136123
0.096123
0.057852
0.033369
0.023943
0.034016
0.065662
0.127532
0.159693
0.178961
0.216427
0.280728
0.306614
0.324646
0.339861
0.305130
0.279722
0.279655
0.257472
0.197530
0.141654
0.105969
0.099305
0.060884
0.019511
0.025709
0.045809
0.075449
0.126568
0.164894
0.212441
0.249815
0.274933
0.309023
0.304328
0.293247
0.280311
0.290659
0.244031
0.176109
0.132438
0.088097
0.037145
0.036827
0.027777
0.039552
0.068508
0.073125
0.115993
0.163015
0.206263
0.248782
0.302424
0.309676
0.302626
0.312696
0.307938
0.242172
0.177250
0.118973
0.085904
0.018624
-0.015906
-0.016834
0.006599
-0.004396
0.018454
0.054464
0.101331
0.153815
0.190539
0.221733
0.257553
0.277933
0.288539
0.267032
0.249114
0.211004
0.203507
0.129254
0.056247
0.014208
-0.012828
-0.026087
-0.039819
-0.038020
-0.008150
0.019225
0.045598
0.113695
0.171890
0.218054
0.246641
0.258700
0.267367
0.242035
0.235186
0.227080
0.204403
0.151252
0.106609
0.028290
-0.035343
-0.056989
-0.052256
-0.029156
-0.006915
0.012703
0.048712
0.104013
0.141200
0.177815
0.229634
0.274925
0.312348
0.293653
0.246337
0.229178
0.168493
0.104691
0.037777
0.023660
-0.020879
-0.036396
-0.045162
-0.051227
-0.012918
0.034853
0.078200
0.114757
0.169732
0.211831
0.248016
0.276518
0.290916
0.266182
0.244527
0.233063
0.189591
0.125758
0.074819
0.032646
-0.005760
-0.036787
-0.035193
-0.019302
0.011279
0.051209
0.094533
0.106593
0.166794
0.219306
0.268872
0.285837
0.265013
0.259354
0.242218
0.208066
0.190793
0.126354
0.050236
0.037750
0.020961
-0.007923
0.000404
-0.006421
-0.010113
0.023272
0.067843
0.115471
0.187278
0.229683
0.267381
0.281680
0.287729
0.272423
0.262016
0.225857
0.181657
0.128026
0.075578
0.023879
-0.002466
-0.019582
-0.028605
-0.002121
0.000242
0.011449
0.075451
0.127719
0.173918
0.217502
0.258073
0.294931
0.288544
0.248715
0.226487
0.199024
0.160485
0.103485
0.077387
0.044736
0.009198
-0.021057
-0.052529
-0.064966
-0.022541
0.041600
0.104146
0.140728
0.206635
0.212820
0.221009
0.245762
0.249531
0.230848
0.219533
0.196093
0.154993
0.106946
0.069370
0.006130
-0.020845
-0.022968
-0.055120
-0.087947
-0.026621
0.013692
0.067226
0.122842
0.159071
0.198443
0.239395
0.254802
0.262052
0.238546
0.209879
0.188480
0.150954
0.115405
0.066309
0.021249
-0.003884
-0.025626
-0.028718
-0.030686
0.006706
0.033172
0.049615
0.104317
0.130405
0.173557
0.229486
0.257435
0.245666
0.235072
0.217087
0.188000
0.129312
0.078444
0.027234
0.006871
-0.018998
-0.037597
-0.048877
-0.050176
-0.027439
0.013446
0.059311
0.100677
0.150624
0.217573
0.249378
0.249582
0.247684
0.221528
0.180468
0.144825
0.097069
0.075094
0.060507
0.016879
-0.029327
-0.066474
-0.080414
-0.071398
-0.041240
0.012752
0.052748
0.096927
0.133695
0.141246
0.196689
0.248912
0.220574
0.214218
0.213923
0.187313
0.134927
0.118575
0.071894
0.000318
-0.045616
-0.054794
-0.055559
-0.068172
-0.041685
0.006016
0.048208
0.091415
0.155504
0.207962
0.260223
0.268633
0.260016
0.254412
0.250091
0.233595
0.170219
0.109840
0.046430
0.002065
-0.018276
-0.031545
0.004198
0.021354
0.022396
0.028051
0.051194
0.109902
0.153754
0.222781
0.265674
0.266119
0.285753
0.281243
0.238442
0.208811
0.166191
0.113065
0.053833
0.000811
-0.027713
-0.034732
-0.044509
-0.014042
0.021404
0.043630
0.088655
0.140857
0.184789
0.226464
0.256172
0.279277
0.275812
0.268211
0.221936
0.214623
0.192829
0.160331
0.134849
0.054390
0.016587
0.007271
-0.001988
-0.018298
-0.016910
-0.027908
0.023463
0.086019
0.130432
0.197906
0.247939
0.290585
0.283759
0.264520
0.227193
0.184321
0.134664
0.083647
0.022405
-0.006351
-0.041122
-0.039578
-0.033006
-0.028621
-0.024428
0.005316
0.042614
0.084956
0.104168
0.151641
0.157803
0.192275
0.227380
0.237909
0.204319
0.150840
0.098659
0.037841
-0.003000
-0.045258
-0.069171
-0.109513
-0.127754
-0.102170
-0.073687
-0.063734
-0.015476
0.058604
0.107955
0.169900
0.199881
0.206446
0.208324
0.200413
0.174613
0.136246
0.106072
0.082825
-0.000809
-0.055573
-0.055454
-0.059452
-0.103559
-0.122599
-0.075892
-0.050723
-0.000663
0.032661
0.071562
0.129688
0.170831
0.179371
0.201603
0.219567
0.200423
0.159967
0.134694
0.056300
-0.010453
-0.045550
-0.076300
-0.099091
-0.102344
-0.093846
-0.067503
-0.048117
-0.005233
0.047175
0.083321
0.134754
0.178188
0.197168
0.190540
0.175198
0.143176
0.143304
0.121592
0.064740
0.011866
-0.045579
-0.104331
-0.114752
-0.119315
-0.115052
-0.058299
-0.029821
0.026882
0.093547
0.169036
0.221539
0.255379
0.240742
0.258776
0.280492
0.288096
0.270083
0.252353
0.248808
0.203189
0.182890
0.164638
0.147999
0.157728
0.215871
0.284190
0.387190
0.446467
0.505132
0.586691
0.658321
0.724505
0.770867
0.809157
0.841206
0.858993
0.869997
0.847044
0.806507
0.799823
0.759064
0.726216
0.681846
0.658844
0.638104
0.600477
0.612790
0.620903
0.585699
0.552941
0.557667
0.548736
0.509801
0.470198
0.431902
0.378496
0.324252
0.282047
0.211779
0.188031
0.130896
0.088917
0.055282
0.016836
0.018419
0.054038
0.062039
0.068499
0.100651
0.160902
0.212544
0.234324
0.272579
0.284124
0.268233
0.252342
0.209417
0.158418
0.092318
0.064551
0.012202
0.001064
-0.017428
-0.036591
-0.040286
-0.041388
-0.012383
0.021694
0.050668
0.111351
0.173002
0.215022
0.241041
0.258990
0.218138
0.181302
0.161265
0.132202
0.063950
-0.003218
-0.060041
-0.069393
-0.094782
-0.071503
-0.053845
-0.031427
-0.025158
0.023443
0.074522
0.138548
0.191719
0.219414
0.252655
0.251205
0.230913
0.190368
0.150662
0.114243
0.060454
0.016659
-0.032317
-0.048139
-0.037566
-0.030368
-0.043730
-0.012338
0.014724
0.043887
0.099328
0.134975
0.183198
0.236961
0.268826
0.257715
0.221305
0.177336
0.155918
0.106837
0.044845
0.019171
-0.024005
-0.045772
-0.059676
-0.050334
-0.005208
0.016850
0.028592
0.060637
0.103164
0.140658
0.191007
0.248193
0.274532
0.269300
0.271181
0.246243
0.230166
0.164303
0.101154
0.065703
0.025611
-0.012153
-0.040535
-0.054480
-0.038724
-0.003674
0.028080
0.074000
0.145613
0.192084
0.257550
0.296525
0.319962
0.296404
0.279474
0.217961
0.212447
0.200219
0.146844
0.083441
0.060079
0.019550
0.008432
0.005872
0.040011
0.059733
0.093588
0.103065
0.170878
0.212297
0.244453
0.264966
0.310917
0.322658
0.291107
0.246181
0.227111
0.196319
0.176786
0.126024
0.071715
0.060041
0.025773
0.013263
0.029889
0.066468
0.094519
0.114427
0.164843
0.212850
0.234605
0.294805
0.334757
0.339515
0.318753
0.269543
0.254074
0.192243
0.143353
0.104754
0.090620
0.092992
0.062779
0.001629
0.013597
0.039297
0.080690
0.116597
0.165202
0.203476
0.264252
0.299834
0.321124
0.329221
0.345682
0.310430
0.261458
0.202110
0.111083
0.047357
-0.002589
-0.019617
-0.025491
-0.032693
-0.043998
-0.025183
-0.001219
0.055568
0.136052
0.201914
0.231645
0.235639
0.293782
0.303935
0.279242
0.241566
0.216257
0.192744
0.114610
0.060510
0.007196
-0.037153
-0.065632
-0.074828
-0.068529
-0.025710
0.026381
0.068202
0.092202
0.141222
0.207551
0.239091
0.274907
0.289135
0.253667
0.227860
0.199071
0.117009
0.052761
-0.006402
-0.053230
-0.084963
-0.103021
-0.100222
-0.113595
-0.076761
-0.049186
0.005216
0.054551
0.089507
0.128550
0.189029
0.216008
0.281378
0.251236
0.215666
0.176347
0.118501
0.072669
0.037859
-0.017337
-0.069765
-0.093943
-0.084641
-0.083165
-0.068467
-0.033191
0.007237
0.053399
0.099304
0.144686
0.142555
0.146774
0.192618
0.196165
0.188088
0.159500
0.124052
0.058580
-0.011484
-0.064597
-0.081775
-0.106966
-0.111148
-0.107577
-0.055987
-0.020960
0.019990
0.058661
0.098612
0.158004
0.184896
0.201246
0.225736
0.208142
0.185207
0.129562
0.048360
0.002335
-0.014456
-0.035866
-0.067006
-0.121909
-0.082315
-0.060377
-0.084982
-0.041189
0.017103
0.054081
0.117870
0.152440
0.188815
0.228058
0.285730
0.249450
0.190257
0.141073
0.099804
0.068397
0.014472
-0.048158
-0.081962
-0.095709
-0.120680
-0.097652
-0.042831
-0.023860
0.007147
0.032422
0.086097
0.152999
0.215337
0.243546
0.236236
0.227835
0.192755
0.161151
0.129235
0.091290
0.046914
-0.029977
-0.042493
-0.087890
-0.132307
-0.128940
-0.122827
-0.058659
-0.011544
0.046215
0.096540
0.136678
0.179461
0.202981
0.218753
0.201305
0.172863
0.161038
0.108358
0.055631
0.018870
-0.010999
-0.043877
-0.079457
-0.096508
-0.087006
-0.067475
-0.041178
-0.014785
0.045717
0.088282
0.143590
0.179555
0.207343
0.213755
0.176503
0.153520
0.141413
0.103971
0.055558
0.022298
-0.032545
-0.077464
-0.093836
-0.095025
-0.105414
-0.074328
-0.041481
-0.000451
0.033493
0.058784
0.101482
0.170434
0.179095
0.173280
0.161849
0.145416
0.130152
0.091850
0.047561
-0.004290
-0.046673
-0.071681
-0.107433
-0.088515
-0.096303
-0.095255
-0.063345
0.008918
0.036604
0.056904
0.123188
0.185932
0.205306
0.207503
0.191347
0.164812
0.122943
0.084986
0.030628
-0.026980
-0.067496
-0.106865
-0.134192
-0.153068
-0.124637
-0.089250
-0.061808
-0.035380
0.007161
0.061388
0.125787
0.150572
0.190484
0.202576
0.181965
0.136172
0.092264
0.062718
0.019031
-0.005546
-0.052379
-0.082612
-0.115146
-0.137900
-0.131354
-0.129377
-0.090486
-0.057025
0.030560
0.074525
0.148045
0.159131
0.145647
0.181581
0.209945
0.191928
0.129504
0.078959
0.018176
-0.043449
-0.086803
-0.104836
-0.124247
-0.134020
-0.127100
-0.100003
-0.073485
-0.036459
-0.012273
0.044798
0.108058
0.147203
0.198030
0.189755
0.164854
0.155433
0.102494
0.040743
0.019878
-0.044952
-0.065574
-0.083810
-0.097208
-0.134891
-0.151780
-0.093885
-0.055235
-0.040320
0.035568
0.074349
0.111094
0.097499
0.121356
0.164906
0.129874
0.117062
0.132403
0.074013
0.023196
-0.019382
-0.073524
-0.124740
-0.156355
-0.164257
-0.129567
-0.078966
-0.055352
-0.008400
0.012025
0.045562
0.114177
0.163907
0.175920
0.158940
0.170073
0.165799
0.100854
0.061009
0.039303
-0.014834
-0.041977
-0.086636
-0.107155
-0.118511
-0.106165
-0.075588
-0.039175
0.010347
0.047466
0.075400
0.101885
0.142924
0.194992
0.224994
0.211345
0.189955
0.151041
0.098482
0.047234
-0.005610
-0.052941
-0.088844
-0.108358
-0.109838
-0.119377
-0.085047
-0.068994
-0.001076
0.049321
0.082647
0.130262
0.186713
0.221875
0.229319
0.213520
0.186702
0.174608
0.100977
0.077500
0.028712
-0.023901
-0.066828
-0.079490
-0.122756
-0.113401
-0.078296
-0.055009
-0.009615
0.015001
0.095980
0.177821
0.193933
0.200161
0.185222
0.193258
0.179439
0.154612
0.094224
0.023037
-0.052491
-0.104084
-0.111467
-0.129363
-0.133211
-0.127447
-0.094659
-0.071624
-0.042519
0.011681
0.069386
0.098794
0.104162
0.125222
0.144268
0.152336
0.128541
0.070086
0.034738
0.002865
-0.042497
-0.094209
-0.127766
-0.155842
-0.166430
-0.166276
-0.147804
-0.128498
-0.082865
-0.014738
0.042565
0.100644
0.127697
0.138040
0.146467
0.144409
0.120090
0.082313
0.022976
-0.036440
-0.089786
-0.144582
-0.173663
-0.184545
-0.179382
-0.180068
-0.147821
-0.102877
-0.063331
-0.014864
0.028658
0.076751
0.093977
0.132024
0.153882
0.128256
0.095926
0.056641
-0.002373
-0.040951
-0.089406
-0.169761
-0.151276
-0.170602
-0.186049
-0.170770
-0.156568
-0.119666
-0.082234
-0.059753
-0.026068
0.082684
0.092417
0.164093
0.179607
0.155683
0.103261
0.061376
0.020222
-0.033827
-0.077445
-0.112271
-0.168591
-0.220635
-0.230899
-0.191631
-0.176173
-0.116219
-0.072929
-0.035038
0.012740
0.066010
0.119845
0.126276
0.134319
0.148665
0.146774
0.156059
0.134159
0.104446
0.075254
0.033939
-0.013046
-0.072509
-0.056938
-0.002972
0.047379
0.120236
0.223675
0.282059
0.335902
0.415268
0.485565
0.546381
0.592505
0.619194
0.616873
0.594429
0.621705
0.582407
0.572684
0.567513
0.585229
0.613442
0.634429
0.622907
0.617982
0.665321
0.720593
0.723663
0.752697
0.782174
0.766541
0.736318
0.679717
0.589044
0.496240
0.421683
0.338387
0.243317
0.164406
0.074020
0.024273
-0.006209
-0.028607
-0.039799
-0.014021
0.024534
0.062825
0.104996
0.141621
0.213663
0.258129
0.249943
0.233067
0.199797
0.168893
0.122175
0.081481
0.028970
-0.006823
-0.071392
-0.111402
-0.102228
-0.131054
-0.141397
-0.104371
-0.061776
-0.025237
-0.001110
0.079441
0.114253
0.136730
0.160515
0.152981
0.152784
0.132112
0.126103
0.103595
0.037833
-0.065007
-0.119691
-0.111601
-0.127605
-0.140904
-0.141005
-0.142752
-0.121257
-0.078296
-0.013983
0.026348
0.088755
0.116586
0.136518
0.150183
0.142473
0.132428
0.101164
0.040973
-0.009034
-0.038054
-0.091675
-0.112129
-0.133542
-0.134626
-0.136013
-0.142471
-0.094956
-0.049882
-0.008927
0.049495
0.111151
0.131796
0.127321
0.117785
0.151838
0.164908
0.142399
0.090209
0.025467
-0.034043
-0.078820
-0.083619
-0.097136
-0.110097
-0.088984
-0.081704
-0.092212
-0.079053
0.006802
0.067349
0.104215
0.123580
0.144127
0.193133
0.191632
0.160185
0.159901
0.098644
0.030411
-0.016016
-0.071135
-0.108254
-0.110432
-0.117571
-0.104994
-0.054857
-0.015504
0.020824
0.072594
0.116660
0.168473
0.191128
0.205884
0.226603
0.196278
0.170677
0.154566
0.127463
0.062841
0.006886
-0.030378
-0.085246
-0.095661
-0.087138
-0.077468
-0.058510
-0.007267
0.069027
0.115475
0.142435
0.176883
0.222435
0.258353
0.266624
0.235188
0.226818
0.182584
0.137449
0.082806
0.036354
-0.019622
-0.054488
-0.064371
-0.066595
-0.066885
-0.039952
0.008450
0.062431
0.091340
0.107011
0.113067
0.161450
0.209693
0.248832
0.262704
0.266209
0.232456
0.181167
0.121751
0.062939
0.028490
0.007293
-0.031985
-0.062309
-0.040713
-0.023927
0.014367
0.055319
0.103203
0.139075
0.180760
0.215001
0.246419
0.235965
0.223295
0.214757
0.189412
0.120043
0.078040
0.045014
-0.015963
-0.016153
-0.041266
-0.083703
-0.071590
-0.033745
-0.007993
0.028363
0.095987
0.135024
0.174674
0.188591
0.214196
0.198767
0.193879
0.171318
0.154514
0.116183
0.065223
-0.000013
-0.052995
-0.070252
-0.100039
-0.129567
-0.122080
-0.067579
-0.010635
0.039412
0.061311
0.072710
0.106577
0.154059
0.170929
0.154106
0.149369
0.134505
0.099438
0.073571
0.011973
-0.031388
-0.085453
-0.131492
-0.156514
-0.159050
-0.162107
-0.135230
-0.087159
-0.025364
0.067990
0.096544
0.135510
0.161225
0.146746
0.147429
0.159403
0.141394
0.109050
0.075932
0.011505
-0.041252
-0.098721
-0.131973
-0.143633
-0.158269
-0.118622
-0.098715
-0.096226
-0.071129
-0.014035
0.058460
0.097225
0.157782
0.136048
0.117702
0.119763
0.086232
0.074190
0.037925
0.004126
-0.053525
-0.096913
-0.110842
-0.126256
-0.150513
-0.145510
-0.135373
-0.119767
-0.070820
0.001198
0.038619
0.096141
0.132418
0.132315
0.137849
0.140638
0.116963
0.092049
0.064362
0.025011
-0.027787
-0.094487
-0.134183
-0.163765
-0.187296
-0.159327
-0.155031
-0.122216
-0.054596
0.032237
0.112514
0.138703
0.142720
0.144264
0.159090
0.144600
0.142220
0.126543
0.067256
-0.007080
-0.040522
-0.088829
-0.156953
-0.172483
-0.141209
-0.126042
-0.101541
-0.067148
-0.024825
0.013431
0.072420
0.119300
0.148809
0.175247
0.181117
0.139875
0.102418
0.060630
0.036014
0.003337
-0.019908
-0.100179
-0.097758
-0.107181
-0.133700
-0.135865
-0.107111
-0.094465
-0.066212
-0.002182
0.050920
0.086599
0.128935
0.173887
0.165390
0.149949
0.132468
0.092667
0.048853
0.001563
-0.044796
-0.087280
-0.123387
-0.146827
-0.154629
-0.156734
-0.167956
-0.110876
-0.082482
-0.060535
0.063991
0.166834
0.183767
0.170967
0.151480
0.146623
0.146154
0.090670
0.022592
-0.012876
-0.059083
-0.103907
-0.118952
-0.156002
-0.169039
-0.156288
-0.134142
-0.095834
-0.064064
-0.006311
0.032866
0.095276
0.131618
0.156149
0.172729
0.169155
0.132746
0.059625
0.023761
-0.010935
-0.061577
-0.104954
-0.162902
-0.170600
-0.201188
-0.156211
-0.126746
-0.083727
-0.045454
-0.009886
0.082449
0.097563
0.119767
0.139094
0.159184
0.142054
0.117929
0.073699
0.032021
-0.037389
-0.082208
-0.126807
-0.141857
-0.174602
-0.191968
-0.186192
-0.138221
-0.092949
-0.053004
0.001892
0.046944
0.080005
0.106672
0.120496
0.085545
0.074510
0.109218
0.102510
0.049773
0.011482
-0.052899
-0.106948
-0.140859
-0.171902
-0.177660
-0.174777
-0.157038
-0.107868
-0.070715
-0.031610
0.039318
0.071616
0.098500
0.119495
0.125014
0.128787
0.098586
0.055873
0.014381
-0.033300
-0.075498
-0.131541
-0.135919
-0.164578
-0.188578
-0.162158
-0.160734
-0.129982
-0.081895
-0.021064
0.017614
0.049965
0.103570
0.126891
0.122038
0.120238
0.095868
0.066064
0.028727
-0.013840
-0.093884
-0.132461
-0.138544
-0.165637
-0.190519
-0.183914
-0.154684
-0.117288
-0.064697
-0.014439
0.035434
0.077047
0.093488
0.124358
0.152039
0.134076
0.087362
0.041819
-0.009272
-0.046064
-0.074778
-0.116370
-0.154330
-0.173674
-0.198149
-0.189099
-0.140092
-0.098060
-0.066435
-0.032620
0.035341
0.090587
0.111282
0.146436
0.122148
0.131129
0.115158
0.071265
0.032219
0.011045
-0.022648
-0.035887
-0.093816
-0.153010
-0.158258
-0.152439
-0.105555
-0.083188
-0.034280
0.019669
0.064147
0.097130
0.137947
0.158177
0.168249
0.155833
0.109490
0.046535
0.041586
0.001072
-0.049881
-0.073506
-0.124569
-0.130867
-0.143889
-0.143236
-0.105371
-0.071999
-0.027958
0.033867
0.064394
0.096262
0.152004
0.183235
0.187723
0.170837
0.161952
0.116646
0.072739
0.032636
-0.033510
-0.075687
-0.081135
-0.110865
-0.145881
-0.141706
-0.140766
-0.118063
-0.066637
-0.006067
0.033286
0.097761
0.141818
0.144956
0.130143
0.108307
0.091996
0.066553
0.026303
-0.026879
-0.077453
-0.132979
-0.162037
-0.159104
-0.133450
-0.157628
-0.212827
-0.153777
-0.065077
-0.024204
-0.007132
0.048915
0.060748
0.051289
0.117729
0.104080
0.072131
0.033983
0.004719
-0.034429
-0.106178
-0.169371
-0.201844
-0.225539
-0.261225
-0.221340
-0.185154
-0.158277
-0.089172
-0.039224
0.006465
0.046399
0.099083
0.088952
0.104077
0.090872
0.062678
0.033408
-0.012658
-0.044661
-0.099229
-0.148683
-0.181711
-0.210711
-0.215690
-0.215615
-0.184077
-0.145777
-0.103207
-0.036922
0.006583
0.033417
0.048054
0.060032
0.072041
0.077410
0.072587
0.044208
0.002280
-0.061034
-0.106809
-0.128777
-0.174156
-0.225363
-0.213956
-0.208789
-0.190808
-0.151353
-0.091548
-0.066917
-0.020239
0.029923
0.061124
0.077597
0.073380
0.073299
0.029621
0.020136
-0.017086
-0.067734
-0.108042
-0.152826
-0.180489
-0.226665
-0.232848
-0.207032
-0.174110
-0.120985
-0.071870
-0.022710
0.026000
0.104531
0.159584
0.189429
0.187565
0.174657
0.151820
0.148937
0.159949
0.115919
0.081584
0.083840
0.076707
0.055308
0.102229
0.172274
0.220547
0.295892
0.348149
0.451493
0.529234
0.589482
0.644862
0.719100
0.790920
0.827277
0.835394
0.825075
0.810258
0.753870
0.734400
0.694617
0.645169
0.556637
0.518595
0.522856
0.532171
0.530674
0.483647
0.467476
0.447380
0.445848
0.443305
0.420714
0.380191
0.326639
0.289650
0.242741
0.163949
0.117243
0.066252
0.014461
0.000040
-0.033862
-0.072481
-0.080123
-0.086297
-0.059691
0.001686
0.034512
0.060704
0.105003
0.144247
0.141457
0.135133
0.155354
0.172104
0.136791
0.076060
0.009393
-0.046187
-0.076298
-0.126388
-0.136796
-0.161084
-0.158184
-0.112743
-0.073714
-0.050397
-0.053960
0.020406
0.080504
0.129839
0.123468
0.128941
0.107385
0.086749
0.064891
0.032652
-0.004668
-0.062685
-0.117496
-0.145262
-0.154874
-0.184982
-0.187882
-0.120087
-0.073412
-0.022494
0.018464
0.052762
0.071766
0.108351
0.113214
0.112192
0.120029
0.123441
0.082498
0.014401
-0.042651
-0.076238
-0.107495
-0.133263
-0.164014
-0.188319
-0.157010
-0.119161
-0.102970
-0.072094
0.004419
0.079723
0.107626
0.121497
0.121344
0.127440
0.132526
0.137844
0.108248
0.049819
0.000514
-0.034378
-0.067888
-0.108900
-0.126284
-0.129847
-0.157918
-0.128687
-0.093096
-0.027101
0.026913
0.093537
0.121069
0.156292
0.176660
0.165568
0.148607
0.140457
0.139018
0.124244
0.065252
-0.027697
-0.070497
-0.084808
-0.112491
-0.126856
-0.116293
-0.080353
-0.050020
-0.002769
0.041533
0.078769
0.144257
0.189769
0.204297
0.212283
0.176427
0.150550
0.163511
0.129731
0.087730
0.044521
-0.021094
-0.058620
-0.078532
-0.080692
-0.081431
-0.056976
-0.015642
0.027893
0.073534
0.121467
0.151970
0.189956
0.216154
0.230740
0.244810
0.203896
0.157388
0.128138
0.079678
0.029994
-0.003423
-0.046772
-0.074540
-0.090251
-0.073853
-0.058686
-0.035762
0.042877
0.116162
0.154330
0.169900
0.236588
0.269485
0.256370
0.249631
0.223569
0.182742
0.131729
0.065545
0.029483
-0.008722
-0.027909
-0.058357
-0.074415
-0.084328
-0.039668
-0.006074
0.046989
0.104655
0.152132
0.175616
0.211478
0.233463
0.206403
0.192651
0.182713
0.170106
0.134750
0.099652
0.035757
-0.018318
-0.060230
-0.069288
-0.070908
-0.085545
-0.080705
-0.047357
0.005164
0.038662
0.085230
0.132639
0.168788
0.187761
0.187708
0.170655
0.146082
0.143228
0.101214
0.051620
0.013366
-0.031639
-0.085682
-0.117978
-0.129867
-0.136423
-0.110094
-0.076182
-0.035107
0.023391
0.058845
0.083162
0.105708
0.113464
0.151770
0.148707
0.143999
0.103150
0.061401
0.021370
-0.040425
-0.078554
-0.113633
-0.135787
-0.154695
-0.150210
-0.124205
-0.096120
-0.034836
0.008495
0.026144
0.066994
0.122277
0.151521
0.167729
0.137179
0.100353
0.071207
0.029340
-0.040995
-0.086358
-0.121372
-0.177493
-0.163953
-0.171994
-0.136744
-0.104033
-0.097304
-0.065585
-0.026680
0.035907
0.072457
0.118478
0.152717
0.153746
0.139209
0.107695
0.083692
0.036716
-0.010529
-0.071983
-0.124218
-0.171671
-0.188884
-0.189860
-0.142591
-0.114132
-0.095385
-0.070159
-0.035831
0.023228
0.062367
0.123904
0.157412
0.168260
0.148468
0.110676
0.085492
0.040317
0.002616
-0.021325
-0.082603
-0.126466
-0.179512
-0.198529
-0.172084
-0.144663
-0.102836
-0.076728
-0.038646
-0.009214
0.084093
0.142239
0.132223
0.169055
0.180291
0.151318
0.108632
0.044556
-0.013204
-0.058814
-0.111066
-0.141726
-0.150965
-0.138841
-0.142087
-0.121903
-0.077526
-0.036237
0.005292
0.045036
0.088050
0.113979
0.112854
0.132940
0.146120
0.134855
0.105209
0.104897
0.042853
-0.031816
-0.086833
-0.125822
-0.143164
-0.159238
-0.148844
-0.115408
-0.086250
-0.053818
-0.000824
0.061064
0.100740
0.130156
0.141555
0.139961
0.148270
0.110952
0.068361
0.036210
-0.009500
-0.052340
-0.075679
-0.122662
-0.128772
-0.146664
-0.149040
-0.134734
-0.094792
-0.050489
0.006131
0.053639
0.073558
0.104067
0.163101
0.181518
0.155894
0.160929
0.108133
0.040034
0.009454
-0.048976
-0.113804
-0.146238
-0.162976
-0.172508
-0.161588
-0.123865
-0.096528
-0.058009
-0.031440
0.027735
0.089896
0.131401
0.142636
0.137540
0.124378
0.094432
0.074882
0.058602
-0.000487
-0.045152
-0.086475
-0.120326
-0.148382
-0.178703
-0.173076
-0.138952
-0.087071
-0.049810
-0.006500
0.022474
0.047944
0.098252
0.128053
0.138075
0.124889
0.084046
0.096295
0.074498
0.005112
-0.052870
-0.104481
-0.154637
-0.158830
-0.172549
-0.154316
-0.151618
-0.110696
-0.060159
0.004567
0.066567
0.096215
0.122648
0.123753
0.091582
0.091989
0.109320
0.080965
0.029928
0.000358
-0.055397
-0.123479
-0.157912
-0.194968
-0.176423
-0.172278
-0.148524
-0.099263
-0.019537
0.000325
0.054017
0.084468
0.101026
0.118867
0.137514
0.146163
0.103632
0.074842
0.030855
-0.024922
-0.059530
-0.101534
-0.155336
-0.164986
-0.187927
-0.181313
-0.153337
-0.106842
-0.070139
-0.013324
0.050172
0.088369
0.116992
0.129670
0.135335
0.124739
0.097306
0.043126
0.043766
0.018423
-0.055070
-0.123711
-0.137720
-0.141001
-0.160867
-0.147393
-0.135837
-0.114294
-0.081449
-0.041726
0.003880
0.054810
0.107886
0.138512
0.153635
0.133462
0.108930
0.079421
0.026483
-0.020874
-0.079166
-0.129680
-0.140445
-0.150278
-0.162134
-0.134953
-0.128302
-0.110089
-0.058064
-0.010452
0.027959
0.082668
0.110978
0.148406
0.146266
0.131096
0.133509
0.122594
0.076260
0.016391
-0.025181
-0.052348
-0.098348
-0.137020
-0.145331
-0.129443
-0.103174
-0.061012
-0.019685
0.006549
0.045231
0.081683
0.148140
0.178360
0.156421
0.137607
0.127921
0.123351
0.095794
0.025005
-0.009400
-0.063273
-0.116951
-0.121047
-0.096604
-0.085326
-0.071915
-0.027891
0.001815
0.037795
0.086049
0.129543
0.197094
0.219677
0.209570
0.192731
0.176358
0.101930
0.078956
0.028086
-0.034621
-0.069610
-0.119745
-0.141399
-0.156312
-0.167267
-0.127470
-0.099677
-0.041739
0.021370
0.068882
0.102159
0.136202
0.139901
0.139405
0.139255
0.119858
0.092127
0.047619
0.002351
-0.062237
-0.095588
-0.151815
-0.160848
-0.175844
-0.192419
-0.146161
-0.110757
-0.089126
-0.034073
0.047045
0.090484
0.082042
0.111868
0.130681
0.112661
0.089945
0.080950
0.021785
-0.040688
-0.078686
-0.118647
-0.170835
-0.205868
-0.186440
-0.175270
-0.169928
-0.134677
-0.084123
-0.046617
0.004592
0.073961
0.095166
0.091010
0.096708
0.115002
0.092071
0.057138
0.018472
-0.022018
-0.072937
-0.113860
-0.164140
-0.189425
-0.197393
-0.218047
-0.154547
-0.119420
-0.070046
-0.020022
0.018872
0.056224
0.082687
0.102228
0.111185
0.109612
0.094442
0.053855
0.018517
-0.048220
-0.096841
-0.123942
-0.189134
-0.215819
-0.212122
-0.199305
-0.140277
-0.102951
-0.108478
-0.050815
0.008398
0.055479
0.088021
0.092807
0.089621
0.086660
0.055740
0.062408
0.016418
-0.069336
-0.100557
-0.117225
-0.147864
-0.169966
-0.186414
-0.144435
-0.104314
-0.069428
-0.031752
0.029468
0.099233
0.168431
0.221090
0.253866
0.264915
0.271314
0.270612
0.256078
0.243762
0.205824
0.189952
0.191529
0.186647
0.209580
0.245939
0.273372
0.325074
0.401017
0.466638
0.554545
0.633502
0.735174
0.805350
0.847613
0.893839
0.905001
0.892402
0.847772
0.807016
0.723423
0.653282
0.630612
0.562025
0.459300
0.449060
0.378417
0.375591
0.327107
0.311711
0.316038
0.261058
0.257367
0.328516
0.372813
0.344114
0.298285
0.264855
0.219071
0.157371
0.113822
0.074631
0.025823
-0.044105
-0.072849
-0.089930
-0.097786
-0.078252
-0.021569
0.022645
0.066427
0.113904
0.148122
0.170675
0.180099
0.188138
0.194344
0.160508
0.106496
0.065516
0.031475
-0.022740
-0.067538
-0.112911
-0.121830
-0.144076
-0.156192
-0.136253
-0.089088
-0.045482
0.010196
0.061002
0.110242
0.161146
0.182213
0.191652
0.174186
0.136240
0.086194
0.027658
-0.012968
-0.051998
-0.090612
-0.127913
-0.149652
-0.152945
-0.127871
-0.129460
-0.100417
-0.058590
-0.009642
0.047298
0.084308
0.146250
0.175567
0.186374
0.168370
0.139607
0.105528
0.089158
0.013925
-0.042923
-0.080322
-0.109196
-0.122294
-0.114196
-0.101770
-0.079831
-0.076002
-0.044325
0.007161
0.041006
0.086757
0.141375
0.222533
0.205612
0.193492
0.163043
0.118152
0.062653
0.011044
-0.016027
-0.058586
-0.100766
-0.110662
-0.106984
-0.091793
-0.076242
-0.051163
-0.010525
0.069395
0.111037
0.145379
0.177560
0.191333
0.215981
0.205241
0.136558
0.113338
0.115364
0.082838
0.036217
-0.024340
-0.076137
-0.108315
-0.092806
-0.086317
-0.050171
-0.020361
0.007381
0.082981
0.136478
0.176335
0.226712
0.258820
0.290796
0.279125
0.226754
0.170427
0.097344
0.057986
0.028493
-0.026086
-0.035117
-0.058036
-0.046807
-0.032251
-0.023952
-0.020015
0.060435
0.121854
0.165972
0.208004
0.267133
0.267533
0.278479
0.256957
0.227330
0.206161
0.186253
0.118304
0.079419
0.051137
0.012781
-0.023389
-0.037317
-0.036342
-0.016628
0.020500
0.061825
0.117483
0.171060
0.197645
0.238928
0.270503
0.260188
0.255595
0.244928
0.199017
0.160087
0.124044
0.085359
0.026881
-0.012638
-0.035143
-0.055905
-0.057280
-0.003609
0.024995
0.056716
0.124677
0.163479
0.191655
0.215649
0.252363
0.274468
0.255882
0.225926
0.175656
0.143808
0.094484
0.039795
-0.000303
-0.035401
-0.050792
-0.081292
-0.099512
-0.060278
0.010099
0.019175
0.036571
0.104192
0.151988
0.188869
0.193199
0.209276
0.244314
0.202268
0.159445
0.120643
0.057578
-0.009359
-0.051295
-0.074437
-0.091497
-0.110643
-0.094800
-0.086329
-0.045121
0.007819
0.032059
0.065907
0.128449
0.166617
0.150654
0.166643
0.168057
0.141159
0.114698
0.085092
0.054868
0.008551
-0.034279
-0.088920
-0.162425
-0.144618
-0.133488
-0.117785
-0.082772
-0.047981
0.030015
0.057154
0.112621
0.147120
0.166378
0.173871
0.170389
0.134027
0.086839
0.049197
0.019771
-0.015535
-0.074807
-0.107372
-0.130531
-0.134004
-0.136339
-0.112292
-0.084139
-0.031846
0.011908
0.053456
0.099464
0.150375
0.164286
0.159334
0.156254
0.141343
0.076227
0.034301
-0.000647
-0.029698
-0.070798
-0.119362
-0.132820
-0.141806
-0.138892
-0.102645
-0.079133
-0.022037
0.022999
0.047140
0.094364
0.159062
0.184686
0.179194
0.157366
0.151686
0.102856
0.041494
0.006319
-0.042418
-0.090160
-0.131615
-0.153713
-0.155600
-0.144648
-0.121788
-0.091921
-0.044262
0.000563
0.049139
0.082202
0.175907
0.178951
0.163275
0.153354
0.150445
0.100615
0.060415
0.020977
-0.017853
-0.061988
-0.108513
-0.121251
-0.126280
-0.143170
-0.144290
-0.127244
-0.033224
0.025421
0.070701
0.106779
0.152014
0.174586
0.179390
0.172742
0.146522
0.091890
0.050447
-0.000425
-0.040883
-0.086316
-0.121800
-0.135605
-0.129195
-0.125330
-0.099900
-0.084270
-0.055495
0.006586
0.051990
0.107813
0.160608
0.150378
0.159873
0.192999
0.143911
0.088555
0.032210
0.021492
0.012065
-0.032952
-0.126947
-0.156127
-0.179203
-0.141205
-0.103379
-0.060485
-0.026484
0.011226
0.059838
0.106360
0.157808
0.168972
0.165944
0.157281
0.136413
0.075318
0.045400
0.001342
-0.063299
-0.109946
-0.121215
-0.142382
-0.153550
-0.173396
-0.120188
-0.092708
-0.050036
-0.007238
0.077315
0.122576
0.156202
0.148438
0.147638
0.140002
0.115684
0.094688
0.057172
-0.001902
-0.041592
-0.079133
-0.115778
-0.155127
-0.151701
-0.133509
-0.105327
-0.079343
-0.040083
-0.007299
0.046856
0.098957
0.129519
0.162351
0.178421
0.147220
0.111105
0.083558
0.055143
-0.002615
-0.063704
-0.107722
-0.136228
-0.155885
-0.159096
-0.164993
-0.144635
-0.088866
-0.061099
-0.008835
0.038196
0.086810
0.100194
0.113170
0.112417
0.108797
0.116548
0.093590
0.051178
0.009258
-0.064285
-0.117430
-0.142205
-0.135236
-0.163567
-0.164999
-0.135638
-0.087116
-0.058787
-0.006151
0.021193
0.056721
0.109261
0.133193
0.133266
0.135580
0.146822
0.103823
0.045550
-0.013243
-0.066721
-0.117456
-0.143176
-0.137435
-0.145377
-0.147436
-0.130068
-0.105644
-0.058142
-0.009441
0.025803
0.050333
0.121190
0.132970
0.111781
0.126857
0.156029
0.095049
0.020505
-0.010536
-0.043860
-0.078587
-0.127810
-0.148220
-0.147127
-0.132693
-0.111891
-0.058961
-0.013883
0.015166
0.066993
0.116247
0.150568
0.186533
0.205977
0.192036
0.152355
0.100061
0.053913
0.012175
-0.033476
-0.062063
-0.103651
-0.143166
-0.131589
-0.127424
-0.116428
-0.081531
-0.067397
-0.022900
0.058041
0.109299
0.155123
0.146428
0.172222
0.202163
0.192583
0.136585
0.064741
0.049843
0.016147
-0.021727
-0.071966
-0.109173
-0.087751
-0.100949
-0.094249
-0.066240
-0.035190
0.006380
0.100404
0.142646
0.164221
0.181743
0.184601
0.154361
0.146003
0.113341
0.060751
0.010598
-0.044579
-0.116480
-0.141844
-0.159108
-0.158085
-0.143232
-0.109671
-0.074686
-0.037046
-0.024075
0.019808
0.087158
0.118668
0.142739
0.149488
0.104813
0.066488
0.050081
-0.004246
-0.039293
-0.084267
-0.128672
-0.150377
-0.169611
-0.187991
-0.203787
-0.183605
-0.148105
-0.085859
-0.024721
0.016940
0.058945
0.101559
0.117432
0.107014
0.100060
0.085709
0.038162
-0.020984
-0.041323
-0.083189
-0.127325
-0.174086
-0.195878
-0.201195
-0.194500
-0.152232
-0.137955
-0.102480
-0.066563
0.008663
0.065623
0.094222
0.120930
0.120982
0.110442
0.071579
0.023118
-0.000791
-0.002250
-0.083381
-0.134128
-0.154744
-0.170053
-0.172359
-0.200805
-0.189808
-0.155938
-0.119462
-0.057030
0.011914
0.055628
0.089329
0.084905
0.114434
0.129176
0.081765
0.041362
-0.005754
-0.041685
-0.084974
-0.145043
-0.179945
-0.199925
-0.201052
-0.192362
-0.167396
-0.141290
-0.104023
-0.072075
-0.011176
0.026012
0.037275
0.057979
0.094010
0.124416
0.106921
0.103026
0.059525
0.015874
-0.028865
-0.068128
-0.086636
-0.060064
-0.045317
-0.035643
-0.023162
0.045277
0.099970
0.154903
0.230763
0.310217
0.343766
0.417163
0.491002
0.506704
0.504695
0.507806
0.492453
0.478137
0.448365
0.451469
0.475338
0.489485
0.521954
0.563200
0.613146
0.649463
0.675586
0.723203
0.796181
0.809745
0.809107
0.786061
0.771176
0.779309
0.684349
0.578509
0.451116
0.358750
0.283809
0.189990
0.105977
0.035862
-0.012709
-0.012009
0.001377
0.034976
0.059826
0.092013
0.138752
0.166966
0.200273
0.190895
0.226510
0.230371
0.176470
0.142307
0.088106
0.047260
-0.012705
-0.045955
-0.069003
-0.115974
-0.138181
-0.122877
-0.091757
-0.073350
-0.033576
0.018724
0.062315
0.093336
0.124931
0.145210
0.125005
0.124540
0.132366
0.082165
0.063527
0.011057
-0.050986
-0.103010
-0.165101
-0.179728
-0.162025
-0.156935
-0.144695
-0.092912
-0.044623
-0.002454
0.042681
0.093862
0.104518
0.117520
0.141711
0.141069
0.096173
0.071703
0.033637
-0.004572
-0.049031
-0.097857
-0.153586
-0.163888
-0.166682
-0.163805
-0.129513
-0.094785
-0.024863
0.039372
0.072545
0.071047
0.118484
0.130513
0.166656
0.155318
0.131047
0.100495
0.078584
0.009496
-0.048623
-0.095893
-0.116748
-0.140347
-0.148205
-0.142525
-0.128180
-0.096680
-0.031640
0.030235
0.065448
0.108128
0.148682
0.147227
0.186745
0.201166
0.159974
0.113718
0.059286
0.019733
-0.027469
-0.058511
-0.092186
-0.130343
-0.138066
-0.135055
-0.098091
-0.047433
-0.014413
0.015841
0.047566
0.103040
0.177322
0.207832
0.199094
0.191240
0.174278
0.144422
0.128005
0.076168
0.010841
-0.034887
-0.053537
-0.082923
-0.120242
-0.144396
-0.075832
-0.018820
0.017782
0.067995
0.102622
0.144105
0.226651
0.256163
0.253538
0.226641
0.191291
0.187324
0.171397
0.123667
0.041277
-0.014399
-0.033653
-0.058514
-0.062482
-0.041157
-0.021314
-0.002075
0.048412
0.095252
0.127482
0.180828
0.223121
0.243397
0.262373
0.250394
0.214522
0.172666
0.133330
0.094104
0.051403
0.002872
-0.024122
-0.052485
-0.039487
-0.035301
-0.035195
0.005148
0.052750
0.082274
0.143701
0.203828
0.230197
0.240533
0.263249
0.247765
0.201976
0.172687
0.150123
0.093566
0.038705
-0.024900
-0.069045
-0.083191
-0.087400
-0.080238
-0.056244
-0.030473
0.017792
0.067423
0.105549
0.169009
0.211258
0.229379
0.200699
0.174289
0.164623
0.170322
0.103425
0.054790
0.009561
-0.058127
-0.139613
-0.133044
-0.099845
-0.093828
-0.082769
-0.052791
-0.027409
0.047933
0.085570
0.122539
0.151962
0.173111
0.192069
0.162544
0.124980
0.111385
0.055812
0.021000
-0.024882
-0.054704
-0.106571
-0.126842
-0.137030
-0.144322
-0.097140
-0.075876
-0.032324
0.017236
0.041926
0.072224
0.128400
0.143923
0.146461
0.111397
0.082171
0.048823
0.031288
0.010232
-0.036039
-0.103100
-0.124730
-0.164108
-0.157914
-0.169538
-0.153979
-0.093770
-0.051342
-0.037091
0.004356
0.085898
0.117853
0.124825
0.134078
0.126659
0.106395
0.077033
0.028662
-0.013571
-0.081627
-0.137062
-0.169379
-0.182207
-0.193249
-0.181190
-0.175688
-0.110024
-0.058171
-0.041119
0.002506
0.047150
0.116058
0.140205
0.158885
0.152512
0.118488
0.071480
0.023536
-0.020416
-0.058838
-0.104081
-0.150877
-0.153389
-0.171550
-0.163756
-0.142204
-0.101246
-0.061422
-0.025707
0.028431
0.066028
0.091407
0.134492
0.150047
0.157867
0.120413
0.065284
0.017888
-0.031489
-0.085730
-0.107521
-0.136549
-0.147662
-0.153879
-0.151627
-0.114625
-0.095179
-0.067059
-0.007983
0.017286
0.076811
0.127805
0.126881
0.152152
0.130574
0.097669
0.068113
0.038265
-0.024640
-0.065208
-0.100340
-0.141139
-0.164560
-0.180210
-0.173539
-0.142119
-0.120793
-0.070841
-0.006403
0.056639
0.078217
0.105393
0.131207
0.154037
0.141247
0.111436
0.071942
0.045451
0.003295
-0.054944
-0.116227
-0.172899
-0.176278
-0.169860
-0.166031
-0.131625
-0.101043
-0.091300
-0.024113
0.043302
0.112475
0.136759
0.141426
0.139554
0.122768
0.086678
0.070315
0.041254
0.001558
-0.077118
-0.101841
-0.141697
-0.173963
-0.185443
-0.159130
-0.136700
-0.120295
-0.074464
-0.036972
0.022095
0.063189
0.086502
0.120744
0.132072
0.128947
0.107684
0.065057
-0.008667
-0.027049
-0.038757
-0.103737
-0.159396
-0.161767
-0.154613
-0.158581
-0.145165
-0.135322
-0.128567
-0.054195
-0.012810
0.036722
0.092979
0.123277
0.139804
0.126403
0.091767
0.053352
0.025309
-0.027653
-0.070867
-0.125750
-0.157913
-0.188514
-0.199394
-0.196025
-0.182006
-0.128235
-0.049731
-0.035863
0.002810
0.029599
0.084760
0.126014
0.152745
0.123929
0.114924
0.078479
0.014946
-0.036353
-0.077645
-0.123839
-0.161475
-0.190201
-0.204088
-0.194893
-0.158357
-0.122219
-0.088817
-0.054438
-0.003380
0.057139
0.067413
0.105377
0.137779
0.128423
0.100765
0.062181
0.005845
-0.051533
-0.076651
-0.138857
-0.175761
-0.193820
-0.213646
-0.207298
-0.169721
-0.138015
-0.094277
-0.045945
0.001340
0.042954
0.065849
0.086321
0.117894
0.137842
0.133813
0.087638
0.030172
-0.038596
-0.094116
-0.145495
-0.131575
-0.147783
-0.175797
-0.178193
-0.143548
-0.093046
-0.044762
0.011187
0.057788
0.085809
0.097762
0.110927
0.156045
0.162125
0.116993
0.065688
0.028514
-0.005473
-0.046122
-0.091036
-0.127449
-0.160413
-0.165925
-0.158776
-0.124594
-0.085389
-0.034142
-0.018828
0.016436
0.097298
0.140186
0.158204
0.176310
0.186515
0.159324
0.107932
0.058774
0.005932
-0.029263
-0.071121
-0.111867
-0.146149
-0.161409
-0.150819
-0.118225
-0.075571
-0.034803
0.015663
0.014247
0.038597
0.086739
0.125616
0.142221
0.134589
0.091436
0.073262
0.021895
-0.043556
-0.110747
-0.138460
-0.154780
-0.190756
-0.195766
-0.171711
-0.146672
-0.130537
-0.089977
-0.034388
0.007860
0.047100
0.097590
0.123777
0.097638
0.091718
0.074305
0.050614
0.002861
-0.037315
-0.079207
-0.128951
-0.177678
-0.203519
-0.228572
-0.234485
-0.208478
-0.173160
-0.132001
-0.093036
-0.039950
0.008979
0.054814
0.065403
0.060689
0.057484
0.047335
0.023073
-0.021912
-0.082175
-0.089536
-0.105270
-0.169712
-0.221805
-0.242509
-0.220741
-0.184656
-0.143707
-0.119037
-0.094893
-0.047619
-0.005824
0.052555
0.091731
0.090327
0.075453
0.046966
0.007141
-0.026405
-0.077716
-0.120160
-0.169142
-0.195319
-0.228864
-0.230837
-0.222807
-0.180059
-0.165966
-0.132923
-0.106108
-0.046426
0.033866
0.050405
0.068126
0.080742
0.072437
0.036584
0.037551
-0.007798
-0.076762
-0.140760
-0.162466
-0.214021
-0.250515
-0.264927
-0.241848
-0.194681
-0.146747
-0.107375
-0.077069
-0.036051
-0.010780
0.029544
0.069724
0.111390
0.123923
0.108097
0.070163
0.045950
0.012945
-0.000516
-0.014120
-0.042928
-0.081880
-0.075885
-0.040803
-0.005837
0.055042
0.132038
0.202300
0.266572
0.356290
0.427897
0.488422
0.536384
0.566778
0.545410
0.541683
0.561388
0.553090
0.546038
0.535102
0.550014
0.530600
0.541620
0.566240
0.576128
0.580484
0.611296
0.664973
0.711774
0.728790
0.713926
0.694776
0.646900
0.584811
0.482561
0.447275
0.337567
0.249936
0.144568
0.060602
-0.015377
-0.048635
-0.058403
-0.036929
-0.016477
0.021987
0.056078
0.089315
0.113146
0.150571
0.192067
0.207367
0.213922
0.161805
0.117902
0.131985
0.051625
0.044415
-0.008826
-0.062372
-0.101382
-0.139963
-0.152402
-0.168112
-0.168188
-0.118562
-0.075885
-0.027251
0.037528
0.089298
0.095896
0.110553
0.137998
0.132486
0.102317
0.078870
0.040374
-0.011935
-0.060660
-0.107361
-0.147993
-0.182212
-0.206885
-0.171702
-0.125351
-0.086977
-0.083319
-0.047063
0.001518
0.053433
0.055262
0.044560
0.098539
0.115539
0.137641
0.110764
0.049153
-0.015154
-0.062660
-0.106343
-0.150423
-0.181549
-0.188290
-0.178841
-0.148133
-0.122059
-0.091890
-0.042429
0.031444
0.086017
0.124285
0.150620
0.143767
0.113638
0.105579
0.091408
0.067521
0.016593
-0.039343
-0.091771
-0.132412
-0.139637
-0.150098
-0.156899
-0.133151
-0.074642
-0.045462
0.024647
0.044275
0.066593
0.121085
0.158119
0.143696
0.138063
0.116076
0.094413
0.036199
-0.011428
-0.053960
-0.083821
-0.117238
-0.124624
-0.124559
-0.154518
-0.108031
-0.071107
-0.016922
0.033095
0.077280
0.115164
0.176727
0.228900
0.232446
0.206664
0.172687
0.137867
0.095882
0.038677
-0.008693
-0.041885
-0.074159
-0.104593
-0.120808
-0.124488
-0.093555
-0.046467
-0.008465
0.040271
0.092560
0.159089
0.211740
0.231825
0.220977
0.217126
0.218723
0.167955
0.106966
0.084707
0.046521
-0.012998
-0.036743
-0.067633
-0.082530
-0.080617
-0.021954
-0.014812
0.016288
0.081499
0.136983
0.165262
0.204011
0.220189
0.231842
0.218084
0.186105
0.174576
0.128242
0.063370
0.027770
0.005104
-0.023004
-0.036244
-0.063001
-0.058447
-0.046232
-0.013877
0.009242
0.035652
0.073439
0.168989
0.216515
0.249176
0.231280
0.189337
0.158427
0.171515
0.121141
0.087488
0.022238
-0.024704
-0.048664
-0.073520
-0.073824
-0.072389
-0.068290
-0.032921
0.012859
0.049288
0.091848
0.129828
0.167958
0.207082
0.206889
0.181019
0.143709
0.109533
0.077852
0.044118
-0.046223
-0.081775
-0.087978
-0.120971
-0.136267
-0.136478
-0.109876
-0.078284
-0.010820
0.040314
0.094168
0.122389
0.145750
0.159391
0.175606
0.144398
0.123132
0.076705
0.069442
0.015986
-0.046896
-0.106686
-0.123534
-0.150052
-0.171665
-0.205212
-0.162890
-0.126425
-0.080585
-0.048299
0.065541
0.114627
0.112703
0.114291
0.127356
0.132066
0.095154
0.051561
0.021204
-0.014160
-0.061586
-0.108168
-0.137335
-0.159006
-0.178190
-0.183706
-0.165012
-0.127172
-0.068445
-0.019042
0.012653
0.049652
0.092271
0.116913
0.110406
0.102517
0.077291
0.037092
0.002392
-0.031241
-0.067350
-0.108886
-0.163683
-0.207734
-0.205812
-0.195444
-0.173001
-0.130033
-0.094112
-0.056061
0.000918
0.052994
0.099719
0.145768
0.136491
0.121543
0.096475
0.069563
0.032567
-0.032322
-0.097887
-0.139302
-0.174946
-0.201024
-0.248820
-0.248713
-0.130266
-0.096986
-0.084823
-0.027906
0.023379
0.102133
0.107252
0.135943
0.141028
0.112133
0.085497
0.059854
0.033952
-0.000173
-0.077041
-0.130265
-0.158249
-0.150934
-0.181776
-0.190724
-0.187112
-0.127858
-0.055372
-0.002462
0.038404
0.056018
0.096263
0.118719
0.138945
0.117748
0.107842
0.074111
0.019241
-0.041228
-0.060024
-0.086584
-0.134416
-0.172496
-0.170246
-0.160846
-0.156159
-0.114187
-0.082064
-0.045092
-0.008485
0.013110
0.043761
0.095334
0.123048
0.150771
0.111433
0.069816
0.027789
-0.038223
-0.092361
-0.136032
-0.147739
-0.180083
-0.166236
-0.154582
-0.146218
-0.085256
-0.028967
-0.005431
0.030977
0.057164
0.068442
0.102922
0.105521
0.096570
0.071172
0.044563
0.031364
-0.006072
-0.084256
-0.142066
-0.192641
-0.229582
-0.198621
-0.175112
-0.149405
-0.129042
-0.096812
-0.053997
0.007554
0.078259
0.100807
0.116716
0.120846
0.095447
0.072287
0.043745
0.003529
-0.036121
-0.100014
-0.134167
-0.178366
-0.202209
-0.197304
-0.189816
-0.179824
-0.145896
-0.105940
-0.061590
-0.029117
0.014575
0.078991
0.127103
0.133396
0.067885
0.067332
0.062323
0.032954
-0.035569
-0.073003
-0.135445
-0.166640
-0.183704
-0.178154
-0.193118
-0.205332
-0.149721
-0.085743
-0.075166
-0.025570
0.065649
0.095411
0.110686
0.109976
0.089442
0.051670
0.025848
-0.011551
-0.025146
-0.077920
-0.123252
-0.132599
-0.193830
-0.204681
-0.221194
-0.227833
-0.159060
-0.109628
-0.048740
-0.013556
0.033011
0.057501
0.058806
0.085692
0.076949
0.053921
-0.002895
-0.016655
-0.068288
-0.094229
-0.123925
-0.142358
-0.197510
-0.214256
-0.205396
-0.152398
-0.113701
-0.059125
-0.024827
0.013779
0.067719
0.090383
0.106077
0.116202
0.136813
0.121701
0.090345
0.021572
-0.025571
-0.085516
-0.145906
-0.168186
-0.207652
-0.196880
-0.189475
-0.166177
-0.083323
-0.037702
-0.000911
0.028084
0.072731
0.112941
0.115548
0.107864
0.143544
0.114520
0.082087
0.036235
-0.035343
-0.044241
-0.092252
-0.140036
-0.166492
-0.166004
-0.163641
-0.143468
-0.079607
-0.042828
-0.008088
0.031369
0.095757
0.120752
0.133283
0.154122
0.160255
0.115691
0.075362
0.027779
-0.015479
-0.065780
-0.103568
-0.164722
-0.183571
-0.183446
-0.181127
-0.147720
-0.126673
-0.087908
-0.057296
-0.023654
0.054679
0.113271
0.115893
0.094357
0.096481
0.089763
0.046273
0.014429
-0.040056
-0.098223
-0.146301
-0.191426
-0.218920
-0.224600
-0.214869
-0.162657
-0.147759
-0.132007
-0.076809
-0.030739
0.004624
0.041615
0.103139
0.100122
0.078208
0.023691
0.000664
-0.041286
-0.082893
-0.126737
-0.178266
-0.210757
-0.229162
-0.242591
-0.246462
-0.223398
-0.187877
-0.141608
-0.080831
-0.015304
0.031661
0.037433
0.049531
0.065941
0.035695
0.032069
0.018766
-0.033516
-0.077537
-0.122966
-0.178713
-0.224350
-0.224617
-0.228632
-0.228251
-0.209983
-0.186966
-0.147672
-0.100142
-0.044105
0.004453
0.044427
0.068335
0.065819
0.071905
0.043321
0.002892
-0.060851
-0.106237
-0.140070
-0.185440
-0.242156
-0.241454
-0.265621
-0.229868
-0.210604
-0.180739
-0.158038
-0.078560
-0.028339
0.001612
0.024900
0.047454
0.070655
0.034918
0.023330
-0.024301
-0.069013
-0.101699
-0.137724
-0.167796
-0.203401
-0.268786
-0.246981
-0.207017
-0.178144
-0.141787
-0.096977
-0.018315
0.032663
0.096335
0.139260
0.180827
0.195142
0.207936
0.202775
0.188511
0.151088
0.121995
0.090649
0.062820
0.059609
0.076767
0.109353
0.148360
0.204243
0.297002
0.362633
0.427737
0.523271
0.598082
0.661371
0.719035
0.768900
0.816766
0.827976
0.774732
0.724100
0.681024
0.633947
0.575210
0.498508
0.439386
0.403494
0.346228
0.320160
0.284250
0.304956
0.302890
0.290620
0.292523
0.318131
0.280728
0.222404
0.224996
0.223973
0.188587
0.143092
0.076633
0.002809
-0.052344
-0.092271
-0.118217
-0.115225
-0.114349
-0.119859
-0.082555
-0.053292
-0.013946
0.026708
0.076131
0.128911
0.142728
0.126075
0.116534
0.103552
0.080222
0.029635
-0.013280
-0.060831
-0.110563
-0.143830
-0.189721
-0.188913
-0.181191
-0.174534
-0.142876
-0.098284
-0.034375
0.003199
0.059359
0.099018
0.089574
0.085871
0.091746
0.074743
0.037146
0.006370
-0.039647
-0.098340
-0.148120
-0.177000
-0.213019
-0.225093
-0.181321
-0.156923
-0.123007
-0.093982
-0.049233
-0.007947
0.046978
0.097922
0.116247
0.118021
0.094486
0.080186
0.052105
-0.002658
-0.035755
-0.109677
-0.166854
-0.196002
-0.207567
-0.218859
-0.229276
-0.185001
-0.128523
-0.072674
-0.036648
0.010662
0.044288
0.079976
0.120926
0.127848
0.112447
0.081719
0.067766
0.056211
-0.040524
-0.051521
-0.100456
-0.144512
-0.172071
-0.169906
-0.156400
-0.132975
-0.114972
-0.064866
-0.012730
0.036225
0.087927
0.131186
0.147106
0.152035
0.162845
0.144992
0.103891
0.065186
-0.003379
-0.062623
-0.114403
-0.121595
-0.143628
-0.157356
-0.136440
-0.099636
-0.056781
-0.023772
0.013582
0.061697
0.107493
0.140843
0.180337
0.168314
0.164425
0.165440
0.135952
0.086114
0.039860
-0.020077
-0.055248
-0.079045
-0.125496
-0.127540
-0.111433
-0.071855
-0.020214
-0.005218
0.042147
0.084507
0.150907
0.176670
0.186109
0.199796
0.207324
0.190536
0.145884
0.080131
0.009139
-0.021653
-0.080425
-0.062874
-0.063539
-0.061234
-0.072821
-0.076534
-0.030556
0.033130
0.064563
0.102863
0.131959
0.181280
0.225141
0.223844
0.197421
0.185402
0.162664
0.126057
0.074428
0.020403
-0.023615
-0.069253
-0.103392
-0.133853
-0.112538
-0.082672
-0.026534
0.002832
0.048326
0.101951
0.141257
0.169254
0.195277
0.206782
0.199746
0.194143
0.147349
0.100257
0.052146
-0.029000
-0.058865
-0.090855
-0.136304
-0.128687
-0.118735
-0.105533
-0.069070
-0.039728
0.018960
0.067423
0.112249
0.136493
0.159763
0.173828
0.170298
0.136669
0.083573
0.043009
0.007182
-0.045090
-0.118745
-0.137818
-0.135533
-0.196725
-0.176202
-0.161902
-0.107747
-0.063580
0.003057
0.037003
0.086681
0.133232
0.138775
0.115354
0.140694
0.110232
0.046203
0.021147
-0.011339
-0.081671
-0.105102
-0.128747
-0.161826
-0.174221
-0.176949
-0.175579
-0.135694
-0.074237
-0.027274
0.007218
0.054930
0.065708
0.093101
0.110411
0.090741
0.057445
0.026816
0.003174
-0.038790
-0.098881
-0.120497
-0.167123
-0.185438
-0.185300
-0.201018
-0.175351
-0.129916
-0.105893
-0.067933
-0.004600
0.033571
0.068202
0.099188
0.112377
0.107803
0.096961
0.056817
0.000412
-0.057110
-0.105120
-0.142618
-0.176677
-0.218324
-0.196299
-0.217160
-0.202938
-0.179859
-0.103469
-0.028039
0.016381
0.057681
0.081750
0.104106
0.096290
0.106132
0.111942
0.059604
-0.021600
-0.051569
-0.073162
-0.101633
-0.144119
-0.179608
-0.200152
-0.189014
-0.187024
-0.148138
-0.087618
-0.038609
0.002134
0.061497
0.094022
0.132730
0.134348
0.113050
0.085358
0.058561
0.022882
-0.023580
-0.044940
-0.104773
-0.155427
-0.190323
-0.197586
-0.180575
-0.152278
-0.119707
-0.085796
-0.041766
0.014266
0.041842
0.100498
0.125999
0.122022
0.122179
0.102983
0.045065
-0.009467
-0.054332
-0.080111
-0.114775
-0.141256
-0.171224
-0.193083
-0.183560
-0.180124
-0.142761
-0.097355
-0.042527
0.017262
0.033123
0.057962
0.113820
0.127377
0.111805
0.103748
0.063100
0.003621
-0.029299
-0.072755
-0.122585
-0.183194
-0.184617
-0.170071
-0.178142
-0.169314
-0.120069
-0.084547
-0.043552
0.001886
0.041610
0.074060
0.108540
0.110774
0.113323
0.089814
0.053286
0.001352
-0.029868
-0.030600
-0.089587
-0.139991
-0.189077
-0.197711
-0.189337
-0.162476
-0.143269
-0.099684
-0.025414
0.019421
0.058048
0.100000
0.126033
0.132456
0.107465
0.093253
0.071123
0.023779
-0.030447
-0.068766
-0.116149
-0.143840
-0.174833
-0.175953
-0.185130
-0.196383
-0.157267
-0.108477
-0.039673
0.015677
0.059904
0.095912
0.099989
0.099573
0.105582
0.089415
0.070271
0.015811
-0.050183
-0.077475
-0.127218
-0.164434
-0.205612
-0.205969
-0.178899
-0.160955
-0.113738
-0.073582
-0.043817
0.012804
0.060036
0.096722
0.120834
0.138485
0.137076
0.110748
0.088248
0.044417
-0.019701
-0.063379
-0.104363
-0.146370
-0.132694
-0.131288
-0.156861
-0.140139
-0.087944
-0.033129
0.000920
0.048755
0.089367
0.134613
0.163505
0.148769
0.125234
0.104196
0.087186
0.049122
0.004002
-0.043067
-0.108083
-0.147976
-0.158140
-0.165118
-0.147953
-0.134070
-0.090311
-0.036202
0.035808
0.084119
0.110896
0.136800
0.120188
0.137775
0.130543
0.143751
0.116664
0.067656
-0.011113
-0.015995
-0.042070
-0.088050
-0.142049
-0.152226
-0.137756
-0.129708
-0.116299
-0.085117
-0.038194
0.018303
0.072129
0.108070
0.135224
0.141315
0.145948
0.145085
0.101411
0.039822
-0.020997
-0.059850
-0.110293
-0.156254
-0.184291
-0.204440
-0.188257
-0.175963
-0.148834
-0.090015
-0.025133
0.005907
0.051079
0.055800
0.067875
0.078270
0.090514
0.085250
0.052626
0.005339
-0.060363
-0.093716
-0.124721
-0.176506
-0.215604
-0.212876
-0.206422
-0.178654
-0.158424
-0.117141
-0.055379
-0.019853
0.018748
0.061829
0.088396
0.089865
0.074836
0.038714
0.035240
-0.023697
-0.077533
-0.129019
-0.161482
-0.203076
-0.237723
-0.258769
-0.262293
-0.262146
-0.168466
-0.114605
-0.066361
-0.000464
0.066464
0.104798
0.107274
0.097781
0.108490
0.076176
0.017108
-0.014607
-0.055665
-0.103369
-0.142099
-0.181418
-0.215852
-0.211291
-0.232202
-0.230928
-0.188154
-0.133450
-0.078332
-0.036434
0.020760
0.039908
0.088013
0.092013
0.071648
0.043052
0.023105
-0.021899
-0.101461
-0.145636
-0.175260
-0.216058
-0.224790
-0.222989
-0.201320
-0.166004
-0.118729
-0.088162
-0.074593
-0.026328
0.027058
0.081241
0.113698
0.158979
0.185131
0.175456
0.144152
0.083488
0.082771
0.046698
0.018805
0.001212
-0.024448
0.005776
0.030465
0.054626
0.106847
0.190400
0.292725
0.367502
0.434575
0.521347
0.584835
0.613072
0.631474
0.653386
0.668275
0.632389
0.619463
0.631009
0.615406
0.580747
0.551070
0.543111
0.560844
0.553913
0.558170
0.602333
0.623092
0.616113
0.576114
0.541929
0.508481
0.483708
0.441101
0.381930
0.281414
0.181120
0.107814
0.029940
-0.002263
-0.024372
-0.046574
-0.051984
-0.054367
-0.042796
-0.019968
0.020714
0.052093
0.091534
0.114309
0.124213
0.183878
0.193186
0.184901
0.175076
0.113953
0.053437
0.000914
-0.058805
-0.107006
-0.161187
-0.170377
-0.175518
-0.160803
-0.123583
-0.092864
-0.035880
-0.028339
0.008881
0.052655
0.092535
0.107591
0.121530
0.142073
0.102425
0.089645
0.025506
-0.026722
-0.086382
-0.121692
-0.121047
-0.142296
-0.169888
-0.181480
-0.164483
-0.140591
-0.106126
-0.042672
0.024907
0.067174
0.093492
0.094629
0.129636
0.122482
0.094251
0.061749
0.026178
-0.024666
-0.058385
-0.078152
-0.127592
-0.178115
-0.196921
-0.176145
-0.127766
-0.118274
-0.085704
-0.040798
0.028590
0.092064
0.115610
0.132734
0.139575
0.128670
0.106479
0.072447
0.030713
-0.003336
-0.027578
-0.076112
-0.128432
-0.157095
-0.164177
-0.142241
-0.096441
-0.077075
-0.027955
0.023315
0.054165
0.085690
0.111443
0.133686
0.155353
0.141734
0.118788
0.102326
0.076865
0.021093
-0.026707
-0.068845
-0.096394
-0.134600
-0.179263
-0.155152
-0.092687
-0.034146
-0.009361
0.025650
0.091576
0.130914
0.174400
0.202798
0.232365
0.212079
0.169892
0.117272
0.093909
0.047452
0.000388
-0.021817
-0.043626
-0.069957
-0.102459
-0.100683
-0.069286
-0.043487
0.023679
0.065590
0.105699
0.152027
0.192506
0.219326
0.217771
0.218269
0.205490
0.176693
0.132524
0.088957
0.029302
-0.005403
-0.028981
-0.044749
-0.074269
-0.056152
-0.032481
-0.014496
0.010565
0.062306
0.127444
0.175269
0.199095
0.222814
0.234529
0.218890
0.205505
0.182879
0.138267
0.082538
0.043204
-0.005003
-0.047131
-0.067490
-0.067070
-0.066392
-0.039597
0.008137
0.054581
0.087378
0.125339
0.161161
0.188168
0.204071
0.219110
0.195915
0.194773
0.179881
0.129974
0.066883
0.020364
-0.033059
-0.065584
-0.075964
-0.089485
-0.098702
-0.087513
-0.044750
-0.020214
0.021790
0.052114
0.123124
0.168096
0.240632
0.233381
0.188794
0.169279
0.155419
0.090035
0.032004
-0.029056
-0.070568
-0.099223
-0.123681
-0.082304
-0.101371
-0.117959
-0.094316
-0.037194
0.004821
0.053807
0.116571
0.146086
0.146817
0.143997
0.149834
0.113449
0.063454
0.046624
-0.002419
-0.012877
-0.085194
-0.128605
-0.151350
-0.174104
-0.158180
-0.128731
-0.105973
-0.066455
-0.018723
0.036108
0.066424
0.103154
0.116564
0.131959
0.137581
0.105187
0.062293
0.014239
-0.018829
-0.055998
-0.108120
-0.139596
-0.171968
-0.191387
-0.199431
-0.184969
-0.116826
-0.069582
-0.031419
0.014910
0.037615
0.078023
0.109355
0.114843
0.131279
0.118547
0.076108
0.025582
-0.026517
-0.087149
-0.114815
-0.133537
-0.168405
-0.176319
-0.158313
-0.127742
-0.107543
-0.077691
-0.015970
0.030022
0.070692
0.095501
0.106984
0.121944
0.125986
0.078884
0.099858
0.053107
-0.011023
-0.080696
-0.123193
-0.159871
-0.162787
-0.172557
-0.170067
-0.151529
-0.100312
-0.042764
-0.000705
0.049301
0.079224
0.099661
0.146651
0.141436
0.115796
0.069843
0.048352
-0.005116
-0.041243
-0.090059
-0.103973
-0.116541
-0.147194
-0.167042
-0.166046
-0.142447
-0.107632
-0.080732
-0.042796
0.021298
0.079535
0.112471
0.123486
0.134175
0.162813
0.129017
0.080018
0.044693
-0.017223
-0.064578
-0.090896
-0.137717
-0.163286
-0.187413
-0.183378
-0.145321
-0.126950
-0.065966
-0.015656
0.028847
0.066671
0.109453
0.117617
0.131204
0.151869
0.125733
0.080464
0.032548
-0.022748
-0.055558
-0.082589
-0.134930
-0.151967
-0.168807
-0.176115
-0.167395
-0.130189
-0.071090
-0.011901
0.021537
0.049270
0.083491
0.117037
0.145265
0.136699
0.099511
0.062674
0.014313
-0.021003
-0.062605
-0.130848
-0.158690
-0.161359
-0.168530
-0.154640
-0.156100
-0.114861
-0.067979
-0.011197
0.036252
0.070683
0.092203
0.114161
0.123359
0.124324
0.091952
0.079964
0.036250
-0.030270
-0.080695
-0.122854
-0.169983
-0.209614
-0.188534
-0.182769
-0.160594
-0.107990
-0.071215
-0.055990
-0.010401
0.058329
0.077268
0.123448
0.141819
0.126359
0.102819
0.071740
0.023252
-0.039057
-0.063458
-0.124435
-0.151744
-0.173341
-0.200192
-0.182514
-0.159394
-0.133861
-0.091776
-0.044284
0.017087
0.056637
0.080754
0.115697
0.152116
0.140161
0.123273
0.082745
0.033674
-0.037622
-0.100065
-0.106198
-0.117446
-0.144926
-0.147387
-0.152443
-0.142982
-0.102086
-0.060190
-0.024778
0.036371
0.079382
0.101043
0.116130
0.122932
0.150266
0.125180
0.110867
0.066764
0.021393
-0.031293
-0.082896
-0.129150
-0.155959
-0.161134
-0.162258
-0.120171
-0.079269
-0.050218
-0.014021
0.052553
0.092232
0.111460
0.155969
0.189402
0.172284
0.131724
0.108707
0.068641
0.000895
-0.045724
-0.053944
-0.065100
-0.109947
-0.125711
-0.127741
-0.114718
-0.070196
-0.048570
-0.001301
0.023644
0.109640
0.145040
0.147040
0.169651
0.141080
0.106633
0.065918
0.020183
-0.005365
-0.046507
-0.107105
-0.139059
-0.150259
-0.159142
-0.176160
-0.132168
-0.117994
-0.077800
-0.035323
0.018427
0.076224
0.102063
0.107963
0.113334
0.091444
0.072882
0.018227
-0.018784
-0.052397
-0.069412
-0.106026
-0.173775
-0.213434
-0.210868
-0.197911
-0.177702
-0.162978
-0.120450
-0.074955
-0.041132
0.031419
0.045542
0.069774
0.093523
0.079813
0.065833
0.023955
-0.005762
-0.033162
-0.090666
-0.136273
-0.177336
-0.207291
-0.202029
-0.201505
-0.190272
-0.157372
-0.108141
-0.064915
-0.027751
0.025382
0.058963
0.082179
0.099829
0.092136
0.055123
0.001805
-0.030128
-0.065396
-0.109167
-0.150915
-0.177934
-0.196995
-0.235334
-0.242902
-0.198343
-0.160753
-0.125778
-0.083405
0.010275
0.065692
0.093787
0.088646
0.075647
0.080917
0.080708
0.033608
-0.035728
-0.079626
-0.099980
-0.136394
-0.172985
-0.195033
-0.221883
-0.230351
-0.209153
-0.191233
-0.152911
-0.063022
-0.008861
0.019187
0.063284
0.108101
0.118010
0.108343
0.118277
0.086717
0.044088
0.017519
-0.042235
-0.062512
-0.048484
-0.082194
-0.087332
-0.038927
0.020746
0.041848
0.112369
0.198527
0.254873
0.318888
0.385283
0.442817
0.509367
0.519224
0.537726
0.536735
0.518421
0.512947
0.512263
0.478400
0.450873
0.496309
0.508829
0.553398
0.584047
0.615918
0.680909
0.707537
0.727587
0.744857
0.758482
0.750580
0.716236
0.620745
0.534747
0.440917
0.338141
0.248724
0.190104
0.137022
0.047682
-0.001823
-0.016502
-0.036432
-0.016556
0.014416
0.052668
0.078716
0.113182
0.152058
0.180066
0.216006
0.191630
0.149778
0.141000
0.115721
0.087609
0.035539
-0.020485
-0.068321
-0.083261
-0.100594
-0.146639
-0.149998
-0.130563
-0.078035
-0.046988
-0.006510
0.055804
0.090112
0.118593
0.130586
0.139068
0.132995
0.114301
0.088605
0.019987
-0.021023
-0.080216
-0.137586
-0.160994
-0.165426
-0.205123
-0.193061
-0.156483
-0.100184
-0.037126
-0.003578
0.029104
0.062373
0.080643
0.136061
0.149819
0.136231
0.107481
0.076591
0.023552
-0.021815
-0.038989
-0.086773
-0.135889
-0.170178
-0.184355
-0.179757
-0.142486
-0.099443
-0.069858
-0.035278
0.019326
0.068312
0.103470
0.125830
0.141481
0.112541
0.100901
0.090995
0.077696
0.032903
-0.024317
-0.069730
-0.117557
-0.153194
-0.156334
-0.155351
-0.154533
-0.117026
-0.056137
0.018709
0.055843
0.098211
0.125179
0.154888
0.179239
0.176701
0.167039
0.105983
0.070104
0.041551
-0.000355
-0.046288
-0.079203
-0.101872
-0.123070
-0.139269
-0.128677
-0.105692
-0.028979
0.029765
0.072009
0.112998
0.153790
0.179954
0.184564
0.183149
0.169687
0.140228
0.095944
0.049555
0.011674
-0.028933
-0.072296
-0.099823
-0.068349
-0.083185
-0.072358
-0.026800
0.004680
0.080632
0.118716
0.146858
0.187213
0.215340
0.212958
0.214815
0.200773
0.170163
0.142530
0.072179
0.051142
0.014222
-0.040617
-0.059052
-0.074673
-0.062247
-0.045587
-0.023653
0.009704
0.047850
0.125804
0.199978
0.218037
0.238071
0.262709
0.225644
0.212656
0.190981
0.117622
0.047097
0.031522
-0.004539
-0.048420
-0.052839
-0.061018
-0.026529
-0.008440
0.017962
0.046722
0.085869
0.145151
0.193644
0.210369
0.203716
0.218114
0.220929
0.220217
0.178958
0.116575
0.070234
0.033029
-0.021343
-0.062882
-0.066228
-0.097888
-0.087457
-0.057735
-0.033310
-0.004125
0.051168
0.108500
0.144707
0.181290
0.200255
0.203189
0.190927
0.175466
0.150059
0.102390
0.036743
-0.009870
-0.055181
-0.088822
-0.107296
-0.128150
-0.115625
-0.080399
-0.068079
-0.035530
0.007809
0.059494
0.110082
0.147772
0.155207
0.183107
0.161811
0.153323
0.114393
0.060113
0.001350
-0.046508
-0.084330
-0.130584
-0.154679
-0.164167
-0.150057
-0.136157
-0.085937
0.005153
0.007306
0.053017
0.075945
0.108865
0.125452
0.120979
0.100035
0.074827
0.056115
0.042713
0.000102
-0.017833
-0.067575
-0.113370
-0.140536
-0.150551
-0.151265
-0.132092
-0.104669
-0.056490
0.006959
0.052585
0.078263
0.120635
0.119737
0.146029
0.116278
0.089898
0.070142
0.038691
-0.044358
-0.084505
-0.125219
-0.156491
-0.157624
-0.172309
-0.192406
-0.160134
-0.115960
-0.082716
-0.033433
0.016935
0.072033
0.112711
0.141652
0.148056
0.141252
0.111226
0.080113
0.025604
-0.026039
-0.075875
-0.117523
-0.137506
-0.158211
-0.174000
-0.169493
-0.163739
-0.120141
-0.085100
-0.053568
0.020995
0.082600
0.123390
0.159688
0.164055
0.140903
0.116974
0.099210
0.049252
-0.014623
-0.053883
-0.092792
-0.133295
-0.167025
-0.187516
-0.157485
-0.131261
-0.088404
-0.042954
0.005014
0.037150
0.084399
0.112119
0.105246
0.131106
0.148475
0.134203
0.100115
0.034352
-0.008417
-0.050788
-0.102536
-0.133290
-0.143025
-0.147309
-0.130570
-0.120401
-0.092119
-0.056483
-0.007557
0.046841
0.087717
0.118276
0.134914
0.154030
0.145104
0.125671
0.096553
0.042886
0.004134
-0.035129
-0.091892
-0.129073
-0.160511
-0.200238
-0.194240
-0.180055
-0.146053
-0.062600
-0.016002
0.027695
0.085507
0.129789
0.134625
0.135039
0.135768
0.136134
0.088330
0.035517
-0.012996
-0.073470
-0.100452
-0.131157
-0.168974
-0.182003
-0.170511
-0.125553
-0.096109
-0.062923
-0.011323
0.027195
0.048498
0.094665
0.130200
0.132854
0.126264
0.127167
0.106409
0.042019
-0.015882
-0.055632
-0.103678
-0.149459
-0.178970
-0.184468
-0.159174
-0.133860
-0.129215
-0.074578
-0.026117
0.021757
0.063601
0.108929
0.111254
0.146236
0.104209
0.103137
0.082108
0.018609
-0.016292
-0.065800
-0.104618
-0.122722
-0.155876
-0.187752
-0.173797
-0.145932
-0.124148
-0.075343
-0.027058
0.026868
0.072080
0.096907
0.105680
0.092145
0.093447
0.080879
0.042837
0.002331
-0.020455
-0.056554
-0.108247
-0.167271
-0.168751
-0.159404
-0.139966
-0.144010
-0.129310
-0.060419
0.022695
0.050547
0.073498
0.103719
0.118546
0.125999
0.136040
0.147692
0.108759
0.053113
0.020962
-0.039559
-0.105127
-0.146305
-0.145656
-0.127676
-0.123967
-0.107637
-0.078573
-0.042828
-0.008405
0.049779
0.085797
0.112047
0.130004
0.149130
0.156465
0.126611
0.090837
0.048197
0.001706
-0.032580
-0.075430
-0.112223
-0.126374
-0.137913
-0.122918
-0.097940
-0.087458
-0.029994
0.038676
0.092903
0.133190
0.168190
0.203271
0.199023
0.176457
0.146978
0.131909
0.074629
0.023243
-0.040520
-0.085837
-0.105894
-0.155635
-0.190867
-0.192547
-0.175439
-0.075301
-0.033522
0.013874
0.048624
0.083670
0.106514
0.127252
0.131206
0.122402
0.119793
0.107937
0.060808
-0.012519
-0.082166
-0.097845
-0.144359
-0.182382
-0.186566
-0.177894
-0.163153
-0.152207
-0.076500
-0.035163
0.010683
0.061875
0.087161
0.092297
0.102276
0.086362
0.053822
0.029613
-0.015104
-0.072689
-0.087474
-0.130723
-0.176700
-0.199896
-0.211293
-0.202360
-0.175719
-0.153837
-0.127515
-0.065144
-0.016344
0.044621
0.068571
0.088703
0.097361
0.093242
0.074702
0.026477
-0.018359
-0.069499
-0.115351
-0.145983
-0.189094
-0.205499
-0.206925
-0.205820
-0.199921
-0.189765
-0.134121
-0.076373
-0.003473
0.039980
0.082567
0.095385
0.127244
0.108337
0.077625
0.023575
-0.026817
-0.080996
-0.097774
-0.158952
-0.169853
-0.186486
-0.191307
-0.194424
-0.169292
-0.156473
-0.114705
-0.064763
-0.028455
0.047079
0.074841
0.093545
0.109642
0.085655
0.030384
0.016455
-0.014412
-0.065562
-0.106000
-0.141989
-0.178144
-0.194817
-0.200431
-0.178802
-0.159773
-0.134065
-0.058995
-0.007965
0.034251
0.107931
0.161387
0.214710
0.228205
0.230430
0.200771
0.193067
0.177510
0.144599
0.136635
0.099769
0.090986
0.122230
0.153121
0.196756
0.237324
0.298711
0.363336
0.426043
0.503294
0.586580
0.671141
0.733069
0.771636
0.796411
0.817697
0.810059
0.761643
0.715847
0.669496
0.606854
0.536273
0.524492
0.498544
0.445528
0.415837
0.404124
0.410789
0.404571
0.395389
0.384933
0.363588
0.339427
0.308407
0.287600
0.252352
0.212398
0.163973
0.103914
0.055875
0.006632
-0.050637
-0.093832
-0.112052
-0.102801
-0.059806
-0.038168
-0.003607
0.041668
0.085915
0.098560
0.132854
0.147439
0.194027
0.182184
0.137224
0.079307
0.049648
0.033205
-0.019379
-0.062418
-0.085266
-0.123778
-0.195701
-0.173758
-0.130415
-0.126900
-0.072391
-0.032651
0.004467
0.071416
0.106206
0.134894
0.131954
0.114132
0.099015
0.084187
0.021476
-0.019428
-0.070049
-0.102145
-0.121333
-0.191501
-0.179209
-0.159058
-0.140041
-0.112178
-0.075841
-0.039273
0.056444
0.095285
0.103133
0.113023
0.135802
0.137842
0.105974
0.078920
0.035143
0.000028
-0.044872
-0.104758
-0.108511
-0.115002
-0.147709
-0.152598
-0.129712
-0.089419
-0.041623
0.006737
0.059177
0.083314
0.127194
0.141850
0.150238
0.142279
0.118734
0.087666
0.039872
0.000208
-0.036613
-0.084622
-0.116673
-0.130750
-0.131875
-0.127997
-0.120308
-0.079976
-0.026277
0.023270
0.084001
0.114396
0.139231
0.178197
0.184227
0.189994
0.155760
0.100234
0.035492
-0.003150
-0.006443
-0.046739
-0.091752
-0.124839
-0.125283
-0.081274
-0.062974
-0.028921
0.022173
0.050735
0.096207
0.125318
0.159862
0.198098
0.214374
0.217215
0.209517
0.175010
0.119203
0.060166
0.008941
-0.027197
-0.061321
-0.085449
-0.092864
-0.080831
-0.045542
-0.024189
0.016974
0.066211
0.105542
0.134089
0.209182
0.232213
0.253029
0.233429
0.213048
0.189595
0.140516
0.086657
0.071642
0.020277
-0.022446
-0.055753
-0.059821
-0.066987
-0.047542
-0.012806
0.028326
0.067968
0.113775
0.158438
0.194149
0.209179
0.232713
0.235596
0.208928
0.175292
0.161855
0.098750
0.032105
-0.012451
-0.046536
-0.054874
-0.061930
-0.051204
-0.041865
-0.021687
0.021251
0.074431
0.128236
0.151631
0.190816
0.222021
0.224391
0.207287
0.188684
0.167880
0.120699
0.048602
0.002894
-0.030798
-0.059795
-0.080606
-0.100547
-0.061702
-0.040701
-0.027524
0.001195
0.028416
0.096670
0.140347
0.179988
0.184799
0.188333
0.174959
0.143113
0.133671
0.065321
0.019662
0.006112
-0.041804
-0.114599
-0.124544
-0.133666
-0.130049
-0.110434
-0.082812
-0.039513
0.017280
0.045382
0.093613
0.151928
0.183451
0.172416
0.145378
0.098960
0.058117
0.032250
-0.008218
-0.057645
-0.096676
-0.122269
-0.153029
-0.165774
-0.180792
-0.153662
-0.101034
-0.066582
-0.029215
0.031034
0.085563
0.095036
0.137622
0.148701
0.156926
0.127744
0.081446
0.026577
-0.014711
-0.057705
-0.103135
-0.150859
-0.173480
-0.175948
-0.167964
-0.137220
-0.112970
-0.083420
-0.047843
0.017900
0.061854
0.087274
0.110939
0.109121
0.118614
0.084962
0.040480
0.010450
-0.031660
-0.051522
-0.082343
-0.117493
-0.153018
-0.167848
-0.156691
-0.137894
-0.113559
-0.098579
-0.030164
0.021710
0.064725
0.088755
0.113352
0.162282
0.158081
0.133567
0.078199
0.049617
0.003823
-0.056761
-0.096968
-0.123714
-0.155267
-0.157891
-0.160969
-0.138210
-0.110360
-0.079217
-0.026335
0.031494
0.065005
0.107974
0.145329
0.145553
0.140541
0.118012
0.072778
0.044307
0.002882
-0.054841
-0.116050
-0.139203
-0.136414
-0.137841
-0.143934
-0.144140
-0.120871
-0.055061
-0.001987
0.034449
0.068341
0.122417
0.136161
0.141100
0.137715
0.113918
0.096994
0.057196
-0.008436
-0.055057
-0.094739
-0.134809
-0.183227
-0.184151
-0.157313
-0.148863
-0.130585
-0.034432
0.002243
0.025188
0.063008
0.108170
0.132657
0.149843
0.149164
0.136654
0.097454
0.061404
-0.000505
-0.068235
-0.083514
-0.149582
-0.177910
-0.178027
-0.168707
-0.133061
-0.078769
-0.047067
-0.040718
0.034048
0.077956
0.084756
0.109242
0.140134
0.150918
0.143873
0.099516
0.039924
-0.026118
-0.075907
-0.115903
-0.166512
-0.160398
-0.170124
-0.158337
-0.135838
-0.115723
-0.067847
-0.035008
0.024418
0.069894
0.077328
0.109768
0.130864
0.127384
0.111150
0.076755
0.029319
-0.025310
-0.057912
-0.104072
-0.147018
-0.178653
-0.180421
-0.186174
-0.161270
-0.118931
-0.060709
-0.018269
0.040496
0.072341
0.089655
0.091317
0.106700
0.107346
0.115094
0.081023
0.040834
-0.018514
-0.079784
-0.132191
-0.174488
-0.201068
-0.197263
-0.186456
-0.152128
-0.103688
-0.057030
-0.012246
-0.007702
0.027210
0.075587
0.121425
0.129768
0.119802
0.088231
0.034391
0.016088
-0.038483
-0.077686
-0.126306
-0.137867
-0.150844
-0.133636
-0.150117
-0.163196
-0.103229
-0.068394
-0.042312
0.026131
0.057261
0.106526
0.137217
0.149530
0.136909
0.109534
0.095058
0.051218
0.006833
-0.049676
-0.086061
-0.122249
-0.157787
-0.157041
-0.122576
-0.106576
-0.079781
-0.039344
0.004242
0.026466
0.065852
0.091526
0.119779
0.140680
0.160422
0.129523
0.088338
0.009552
-0.019163
-0.029694
-0.058947
-0.086137
-0.109410
-0.129089
-0.131533
-0.095685
-0.076732
-0.020404
0.038343
0.063037
0.097585
0.142705
0.165253
0.181252
0.159702
0.131830
0.091258
0.089382
0.036572
-0.022819
-0.064478
-0.104141
-0.130757
-0.160068
-0.167192
-0.139948
-0.079648
-0.033729
0.010954
0.054933
0.083668
0.103997
0.118831
0.098149
0.115134
0.096364
0.042590
0.026541
-0.021890
-0.092452
-0.137102
-0.143647
-0.175619
-0.193019
-0.157130
-0.139665
-0.108209
-0.071660
-0.034192
0.000241
0.025753
0.057661
0.079477
0.103742
0.106650
0.075704
0.054924
0.010599
-0.035396
-0.094139
-0.165599
-0.192967
-0.211586
-0.226557
-0.196191
-0.182013
-0.166269
-0.113145
-0.078372
-0.006083
0.046056
0.084628
0.088800
0.089655
0.104692
0.071757
0.044370
0.010542
-0.039243
-0.080923
-0.130376
-0.172830
-0.190961
-0.209513
-0.219196
-0.197817
-0.165548
-0.136539
-0.083705
-0.024501
0.019328
0.072313
0.084272
0.084781
0.089089
0.080244
0.032703
0.000223
-0.070258
-0.123570
-0.147505
-0.179255
-0.209699
-0.219555
-0.224775
-0.170274
-0.144320
-0.106958
-0.067868
-0.027888
0.027113
0.065752
0.079772
0.062094
0.056025
0.036524
0.002769
-0.001441
-0.038185
-0.099096
-0.144714
-0.175833
-0.202046
-0.211300
-0.213488
-0.190382
-0.162024
-0.089016
-0.030071
0.030197
0.097700
0.130437
0.178179
0.244503
0.252017
0.213904
0.182720
0.148932
0.129727
0.100814
0.071727
0.061841
0.071680
0.109197
0.125357
0.184021
0.239367
0.312758
0.403374
0.490123
0.555185
0.606815
0.676373
0.738713
0.779323
0.801913
0.794563
0.779174
0.748076
0.693641
0.641057
0.591633
0.538564
0.503906
0.476453
0.453682
0.455327
0.434746
0.437370
0.424525
0.418366
0.409618
0.371491
0.356058
0.306301
0.256042
0.207546
0.168990
0.131303
0.078917
0.032800
-0.012674
-0.043135
-0.065512
-0.098280
-0.083334
-0.043721
-0.014822
0.069173
0.109194
0.131229
0.145640
0.132727
0.158841
0.162420
0.104708
0.079097
0.053420
0.004917
-0.008919
-0.043113
-0.083622
-0.123560
-0.148368
-0.152147
-0.128918
-0.090522
-0.047671
-0.003813
0.029808
0.055415
0.102918
0.144809
0.155086
0.131053
0.082297
0.014204
-0.000598
-0.009929
-0.069628
-0.094922
-0.122322
-0.143911
-0.163333
-0.168332
-0.147453
-0.099779
-0.070646
-0.031432
0.018405
0.074828
0.094179
0.108428
0.115936
0.128772
0.115900
0.079213
0.038007
-0.020519
-0.065527
-0.100991
-0.140603
-0.167001
-0.189485
-0.184181
-0.134855
-0.086322
-0.055439
-0.011988
0.034721
0.086830
0.126204
0.157310
0.163679
0.157785
0.132979
0.090552
0.059371
0.028315
-0.033458
-0.080323
-0.114884
-0.122767
-0.125669
-0.129344
-0.134058
-0.114472
-0.075243
-0.034463
0.017388
0.089727
0.136265
0.150121
0.176855
0.204173
0.164805
0.136589
0.099012
0.050208
0.000886
-0.045323
-0.086123
-0.107731
-0.112770
-0.100127
-0.080166
-0.051116
-0.000881
0.037981
0.070588
0.108550
0.153229
0.173454
0.197842
0.208613
0.173829
0.154136
0.125997
0.052895
0.003303
-0.021182
-0.020173
-0.055931
-0.080586
-0.070279
-0.037752
-0.035087
-0.011922
0.063253
0.127338
0.169643
0.205898
0.224614
0.230428
0.216532
0.162357
0.151650
0.144028
0.137170
0.058871
0.018392
-0.029518
-0.082516
-0.078268
-0.066062
-0.049014
-0.021274
0.041397
0.093091
0.124735
0.170986
0.200687
0.234277
0.252272
0.249461
0.226477
0.203104
0.138900
0.082354
0.044089
0.001145
-0.070643
-0.059534
-0.069075
-0.090106
-0.064929
-0.021827
0.013826
0.066081
0.111119
0.155141
0.192904
0.207650
0.249490
0.248656
0.217122
0.171008
0.109296
0.064988
0.013409
-0.046065
-0.047876
-0.076022
-0.106510
-0.110540
-0.068527
-0.041626
0.007995
0.025627
0.067237
0.115421
0.151144
0.170684
0.184991
0.183523
0.177996
0.143572
0.090419
0.019757
-0.032490
-0.063455
-0.093964
-0.103149
-0.118530
-0.131809
-0.102401
-0.067606
-0.036602
0.011514
0.045924
0.070601
0.098890
0.141300
0.166808
0.156215
0.113468
0.085520
0.050164
-0.004369
-0.065492
-0.100999
-0.115069
-0.124586
-0.141307
-0.146937
-0.134893
-0.104691
-0.064568
-0.051578
0.004611
0.038062
0.100261
0.138282
0.144740
0.138961
0.092898
0.062739
0.021182
-0.030733
-0.063556
-0.116749
-0.155233
-0.176863
-0.177395
-0.155150
-0.146850
-0.121755
-0.086267
-0.024978
0.038568
0.069965
0.090319
0.133767
0.139380
0.145014
0.117495
0.081439
0.029848
-0.012989
-0.080670
-0.121937
-0.169058
-0.167017
-0.192135
-0.191715
-0.157705
-0.106653
-0.071162
-0.028784
0.013077
0.052635
0.104330
0.128622
0.138155
0.125557
0.109821
0.078922
0.042559
-0.009629
-0.063956
-0.108192
-0.142653
-0.161344
-0.175278
-0.174043
-0.152485
-0.116607
