-0.070716
-0.017536
0.015872
0.041550
0.061700
0.068528
0.054589
0.039972
0.008579
-0.030306
-0.091445
-0.170767
-0.196943
-0.224339
-0.267684
-0.273270
-0.253088
-0.230042
-0.181990
-0.138928
-0.079353
-0.039391
-0.051956
-0.033543
0.009022
0.067723
0.067347
0.065270
0.032616
-0.027558
-0.090697
-0.149471
-0.201204
-0.238941
-0.267517
-0.273562
-0.236935
-0.209551
-0.199146
-0.187314
-0.129334
-0.086136
-0.020657
0.026927
0.059143
0.056668
0.053154
0.028844
0.013305
-0.024023
-0.064678
-0.111949
-0.159237
-0.200240
-0.208890
-0.181307
-0.177143
-0.176082
-0.134610
-0.093951
-0.056644
0.001653
0.057512
0.075996
0.073667
0.074507
0.074864
0.048051
0.018820
-0.029913
-0.051396
-0.107302
-0.155565
-0.188706
-0.214306
-0.199831
-0.153349
-0.147996
-0.157518
-0.120140
-0.076193
0.013142
0.050267
0.071622
0.093830
0.090475
0.093287
0.062338
0.028496
0.014874
-0.027711
-0.080820
-0.124844
-0.168663
-0.198503
-0.195845
-0.188968
-0.180910
-0.119690
-0.054952
-0.029411
0.009388
0.044670
0.104714
0.129952
0.125574
0.077860
0.013243
-0.039317
-0.047338
-0.064128
-0.137251
-0.155251
-0.185974
-0.197947
-0.203941
-0.205606
-0.196543
-0.164730
-0.123048
-0.073168
-0.036509
0.002785
0.050296
0.055782
0.026250
0.018599
0.039222
0.024188
-0.002892
-0.071073
-0.138228
-0.207778
-0.243948
-0.260936
-0.241052
-0.256144
-0.239307
-0.205757
-0.163154
-0.135059
-0.077991
-0.027932
-0.014178
0.000836
0.032097
0.037054
0.032065
-0.022388
-0.064988
-0.124393
-0.157227
-0.210040
-0.250215
-0.236470
-0.246094
-0.261250
-0.246002
-0.223821
-0.201786
-0.136844
-0.069396
-0.003587
0.027793
0.024147
0.011115
-0.001100
-0.013743
-0.042335
-0.071565
-0.121975
-0.152967
-0.214164
-0.226258
-0.248744
-0.259719
-0.265780
-0.219568
-0.175612
-0.159762
-0.118121
-0.046862
-0.022687
0.003411
0.028732
0.033677
0.018554
-0.005938
-0.038590
-0.073879
-0.111251
-0.158065
-0.225589
-0.235903
-0.263589
-0.263280
-0.257044
-0.234455
-0.196230
-0.163922
-0.121231
-0.058688
-0.016131
0.009962
0.036299
0.034737
0.023995
-0.001361
-0.032943
-0.057831
-0.116822
-0.214872
-0.189348
-0.170966
-0.225937
-0.251935
-0.226323
-0.184232
-0.102624
-0.039521
-0.013722
0.029212
0.101662
0.175745
0.209456
0.224987
0.230493
0.230302
0.218332
0.213454
0.194658
0.166190
0.152306
0.151920
0.167540
0.193487
0.251148
0.297538
0.369953
0.437839
0.501513
0.578965
0.666737
0.739975
0.782911
0.812552
0.825890
0.809037
0.781637
0.733225
0.657886
0.568181
0.470119
0.421082
0.347294
0.266659
0.193550
0.136179
0.129758
0.098701
0.062378
0.108959
0.161065
0.173173
0.170649
0.166604
0.135717
0.111845
0.096419
0.047703
-0.009429
-0.087009
-0.081481
-0.105829
-0.134067
-0.152561
-0.159068
-0.143258
-0.109052
-0.055014
-0.016506
0.032143
0.068284
0.088698
0.103958
0.109062
0.081610
0.059324
0.008666
-0.020061
-0.062648
-0.089678
-0.155395
-0.192556
-0.196070
-0.195951
-0.181955
-0.170226
-0.122584
-0.090119
-0.033816
0.010103
0.051858
0.090576
0.111433
0.116387
0.099959
0.065470
0.017817
-0.025304
-0.065469
-0.114760
-0.162100
-0.211593
-0.228314
-0.226746
-0.209539
-0.170979
-0.139017
-0.096649
-0.036267
0.021142
0.042080
0.079184
0.085458
0.075991
0.078876
0.058161
0.027764
-0.011345
-0.048317
-0.093058
-0.141709
-0.180010
-0.216186
-0.208212
-0.173624
-0.159592
-0.133121
-0.085465
-0.058679
-0.025663
0.066059
0.119324
0.161705
0.140859
0.103453
0.067729
0.060646
0.010395
-0.032578
-0.066670
-0.116748
-0.156310
-0.183119
-0.152388
-0.155441
-0.131020
-0.081877
-0.041052
0.002003
0.049398
0.081745
0.110943
0.138462
0.147890
0.130424
0.092565
0.086792
0.055953
0.002060
-0.056898
-0.099454
-0.112620
-0.129101
-0.123838
-0.120907
-0.122063
-0.101141
-0.033776
0.035962
0.099709
0.133783
0.164410
0.179306
0.170404
0.142030
0.143181
0.132372
0.101048
0.064904
0.012191
-0.032983
-0.063497
-0.104866
-0.114387
-0.101480
-0.076065
-0.021649
0.035014
0.074789
0.102026
0.133509
0.179398
0.206982
0.209445
0.196709
0.180822
0.149676
0.103535
0.058726
0.002810
-0.038910
-0.045346
-0.060322
-0.072265
-0.077818
-0.056020
-0.035043
-0.003724
0.062495
0.123170
0.164568
0.216145
0.256877
0.255789
0.261293
0.197150
0.147657
0.071126
-0.003391
0.016925
0.007891
-0.047083
-0.105529
-0.084575
-0.071797
-0.060657
-0.031087
0.005767
0.062799
0.104122
0.149544
0.181485
0.203046
0.185439
0.150019
0.142739
0.113944
0.088948
0.037432
0.009825
-0.038009
-0.069925
-0.100900
-0.105320
-0.107910
-0.082771
-0.063120
-0.031834
0.017972
0.058144
0.101135
0.136626
0.164063
0.164628
0.159488
0.135277
0.098514
0.050095
-0.004699
-0.049645
-0.089728
-0.107710
-0.144971
-0.151775
-0.152698
-0.136469
-0.113669
-0.063396
-0.009198
0.043925
0.086764
0.109596
0.136534
0.135899
0.124739
0.091910
0.068107
0.019689
-0.037324
-0.074201
-0.117605
-0.135135
-0.144755
-0.188173
-0.214365
-0.230190
-0.183907
-0.109710
-0.024463
0.001933
0.054918
0.107521
0.138058
0.109958
0.115867
0.091116
0.058272
-0.003637
-0.055176
-0.076893
-0.127571
-0.168941
-0.193479
-0.199488
-0.191503
-0.164761
-0.133702
-0.093876
-0.042564
0.001899
0.052874
0.089786
0.111787
0.091959
0.079792
0.066693
0.055095
0.051259
0.009714
-0.056545
-0.164653
-0.227927
-0.260011
-0.212497
-0.184473
-0.156323
-0.138169
-0.098508
-0.038187
0.013551
0.046278
0.073802
0.087276
0.111362
0.114946
0.085197
0.032915
-0.030089
-0.097730
-0.139842
-0.148012
-0.155352
-0.170782
-0.180372
-0.156892
-0.144911
-0.084053
-0.036124
0.008270
-0.002068
0.009641
0.045150
0.086031
0.105310
0.100098
0.069593
0.029430
-0.035928
-0.080272
-0.102839
-0.116308
-0.164309
-0.212268
-0.201529
-0.163860
-0.134266
-0.104578
-0.071075
-0.012086
0.054434
0.108239
0.103255
0.083012
0.113437
0.078883
0.059329
0.043378
0.009957
-0.025796
-0.065605
-0.111506
-0.145531
-0.170282
-0.188387
-0.189154
-0.149955
-0.117748
-0.090595
-0.039665
0.007896
0.058508
0.084373
0.094715
0.098535
0.073494
0.057827
0.043323
0.002294
-0.030052
-0.080593
-0.124942
-0.156948
-0.189092
-0.176175
-0.180942
-0.169079
-0.121796
-0.081914
-0.037194
-0.020908
0.057517
0.101610
0.107271
0.121870
0.114735
0.064783
0.038384
0.003922
-0.051288
-0.113040
-0.129393
-0.150864
-0.168755
-0.192874
-0.179178
-0.151088
-0.130694
-0.106679
-0.061213
-0.001208
0.034237
0.087298
0.107386
0.112837
0.093307
0.062289
0.030223
-0.011424
-0.049493
-0.107736
-0.165784
-0.185814
-0.201685
-0.191137
-0.181014
-0.164016
-0.133994
-0.103604
-0.051261
0.019061
0.040099
0.030304
0.066450
0.073159
0.070570
0.040708
0.013654
-0.021031
-0.073310
-0.075704
-0.106981
-0.165904
-0.280962
-0.288809
-0.219650
-0.135176
-0.125848
-0.081696
-0.036181
0.002901
0.048767
0.076689
0.095064
0.103468
0.094838
0.075175
0.043327
0.014036
-0.041824
-0.091297
-0.140111
-0.167516
-0.188232
-0.189400
-0.183692
-0.154329
-0.113806
-0.072520
-0.029905
0.017223
0.063283
0.095592
0.124408
0.127467
0.123029
0.091452
0.056364
0.019119
-0.022587
-0.068587
-0.112083
-0.154456
-0.168660
-0.165207
-0.151048
-0.135116
-0.120494
-0.109662
-0.051827
0.044343
0.084435
0.102708
0.104527
0.109860
0.103359
0.082325
0.074167
0.033176
-0.020307
-0.049932
-0.104429
-0.114539
-0.149308
-0.154082
-0.168255
-0.138132
-0.114350
-0.060302
-0.019078
0.025797
0.072630
0.118363
0.132679
0.140395
0.124537
0.114190
0.064167
0.000950
-0.058834
-0.054288
-0.076063
-0.118508
-0.149556
-0.157936
-0.149216
-0.126543
-0.095892
-0.073788
-0.034421
0.013722
0.058366
0.085688
0.095229
0.100565
0.086586
0.092406
0.059437
0.000785
-0.057895
-0.099567
-0.155885
-0.203919
-0.229099
-0.225913
-0.211122
-0.181777
-0.146166
-0.124330
-0.091226
-0.032745
0.047653
0.066857
0.083042
0.070868
0.068834
0.017441
0.017699
-0.012572
-0.071972
-0.128227
-0.176291
-0.216887
-0.233205
-0.247130
-0.251582
-0.218103
-0.155268
-0.111929
-0.088249
-0.049678
-0.011598
0.033794
0.057042
0.057879
0.054560
0.043156
0.008296
-0.042633
-0.092863
-0.146910
-0.179404
-0.203370
-0.220947
-0.231642
-0.231433
-0.201502
-0.153770
-0.118941
-0.095028
-0.051755
0.002505
0.033242
0.062570
0.080203
0.077357
0.046776
-0.028251
-0.070673
-0.114116
-0.130620
-0.155066
-0.200423
-0.245895
-0.262421
-0.262328
-0.261029
-0.174498
-0.114848
-0.074174
-0.043791
-0.001441
0.044148
0.050205
0.050085
0.061890
0.020386
-0.024045
-0.069652
-0.102115
-0.118180
-0.173466
-0.208928
-0.236819
-0.234547
-0.217458
-0.176855
-0.165840
-0.094612
-0.008572
0.062599
0.124274
0.182545
0.205032
0.216090
0.209636
0.226362
0.232492
0.188630
0.183449
0.151972
0.131911
0.119836
0.125647
0.170384
0.194491
0.250605
0.292701
0.361877
0.454651
0.546060
0.659352
0.719127
0.750142
0.789336
0.823541
0.825736
0.784995
0.745770
0.695258
0.620900
0.559530
0.511598
0.462893
0.408149
0.355469
0.320679
0.295536
0.260735
0.264186
0.264267
0.277805
0.281493
0.240513
0.218843
0.209318
0.171359
0.134731
0.095767
0.049127
-0.035475
-0.139672
-0.183627
-0.193501
-0.148230
-0.122494
-0.108506
-0.083276
-0.059601
0.018375
0.073175
0.103783
0.123802
0.147855
0.145957
0.111195
0.080867
0.049413
-0.001085
-0.056458
-0.095558
-0.142305
-0.167837
-0.204879
-0.186615
-0.174382
-0.149161
-0.125810
-0.072147
-0.041005
0.005424
0.058282
0.071250
0.090659
0.090372
0.084833
0.082524
0.075233
0.040072
-0.031116
-0.109019
-0.171487
-0.176249
-0.197506
-0.192034
-0.187916
-0.161981
-0.125144
-0.081743
-0.036029
0.020327
0.059407
0.090234
0.107024
0.117675
0.120755
0.091509
0.059948
0.018816
-0.020026
-0.090992
-0.114273
-0.151989
-0.178709
-0.206161
-0.213155
-0.163317
-0.112755
-0.078153
-0.020279
0.017473
0.045089
0.091225
0.141408
0.149452
0.131021
0.108368
0.071309
0.024190
-0.033356
-0.060216
-0.112103
-0.147262
-0.170279
-0.175805
-0.174617
-0.146705
-0.095854
-0.045552
0.001743
0.039238
0.108492
0.140841
0.154618
0.151796
0.142974
0.123735
0.090595
0.054870
0.010756
-0.054051
-0.110456
-0.117650
-0.141891
-0.126171
-0.110587
-0.089021
-0.076118
-0.039474
0.017081
0.067136
0.117794
0.157249
0.172457
0.185010
0.183956
0.167151
0.124085
0.078481
0.031670
-0.020235
-0.061382
-0.090218
-0.085140
-0.095647
-0.077622
-0.079711
-0.042118
-0.013536
0.030051
0.076800
0.142119
0.187850
0.214932
0.228542
0.201105
0.135082
0.114853
0.106362
0.072802
0.014211
-0.033408
-0.076036
-0.115952
-0.141809
-0.110170
-0.068504
-0.033813
-0.006726
0.049702
0.092490
0.140692
0.200342
0.219494
0.199273
0.166079
0.146888
0.139340
0.114061
0.050205
0.004530
-0.041407
-0.098394
-0.115545
-0.108613
-0.115819
-0.082509
-0.057215
-0.026571
0.037266
0.083757
0.126527
0.142945
0.171725
0.169159
0.166416
0.170033
0.118893
0.074338
0.019676
-0.031573
-0.081896
-0.118794
-0.143293
-0.149718
-0.138202
-0.114425
-0.085871
-0.047507
0.012800
0.057675
0.106251
0.137397
0.146419
0.146039
0.140390
0.109194
0.065782
0.016890
-0.036424
-0.082871
-0.127160
-0.158730
-0.183882
-0.167026
-0.148163
-0.141422
-0.120655
-0.087500
-0.023697
0.017040
0.066339
0.080443
0.091563
0.094055
0.077028
0.046641
0.043307
0.002771
-0.070773
-0.110495
-0.158856
-0.190576
-0.204507
-0.214449
-0.205385
-0.210986
-0.169838
-0.131978
-0.074573
-0.017377
0.020861
0.038406
0.074040
0.065952
0.055307
0.023489
0.011532
-0.038783
-0.078576
-0.126942
-0.170903
-0.200108
-0.226807
-0.230956
-0.219075
-0.194342
-0.172646
-0.131815
-0.081890
-0.052748
0.026221
0.063616
0.070936
0.077295
0.057030
0.022560
-0.028889
-0.068937
-0.119352
-0.140731
-0.171300
-0.203730
-0.235439
-0.241469
-0.221940
-0.204774
-0.180890
-0.130009
-0.078672
-0.028744
0.027577
0.049220
0.059220
0.074232
0.059499
0.047882
0.004770
-0.027154
-0.079178
-0.131807
-0.169801
-0.203318
-0.210904
-0.221001
-0.230275
-0.232784
-0.190427
-0.126188
-0.076267
-0.043143
0.008173
0.054735
0.087985
0.101944
0.090109
0.051561
0.013013
-0.030060
-0.083360
-0.117006
-0.179432
-0.183096
-0.201719
-0.192821
-0.200567
-0.185762
-0.168851
-0.142583
-0.105340
-0.055010
-0.016354
0.023465
0.071033
0.102667
0.086411
0.066023
0.013696
-0.035902
-0.071219
-0.112982
-0.177944
-0.203008
-0.197729
-0.217762
-0.223289
-0.209209
-0.168435
-0.120949
-0.081231
-0.041271
0.022605
0.029902
0.070956
0.104645
0.090355
0.062856
0.024452
-0.017348
-0.063863
-0.117495
-0.187759
-0.207881
-0.216988
-0.239283
-0.216706
-0.188855
-0.163588
-0.112689
-0.061565
-0.001662
0.035160
0.066717
0.079761
0.085106
0.074666
0.057608
0.015102
-0.033724
-0.079345
-0.118759
-0.171378
-0.203910
-0.232206
-0.272348
-0.265200
-0.167876
-0.148382
-0.137456
-0.086006
-0.043196
-0.006740
0.024049
0.059542
0.073501
0.056356
0.032722
0.007729
-0.051585
-0.111506
-0.149239
-0.175195
-0.197225
-0.256630
-0.249952
-0.220314
-0.225594
-0.191481
-0.141272
-0.081054
-0.053575
0.003497
0.033653
0.040878
0.063015
0.067198
0.041569
-0.005662
-0.043095
-0.112205
-0.150705
-0.181557
-0.216059
-0.229523
-0.251674
-0.230438
-0.205954
-0.167059
-0.129175
-0.105529
-0.062956
-0.031970
0.012990
0.061931
0.097646
0.085525
0.071720
0.046064
-0.014605
-0.066618
-0.103222
-0.160797
-0.178862
-0.198519
-0.200434
-0.222772
-0.179483
-0.142912
-0.115833
-0.070283
-0.030130
0.017614
0.071243
0.084677
0.092487
0.089089
0.068306
0.017789
-0.026663
-0.074983
-0.122730
-0.166688
-0.195056
-0.209746
-0.215252
-0.202783
-0.179358
-0.139674
-0.094012
-0.073195
-0.013791
0.041241
0.053264
0.087224
0.121062
0.115860
0.090769
0.044847
-0.001969
-0.041502
-0.101980
-0.128904
-0.165584
-0.225037
-0.229508
-0.174838
-0.171913
-0.144562
-0.112357
-0.064651
-0.011140
0.033364
0.072559
0.091351
0.105412
0.074379
0.026411
-0.010804
-0.052088
-0.108624
-0.150231
-0.177819
-0.209448
-0.244055
-0.262612
-0.239578
-0.198159
-0.163536
-0.114929
-0.085166
-0.041757
-0.011070
0.012891
0.032038
0.037369
0.024844
0.001876
-0.019912
-0.050222
-0.105508
-0.156633
-0.195764
-0.231713
-0.258729
-0.270265
-0.265210
-0.234145
-0.222479
-0.181314
-0.110617
-0.065870
-0.040991
-0.029768
0.005873
0.064447
0.029924
-0.025533
-0.062785
-0.102053
-0.160031
-0.185726
-0.214315
-0.257998
-0.300742
-0.303220
-0.279255
-0.248879
-0.240834
-0.188077
-0.142331
-0.062110
-0.028781
-0.007795
0.041255
0.037310
0.004822
-0.030373
-0.040060
-0.068887
-0.124992
-0.192598
-0.230247
-0.249226
-0.280237
-0.310587
-0.304009
-0.269200
-0.210629
-0.156696
-0.111203
-0.059846
-0.017363
-0.008482
0.009559
0.023187
0.013930
-0.006015
-0.048590
-0.094724
-0.131708
-0.178799
-0.230594
-0.274090
-0.293353
-0.292359
-0.277193
-0.254395
-0.216507
-0.165732
-0.109647
-0.073705
-0.027104
0.015911
0.055610
0.077957
0.100554
0.090619
0.050881
0.001226
0.000732
-0.015572
-0.084059
-0.133733
-0.132103
-0.085768
-0.043448
0.004606
0.056859
0.142098
0.239647
0.308817
0.367853
0.399725
0.476665
0.504893
0.508930
0.503720
0.512849
0.536564
0.503183
0.478625
0.451717
0.490014
0.509855
0.527044
0.526040
0.519396
0.533141
0.554146
0.608333
0.655678
0.654398
0.660097
0.623158
0.554304
0.477600
0.397334
0.310593
0.232143
0.145289
0.050906
-0.037783
-0.085457
-0.114291
-0.150170
-0.146187
-0.137827
-0.114443
-0.084053
-0.036807
-0.001084
0.048853
0.094091
0.128288
0.120389
0.089146
0.056681
0.014536
-0.021888
-0.063537
-0.115268
-0.150395
-0.210805
-0.218575
-0.185782
-0.192831
-0.195911
-0.144031
-0.107484
-0.065221
-0.017080
0.027304
0.060162
0.090664
0.084872
0.051777
0.025021
-0.008405
-0.047192
-0.090316
-0.129259
-0.158172
-0.188906
-0.210126
-0.223459
-0.238217
-0.206574
-0.164559
-0.121905
-0.100508
-0.043678
-0.027193
0.020521
0.070466
0.084045
0.068136
0.062803
0.032231
-0.018869
-0.078391
-0.115847
-0.184267
-0.209848
-0.230490
-0.248373
-0.224301
-0.211695
-0.161144
-0.104392
-0.046322
-0.005063
0.036073
0.068242
0.098210
0.109407
0.081065
0.052639
0.027986
-0.015886
-0.056153
-0.112050
-0.167930
-0.210548
-0.226062
-0.236038
-0.218133
-0.194312
-0.125734
-0.050906
-0.039316
-0.037005
0.007702
0.095711
0.132896
0.137168
0.098112
0.084894
0.037231
-0.010039
-0.074849
-0.122264
-0.120083
-0.138667
-0.160738
-0.187817
-0.188632
-0.153264
-0.112675
-0.062455
-0.020315
0.038419
0.089161
0.102214
0.100119
0.137742
0.150867
0.117779
0.088107
0.044550
0.003549
-0.052267
-0.099112
-0.123686
-0.140287
-0.142081
-0.122503
-0.094373
-0.057453
-0.035914
-0.015025
0.022704
0.084019
0.134673
0.166315
0.187247
0.157229
0.123126
0.080573
0.053180
0.025878
-0.030578
-0.055894
-0.097421
-0.113469
-0.127510
-0.106389
-0.081754
-0.054610
-0.015033
0.027767
0.076697
0.125797
0.162239
0.187308
0.190654
0.164738
0.143419
0.123842
0.076950
0.056212
0.003396
-0.054515
-0.102540
-0.119037
-0.142269
-0.136095
-0.119258
-0.090691
-0.022522
0.031208
0.082123
0.122684
0.149818
0.185332
0.181439
0.160508
0.136221
0.107244
0.061702
0.018262
-0.047764
-0.093180
-0.125153
-0.143702
-0.152763
-0.134598
-0.114914
-0.079827
-0.047637
-0.004107
0.047265
0.125301
0.156374
0.158333
0.108330
0.101383
0.085805
0.058787
0.004288
-0.031327
-0.062079
-0.107777
-0.156702
-0.209272
-0.223467
-0.189769
-0.153388
-0.127990
-0.093128
-0.054952
-0.004731
0.062953
0.095526
0.118814
0.102215
0.093420
0.085163
0.023408
-0.025511
-0.066404
-0.113777
-0.166427
-0.202543
-0.223780
-0.221468
-0.203056
-0.185271
-0.164190
-0.117946
-0.069400
-0.034306
0.004623
0.061126
0.085088
0.092366
0.080347
0.058099
0.028141
-0.011466
-0.070022
-0.125888
-0.168171
-0.194763
-0.247337
-0.235928
-0.239128
-0.222685
-0.180974
-0.146726
-0.106217
-0.048675
-0.002626
0.027261
0.020149
0.011123
0.030811
0.004252
-0.023784
-0.044077
-0.085910
-0.110201
-0.167234
-0.198587
-0.227519
-0.241679
-0.221981
-0.196512
-0.174284
-0.135379
-0.085298
-0.043672
-0.002706
0.029867
0.052633
0.064450
0.054805
0.032129
0.008762
-0.036888
-0.076097
-0.118273
-0.172889
-0.203957
-0.214785
-0.230133
-0.223858
-0.193907
-0.167770
-0.159570
-0.078884
-0.028783
0.001762
0.053450
0.077886
0.068893
0.049192
0.030291
-0.007814
-0.045778
-0.076058
-0.118541
-0.167996
-0.207038
-0.224734
-0.224556
-0.210628
-0.186425
-0.150741
-0.120916
-0.066841
-0.024636
-0.003952
0.048044
0.075533
0.088902
0.078887
0.060203
0.020713
-0.047474
-0.057332
-0.071551
-0.146617
-0.229644
-0.235452
-0.223240
-0.222045
-0.199655
-0.156685
-0.113442
-0.065107
-0.010931
0.038268
0.078931
0.083590
0.091000
0.083991
0.047736
0.017862
-0.025308
-0.078021
-0.123009
-0.170493
-0.223190
-0.217638
-0.227538
-0.223793
-0.175222
-0.128147
-0.122168
-0.087402
-0.020835
0.033733
0.066125
0.065375
0.084514
0.087866
0.079380
0.042052
-0.007543
-0.053703
-0.104993
-0.156202
-0.198011
-0.206263
-0.217042
-0.207483
-0.201538
-0.186233
-0.149206
-0.115677
-0.063908
0.023282
0.063758
0.061968
0.088322
0.081655
0.059254
0.014246
-0.012016
-0.074175
-0.106268
-0.162285
-0.179040
-0.198234
-0.231658
-0.229100
-0.197239
-0.181221
-0.116403
-0.082030
-0.043012
0.008168
0.038208
0.059841
0.055649
0.037117
0.028226
0.014826
-0.009608
-0.047793
-0.123100
-0.170932
-0.209767
-0.259646
-0.224311
-0.224107
-0.193178
-0.145522
-0.111253
-0.089318
-0.046367
0.010116
0.004131
0.049773
0.083381
0.080559
0.051672
-0.000110
-0.036563
-0.051935
-0.086596
-0.165393
-0.228184
-0.190305
-0.196973
-0.178034
-0.159754
-0.128491
-0.100662
-0.069893
-0.011888
0.041367
0.076145
0.095602
0.118239
0.105305
0.083914
0.040189
0.007673
-0.054713
-0.117798
-0.140456
-0.172878
-0.189646
-0.191146
-0.191516
-0.187649
-0.163961
-0.124222
-0.043388
0.006825
0.035810
0.078163
0.093922
0.114180
0.097841
0.085379
0.058274
0.026081
-0.037123
-0.093249
-0.130441
-0.150698
-0.194191
-0.204603
-0.189430
-0.152322
-0.127803
-0.074969
-0.044326
0.047920
0.107444
0.144787
0.129679
0.116915
0.128470
0.085906
0.030247
-0.038188
-0.032546
-0.050019
-0.116980
-0.205977
-0.226390
-0.248810
-0.248765
-0.186428
-0.134394
-0.105746
-0.073593
-0.040967
0.016390
0.061390
0.071365
0.068325
0.060940
0.018727
0.003148
-0.040117
-0.071729
-0.140816
-0.185051
-0.209456
-0.246417
-0.263684
-0.256451
-0.235807
-0.185193
-0.146364
-0.103965
-0.064529
-0.004272
0.024282
0.041587
0.041423
0.027771
0.017380
-0.028035
-0.053476
-0.100307
-0.134297
-0.185346
-0.234035
-0.263081
-0.264029
-0.254274
-0.236946
-0.199210
-0.166865
-0.122232
-0.064409
-0.019654
0.007251
0.031370
0.048018
0.019571
0.002080
-0.060698
-0.093167
-0.110112
-0.135161
-0.181392
-0.224961
-0.250591
-0.249945
-0.241902
-0.224400
-0.205791
-0.165572
-0.110622
-0.047221
-0.003670
0.016665
0.043505
0.049700
0.029066
0.014433
-0.028362
-0.063659
-0.101807
-0.148645
-0.191427
-0.236834
-0.253639
-0.272990
-0.283739
-0.271082
-0.195958
-0.130716
-0.082713
-0.045897
-0.006302
0.007477
0.041164
0.030244
0.011681
0.011174
-0.010396
-0.060419
-0.129422
-0.181367
-0.165921
-0.150053
-0.170801
-0.172648
-0.153887
-0.113602
-0.075677
-0.036371
0.032304
0.093427
0.184157
0.244775
0.269065
0.291274
0.327789
0.302933
0.278139
0.259663
0.253830
0.234400
0.247397
0.250247
0.262759
0.269012
0.305361
0.334089
0.435713
0.490591
0.608302
0.694940
0.770977
0.830605
0.855634
0.856157
0.839895
0.812929
0.740476
0.684592
0.614253
0.528227
0.428318
0.314717
0.227256
0.146412
0.116922
0.110180
0.089352
0.071564
0.091586
0.120506
0.114732
0.099552
0.121072
0.174732
0.186826
0.155201
0.079143
0.032782
0.001836
-0.047723
-0.102118
-0.162774
-0.163939
-0.166163
-0.167958
-0.150412
-0.111467
-0.079728
-0.039950
0.010593
0.035524
0.056535
0.090752
0.120364
0.123229
0.081813
0.040656
0.000656
-0.037280
-0.091544
-0.137987
-0.180086
-0.200635
-0.213662
-0.208204
-0.189009
-0.157030
-0.111878
-0.052873
-0.006674
0.039040
0.073850
0.087238
0.082171
0.058921
0.030789
0.007934
-0.023498
-0.042808
-0.101029
-0.150177
-0.194966
-0.210014
-0.226336
-0.196592
-0.164545
-0.145868
-0.113805
-0.041469
0.007153
0.031645
0.089765
0.099611
0.107971
0.090811
0.062526
0.012020
0.009237
-0.035040
-0.090885
-0.129898
-0.164358
-0.210402
-0.211448
-0.193753
-0.182217
-0.145171
-0.082193
-0.046155
0.009391
0.068495
0.099832
0.115259
0.132392
0.105731
0.097896
0.037030
-0.002341
-0.043486
-0.079662
-0.117574
-0.142823
-0.171286
-0.170361
-0.152229
-0.121619
-0.082372
-0.065818
-0.017829
0.049662
0.084494
0.117390
0.138987
0.150662
0.151580
0.133627
0.089582
0.053989
0.011904
-0.044685
-0.088171
-0.139813
-0.136914
-0.137378
-0.125072
-0.100407
-0.081631
-0.071501
0.002349
0.047313
0.115103
0.165752
0.190667
0.173730
0.184491
0.172127
0.119230
0.052019
0.017333
-0.020090
-0.032865
-0.091960
-0.114458
-0.113012
-0.094667
-0.073004
-0.044426
0.025536
0.071366
0.110622
0.151648
0.181473
0.203945
0.211841
0.193842
0.183202
0.137666
0.119367
0.072205
0.036604
-0.005894
-0.057843
-0.077599
-0.091030
-0.080172
-0.062016
-0.022796
0.023128
0.065382
0.107398
0.157043
0.195767
0.210976
0.207635
0.186592
0.137403
0.124566
0.103908
0.046497
-0.018940
-0.058288
-0.084121
-0.119152
-0.112116
-0.073656
-0.067404
-0.029050
0.038510
0.049203
0.048682
0.108459
0.153702
0.175360
0.192053
0.200951
0.176085
0.110757
0.086162
0.045223
-0.009190
-0.069653
-0.095694
-0.122884
-0.149053
-0.145406
-0.145874
-0.112341
-0.049201
-0.013132
0.038493
0.087624
0.137498
0.172232
0.161637
0.140545
0.121739
0.064081
0.023021
-0.058168
-0.085320
-0.108148
-0.146967
-0.193284
-0.182186
-0.153388
-0.132832
-0.104381
-0.072199
-0.039340
0.014810
0.047269
0.059076
0.093695
0.123097
0.114597
0.084089
0.062545
-0.008566
-0.098925
-0.090920
-0.146025
-0.185584
-0.236820
-0.221033
-0.175919
-0.158087
-0.119152
-0.091840
-0.046582
0.004315
0.040072
0.085855
0.092717
0.088946
0.064932
0.057225
0.034519
-0.031670
-0.079079
-0.123373
-0.173600
-0.217170
-0.208966
-0.214125
-0.220394
-0.189363
-0.166641
-0.120673
-0.064329
-0.018825
0.019595
0.055258
0.073183
0.098397
0.084415
0.064048
0.035424
-0.017483
-0.073308
-0.113788
-0.171104
-0.196429
-0.208196
-0.208066
-0.241524
-0.212146
-0.164395
-0.118916
-0.091225
-0.020700
0.035992
0.074404
0.083095
0.091419
0.084060
0.087503
0.031584
-0.020375
-0.051264
-0.100760
-0.160245
-0.178194
-0.184114
-0.194508
-0.199923
-0.180802
-0.128347
-0.088508
-0.041753
-0.020795
0.014238
0.079522
0.105217
0.092768
0.082552
0.048272
0.025078
-0.027377
-0.083760
-0.112388
-0.140586
-0.196513
-0.206823
-0.204968
-0.201948
-0.179941
-0.142030
-0.127738
-0.076922
-0.000366
0.068535
0.099146
0.116447
0.120688
0.091240
0.063049
0.045452
0.005318
-0.028273
-0.066138
-0.108634
-0.152293
-0.164112
-0.183188
-0.182224
-0.149308
-0.122479
-0.088191
-0.036765
0.006479
0.051563
0.091784
0.114936
0.132236
0.119152
0.093265
0.043750
0.007252
-0.034358
-0.086741
-0.143173
-0.155246
-0.174303
-0.205174
-0.208206
-0.162545
-0.144075
-0.148058
-0.089760
-0.010912
0.045799
0.119653
0.139012
0.129965
0.112901
0.044634
0.028405
0.011495
-0.037962
-0.098669
-0.124002
-0.170942
-0.204681
-0.229900
-0.227318
-0.154410
-0.098562
-0.067644
-0.039142
-0.003145
0.031250
0.073609
0.087483
0.105984
0.091152
0.060780
0.031147
0.004828
-0.056248
-0.113796
-0.124003
-0.205350
-0.221083
-0.197877
-0.185785
-0.183312
-0.148559
-0.112735
-0.046225
0.014111
0.038421
0.077568
0.132198
0.091335
0.060784
0.027247
0.014921
-0.005870
-0.025272
-0.076658
-0.142423
-0.173569
-0.186759
-0.190746
-0.184965
-0.164345
-0.161261
-0.109988
-0.062005
-0.026751
0.049179
0.099111
0.111048
0.110269
0.089210
0.072902
0.037979
0.017196
-0.034664
-0.093742
-0.170386
-0.215526
-0.181071
-0.146905
-0.169566
-0.169386
-0.161170
-0.120863
-0.072796
-0.005209
0.053949
0.106973
0.136587
0.126387
0.094994
0.059439
0.051814
0.016274
-0.089002
-0.130250
-0.077011
-0.114217
-0.133819
-0.159184
-0.171588
-0.160319
-0.087225
-0.057759
-0.023027
0.026627
0.090546
0.176747
0.136783
0.104606
0.102544
0.103968
0.083750
0.024369
-0.036615
-0.119497
-0.140858
-0.166748
-0.159947
-0.193046
-0.198985
-0.183958
-0.152051
-0.090999
-0.020652
0.049460
0.108477
0.152385
0.139776
0.112969
0.101102
0.134123
0.100702
0.052050
0.027721
-0.034964
-0.122792
-0.153337
-0.091458
-0.096274
-0.131680
-0.092166
-0.050813
-0.028017
-0.025024
0.041934
0.096134
0.134394
0.176188
0.153542
0.122229
0.106861
0.065626
0.015275
-0.055494
-0.083276
-0.127751
-0.170415
-0.166840
-0.180493
-0.186142
-0.140044
-0.098735
-0.093597
-0.051466
-0.009359
0.042187
0.071155
0.069500
0.096265
0.121097
0.112182
0.065823
0.016775
-0.043082
-0.103509
-0.151124
-0.186030
-0.215470
-0.210796
-0.181918
-0.212042
-0.150699
-0.133166
-0.101438
-0.098929
-0.052824
0.081902
0.126026
0.091125
0.056690
0.030935
0.016018
-0.029591
-0.064056
-0.102957
-0.145802
-0.206951
-0.235197
-0.233596
-0.200049
-0.165129
-0.149952
-0.125029
-0.065316
-0.003177
0.052601
0.036378
0.018752
0.040289
0.049117
0.059988
0.008229
-0.017434
-0.068474
-0.093989
-0.134553
-0.164671
-0.218163
-0.237098
-0.193051
-0.174818
-0.136128
-0.132469
-0.093240
-0.026508
0.036829
0.069817
0.057098
0.067116
0.062029
0.069169
0.057716
0.007958
-0.047821
-0.135179
-0.204240
-0.182412
-0.190677
-0.240106
-0.242731
-0.165215
-0.118460
-0.095410
-0.050941
-0.023399
0.032642
0.067579
0.095433
0.113767
0.115285
0.084716
0.056839
0.039764
0.018747
-0.033387
-0.063161
-0.103402
-0.113496
-0.093891
-0.075331
-0.048927
0.029630
0.102282
0.138608
0.184790
0.291115
0.406050
0.456526
0.489942
0.482369
0.510668
0.496664
0.418477
0.418325
0.378407
0.416158
0.413536
0.433881
0.477028
0.525582
0.577483
0.624195
0.695539
0.761010
0.763113
0.829029
0.891564
0.880470
0.842947
0.808074
0.758706
0.657329
0.519479
0.365876
0.251753
0.192710
0.135047
0.114423
0.035980
-0.010367
0.000617
0.035893
0.065624
0.124098
0.159575
0.178333
0.171954
0.172053
0.205107
0.218228
0.169784
0.128735
0.062340
0.035305
-0.001645
-0.051638
-0.097739
-0.133275
-0.176963
-0.138241
-0.079557
-0.066188
-0.041777
0.032249
0.087210
0.139267
0.137934
0.126860
0.095740
0.095802
0.039225
0.079899
0.069695
0.001551
-0.073801
-0.174496
-0.208743
-0.195381
-0.132385
-0.107315
-0.097254
-0.071673
-0.062982
-0.032517
0.017093
0.083591
0.144908
0.159307
0.142054
0.130390
0.122183
0.094788
0.018865
-0.077100
-0.108157
-0.124728
-0.154657
-0.138355
-0.136763
-0.149502
-0.157462
-0.124283
-0.042262
0.005312
0.076156
0.042413
0.057758
0.150049
0.235565
0.138964
0.098524
0.083414
0.021578
-0.005962
-0.052746
-0.081704
-0.136015
-0.152976
-0.174823
-0.188339
-0.153446
-0.027548
-0.014755
-0.064231
0.024778
0.106289
0.133251
0.147390
0.193157
0.174797
0.122030
0.133145
0.095030
0.025178
0.002780
-0.025085
-0.068384
-0.089962
-0.119308
-0.118378
-0.099937
-0.055455
-0.009279
0.057016
0.108467
0.132994
0.190353
0.129863
0.160490
0.180731
0.123177
0.145702
0.135684
0.046172
0.043611
0.022862
-0.033753
-0.028553
0.004344
-0.038107
-0.116758
-0.104827
-0.012301
0.064024
0.137922
0.178657
0.188942
0.196977
0.221410
0.173886
0.157555
0.142268
0.143573
0.102224
0.025712
0.008731
-0.079568
-0.151974
-0.143999
-0.057886
0.000982
0.050810
0.090992
0.140139
0.164961
0.216759
0.244689
0.256397
0.257621
0.251253
0.222624
0.192427
0.144504
0.095661
0.036396
0.001890
-0.015675
-0.011856
-0.018431
-0.016262
-0.046696
-0.015507
0.108511
0.163013
0.178191
0.197048
0.224050
0.212031
0.281599
0.303277
0.221511
0.155061
0.162889
0.127860
0.021720
0.019287
-0.016840
-0.089124
-0.097232
-0.025192
-0.009995
-0.045715
0.124809
0.123441
0.069325
0.083681
0.202353
0.210946
0.242711
0.203175
0.188565
0.169744
0.085318
0.045120
0.035139
-0.047498
-0.154990
-0.165413
-0.126603
-0.140453
-0.101358
-0.053564
0.015010
0.059684
0.121834
0.179185
0.210960
0.214045
0.253186
0.227928
0.131742
0.016745
0.037717
0.030549
-0.017750
-0.058802
-0.098039
-0.136442
-0.200908
-0.211085
-0.158470
-0.116307
-0.035298
0.030755
0.061379
0.094275
0.152095
0.148687
0.166926
0.162793
0.129525
0.035714
-0.023378
0.023444
0.028507
-0.090151
-0.141531
-0.142631
-0.163457
-0.158104
-0.088135
-0.096612
-0.097016
-0.069432
-0.034034
0.055470
0.110823
0.134480
0.100239
0.121528
0.105204
0.053445
0.037622
-0.053433
-0.087778
-0.106307
-0.146055
-0.147560
-0.168046
-0.160392
-0.194852
-0.132115
-0.044934
0.013190
0.062230
0.060751
0.049379
0.111166
0.132752
0.127285
0.095023
0.069337
0.066434
0.011864
-0.093628
-0.097678
-0.166533
-0.221411
-0.247345
-0.183756
-0.123999
-0.079507
-0.043027
-0.038608
0.019211
0.075347
0.112784
0.122590
0.108609
0.111501
0.124758
0.086612
0.006593
-0.043849
-0.057197
-0.093142
-0.129843
-0.171531
-0.200965
-0.181096
-0.092815
-0.106672
-0.085194
-0.026455
0.026028
0.071149
0.101805
0.112047
0.121841
0.168328
0.132840
0.109606
0.052252
-0.003842
-0.053592
-0.129143
-0.153545
-0.263194
-0.225852
-0.169336
-0.222840
-0.196396
-0.092753
-0.060141
-0.008959
0.058221
0.108418
0.180807
0.236888
0.191888
0.175445
0.168286
0.115914
-0.021418
-0.057479
-0.091039
-0.142777
-0.144656
-0.153158
-0.149542
-0.101501
-0.109987
-0.063527
0.066328
0.081217
0.133658
0.083386
0.069055
0.137422
0.158800
0.124009
0.111661
0.082302
0.034577
-0.013035
-0.068276
-0.167170
-0.179009
-0.192985
-0.190543
-0.139107
-0.086106
-0.024250
-0.009396
0.039434
0.083587
0.119050
0.139214
0.134443
0.161092
0.094748
0.072592
0.048714
-0.009487
-0.069168
-0.111068
-0.138789
-0.220428
-0.204380
-0.153925
-0.124761
-0.063259
-0.066326
-0.060841
-0.039479
0.015104
0.024221
0.070472
0.129626
0.179356
0.099512
0.039099
0.005995
0.007433
-0.076407
-0.097750
-0.115595
-0.176774
-0.172076
-0.162769
-0.161079
-0.131677
-0.046688
-0.022814
-0.010366
0.037153
0.075794
0.087326
0.112543
0.145413
0.087161
0.077124
0.069040
0.055792
-0.048235
-0.101667
-0.124555
-0.143670
-0.166251
-0.146498
-0.138195
-0.085483
-0.025506
-0.033262
0.019019
0.091810
0.084310
0.105622
0.121611
0.124441
0.101923
0.097436
0.057617
-0.000669
-0.050135
-0.150021
-0.224871
-0.173694
-0.179271
-0.165078
-0.161607
-0.080729
0.013601
-0.047883
0.026501
0.016467
0.079179
0.106122
0.136016
0.132489
0.118508
0.084320
-0.018636
-0.053488
-0.054394
-0.108556
-0.150545
-0.196366
-0.176393
-0.184936
-0.186240
-0.139134
-0.099398
-0.055161
0.041706
0.080657
0.076521
0.144358
0.166150
0.145750
0.114796
0.098844
0.025388
-0.006391
-0.054037
-0.097632
-0.121717
-0.199123
-0.177067
-0.127774
-0.145174
-0.092122
-0.046210
-0.042005
0.034204
0.069821
0.130851
0.169415
0.139809
0.146889
0.125092
0.088148
0.060976
-0.022531
-0.078205
-0.114969
-0.130361
-0.148089
-0.130323
-0.122130
-0.088067
-0.058474
-0.037834
0.013315
0.024136
0.100038
0.147536
0.129612
0.188845
0.206780
0.184962
0.147210
0.103294
0.005575
-0.027959
-0.074730
-0.099686
-0.113150
-0.109356
-0.114382
-0.097360
-0.050975
-0.012605
0.021984
0.077914
0.121533
0.101657
0.161568
0.138078
0.103062
0.111990
0.066585
0.040514
-0.001618
-0.092302
-0.128989
-0.164619
-0.163196
-0.170790
-0.168321
-0.144906
-0.122182
-0.059162
-0.013642
-0.000790
0.034211
0.085485
0.108583
0.109999
0.090271
0.058919
0.038665
0.003127
-0.043819
-0.071950
-0.111611
-0.161859
-0.220890
-0.212346
-0.156320
-0.142722
-0.119779
-0.079060
-0.034490
0.023111
0.084730
0.092564
0.064348
0.073564
0.081270
0.043398
0.037481
-0.009288
-0.065408
-0.083776
-0.119781
-0.193448
-0.220742
-0.222770
-0.206377
-0.131552
-0.105454
-0.096710
-0.074385
-0.018912
0.054711
0.081280
0.147574
0.098052
0.055110
0.095232
0.067782
0.001012
-0.040663
-0.113248
-0.184231
-0.180785
-0.160198
-0.161961
-0.188822
-0.153445
-0.128208
-0.086120
-0.067565
-0.032619
0.004996
0.055228
0.101360
0.116110
0.099314
0.084274
0.043911
0.004316
-0.083732
-0.095838
-0.137262
-0.159927
-0.170137
-0.170586
-0.192743
-0.182487
-0.169479
-0.197258
-0.094498
-0.042814
0.040161
0.091928
0.101808
0.086908
0.088840
0.080396
0.074948
0.030709
-0.012301
-0.052663
-0.103797
-0.105665
-0.107166
-0.130336
-0.112967
-0.085115
-0.002372
0.043405
0.136663
0.239507
0.281870
0.306191
0.347383
0.398304
0.417309
0.413092
0.416379
0.399934
0.409601
0.401393
0.359694
0.346348
0.357102
0.379151
0.410290
0.499121
0.592193
0.716711
0.800550
0.844647
0.847184
0.881595
0.884086
0.911135
0.902458
0.862466
0.763750
0.668713
0.603277
0.498088
0.387106
0.277404
0.146758
0.133638
0.106176
0.062051
0.056024
0.083738
0.106635
0.156762
0.191150
0.224283
0.234607
0.260652
0.227260
0.220223
0.179694
0.112533
0.022134
-0.011553
-0.040612
-0.106890
-0.121991
-0.107291
-0.079715
-0.101396
-0.085281
-0.004416
0.041456
0.075465
0.115443
0.156387
0.176786
0.172388
0.167961
0.180710
0.145719
0.089274
-0.015220
-0.078430
-0.120613
-0.159706
-0.180551
-0.170509
-0.160397
-0.150959
-0.119516
-0.068407
0.002041
0.041692
0.076385
0.127939
0.165748
0.163221
0.169384
0.150685
0.112433
0.075727
0.013127
-0.034321
-0.088579
-0.183222
-0.190786
-0.154020
-0.121130
-0.086585
-0.073630
-0.024041
-0.057491
0.025539
0.103514
0.136154
0.158842
0.180767
0.166698
0.139608
0.098173
0.049625
0.004877
-0.028188
-0.068593
-0.105410
-0.133039
-0.143737
-0.140961
-0.118019
-0.089666
-0.024696
0.042173
0.088163
0.106407
0.122680
0.154153
0.156463
0.176760
0.139751
0.099805
0.062671
0.010518
-0.024783
-0.049305
-0.073734
-0.122129
-0.130483
-0.100011
-0.091346
-0.032021
0.009942
0.030387
0.053745
0.134645
0.180550
0.219877
0.227563
0.245935
0.222732
0.143660
0.120868
0.053089
0.002275
-0.026735
-0.034629
-0.106696
-0.115145
-0.088028
-0.065890
-0.009613
0.036211
0.083374
0.142157
0.179549
0.206819
0.223133
0.256607
0.243590
0.203726
0.175513
0.154424
0.097882
0.033216
-0.012389
-0.033082
-0.025780
-0.033285
-0.025754
0.019268
0.070907
0.106725
0.104893
0.135325
0.200001
0.239596
0.275888
0.275773
0.264269
0.239701
0.207167
0.171763
0.117677
0.066072
0.014380
0.007568
-0.017791
-0.031712
-0.009675
-0.001504
0.000297
0.028664
0.087508
0.154685
0.213667
0.237457
0.242607
0.267223
0.283267
0.258811
0.209743
0.163788
0.126137
0.057850
0.027884
-0.033415
-0.058098
-0.070555
-0.055867
-0.050713
-0.011087
0.038592
0.088724
0.152786
0.180007
0.221188
0.256244
0.257173
0.250523
0.214802
0.181228
0.122170
0.078398
0.029257
-0.013298
-0.061768
-0.098448
-0.085543
-0.078403
-0.064812
-0.037691
0.030959
0.096523
0.141363
0.145333
0.153596
0.162611
0.184553
0.176018
0.143909
0.118408
0.070055
0.025467
-0.028374
-0.077507
-0.113139
-0.119071
-0.110169
-0.083007
-0.082940
-0.056827
-0.040836
-0.020149
0.028299
0.093914
0.104913
0.182149
0.165170
0.157012
0.062177
0.034225
0.070386
0.020329
-0.054300
-0.121459
-0.156406
-0.158923
-0.142910
-0.147903
-0.123555
-0.082453
-0.028550
0.011592
0.063954
0.100232
0.132581
0.154492
0.143127
0.135156
0.122024
0.101747
0.050922
-0.002147
-0.023814
-0.064826
-0.107349
-0.157540
-0.185011
-0.162703
-0.148753
-0.137195
-0.016344
0.041086
0.065713
0.139033
0.154291
0.081192
0.069709
0.116197
0.117727
0.067258
0.017015
-0.020315
-0.050839
-0.087919
-0.115160
-0.142802
-0.155977
-0.146070
-0.117394
-0.078308
-0.041428
-0.003512
0.043732
0.076654
0.118178
0.139221
0.129586
0.131317
0.121965
0.102636
0.052080
-0.021043
-0.069375
-0.093380
-0.120759
-0.141061
-0.140947
-0.155747
-0.129981
-0.101851
-0.063755
-0.030278
0.026479
0.108399
0.140695
0.152367
0.173407
0.143220
0.148861
0.097495
0.024993
-0.025324
-0.064498
-0.096201
-0.119985
-0.147365
-0.157316
-0.148050
-0.143197
-0.115095
-0.045619
0.005544
0.052388
0.079599
0.093896
0.138773
0.152539
0.141847
0.132060
0.138152
0.099962
0.022999
-0.035882
-0.080533
-0.125812
-0.143852
-0.144746
-0.151349
-0.137805
-0.110773
-0.059931
-0.017927
0.027767
0.077818
0.103781
0.118115
0.136351
0.151396
0.133700
0.090150
0.027699
-0.036085
-0.082848
-0.113800
-0.142615
-0.139267
-0.145675
-0.103341
-0.044171
-0.034612
-0.054478
-0.019780
0.031378
0.111640
0.146704
0.181007
0.188216
0.181236
0.120118
0.030811
-0.023187
-0.011805
-0.036576
-0.065307
-0.115132
-0.119840
-0.155061
-0.179079
-0.130825
-0.070963
-0.032152
0.000659
0.044659
0.086130
0.110840
0.155495
0.167209
0.144747
0.106358
0.070414
0.019125
0.020095
-0.028680
-0.130534
-0.142619
-0.164643
-0.188506
-0.164933
-0.149617
-0.106111
-0.052486
-0.008907
0.035018
0.074766
0.109414
0.120284
0.120243
0.092792
0.085028
0.082645
0.043688
0.003055
-0.049987
-0.101638
-0.141449
-0.178436
-0.188134
-0.187697
-0.163673
-0.132356
-0.088542
-0.039713
-0.003190
0.040454
0.076976
0.110441
0.134709
0.119403
0.090249
0.066470
0.034449
-0.007368
-0.036450
-0.090119
-0.153490
-0.174910
-0.178409
-0.180255
-0.158117
-0.095981
-0.036164
0.006501
0.029029
0.070974
0.085246
0.123916
0.145285
0.149293
0.112309
0.050684
0.015613
0.001158
-0.043796
-0.125497
-0.170268
-0.170648
-0.199868
-0.190739
-0.173095
-0.130672
-0.083537
-0.041334
-0.031822
0.048510
0.102261
0.113889
0.101774
0.080143
0.110445
0.060080
0.022540
-0.031538
-0.099349
-0.112066
-0.143554
-0.192069
-0.195473
-0.170081
-0.131017
-0.093105
-0.038879
0.027706
0.065380
0.116607
0.158094
0.181590
0.189461
0.164980
0.136400
0.077343
0.045743
0.042943
-0.037968
-0.089840
-0.117259
-0.140355
-0.134565
-0.163800
-0.160684
-0.094230
-0.038435
0.017663
0.038199
0.116272
0.142307
0.145240
0.159539
0.164075
0.145430
0.098884
0.042099
-0.011433
-0.071031
-0.082267
-0.126036
-0.166249
-0.186975
-0.180281
-0.153998
-0.103057
-0.060835
0.010862
0.065623
0.097470
0.133710
0.168890
0.187595
0.189027
0.160257
0.123169
0.088113
0.068203
0.014978
-0.045265
-0.082711
-0.102111
-0.095521
-0.159405
-0.140201
-0.109735
-0.062992
-0.020148
0.030968
0.091855
0.115902
0.081036
0.111209
0.141124
0.164761
0.113526
0.057468
0.021337
-0.024685
-0.100395
-0.128147
-0.133404
-0.165965
-0.142914
-0.134955
-0.108913
-0.038852
-0.035856
-0.022574
0.028096
0.065988
0.078900
0.067184
0.072523
0.053082
0.051253
0.019775
-0.051460
-0.073217
-0.118418
-0.145811
-0.149252
-0.158282
-0.185687
-0.165405
-0.136054
-0.112786
-0.060834
-0.015687
0.031891
0.061148
0.127940
0.121907
0.120568
0.056183
0.010616
0.015963
-0.029748
-0.090617
-0.149997
-0.190911
-0.185850
-0.161291
-0.200411
-0.211298
-0.183961
-0.136258
-0.064042
-0.028987
0.016771
0.046276
0.051153
0.110660
0.090954
0.007155
-0.002757
-0.038878
-0.043877
-0.101725
-0.145830
-0.166783
-0.200164
-0.183214
-0.146258
-0.121330
-0.072770
-0.078843
-0.071123
-0.063264
-0.041268
0.022036
0.051114
0.079702
0.114507
0.108229
0.042766
-0.007937
-0.042890
-0.127195
-0.169731
-0.172011
-0.212537
-0.263326
-0.245499
-0.217010
-0.133267
-0.109948
-0.075843
-0.028478
0.049690
0.105778
0.125183
0.154168
0.159847
0.149087
0.112781
0.040814
0.013026
-0.015674
-0.026203
-0.044225
0.003075
0.021257
-0.006716
0.002306
0.049077
0.068639
0.125664
0.238212
0.316860
0.385623
0.443056
0.501475
0.548909
0.541898
0.501662
0.527695
0.557497
0.481275
0.458922
0.548985
0.513717
0.550577
0.532815
0.609174
0.717866
0.743848
0.754413
0.863825
0.846949
0.822089
0.841763
0.833875
0.782493
0.705196
0.543894
0.406669
0.361320
0.306675
0.204324
0.072072
0.022734
-0.003553
-0.040366
-0.037682
0.010526
0.058323
0.152923
0.174525
0.206155
0.155213
0.153781
0.176472
0.135143
0.133561
0.141954
0.071081
0.076801
0.058442
0.014005
-0.045319
-0.107598
-0.103188
-0.120333
-0.153762
-0.113297
-0.014608
0.024708
0.017629
0.099193
0.116944
0.146809
0.150542
0.174147
0.131474
0.069233
0.080277
0.036927
-0.078287
-0.142861
-0.130404
-0.170436
-0.163512
-0.142777
-0.145172
-0.096228
0.003854
0.051947
0.084580
0.148545
0.149380
0.140089
0.135224
0.131890
0.094894
0.071167
0.043433
-0.031062
-0.056385
-0.102089
-0.136630
-0.129643
-0.165259
-0.205027
-0.181246
-0.116616
-0.053416
0.047222
0.027011
0.082396
0.086027
0.108806
0.098908
0.126235
0.097731
0.099701
0.068175
0.056878
0.006059
-0.069311
-0.118112
-0.215299
-0.187075
-0.126658
-0.074806
-0.056574
-0.069286
0.018113
0.065619
0.135000
0.159153
0.189438
0.178345
0.180268
0.154534
0.134568
0.056622
0.027006
-0.004959
-0.073753
-0.100438
-0.111325
-0.111259
-0.110970
-0.081487
-0.054352
-0.019525
0.064077
0.129264
0.161701
0.189372
0.203694
0.215208
0.189009
0.210549
0.195246
0.124430
0.074397
0.033606
-0.057008
-0.048594
-0.082825
-0.129097
-0.108992
-0.046225
-0.027416
-0.005853
0.020962
0.072380
0.135063
0.157634
0.227968
0.244745
0.246446
0.231802
0.218497
0.162770
0.113449
0.058886
0.001553
-0.029633
-0.054828
-0.030003
-0.060665
-0.042767
-0.032561
0.034221
0.066509
0.134278
0.174946
0.236848
0.279296
0.258277
0.252797
0.233439
0.224997
0.168116
0.118733
0.053676
0.009945
-0.050815
-0.130653
-0.121313
-0.052253
-0.011265
0.020471
0.074069
0.111179
0.148593
0.184701
0.273460
0.257156
0.244153
0.247382
0.211753
0.219357
0.170289
0.101577
0.039450
-0.008057
-0.030418
-0.024320
-0.023459
-0.028851
-0.040484
-0.030836
0.020399
0.084955
0.107600
0.147274
0.181895
0.210871
0.249962
0.209761
0.205541
0.165875
0.132317
0.105457
0.013097
-0.047149
-0.073136
-0.119758
-0.131998
-0.141558
-0.117395
-0.074388
-0.018336
0.021381
0.092145
0.106735
0.096064
0.141027
0.132926
0.122592
0.140445
0.117224
0.064815
0.053245
-0.040288
-0.069780
-0.118529
-0.159896
-0.141348
-0.136087
-0.113319
-0.081100
-0.059235
-0.042756
-0.006239
0.087721
0.111656
0.103091
0.132626
0.136560
0.087595
0.054637
0.016139
-0.027385
-0.050112
-0.114023
-0.165838
-0.176093
-0.209897
-0.223744
-0.177849
-0.151182
-0.121271
-0.026609
0.044300
0.084566
0.110450
0.137697
0.107050
0.085454
0.078182
0.043872
0.009164
-0.021323
-0.081757
-0.112208
-0.130224
-0.207977
-0.236332
-0.199457
-0.165728
-0.109288
-0.086349
-0.035893
0.044206
0.080583
0.123706
0.143800
0.112695
0.110629
0.107435
0.079830
-0.004341
-0.046434
-0.082610
-0.140770
-0.162091
-0.219513
-0.233345
-0.202890
-0.175298
-0.118428
-0.099843
-0.037200
-0.028835
0.015032
0.084018
0.109825
0.101077
0.097885
0.057992
0.025207
-0.022027
-0.045644
-0.071490
-0.088109
-0.093616
-0.147514
-0.159362
-0.186530
-0.183244
-0.143773
-0.115867
-0.042507
0.007282
0.070398
0.129362
0.151203
0.145315
0.124463
0.091430
0.054352
0.027397
-0.003110
-0.052351
-0.116214
-0.154636
-0.171656
-0.174241
-0.180471
-0.156414
-0.101188
-0.058854
-0.022953
0.037064
0.036053
0.079102
0.110416
0.158370
0.160220
0.098078
0.021889
-0.000322
-0.002516
-0.022372
-0.035615
-0.148402
-0.183917
-0.176058
-0.144427
-0.226909
-0.153027
-0.073768
-0.035825
0.020904
0.078388
0.104188
0.101308
0.128314
0.135302
0.108039
0.092887
0.084532
-0.021392
-0.055936
-0.114495
-0.170590
-0.172051
-0.191596
-0.202638
-0.158768
-0.107415
-0.088904
-0.038973
-0.060253
0.008464
0.058392
0.102784
0.128213
0.137851
0.109760
0.069449
0.011210
-0.052048
-0.098362
-0.149620
-0.203576
-0.207801
-0.195357
-0.164375
-0.110276
-0.085808
-0.073941
-0.002094
0.024390
0.054784
0.079160
0.113017
0.119570
0.107427
0.092334
0.070798
0.054782
0.005698
-0.048810
-0.102296
-0.144011
-0.159174
-0.189907
-0.189647
-0.168194
-0.141624
-0.110156
-0.046936
-0.007900
0.081427
0.102126
0.105518
0.088249
0.080047
0.063853
0.057525
0.028867
-0.016370
-0.066510
-0.091091
-0.157773
-0.200625
-0.226556
-0.198897
-0.142492
-0.097829
-0.044995
-0.105787
-0.102901
0.015879
0.067496
0.094335
0.075194
0.067843
0.082923
0.072945
0.035306
-0.029630
-0.081210
-0.110692
-0.138744
-0.204006
-0.221303
-0.205123
-0.135267
-0.078656
-0.021668
0.034096
0.061595
0.110871
0.111738
0.042968
0.064917
0.085879
0.086722
0.036607
-0.017117
-0.094406
-0.086010
-0.110295
-0.168398
-0.212049
-0.190390
-0.195204
-0.219279
-0.184769
-0.115456
-0.046663
0.017559
0.111146
0.142276
0.171852
0.178304
-0.010969
-0.041893
0.000615
0.055337
0.001925
-0.097371
-0.144017
-0.176446
-0.171857
-0.248345
-0.279547
-0.245425
-0.152220
-0.059882
0.034368
0.051793
0.104145
0.095435
0.123742
0.104420
0.112877
0.135684
0.107664
0.029322
-0.059297
-0.071197
-0.140609
-0.168490
-0.208927
-0.216497
-0.167873
-0.162486
-0.143553
-0.090032
-0.035157
0.005146
0.061311
0.089182
0.112150
0.120465
0.138202
0.145408
0.112509
0.086562
-0.031834
-0.121985
-0.118084
-0.140132
-0.161901
-0.153666
-0.172680
-0.135882
-0.103297
-0.045568
0.007238
0.039896
0.094087
0.112204
0.128492
0.130195
0.127103
0.116007
0.111262
0.053561
0.002296
-0.032204
-0.070288
-0.105373
-0.154383
-0.146586
-0.129454
-0.117468
-0.076272
-0.041354
-0.001812
0.034083
0.103771
0.154940
0.161641
0.148128
0.147761
0.121079
0.089301
0.060840
0.035497
0.034930
-0.026089
-0.063175
-0.107180
-0.128973
-0.110290
-0.064107
-0.050210
-0.007356
0.025502
0.050469
0.083144
0.118334
0.152675
0.157807
0.160975
0.125336
0.056186
0.008910
-0.021613
-0.078876
-0.112415
-0.159439
-0.178703
-0.213604
-0.186752
-0.120175
-0.103208
-0.073433
-0.029748
0.041844
0.103431
0.109110
0.143224
0.147575
0.124527
0.076747
0.019383
-0.015170
-0.025699
-0.070927
-0.137031
-0.171770
-0.163834
-0.186994
-0.174312
-0.160518
-0.114593
-0.089786
-0.084129
-0.029383
0.040502
0.105933
0.139860
0.129673
0.154205
0.107274
0.014417
-0.006585
-0.033928
-0.066601
-0.120246
-0.199925
-0.205658
-0.223620
-0.240001
-0.201792
-0.146191
-0.091712
-0.043630
-0.021820
0.033196
0.105200
0.127753
0.107159
0.096283
0.064831
0.050329
0.043620
0.004787
-0.048030
-0.091855
-0.163030
-0.267042
-0.224403
-0.183803
-0.249930
-0.210766
-0.112798
-0.061050
0.034240
0.073670
0.108733
0.109661
0.105283
0.105547
0.084658
0.020772
0.019936
-0.013943
-0.090288
-0.157093
-0.180568
-0.191614
-0.207288
-0.208998
-0.186676
-0.105230
-0.044967
-0.032548
-0.032599
-0.006399
0.007602
0.081366
0.094894
0.091964
0.070143
0.034132
0.008592
-0.007517
-0.048616
-0.070169
-0.103558
-0.114418
-0.101895
-0.085983
-0.044207
0.030688
0.057962
0.105336
0.188469
0.251543
0.321784
0.355935
0.343536
0.361447
0.411543
0.429919
0.418712
0.405261
0.378181
0.362355
0.338531
0.355041
0.384137
0.458687
0.521737
0.614909
0.649805
0.728725
0.778039
0.834980
0.947221
0.945865
0.974984
0.906322
0.864125
0.745988
0.656003
0.602174
0.459875
0.349756
0.253235
0.184379
0.159649
0.110568
0.084579
0.063659
0.079272
0.138264
0.170207
0.213826
0.244912
0.246914
0.179051
0.199517
0.234408
0.181683
0.108526
0.091684
0.011939
-0.056309
-0.064603
-0.106719
-0.143205
-0.124656
-0.108849
-0.059544
-0.022663
-0.013070
0.069162
0.103249
0.110641
0.119028
0.128493
0.151318
0.131803
0.075313
0.042759
0.010189
-0.058006
-0.105095
-0.133644
-0.127414
-0.122220
-0.136381
-0.121842
-0.068389
-0.031048
-0.019555
0.008431
0.042010
0.082152
0.113419
0.150633
0.146309
0.103697
0.100489
0.063189
0.014143
-0.034733
-0.081726
-0.100240
-0.122207
-0.120043
-0.123216
-0.118703
-0.104428
-0.064403
0.007516
0.019442
0.084709
0.129145
0.155336
0.173518
0.137220
0.122193
0.070284
0.016839
-0.008029
-0.068746
-0.055841
-0.109627
-0.155491
-0.128039
-0.117597
-0.112755
-0.084721
-0.072057
0.015596
0.059863
0.100438
0.191850
0.212656
0.182411
0.208575
0.154468
0.108808
0.079273
0.020838
-0.017908
-0.069218
-0.112094
-0.168213
-0.154524
-0.158782
-0.120768
-0.081630
-0.024546
0.043468
0.132739
0.176468
0.175368
0.208427
0.216374
0.186771
0.182015
0.162837
0.103140
0.049638
-0.000425
-0.031139
-0.074124
-0.081842
-0.097886
-0.115880
-0.071283
-0.028582
0.042023
0.111415
0.117217
0.130158
0.193957
0.225145
0.248962
0.252885
0.249995
0.216583
0.146999
0.096191
0.043220
0.027407
-0.005726
-0.070446
-0.081760
-0.062355
-0.029583
0.009094
0.054932
0.141506
0.155478
0.156402
0.203417
0.213998
0.217740
0.222409
0.221921
0.192922
0.136988
0.101931
0.038171
0.026081
0.002237
-0.005861
-0.005074
0.005847
-0.004928
0.057412
0.069755
0.106892
0.144162
0.196660
0.239237
0.270405
0.255386
0.238088
0.210993
0.179605
0.119275
0.058795
0.023852
-0.031211
-0.029083
-0.066147
-0.032631
-0.050893
-0.042256
0.010480
0.060044
0.125318
0.217346
0.214136
0.265501
0.242113
0.235373
0.223389
0.208552
0.156732
0.126820
0.092297
0.035317
-0.025190
0.028416
-0.005345
-0.063214
-0.050698
-0.070614
-0.062696
-0.014153
0.004393
0.019812
0.099170
0.162656
0.189613
0.225581
0.219434
0.173422
0.136940
0.115859
0.034650
-0.025219
-0.074905
-0.107936
-0.130120
-0.123456
-0.116198
-0.112354
-0.083534
-0.039578
0.015816
0.072081
0.090693
0.101514
0.151853
0.170425
0.170793
0.148822
0.102584
0.057441
-0.006426
-0.056576
-0.059874
-0.120634
-0.128987
-0.154760
-0.193803
-0.152859
-0.109830
-0.053461
0.015677
0.040197
0.079390
0.074326
0.099603
0.128545
0.097531
0.068386
0.052229
0.019453
-0.025244
-0.070463
-0.151946
-0.116222
-0.092541
-0.113690
-0.098867
-0.210766
-0.114405
-0.063055
-0.008904
0.020367
0.007147
0.078610
0.143977
0.097163
0.114073
0.123177
0.038715
-0.007478
-0.041813
-0.060650
-0.126112
-0.134420
-0.165233
-0.201406
-0.163483
-0.116595
-0.106648
-0.061617
-0.010794
0.067109
0.119661
0.160186
0.183626
0.167597
0.147118
0.141393
0.089442
0.052104
-0.023091
-0.041691
-0.090796
-0.127285
-0.181472
-0.185377
-0.169049
-0.144157
-0.102006
-0.054131
-0.024809
0.004276
0.043977
0.142495
0.228689
0.195492
0.170055
0.132900
0.092680
0.039852
-0.013338
-0.057661
-0.118168
-0.151529
-0.143013
-0.179831
-0.143413
-0.108031
-0.067909
-0.073458
-0.026616
0.033100
0.092196
0.121279
0.148436
0.176620
0.163268
0.121674
0.138356
0.070339
0.015517
-0.063385
-0.080809
-0.095475
-0.165413
-0.162178
-0.181078
-0.150602
-0.095296
-0.064011
0.009917
0.026581
0.043207
0.113008
0.148997
0.146238
0.095860
0.083269
0.064591
0.062706
-0.000002
-0.048716
-0.099920
-0.121416
-0.163030
-0.134467
-0.137085
-0.135745
-0.075482
-0.029648
-0.020482
0.055223
0.104985
0.083421
0.110500
0.121376
0.141416
0.110829
0.079070
0.006019
-0.061721
-0.070125
-0.092256
-0.114606
-0.143614
-0.104795
-0.128637
-0.164911
-0.103939
-0.066461
-0.015753
0.032407
0.081716
0.101345
0.123265
0.138853
0.127984
0.120035
0.074113
0.004174
-0.016738
-0.045190
-0.110487
-0.159933
-0.162011
-0.156540
-0.164395
-0.122161
-0.086036
-0.018894
0.018170
0.021089
0.050472
0.105137
0.140014
0.138048
0.126704
0.110064
0.078347
0.063170
0.004144
-0.062173
-0.137656
-0.188087
-0.193195
-0.180130
-0.166760
-0.157066
-0.120302
-0.055600
-0.007056
0.041457
0.056828
0.100492
0.123173
0.138222
0.103895
0.130782
0.082893
0.050613
-0.010964
-0.064945
-0.109947
-0.147467
-0.165611
-0.178661
-0.172208
-0.152708
-0.108638
-0.070667
-0.033232
0.005746
0.031694
0.085100
0.133902
0.122342
0.096708
0.082590
0.053765
0.017134
-0.028940
-0.087066
-0.128498
-0.165089
-0.199276
-0.189366
-0.169948
-0.153355
-0.134247
-0.105957
-0.057964
-0.014410
0.054881
0.100871
0.112872
0.149201
0.130307
0.086897
0.049760
0.012075
-0.002018
-0.063836
-0.108968
-0.141479
-0.163452
-0.171635
-0.154635
-0.146687
-0.137367
-0.083637
-0.048467
-0.007055
0.032157
0.082412
0.115449
0.145140
0.119047
0.093894
0.015583
-0.010768
-0.025148
-0.079172
-0.121025
-0.164600
-0.224947
-0.248039
-0.203178
-0.180113
-0.137608
-0.086166
-0.045340
0.027567
0.064660
0.076048
0.124718
0.124620
0.104388
0.098918
0.056499
0.003336
-0.042822
-0.109844
-0.161812
-0.191628
-0.199900
-0.176476
-0.185655
-0.176549
-0.131757
-0.090785
-0.045530
-0.025339
0.027570
0.102285
0.134821
0.152172
0.111411
0.087307
0.039117
0.007752
-0.032378
-0.070475
-0.098692
-0.146976
-0.174489
-0.184147
-0.208301
-0.206803
-0.127666
-0.043237
0.004361
0.056082
0.069383
0.109082
0.142984
0.101514
0.121669
0.130077
0.101181
0.050425
0.009407
-0.057702
-0.100436
-0.111192
-0.131048
-0.172328
-0.156305
-0.127884
-0.111197
-0.072863
-0.013937
0.048538
0.083379
0.118329
0.136889
0.152350
0.124283
0.089959
0.057823
0.021446
-0.030714
-0.068963
-0.109309
-0.136120
-0.118110
-0.116899
-0.106980
-0.097035
-0.061977
-0.030384
0.020838
0.068229
0.126044
0.174300
0.177291
0.166878
0.162583
0.121839
0.069163
0.020496
-0.013215
-0.013385
-0.056821
-0.125145
-0.143527
-0.146071
-0.146484
-0.123050
-0.108626
-0.083296
-0.021205
0.025221
0.067868
0.101468
0.131155
0.146692
0.139271
0.100504
0.040087
0.014657
-0.066530
-0.095718
-0.129823
-0.170243
-0.205643
-0.198927
-0.180839
-0.145028
-0.133423
-0.107643
-0.056556
0.014732
0.036962
0.079376
0.117708
0.116434
0.077285
0.078389
0.004330
-0.017262
-0.031679
-0.076993
-0.139575
-0.178055
-0.220414
-0.251459
-0.228418
-0.190426
-0.176352
-0.104594
-0.057056
-0.010930
0.027024
0.070474
0.099386
0.105031
0.116078
0.061745
-0.000375
-0.042517
-0.079639
-0.072465
-0.115820
-0.186796
-0.227181
-0.239424
-0.214043
-0.180622
-0.146093
-0.119498
-0.082112
-0.041014
0.019333
0.058747
0.092097
0.146172
0.119964
0.045879
0.027440
-0.013501
-0.065007
-0.129082
-0.152591
-0.173027
-0.202397
-0.248477
-0.239493
-0.211557
-0.155978
-0.100956
-0.051643
-0.026434
-0.002079
0.044763
0.083472
0.124298
0.081360
0.055507
0.033219
-0.003905
-0.082621
-0.107417
-0.145939
-0.208920
-0.205471
-0.198021
-0.203266
-0.186169
-0.131256
-0.082434
-0.023134
0.032357
0.081663
0.125582
0.152494
0.154688
0.178690
0.184894
0.143678
0.120896
0.108829
0.065762
0.055658
0.025074
-0.032766
0.004627
0.080872
0.155342
0.199253
0.288811
0.398966
0.458535
0.539382
0.603828
0.619908
0.640336
0.701468
0.719395
0.720701
0.705372
0.738408
0.722836
0.648052
0.612430
0.606308
0.586932
0.575149
0.582497
0.597773
0.602794
0.594488
0.586547
0.570443
0.570503
0.549046
0.483250
0.409959
0.341677
0.250731
0.169937
0.101913
0.057904
0.005543
-0.039062
-0.093248
-0.098384
-0.096730
-0.054709
-0.017212
0.013882
0.028752
0.062662
0.102036
0.150915
0.170170
0.159774
0.173224
0.147713
0.118473
0.082178
0.016822
-0.040216
-0.088073
-0.131424
-0.140456
-0.137781
-0.152314
-0.157487
-0.130993
-0.074554
-0.019613
0.026575
0.068067
0.093244
0.115798
0.122475
0.124830
0.111440
0.046909
0.030064
-0.031399
-0.069979
-0.134614
-0.144329
-0.144623
-0.183710
-0.173664
-0.123270
-0.112804
-0.100785
-0.057954
-0.040636
0.020610
0.098361
0.137027
0.136988
0.114294
0.087349
0.061527
0.028084
-0.024293
-0.074551
-0.114426
-0.143555
-0.148161
-0.153692
-0.143122
-0.132552
-0.101884
-0.060333
-0.001126
0.058477
0.094220
0.112254
0.108009
0.134896
0.121199
0.116043
0.103306
0.067837
-0.001338
-0.053394
-0.095177
-0.125173
-0.150709
-0.131957
-0.120888
-0.103095
-0.072464
-0.034258
0.013576
0.058000
0.087902
0.133424
0.184995
0.180661
0.130575
0.116463
0.138542
0.061728
-0.044100
-0.011490
-0.048771
-0.101774
-0.112078
-0.108286
-0.134339
-0.087899
-0.056744
-0.034133
0.016631
0.057867
0.109116
0.164680
0.190259
0.198654
0.214312
0.191010
0.142522
0.106666
0.061262
0.000966
-0.019484
-0.032756
-0.092225
-0.112525
-0.107955
-0.084820
-0.049168
-0.011079
0.055596
0.138518
0.176292
0.217357
0.247478
0.263681
0.249103
0.236207
0.200704
0.164136
0.121348
0.056627
-0.022270
-0.031771
-0.076739
-0.106962
-0.064811
-0.005835
0.032070
0.048695
0.088032
0.146398
0.189764
0.228411
0.251321
0.244973
0.242759
0.220067
0.183952
0.127512
0.059469
0.040222
-0.003430
-0.015712
-0.029447
-0.043646
-0.040076
-0.026490
0.009901
0.067249
0.097252
0.135082
0.173995
0.202738
0.242474
0.254108
0.266558
0.239937
0.199529
0.129990
0.055852
-0.024484
-0.044502
-0.058058
-0.068913
-0.075259
-0.052065
-0.034732
-0.026678
0.007916
0.063518
0.105930
0.149472
0.206735
0.233232
0.231804
0.201169
0.168823
0.128974
0.093155
0.039368
-0.004915
-0.061931
-0.094294
-0.118631
-0.077753
-0.039967
-0.056376
-0.056469
-0.015787
-0.009873
0.044931
0.090819
0.133718
0.156475
0.173442
0.153325
0.131803
0.098364
0.039754
-0.005097
-0.046669
-0.104040
-0.136916
-0.171707
-0.180408
-0.167125
-0.142963
-0.104816
-0.062311
-0.022350
0.025443
0.055776
0.109048
0.122176
0.122840
0.107621
0.104237
0.109482
0.061025
-0.021460
-0.080707
-0.114520
-0.151364
-0.171392
-0.182367
-0.171580
-0.156511
-0.118812
-0.093392
-0.043152
0.029380
0.051866
0.093391
0.111733
0.126924
0.125018
0.098228
0.067079
0.034587
-0.006295
-0.060817
-0.121269
-0.150304
-0.188350
-0.188716
-0.191475
-0.170265
-0.140920
-0.087110
-0.039933
-0.013775
0.032906
0.103256
0.120479
0.099547
0.088396
0.095100
0.050661
0.013406
-0.038924
-0.068502
-0.108297
-0.166963
-0.205904
-0.207635
-0.146263
-0.123233
-0.124740
-0.073585
-0.023324
0.012264
0.043311
0.080529
0.111245
0.124512
0.100678
0.087884
0.076460
0.042572
-0.015561
-0.081719
-0.143720
-0.173168
-0.193927
-0.177757
-0.154313
-0.141962
-0.106869
-0.080002
-0.019773
0.027529
0.066293
0.113895
0.141643
0.134033
0.121332
0.111729
0.067537
0.012214
-0.052592
-0.105223
-0.133413
-0.157082
-0.128164
-0.178426
-0.203322
-0.167559
-0.108534
-0.080296
-0.015119
0.016052
0.032885
0.103060
0.144230
0.144205
0.109069
0.118841
0.076206
0.030744
-0.034864
-0.082178
-0.117755
-0.142276
-0.154655
-0.156426
-0.164208
-0.144253
-0.104627
-0.055660
-0.023665
-0.000135
0.047160
0.093002
0.152845
0.149620
0.131882
0.095350
0.061288
0.011151
-0.025111
-0.064440
-0.126924
-0.160775
-0.183441
-0.191733
-0.186482
-0.163303
-0.123513
-0.088051
-0.044739
-0.039480
0.057860
0.124274
0.129637
0.143925
0.127587
0.093838
0.074580
0.023917
-0.025573
-0.072973
-0.120721
-0.154421
-0.193681
-0.209248
-0.207519
-0.165601
-0.108717
-0.077818
-0.025556
0.005393
0.071134
0.101660
0.139685
0.141894
0.111088
0.073530
0.027572
0.006854
-0.030877
-0.069937
-0.120825
-0.162721
-0.210410
-0.192141
-0.185932
-0.164067
-0.126975
-0.095772
-0.048062
0.013686
0.047008
0.071092
0.085617
0.080835
0.078865
0.083811
0.033105
-0.013985
-0.073421
-0.112746
-0.114215
-0.150475
-0.173732
-0.188909
-0.179614
-0.163390
-0.128111
-0.086359
-0.039440
-0.007776
0.033618
0.078292
0.085047
0.087005
0.098379
0.095143
0.059122
0.001854
-0.080483
-0.175913
-0.184047
-0.163002
-0.159443
-0.199554
-0.193767
-0.159164
-0.129878
-0.090882
-0.032318
0.027653
0.057492
0.081119
0.101844
0.123634
0.103723
0.085729
0.034534
-0.023512
-0.048933
-0.089504
-0.143166
-0.176673
-0.177273
-0.202821
-0.212021
-0.196304
-0.172467
-0.090745
-0.045540
-0.003959
0.036570
0.060072
0.064053
0.048758
0.062667
0.086260
0.089073
0.009835
-0.039631
-0.099827
-0.116433
-0.162247
-0.207557
-0.220918
-0.201019
-0.186079
-0.133122
-0.097893
-0.061942
-0.015990
0.037322
0.108067
0.111080
0.110858
0.089734
0.091265
0.045606
0.007732
-0.060804
-0.162726
-0.171600
-0.197712
-0.223061
-0.243739
-0.222221
-0.162061
-0.142775
-0.095888
-0.030876
0.026892
0.068613
0.097552
0.092981
0.103150
0.068774
0.069285
0.034666
-0.006480
-0.034892
-0.085899
-0.138257
-0.173960
-0.191237
-0.195535
-0.188687
-0.177704
-0.145667
-0.108259
-0.069569
-0.009272
0.028085
0.078148
0.128781
0.084965
0.079245
0.090337
0.055349
-0.003844
-0.040141
-0.120468
-0.170062
-0.157167
-0.186261
-0.225786
-0.220403
-0.199895
-0.146759
-0.091538
-0.046571
0.005461
0.039841
0.091231
0.099279
0.115374
0.129719
0.104215
0.073228
0.010950
-0.042077
-0.110329
-0.142094
-0.149055
-0.141772
-0.145746
-0.140108
-0.144829
-0.108708
-0.066739
-0.025815
-0.011389
0.038504
0.076406
0.094157
0.137072
0.150550
0.132461
0.095524
0.047016
0.003340
-0.060558
-0.141004
-0.159429
-0.161294
-0.184052
-0.176863
-0.146263
-0.124187
-0.051284
0.034750
0.091207
0.109547
0.082693
0.126175
0.156383
0.157956
0.139718
0.083618
0.064435
0.035067
-0.011502
-0.072481
-0.165245
-0.180172
-0.206557
-0.174559
-0.167965
-0.137430
-0.091920
-0.044675
-0.009520
0.067136
0.081194
0.030608
0.067867
0.097058
0.071266
0.041533
-0.029926
-0.031613
-0.066116
-0.123015
-0.164062
-0.161892
-0.164956
-0.147531
-0.132840
-0.137989
-0.113474
-0.035083
0.030061
0.070890
0.098051
0.096518
0.106162
0.106388
0.057347
0.037660
0.021702
-0.032797
-0.081785
-0.122652
-0.161669
-0.197211
-0.214625
-0.195799
-0.164579
-0.123966
-0.084855
-0.070248
-0.029596
-0.004508
0.026057
0.059712
0.068927
0.080870
0.106814
0.062262
-0.009362
-0.046713
-0.090539
-0.138573
-0.197622
-0.222688
-0.205409
-0.200544
-0.184059
-0.151077
-0.118933
-0.078634
-0.027475
0.036180
0.087041
0.092033
0.092432
0.110952
0.062736
0.003577
-0.037020
-0.058354
-0.080557
-0.125959
-0.176337
-0.235126
-0.270509
-0.245419
-0.140744
-0.099854
-0.084305
-0.071989
-0.004890
-0.001014
0.018230
0.074493
0.100062
0.086689
0.089474
0.046827
-0.004717
-0.074634
-0.111698
-0.150342
-0.197102
-0.220013
-0.230734
-0.211142
-0.192040
-0.167401
-0.133988
-0.111093
-0.034177
0.015270
0.057616
0.078493
0.115367
0.098148
0.090316
0.074105
0.038825
-0.015048
-0.040298
-0.069363
-0.060555
-0.067576
-0.089113
-0.069937
-0.046698
0.009390
0.113639
0.194686
0.240959
0.310919
0.332438
0.325835
0.420623
0.475370
0.540376
0.547143
0.521416
0.529298
0.478033
0.461355
0.496405
0.509143
0.572097
0.592858
0.675490
0.712018
0.710894
0.786408
0.834671
0.849815
0.856479
0.848469
0.818811
0.766795
0.678689
0.569138
0.473373
0.371848
0.278065
0.183240
0.103792
0.045863
0.006965
-0.027720
-0.000065
0.022445
0.054161
0.075534
0.130678
0.164221
0.208330
0.258108
0.235974
0.152399
0.138049
0.117837
0.074077
0.024118
-0.030058
-0.083087
-0.123955
-0.139418
-0.146524
-0.139834
-0.143390
-0.114399
-0.056756
-0.007167
0.041934
0.079487
0.117490
0.137029
0.157989
0.146600
0.136392
0.108116
0.026083
-0.066189
-0.110570
-0.148187
-0.150513
-0.163504
-0.175546
-0.177257
-0.178595
-0.162329
-0.092008
-0.057987
-0.031113
0.029027
0.115276
0.157270
0.165140
0.180188
0.125756
0.045082
-0.015350
-0.056165
-0.109774
-0.148411
-0.125250
-0.139704
-0.167700
-0.178694
-0.156622
-0.124847
-0.088194
-0.040547
0.002966
0.056896
0.093242
0.120438
0.155194
0.175126
0.156457
0.093099
0.048311
0.021989
-0.029486
-0.091120
-0.108546
-0.121315
-0.148798
-0.135219
-0.115808
-0.084468
-0.032239
-0.017003
0.035935
0.098395
0.143032
0.151834
0.145464
0.123247
0.141017
0.103114
0.041023
0.003717
-0.013022
-0.054985
-0.098659
-0.156126
-0.179552
-0.153320
-0.083931
-0.071460
-0.060779
-0.034945
0.034522
0.101963
0.119985
0.144191
0.164170
0.161998
0.152244
0.131380
0.109931
0.046065
0.000391
-0.015882
-0.063016
-0.084660
-0.090186
-0.079219
-0.039647
-0.016103
0.066897
0.118072
0.145239
0.169891
0.183958
0.208987
0.234081
0.244194
0.231610
0.183683
0.132066
0.095307
0.050737
0.010476
-0.041765
-0.056610
-0.063897
-0.055058
-0.039536
0.003538
0.066188
0.098692
0.155949
0.199203
0.242317
0.267336
0.271192
0.275821
0.254025
0.219252
0.170137
0.111124
0.045417
0.005248
-0.014267
-0.052464
-0.074540
-0.044812
-0.010666
0.011038
0.048628
0.081560
0.139070
0.167994
0.231777
0.234822
0.219553
0.202570
0.189599
0.144458
0.086318
0.077733
0.058330
0.026118
0.000138
-0.051837
-0.096036
-0.099112
-0.042405
-0.012641
0.015483
0.064014
0.122738
0.172937
0.185641
0.225187
0.253965
0.233956
0.149760
0.046987
0.080564
0.093272
0.066903
-0.009175
-0.091306
-0.086727
-0.103928
-0.128160
-0.110251
-0.074760
-0.006307
0.047592
0.091533
0.124637
0.198936
0.182200
0.143911
0.132061
0.119963
0.093362
0.080579
0.055027
-0.000028
-0.051051
-0.100696
-0.153927
-0.146297
-0.121679
-0.093222
-0.108479
-0.110351
-0.029529
0.043047
0.086212
0.096759
0.124516
0.141574
0.138423
0.120482
0.074681
0.035106
-0.019114
-0.111496
-0.155924
-0.141277
-0.159734
-0.194222
-0.186395
-0.130315
-0.095629
-0.047764
-0.015722
0.017444
0.050193
0.081255
0.087338
0.134119
0.125757
0.084548
0.032308
-0.001906
-0.050428
-0.102303
-0.082836
-0.150918
-0.207523
-0.201140
-0.192136
-0.166875
-0.155339
-0.102179
-0.047049
0.005056
0.069414
0.099476
0.112050
0.084117
0.080267
0.067574
0.050831
0.022241
-0.042042
-0.048407
-0.101264
-0.158971
-0.192926
-0.232417
-0.246299
-0.177390
-0.108975
-0.079787
-0.059887
0.012064
0.059223
0.077421
0.080892
0.093889
0.108095
0.112753
0.083110
0.048537
-0.007346
-0.060604
-0.128536
-0.157397
-0.185395
-0.191142
-0.164010
-0.142513
-0.127871
-0.089981
-0.030644
-0.000844
0.057099
0.079468
0.115335
0.140952
0.127888
0.122651
0.095926
0.019886
0.008414
-0.045225
-0.121835
-0.149706
-0.169632
-0.169263
-0.159534
-0.144389
-0.120531
-0.103272
-0.029544
0.013664
0.050575
0.094849
0.124720
0.127997
0.106034
0.096945
0.058490
0.002766
-0.002988
-0.039014
-0.102137
-0.149481
-0.178852
-0.188268
-0.175419
-0.148502
-0.127984
-0.060031
-0.016208
0.031120
0.075272
0.108343
0.098303
0.098759
0.103038
0.089083
0.047216
0.001585
-0.068884
-0.116754
-0.147859
-0.194349
-0.200991
-0.202558
-0.144185
-0.147423
-0.141544
-0.091861
-0.019950
0.010336
0.050936
0.090595
0.142238
0.153033
0.133540
0.097642
0.037958
0.005049
-0.026664
-0.054503
-0.078495
-0.078512
-0.147343
-0.230431
-0.255203
-0.156421
-0.107654
-0.061927
-0.016427
0.033173
0.064935
0.082713
0.130844
0.144829
0.126160
0.069358
0.047311
0.019881
-0.052047
-0.135252
-0.145953
-0.163716
-0.172910
-0.175332
-0.163458
-0.135172
-0.103511
-0.071325
-0.041344
-0.000338
0.026762
0.065616
0.100732
0.136875
0.149869
0.104833
0.057904
0.001233
-0.064405
-0.071744
-0.133869
-0.174213
-0.197332
-0.191827
-0.197409
-0.177211
-0.153023
-0.124029
-0.068235
-0.024990
0.017243
0.064208
0.080235
0.098720
0.125237
0.090091
0.026872
-0.083481
-0.107754
-0.113072
-0.165910
-0.206446
-0.230392
-0.201817
-0.192260
-0.196489
-0.175037
-0.115837
-0.039988
0.017082
0.062007
0.098282
0.110986
0.109318
0.118183
0.099087
0.077639
0.039009
-0.030368
-0.068754
-0.117068
-0.161252
-0.197077
-0.192458
-0.198725
-0.167121
-0.114335
-0.074711
-0.017094
0.019892
0.066183
0.088850
0.089212
0.079408
0.082168
0.090307
0.052053
0.034188
0.001631
-0.066077
-0.114267
-0.148489
-0.178268
-0.230338
-0.234220
-0.199168
-0.149411
-0.091857
-0.039881
0.031690
0.047363
0.028573
0.040848
0.075907
0.063446
0.036992
0.015152
-0.028723
-0.086830
-0.131471
-0.149594
-0.191531
-0.224687
-0.266838
-0.239749
-0.216101
-0.172975
-0.130769
-0.087805
-0.037599
0.031723
0.087284
0.123099
0.121166
0.100887
0.070777
0.011928
-0.012527
-0.038827
-0.094805
-0.149541
-0.172186
-0.145541
-0.171179
-0.169356
-0.138854
-0.110947
-0.088143
-0.042739
0.014010
0.068499
0.082606
0.089050
0.094264
0.081191
0.063261
0.034368
-0.031387
-0.076214
-0.091707
-0.101170
-0.173188
-0.181643
-0.209900
-0.223636
-0.191632
-0.124210
-0.092390
-0.054881
0.006442
0.032962
0.067483
0.109370
0.125972
0.095155
0.064374
0.047346
-0.004504
-0.063977
-0.083479
-0.133333
-0.156718
-0.221206
-0.243733
-0.224287
-0.204156
-0.156220
-0.104557
-0.090050
-0.011138
0.046116
0.082399
0.077431
0.124105
0.124791
0.115044
0.071777
0.021898
-0.057249
-0.150853
-0.185267
-0.206743
-0.223018
-0.239940
-0.235492
-0.228287
-0.176005
-0.095748
-0.060782
-0.042331
0.002081
0.048432
0.063015
0.071458
0.083265
0.071480
0.071522
0.018661
-0.033771
-0.065775
-0.114149
-0.137693
-0.168674
-0.212665
-0.171021
-0.126490
-0.090728
-0.051747
-0.002363
0.034076
0.082658
0.096327
0.102058
0.127387
0.115674
0.093810
0.036337
-0.049631
-0.095125
-0.085947
-0.104674
-0.131512
-0.159573
-0.207496
-0.206003
-0.160324
-0.101849
-0.043908
0.009735
0.077109
0.114173
0.135574
0.148386
0.145633
0.137110
0.120510
0.094993
0.041997
0.008426
-0.045355
-0.069310
-0.119125
-0.146745
-0.186016
-0.188787
-0.140395
-0.141259
-0.077012
-0.057461
-0.008010
0.031482
0.081989
0.106325
0.100413
0.121978
0.094313
0.059748
0.024363
-0.010971
-0.076024
-0.113579
-0.136007
-0.165309
-0.197092
-0.239099
-0.277437
-0.217325
-0.176020
-0.109743
-0.041763
0.013977
0.047375
0.079949
0.099907
0.112180
0.089648
0.033592
-0.021755
-0.050005
-0.097233
-0.173299
-0.203938
-0.253366
-0.246656
-0.224600
-0.234598
-0.229208
-0.171498
-0.064286
-0.013638
0.046402
0.048484
-0.002143
0.037762
0.054876
0.029238
0.007821
-0.028437
-0.081495
-0.149581
-0.167316
-0.184359
-0.208071
-0.231230
-0.229343
-0.220979
-0.206652
-0.169735
-0.125310
-0.103142
-0.029792
0.026170
0.072691
0.084013
0.076191
0.073875
0.032368
-0.044377
-0.074598
-0.107755
-0.177030
-0.192111
-0.226723
-0.237662
-0.219694
-0.215936
-0.157835
-0.099337
-0.045718
-0.036698
-0.024964
0.010121
-0.000389
0.016620
0.003500
0.006589
-0.009436
0.001635
-0.041615
-0.090229
-0.140395
-0.197738
-0.230265
-0.255184
-0.257889
-0.221536
-0.218467
-0.158246
-0.116369
-0.072390
0.012656
0.048096
0.074929
0.090843
0.072497
0.057867
0.061745
0.018481
-0.023590
-0.055652
-0.094031
-0.109081
-0.106737
-0.116870
-0.094335
-0.070787
-0.012027
0.037924
0.116517
0.210043
0.273822
0.332482
0.373867
0.432678
0.466693
0.487011
0.484992
0.439718
0.411483
0.396129
0.359375
0.387600
0.439116
0.468404
0.470773
0.508786
0.563076
0.635074
0.716476
0.765276
0.800156
0.830152
0.819087
0.803941
0.792638
0.719829
0.641546
0.551945
0.426640
0.292780
0.210776
0.148594
0.044700
-0.001806
-0.002434
-0.011225
-0.013806
0.006996
0.107472
0.186205
0.169081
0.151067
0.211007
0.226749
0.207607
0.165167
0.103121
0.029110
0.009818
-0.048302
-0.105276
-0.159052
-0.197634
-0.153496
-0.105124
-0.071574
-0.070308
-0.029348
0.025314
0.059231
0.082924
0.109299
0.124962
0.135167
0.137606
0.107341
0.065807
0.019645
-0.030134
-0.074817
-0.093568
-0.154762
-0.195502
-0.194992
-0.182441
-0.139808
-0.090781
-0.059427
-0.043761
0.002496
0.032027
0.049452
0.077475
0.099424
0.105302
0.079189
0.058797
0.024682
-0.066456
-0.086504
-0.131404
-0.199843
-0.216104
-0.199260
-0.177529
-0.154377
-0.117783
-0.093475
-0.070598
-0.053379
-0.005597
0.047509
0.161533
0.162185
0.109792
0.083321
0.032423
0.006758
-0.010971
-0.061395
-0.142066
-0.174887
-0.176072
-0.190529
-0.187698
-0.136941
-0.104857
-0.026895
0.028468
0.098414
0.111913
0.091717
0.103334
0.117033
0.112979
0.109192
0.094642
0.046605
-0.019501
-0.050506
-0.123612
-0.156163
-0.164558
-0.146452
-0.100562
-0.032151
-0.005259
-0.002375
0.039967
0.114772
0.115904
0.121955
0.088192
0.110262
0.126774
0.147109
0.151536
0.140200
0.068545
-0.018935
-0.060278
-0.091359
-0.120038
-0.123740
-0.092718
-0.052729
-0.012955
0.007488
0.038431
0.081726
0.128539
0.168676
0.212063
0.260481
0.235735
0.177111
0.159748
0.120886
0.065994
0.018660
-0.038180
-0.080718
-0.078761
-0.053121
-0.056073
-0.053547
-0.055591
0.007369
0.048988
0.114616
0.158488
0.178576
0.225253
0.254700
0.277036
0.229966
0.166254
0.119367
0.107501
0.068476
-0.002212
-0.036958
-0.038119
-0.045115
-0.030682
-0.025112
-0.016482
0.034346
0.111687
0.148300
0.170149
0.198056
0.212626
0.244912
0.247105
0.216147
0.140366
0.078077
0.056544
0.051543
0.019936
-0.022088
-0.058885
-0.073553
-0.082486
-0.065656
-0.019877
0.052268
0.107551
0.160548
0.177054
0.172452
0.182338
0.167595
0.141134
0.127965
0.089318
0.070894
0.075141
0.034967
-0.008104
-0.081707
-0.172315
-0.167169
-0.113697
-0.060623
-0.035200
0.005712
0.017838
0.066479
0.145426
0.191340
0.211560
0.182245
0.179647
0.170123
0.112313
0.078708
0.028649
-0.030608
-0.090949
-0.136750
-0.146051
-0.146271
-0.133727
-0.108267
-0.094272
-0.065220
-0.008734
0.037620
0.080906
0.105763
0.090748
0.063021
0.080150
0.155058
0.140109
0.048110
-0.034319
-0.142254
-0.175588
-0.168466
-0.168325
-0.188205
-0.197408
-0.196354
-0.202464
-0.133197
-0.101874
-0.047988
0.062401
0.127104
0.128369
0.099977
0.098236
0.078593
0.046411
-0.003544
-0.048208
-0.094972
-0.151768
-0.173471
-0.195227
-0.231726
-0.225449
-0.187289
-0.153262
-0.106394
-0.054396
-0.008554
0.010764
0.046081
0.096787
0.115926
0.135423
0.131610
0.097744
0.023482
-0.026533
-0.104811
-0.161690
-0.175615
-0.162293
-0.167335
-0.186096
-0.186747
-0.114708
-0.075169
-0.027645
0.026236
0.070286
0.092846
0.121552
0.119327
0.107917
0.079510
0.052832
0.021010
-0.022803
-0.080681
-0.111391
-0.135226
-0.147040
-0.157953
-0.182354
-0.156283
-0.131710
-0.109897
-0.054494
-0.004699
0.016040
0.078109
0.104801
0.119450
0.091639
0.045720
0.045724
0.000569
-0.032966
-0.074756
-0.111093
-0.146512
-0.160146
-0.172566
-0.169768
-0.188332
-0.178703
-0.126830
-0.039183
0.018974
0.017803
0.007582
0.059550
0.152883
0.210488
0.159452
0.092753
-0.002907
-0.065524
-0.103897
-0.154086
-0.175847
-0.176837
-0.202837
-0.176315
-0.144734
-0.135215
-0.030368
0.035036
0.071108
0.108433
0.129139
0.134546
0.152632
0.126915
0.079017
0.054087
0.009073
-0.041528
-0.066037
-0.062791
-0.067968
-0.137354
-0.217497
-0.210773
-0.181814
-0.160747
-0.089964
-0.034024
0.019816
0.069547
0.107538
0.147157
0.166968
0.140536
0.109315
0.090788
0.021687
-0.073870
-0.117558
-0.146839
-0.139490
-0.160986
-0.168008
-0.156359
-0.161724
-0.115801
-0.066378
-0.021469
0.041925
0.076791
0.099770
0.111942
0.096194
0.115226
0.096242
0.054919
0.004533
-0.014366
-0.044933
-0.097299
-0.177982
-0.205191
-0.254004
-0.238279
-0.184410
-0.125144
-0.078986
-0.047485
0.006407
0.052461
0.056971
0.069953
0.109815
0.131646
0.094014
0.077592
0.039396
-0.005958
-0.040151
-0.096304
-0.143979
-0.157993
-0.197109
-0.211465
-0.176776
-0.208463
-0.145125
-0.047777
0.005402
0.043367
0.073268
0.135315
0.149342
0.131737
0.077689
0.029658
-0.000535
-0.012446
-0.075336
-0.153130
-0.176360
-0.192561
-0.190933
-0.188362
-0.169755
-0.125497
-0.060393
-0.002889
0.045807
0.075740
0.108708
0.143611
0.132003
0.124295
0.092657
0.021417
-0.049522
-0.054194
-0.081728
-0.104420
-0.139572
-0.145825
-0.174587
-0.193683
-0.143353
-0.112893
-0.075682
-0.039192
0.007301
0.034999
0.068057
0.095146
0.109749
0.104670
0.058858
-0.001149
-0.047882
-0.087190
-0.102162
-0.149444
-0.150305
-0.159168
-0.159092
-0.154736
-0.172137
-0.132815
-0.101676
-0.056795
-0.020959
0.028557
0.085505
0.106617
0.137103
0.141503
0.105380
0.047358
-0.006015
-0.036617
-0.087795
-0.135776
-0.140742
-0.136611
-0.166365
-0.159541
-0.115906
-0.147373
-0.119880
-0.138559
-0.067147
-0.022855
0.014101
0.048279
0.054895
0.081855
0.061648
0.016234
-0.035075
-0.064884
-0.095206
-0.110599
-0.126093
-0.138295
-0.173922
-0.145865
-0.097457
-0.082515
-0.028248
0.013588
0.062765
0.132600
0.169202
0.180119
0.155791
0.130473
0.126414
0.085833
0.046686
0.002771
-0.050634
-0.088508
-0.115920
-0.139248
-0.176931
-0.148437
-0.133521
-0.098953
-0.039622
0.010467
0.050531
0.113571
0.149531
0.151203
0.157597
0.145811
0.129628
0.105634
0.040341
-0.013507
-0.056115
-0.062070
-0.058331
-0.118092
-0.134314
-0.145301
-0.085846
-0.025612
0.002198
0.034902
0.086404
0.117548
0.120054
0.142257
0.138056
0.135025
0.105942
0.067053
0.030784
-0.017442
-0.055616
-0.080431
-0.102416
-0.132489
-0.159980
-0.216478
-0.143251
-0.101849
-0.046359
0.014528
-0.000600
0.024025
0.063407
0.075877
0.123976
0.129561
0.071314
0.069303
0.027569
-0.052378
-0.099318
-0.142289
-0.137435
-0.157811
-0.172236
-0.198513
-0.193828
-0.143784
-0.080306
-0.052016
-0.036492
-0.010266
0.049685
0.074677
0.093537
0.080560
0.054782
0.033793
-0.000547
-0.024945
-0.087979
-0.159099
-0.197839
-0.206414
-0.173270
-0.154294
-0.173029
-0.132803
-0.066341
-0.062962
-0.024722
-0.000139
0.038167
0.092725
0.141579
0.130987
0.101866
0.042943
-0.003456
-0.050418
-0.098806
-0.125222
-0.156813
-0.177532
-0.186199
-0.185118
-0.162099
-0.134736
-0.106635
-0.088803
-0.028525
0.002644
0.037952
0.073009
0.081015
0.099985
0.083826
0.052194
-0.004168
-0.047419
-0.094652
-0.169152
-0.182894
-0.184528
-0.199892
-0.200243
-0.159270
-0.133456
-0.105459
-0.075994
-0.051942
0.002564
0.079160
0.060173
0.050179
0.055975
0.044289
0.035164
-0.013455
-0.074528
-0.083449
-0.103617
-0.144120
-0.165490
-0.156977
-0.136467
-0.112299
-0.081468
-0.008354
0.089841
0.140112
0.184119
0.221022
0.233852
0.260316
0.280638
0.297601
0.300436
0.306379
0.221642
0.245939
0.280608
0.289727
0.273103
0.317448
0.330590
0.412708
0.480774
0.538398
0.633962
0.733914
0.828990
0.906874
0.900120
0.893828
0.881743
0.881659
0.799652
0.730784
0.652650
0.571257
0.496699
0.449744
0.349851
0.254724
0.193664
0.144842
0.152210
0.203682
0.188899
0.168527
0.220433
0.268351
0.269339
0.248563
0.289934
0.236976
0.127894
0.068944
-0.002630
-0.042212
-0.036810
-0.060296
-0.090842
-0.127401
-0.134832
-0.120437
-0.098928
-0.063198
-0.025990
0.047004
0.079073
0.128803
0.130862
0.159948
0.158114
0.101802
0.055967
0.023051
-0.012846
-0.058958
-0.107144
-0.129010
-0.149797
-0.134611
-0.142660
-0.137457
-0.099256
-0.051921
-0.041728
0.041078
0.104441
0.125476
0.185331
0.144924
0.124334
0.130765
0.080462
0.043136
-0.027962
-0.092027
-0.104186
-0.136220
-0.136666
-0.147960
-0.162160
-0.161907
-0.114118
-0.062099
-0.025671
0.026794
0.095207
0.137302
0.144315
0.124713
0.096906
0.073433
0.058700
0.041377
-0.040857
-0.100751
-0.106903
-0.145292
-0.151756
-0.164284
-0.166881
-0.161788
-0.111697
-0.029447
-0.000572
0.060425
0.104783
0.116027
0.144963
0.146827
0.166337
0.117298
0.103184
0.087422
0.032860
-0.040209
-0.080889
-0.090686
-0.099845
-0.117158
-0.140892
-0.131765
-0.070335
-0.013312
0.010157
0.023219
0.074331
0.113077
0.145662
0.190186
0.202070
0.165893
0.145751
0.119810
0.071201
0.005630
-0.051383
-0.088312
-0.120609
-0.129475
-0.110451
-0.072279
-0.024050
0.033379
0.059152
0.117670
0.156795
0.189075
0.230617
0.222538
0.243393
0.230688
0.186712
0.145179
0.114253
0.045289
-0.012317
-0.074430
-0.097257
-0.096799
-0.096774
-0.045899
0.024759
0.033376
0.050340
0.115953
0.160270
0.229000
0.258950
0.247625
0.243291
0.200083
0.188690
0.141000
0.067245
0.019855
-0.010886
-0.023605
-0.023210
-0.033475
-0.047007
0.008174
0.043142
0.077425
0.077336
0.146719
0.197783
0.224970
0.242659
0.240150
0.219295
0.190582
0.179019
0.141070
0.079581
0.049506
0.014002
0.007508
-0.007988
-0.033192
-0.068746
-0.078875
-0.093185
-0.001240
0.081307
0.158239
0.185885
0.217026
0.246688
0.259384
0.257442
0.234538
0.169555
0.134454
0.076809
0.030513
-0.028439
-0.078208
-0.095159
-0.098636
-0.093110
-0.064445
-0.019267
-0.005367
0.039543
0.120071
0.145532
0.151786
0.177743
0.159979
0.190068
0.176811
0.122566
0.060392
0.016639
-0.031688
-0.070854
-0.125046
-0.155277
-0.164850
-0.131660
-0.067565
-0.049979
-0.048606
-0.030196
0.016816
0.083684
0.110406
0.134915
0.115781
0.058914
0.044621
0.090941
0.056425
-0.012824
-0.068003
-0.105607
-0.139346
-0.183907
-0.198716
-0.194424
-0.164176
-0.120616
-0.072940
-0.001811
0.035758
0.055956
0.091792
0.101904
0.127652
0.133420
0.069336
0.045778
0.021706
-0.044131
-0.103506
-0.158164
-0.171634
-0.186459
-0.186172
-0.180719
-0.148556
-0.147899
-0.104578
-0.037156
0.022615
0.075159
0.085422
0.135926
0.156816
0.162285
0.120392
0.090302
0.041228
-0.016378
-0.064278
-0.097690
-0.136882
-0.180168
-0.191371
-0.191346
-0.176036
-0.142411
-0.089874
-0.031502
0.009464
0.063710
0.091670
0.109735
0.121544
0.127512
0.064272
0.065971
0.020292
-0.034908
-0.112410
-0.114809
-0.139361
-0.152559
-0.183724
-0.204728
-0.170627
-0.139798
-0.107275
-0.052551
0.031250
0.082648
0.095504
0.119234
0.147448
0.156902
0.119199
0.093136
0.033443
-0.033240
-0.116292
-0.132315
-0.156575
-0.157714
-0.164558
-0.200227
-0.173683
-0.127900
-0.081928
-0.045900
0.020453
0.075886
0.083726
0.107357
0.105829
0.095903
0.097908
0.063579
-0.005694
-0.046910
-0.074529
-0.098978
-0.126327
-0.153536
-0.182518
-0.190858
-0.173088
-0.126314
-0.062945
0.010661
0.032526
0.061796
0.076114
0.129186
0.165699
0.143735
0.100586
0.064789
0.019555
-0.062972
-0.104160
-0.119749
-0.160082
-0.177844
-0.182020
-0.186747
-0.153811
-0.129028
-0.101962
-0.048598
0.013839
0.068793
0.099574
0.115770
0.122866
0.130941
0.094545
0.062691
0.026617
-0.049562
-0.097854
-0.136811
-0.160642
-0.150703
-0.163041
-0.190536
-0.143478
-0.075298
-0.066875
-0.018738
0.046717
0.070894
0.101996
0.118808
0.114336
0.131878
0.141931
0.092134
0.034861
-0.008851
-0.056833
-0.082399
-0.194670
-0.238427
-0.209699
-0.182585
-0.163254
-0.153734
-0.109078
-0.043178
0.038271
0.072324
0.097819
0.123180
0.112065
0.137827
0.143514
0.092849
0.024775
-0.053495
-0.097996
-0.119810
-0.140517
-0.191855
-0.221961
-0.203696
-0.160014
-0.137355
-0.098995
-0.061691
-0.010476
0.022450
0.061538
0.107626
0.137571
0.147670
0.122540
0.080526
0.040512
-0.008631
-0.084246
-0.155028
-0.197397
-0.205269
-0.202255
-0.209518
-0.174917
-0.118910
-0.085449
-0.039319
0.003229
0.020497
0.082138
0.111028
0.119767
0.108021
0.084927
0.040043
-0.000659
-0.059454
-0.096951
-0.150432
-0.177985
-0.195122
-0.211231
-0.202385
-0.161123
-0.111466
-0.059839
-0.005610
0.028026
0.067789
0.139680
0.154048
0.101930
0.079981
0.071145
0.038474
0.004606
-0.047561
-0.088723
-0.110651
-0.140409
-0.180131
-0.191829
-0.185296
-0.172399
-0.150017
-0.099612
-0.029400
-0.001660
0.052162
0.080890
0.096620
0.092300
0.091833
0.066942
0.038771
0.009389
-0.023374
-0.049196
-0.100887
-0.149671
-0.185370
-0.191071
-0.189599
-0.150168
-0.065565
-0.052388
-0.050062
-0.003525
0.065793
0.111729
0.124386
0.126387
0.134599
0.109119
0.091959
0.048997
-0.000913
-0.033893
-0.057207
-0.084981
-0.113949
-0.139587
-0.115519
-0.090099
-0.077211
-0.032834
-0.005996
0.021166
0.055214
0.100685
0.103697
0.157324
0.178407
0.091574
0.008278
0.015688
-0.013819
-0.047742
-0.082353
-0.135181
-0.122150
-0.119813
-0.111352
-0.097381
-0.078387
-0.034316
0.041554
0.089613
0.132458
0.163236
0.183142
0.186266
0.181681
0.160657
0.139151
0.081443
0.010295
-0.041886
-0.083703
-0.121901
-0.132855
-0.141384
-0.147104
-0.145903
-0.116093
-0.102081
-0.049671
0.031697
0.082728
0.122704
0.120306
0.138085
0.145917
0.113666
0.068120
0.038906
-0.004402
-0.057608
-0.100606
-0.127624
-0.179068
-0.187652
-0.185177
-0.170347
-0.153821
-0.139625
-0.068426
-0.024024
0.024841
0.060125
0.129058
0.137503
0.112224
0.056586
0.024750
-0.007289
-0.027637
-0.086304
-0.132731
-0.154883
-0.194105
-0.202238
-0.223311
-0.210390
-0.175295
-0.133380
-0.075067
-0.025713
-0.012178
-0.000770
0.029042
0.044966
0.055480
0.047668
-0.021811
-0.070825
-0.088920
-0.111102
-0.157849
-0.202332
-0.234760
-0.186574
-0.128692
-0.115150
-0.125493
-0.084619
-0.029670
0.044574
0.080382
0.069703
0.085732
0.086627
0.096441
0.090384
0.033581
-0.009303
-0.096637
-0.144178
-0.165630
-0.188565
-0.243639
-0.258078
-0.253557
-0.224987
-0.204315
-0.157439
-0.050172
0.010240
0.043840
0.112982
0.152310
0.169041
0.126193
0.112230
0.046220
-0.032062
-0.072531
-0.110679
-0.144977
-0.168164
-0.191577
-0.179495
-0.164469
-0.133079
-0.108861
-0.054574
0.025401
0.055079
0.113722
0.170048
0.246556
0.287999
0.277689
0.262448
0.193290
0.154199
0.165296
0.141839
0.098875
0.118512
0.197287
0.229159
0.252516
0.285761
0.334847
0.391122
0.485705
0.570872
0.628064
0.693431
0.773032
0.817773
0.853900
0.832880
0.788512
0.770101
0.710954
0.654755
0.589191
0.513810
0.460708
0.415096
0.392223
0.388438
0.379536
0.348522
0.294986
0.308347
0.303719
0.308402
0.280343
0.240798
0.283859
0.247586
0.158480
0.119643
0.085237
0.032224
-0.021903
-0.066224
-0.091345
-0.103987
-0.076432
-0.049640
-0.037762
-0.023313
0.034227
0.078812
0.111165
0.150456
0.170081
0.184206
0.170616
0.153758
0.116376
0.008839
-0.015943
-0.037546
-0.052370
-0.114874
-0.151985
-0.151426
-0.149422
-0.101340
-0.063595
-0.035594
0.002345
0.077928
0.115292
0.128493
0.115100
0.101671
0.075556
0.080849
0.102203
0.061529
0.030472
-0.033727
-0.087383
-0.133702
-0.140277
-0.112073
-0.098228
-0.118984
-0.109225
-0.067614
-0.013119
0.027671
0.071743
0.110325
0.144709
0.175801
0.110056
0.111360
0.102195
0.070191
-0.005138
-0.082935
-0.088581
-0.088464
-0.114644
-0.143204
-0.139410
-0.100235
-0.078292
-0.060099
-0.005710
0.032555
0.064836
0.094759
0.134294
0.224371
0.204417
0.155856
0.096833
0.020486
0.041119
-0.060442
-0.101050
-0.140885
-0.096113
-0.064692
-0.086380
-0.099469
-0.063205
0.023574
0.037273
0.074114
0.149946
0.153974
0.167840
0.201324
0.199013
0.184362
0.148730
0.112821
0.040053
-0.014006
-0.053118
-0.102240
-0.051193
-0.067841
-0.147527
-0.121790
-0.089853
-0.083419
0.012446
0.161131
0.133366
0.216266
0.233139
0.229163
0.220143
0.190337
0.172431
0.137115
0.065305
0.063264
0.035647
-0.005988
-0.051606
-0.034384
-0.027275
-0.019461
0.019399
0.061632
0.129038
0.185124
0.198434
0.193850
0.245611
0.253444
0.262657
0.246328
0.225483
0.117519
0.018661
0.071977
0.041178
0.039424
0.001527
-0.014424
-0.018951
-0.013195
-0.006505
0.003116
0.041409
0.190271
0.291299
0.285631
0.317764
0.284579
0.249741
0.220388
0.185124
0.092222
0.008826
0.075753
-0.010907
0.036689
0.137314
0.016391
-0.035058
-0.000290
0.048613
0.087888
0.126544
0.180701
0.216871
0.255859
0.255961
0.265676
0.257797
0.223977
0.200085
0.144979
0.086921
0.025382
-0.000376
-0.028533
-0.034463
-0.049003
-0.047070
-0.050829
-0.021217
0.031650
0.051543
0.102955
0.187546
0.204534
0.229961
0.226758
0.193388
0.153066
0.110382
0.079143
0.040779
-0.016993
-0.062761
-0.094248
-0.137513
-0.120692
-0.083763
-0.082888
-0.067995
-0.023275
0.005264
0.035131
0.087877
0.123357
0.138382
0.193399
0.129822
0.103781
0.138283
0.081721
-0.030097
-0.075279
-0.113107
-0.132269
-0.121482
-0.151250
-0.154153
-0.156348
-0.125475
-0.042447
0.006783
0.023554
0.097176
0.128259
0.134233
0.136881
0.121192
0.119662
0.088763
0.028734
-0.015491
-0.060188
-0.095152
-0.143297
-0.167119
-0.183001
-0.195096
-0.175273
-0.130331
-0.102416
-0.039069
-0.004316
0.051607
0.080814
0.088012
0.137528
0.102726
0.097968
0.062963
-0.017553
-0.075738
-0.122477
-0.084173
-0.143125
-0.172820
-0.196095
-0.188272
-0.111453
-0.078537
-0.062879
-0.047109
0.026058
0.070293
0.088872
0.114532
0.150469
0.114344
0.080616
0.057289
0.040652
0.018712
-0.025345
-0.120075
-0.159471
-0.200626
-0.228099
-0.187164
-0.156306
-0.114566
-0.077865
-0.001663
0.050491
0.088411
0.111105
0.105262
0.101195
0.089167
0.080292
0.059772
0.057085
0.002672
-0.054584
-0.109075
-0.132482
-0.163644
-0.205770
-0.200555
-0.181263
-0.147695
-0.078337
0.001914
0.036725
0.068490
0.111011
0.133804
0.153305
0.140522
0.115269
0.070106
0.025296
-0.023817
-0.057392
-0.094788
-0.150403
-0.176325
-0.177397
-0.182000
-0.139938
-0.112871
-0.095206
-0.041926
0.029575
0.074800
0.108327
0.155897
0.139577
0.120160
0.080238
0.046701
-0.013546
-0.047919
-0.082099
-0.109994
-0.152361
-0.162286
-0.188006
-0.174301
-0.169721
-0.143859
-0.085811
-0.028140
0.047651
0.070510
0.092336
0.116359
0.125153
0.114275
0.088010
0.068263
0.039046
-0.012540
-0.075274
-0.133395
-0.144587
-0.164993
-0.186864
-0.182633
-0.137062
-0.136750
-0.110333
-0.056303
0.023251
0.064315
0.082587
0.119075
0.119438
0.107049
0.080245
0.025166
-0.035537
-0.063710
-0.059659
-0.105904
-0.164431
-0.193742
-0.186535
-0.163483
-0.156726
-0.112841
-0.071665
-0.037479
0.001127
0.043566
0.067315
0.095836
0.131694
0.128427
0.077862
0.044303
0.008882
-0.035101
-0.084415
-0.101959
-0.155996
-0.206721
-0.217124
-0.180372
-0.175288
-0.148893
-0.106530
-0.056897
-0.015202
0.047893
0.047373
0.094727
0.119835
0.124717
0.114005
0.056941
-0.002600
-0.042054
-0.094409
-0.127132
-0.129384
-0.179358
-0.223211
-0.224547
-0.178433
-0.123756
-0.083674
-0.050611
-0.009180
0.028152
0.041197
0.064553
0.079950
0.063605
0.070761
0.041709
-0.019427
-0.069461
-0.108572
-0.119701
-0.138538
-0.186035
-0.177794
-0.190510
-0.159178
-0.113690
-0.102046
-0.076987
-0.002855
0.020258
0.049646
0.073784
0.091189
0.083764
0.065590
0.022326
-0.033017
-0.069112
-0.100506
-0.154041
-0.151614
-0.147031
-0.159303
-0.175227
-0.165928
-0.121599
-0.084981
-0.045081
0.006379
0.062077
0.103513
0.117156
0.119435
0.113581
0.089709
0.044190
0.031974
-0.029173
-0.064732
-0.109871
-0.157209
-0.186105
-0.188041
-0.190198
-0.169970
-0.110292
-0.064296
-0.004743
0.053567
0.086952
0.108179
0.128889
0.126387
0.112227
0.078600
0.085303
0.042577
-0.028330
-0.069644
-0.093475
-0.144644
-0.131894
-0.149488
-0.128716
-0.093909
-0.093420
-0.058522
-0.006170
0.035274
0.057038
0.113237
0.122638
0.143895
0.164443
0.129261
0.070897
0.020507
-0.018333
-0.062757
-0.089021
-0.140874
-0.169030
-0.165064
-0.143854
-0.138809
-0.146158
-0.136737
-0.063934
0.036390
0.074824
0.077423
0.085220
0.082701
0.096185
0.089207
0.067150
0.002510
-0.050711
-0.114929
-0.182817
-0.208119
-0.222006
-0.227869
-0.191613
-0.166107
-0.154444
-0.105761
-0.076279
-0.037797
0.004607
0.030292
0.069155
0.077671
0.073368
0.051468
0.000009
-0.045891
-0.076534
-0.124582
-0.167059
-0.207809
-0.235955
-0.247788
-0.239350
-0.203428
-0.191927
-0.138520
-0.095698
-0.050838
-0.013097
0.007157
0.050955
0.052663
0.056545
0.047079
0.003679
-0.042971
-0.104597
-0.125126
-0.187897
-0.182688
-0.198487
-0.227042
-0.232559
-0.243783
-0.201723
-0.129503
-0.056520
-0.020783
0.005061
0.053810
0.068454
0.077258
0.066513
0.018244
-0.014539
-0.040552
-0.078175
-0.119326
-0.172925
-0.219835
-0.237981
-0.234840
-0.230877
-0.231496
-0.201517
-0.126519
-0.083734
-0.043477
-0.017886
0.021643
0.048031
0.057515
0.044702
0.043421
0.004409
-0.031549
-0.062632
-0.113981
-0.149601
-0.165483
-0.185792
-0.166870
-0.153454
-0.138956
-0.108791
-0.036727
0.060633
0.117425
0.157226
0.191660
0.232904
0.294601
0.312684
0.305001
0.303127
0.308241
0.277568
0.256052
0.241960
0.243040
0.229665
0.242536
0.266627
0.320559
0.402759
0.495893
0.559319
0.637374
0.728337
0.787169
0.822464
0.828606
0.825492
0.792126
0.735971
0.689422
0.640491
0.551124
0.433256
0.317152
0.233898
0.175722
0.138064
0.104797
0.101313
0.085467
0.084173
0.112078
0.140793
0.157242
0.162698
0.151234
0.132933
0.135427
0.114812
0.050995
-0.007322
-0.048817
-0.107526
-0.161321
-0.180602
-0.186156
-0.177978
-0.150288
-0.102993
-0.059653
-0.019801
0.009155
0.045767
0.058241
0.077154
0.105161
0.118399
0.121219
0.084984
0.031456
-0.020399
-0.077715
-0.120441
-0.182227
-0.187347
-0.181901
-0.182913
-0.174571
-0.131435
-0.090468
-0.040934
-0.000281
0.037282
0.064847
0.088230
0.064672
0.114461
0.101308
0.035987
-0.005575
-0.035610
-0.096337
-0.146024
-0.170348
-0.187581
-0.209626
-0.197671
-0.173833
-0.143631
-0.095456
-0.046821
-0.010340
0.041257
0.077327
0.094716
0.101647
0.095141
0.079964
0.049795
0.013397
-0.042602
-0.102184
-0.140445
-0.165359
-0.186567
-0.206635
-0.187021
-0.176405
-0.155902
-0.101927
-0.040976
-0.003262
0.047648
0.094120
0.118044
0.107615
0.088748
0.113305
0.076234
0.032768
0.010894
-0.027017
-0.113708
-0.163602
-0.175804
-0.171468
-0.157470
-0.144799
-0.116771
-0.057396
-0.012336
0.022281
0.055093
0.119249
0.171916
0.175139
0.165560
0.148270
0.106719
0.051226
0.009573
-0.039651
-0.018867
-0.038985
-0.114662
-0.145624
-0.142486
-0.129229
-0.080112
-0.022794
0.024246
0.083620
0.141815
0.162898
0.198501
0.211618
0.194377
0.176094
0.142764
0.097402
0.043881
-0.003430
-0.039611
-0.063798
-0.087039
-0.106680
-0.106617
-0.086230
-0.036076
0.022546
0.079128
0.111869
0.144919
0.164271
0.187350
0.216506
0.220688
0.200649
0.178818
0.130877
0.082910
0.025734
-0.015408
-0.042994
-0.082265
-0.084785
-0.072048
-0.064074
-0.022925
0.014498
0.056410
0.107494
0.149353
0.181982
0.201328
0.206086
0.189013
0.163931
0.145235
0.109215
0.057306
-0.017911
-0.047451
-0.052088
-0.071743
-0.082834
-0.081199
-0.069042
-0.028286
0.006193
0.047602
0.118664
0.124714
0.169907
0.196856
0.194282
0.179830
0.161966
0.120075
0.079744
0.029976
0.002804
-0.026521
-0.050583
-0.081396
-0.110210
-0.135377
-0.106438
-0.034831
-0.011816
0.024467
0.069995
0.112225
0.137360
0.159100
0.158765
0.145099
0.125270
0.081111
0.027922
-0.012345
-0.056564
-0.099890
-0.132373
-0.159716
-0.164156
-0.154491
-0.143362
-0.106534
-0.056459
-0.017413
0.016102
0.022478
0.060794
0.108263
0.134425
0.131987
0.100243
0.052803
0.011067
-0.030408
-0.062365
-0.128867
-0.170573
-0.185752
-0.222970
-0.246860
-0.223939
-0.164102
-0.103090
-0.052364
-0.015089
0.033879
0.077641
0.087637
0.090023
0.087427
0.088748
0.042030
-0.009588
-0.057141
-0.108837
-0.167893
-0.229971
-0.222913
-0.191243
-0.189029
-0.188508
-0.160844
-0.114997
-0.070381
-0.022504
0.025644
0.053713
0.070842
0.070968
0.072376
0.056164
0.037228
-0.021736
-0.052130
-0.078141
-0.131458
-0.204036
-0.246383
-0.243197
-0.228317
-0.230865
-0.156214
-0.090965
-0.044024
-0.018194
0.013490
0.056075
0.077177
0.080532
0.085025
0.063297
0.013262
-0.028612
-0.048652
-0.095491
-0.118060
-0.157652
-0.155570
-0.181171
-0.194459
-0.157681
-0.134940
-0.105775
-0.061504
-0.004662
0.052000
0.060033
0.075550
0.084597
0.100662
0.084047
0.036095
0.031091
-0.019071
-0.076391
-0.127657
-0.173782
-0.189690
-0.193179
-0.193399
-0.181532
-0.131821
-0.094483
-0.034263
0.035690
0.075667
0.091890
0.090045
0.094104
0.095844
0.059546
0.007353
-0.026240
-0.024673
-0.069577
-0.111694
-0.149285
-0.178901
-0.187180
-0.168940
-0.164580
-0.142428
-0.107736
-0.057463
0.007877
0.053854
0.095297
0.119171
0.130742
0.122321
0.093584
0.059534
0.006670
-0.040979
-0.079152
-0.124158
-0.172784
-0.211061
-0.204462
-0.195168
-0.170975
-0.139663
-0.118158
-0.055691
0.006902
0.063583
0.089467
0.112072
0.116885
0.105498
0.091504
0.061703
0.010969
-0.038693
-0.092441
-0.165347
-0.182458
-0.185511
-0.199730
-0.205941
-0.179175
-0.142162
-0.122015
-0.068936
-0.003509
0.045891
0.074245
0.107760
0.110247
0.093035
0.064218
0.037053
0.039255
0.000018
-0.065488
-0.136173
-0.187896
-0.199116
-0.197137
-0.188233
-0.179371
-0.144284
-0.099694
-0.061024
-0.015100
0.027186
0.061499
0.087775
0.117353
0.093183
0.072556
0.023176
-0.013605
-0.045077
-0.094794
-0.158461
-0.179910
-0.195476
-0.215553
-0.213502
-0.200884
-0.156226
-0.106604
-0.068912
-0.009171
0.027833
0.060294
0.089836
0.092358
0.087341
0.071770
0.049537
0.004017
-0.039162
-0.081964
-0.128082
-0.160064
-0.190304
-0.201130
-0.181804
-0.167326
-0.128977
-0.086862
-0.053390
0.004446
0.043652
0.070895
0.098734
0.123420
0.118878
0.102036
0.060508
0.014580
-0.028150
-0.066077
-0.110017
-0.139460
-0.162392
-0.183313
-0.174612
-0.137579
-0.101341
-0.082556
-0.058875
0.023366
0.062424
0.101869
0.124503
0.109319
0.101669
0.084735
0.041590
-0.032898
-0.049994
-0.077692
-0.096162
-0.103943
-0.103253
-0.132296
-0.154173
-0.156494
-0.125425
-0.082312
-0.054913
0.041557
0.124499
0.161116
0.162362
0.147779
0.121848
0.110874
0.075302
0.025122
-0.001694
-0.063913
-0.114188
-0.153333
-0.179420
-0.191230
-0.170804
-0.149156
-0.133038
-0.101896
-0.050252
-0.003140
0.040861
0.077718
0.100811
0.106184
0.095483
0.083993
0.039203
-0.013817
-0.063489
-0.120446
-0.178379
-0.202302
-0.237453
-0.234685
-0.206992
-0.205569
-0.198771
-0.159649
-0.124229
-0.056477
-0.008520
0.060601
0.068533
0.074821
0.069033
0.047572
0.008538
-0.036387
-0.079442
-0.141386
-0.184435
-0.220924
-0.251002
-0.252502
-0.236759
-0.205804
-0.184013
-0.149951
-0.101995
-0.039999
-0.004893
0.019137
0.035054
0.047970
0.045345
0.043662
-0.003661
-0.031049
-0.084864
-0.142165
-0.188660
-0.215233
-0.243666
-0.248733
-0.269934
-0.261826
-0.208994
-0.136302
-0.097528
-0.050044
0.012413
0.038734
0.030063
0.050156
0.033369
-0.008479
-0.050000
-0.078088
-0.107397
-0.119429
-0.158286
-0.202246
-0.231073
-0.233887
-0.232728
-0.220942
-0.181606
-0.136732
-0.110234
-0.075320
-0.012096
0.021927
0.024042
0.008879
-0.003141
0.017862
-0.002190
-0.059134
-0.099621
-0.145575
-0.163532
-0.191511
-0.189567
-0.179949
-0.155551
-0.119309
-0.075396
-0.019171
0.051136
0.116277
0.152179
0.212155
0.257285
0.268992
0.298581
0.298840
0.275678
0.251383
0.234588
0.204204
0.201649
0.227882
0.233951
0.233691
0.279418
0.370467
0.428233
0.493509
0.544712
0.640720
0.747736
0.787930
0.823365
0.865671
0.830526
0.803239
0.767119
0.701499
0.645412
0.528588
0.435579
0.351594
0.274813
0.176043
0.108179
0.104110
0.092849
0.079470
0.090664
0.119263
0.113078
0.151444
0.195901
0.196937
0.195613
0.154890
0.099913
0.038752
-0.006961
-0.057904
-0.098078
-0.137403
-0.178274
-0.180960
-0.176891
-0.158244
-0.141027
-0.084685
-0.046670
0.009813
0.055739
0.087581
0.098460
0.100926
0.096379
0.088314
0.044175
-0.005899
-0.053026
-0.107008
-0.129405
-0.160398
-0.191376
-0.198136
-0.171169
-0.161008
-0.153345
-0.114047
-0.062203
-0.020713
0.039706
0.068013
0.104200
0.107876
0.080705
0.023667
-0.001429
-0.035338
-0.043595
-0.086700
-0.125377
-0.162703
-0.206039
-0.207171
-0.191410
-0.181023
-0.166107
-0.123079
-0.091624
-0.034641
0.018689
0.049632
0.078271
0.106614
0.087815
0.058666
0.034423
-0.003715
-0.030070
-0.080412
-0.126663
-0.150753
-0.162902
-0.174476
-0.185393
-0.177356
-0.138084
-0.094395
-0.067932
0.017468
0.048902
0.068166
0.101605
0.115766
0.096846
0.077218
0.046768
-0.002417
-0.058010
-0.106935
-0.143501
-0.150262
-0.169044
-0.192803
-0.177379
-0.166103
-0.117233
-0.063014
-0.015331
0.028556
0.064928
0.094430
0.111644
0.102581
0.081515
0.087739
0.071802
0.047692
0.003292
-0.045834
-0.082233
-0.109585
-0.146131
-0.170124
-0.166621
-0.144684
-0.067936
-0.048890
0.034623
0.098503
0.125213
0.152831
0.183103
0.201330
0.207416
0.170079
0.124701
0.072428
0.026892
-0.028574
-0.074783
-0.100370
-0.120988
-0.137034
-0.138256
-0.103223
-0.060953
-0.000441
0.046210
0.084798
0.151382
0.185697
0.189184
0.183462
0.185113
0.199624
0.174720
0.136141
0.083446
0.020220
-0.038178
-0.094966
-0.087997
-0.067850
-0.071076
-0.067146
-0.029279
0.008690
0.044130
0.083941
0.132794
0.160192
0.168255
0.166582
0.198748
0.201314
0.180474
0.111809
0.050201
0.010821
-0.039807
-0.076718
-0.115318
-0.102687
-0.099795
-0.092507
-0.059054
-0.011970
0.031131
0.072107
0.102859
0.121161
0.145203
0.147062
0.158374
0.162196
0.116282
0.066144
0.020381
-0.028102
-0.069499
-0.114315
-0.136833
-0.158219
-0.165388
-0.136010
-0.062209
-0.038317
-0.010759
0.032727
0.067556
0.086511
0.088559
0.115613
0.114973
0.094218
0.057527
0.013368
-0.014189
-0.063771
-0.111609
-0.167146
-0.171426
-0.175946
-0.182224
-0.171263
-0.156278
-0.111134
-0.062931
-0.000719
0.037768
0.065822
0.094912
0.102305
0.064266
0.027860
-0.014639
-0.052569
-0.089177
-0.132975
-0.164606
-0.170092
-0.210231
-0.243704
-0.253553
-0.224851
-0.161982
-0.103788
-0.064444
-0.010830
0.036438
0.061681
0.077528
0.074686
0.055004
0.037435
-0.005481
-0.062031
-0.118486
-0.168269
-0.204897
-0.215546
-0.227764
-0.243967
-0.251388
-0.207295
-0.161961
-0.119589
-0.072934
-0.025979
0.021432
0.032493
0.058322
0.078161
0.057181
0.033263
0.009289
-0.038759
-0.070630
-0.127239
-0.178571
-0.222502
-0.240395
-0.243658
-0.248691
-0.235330
-0.196428
-0.142701
-0.094927
-0.059256
0.000961
0.036027
0.064152
0.056685
0.059896
0.039043
0.005835
-0.049395
-0.091363
-0.139520
-0.196737
-0.238669
-0.253389
-0.224551
-0.207902
-0.208363
-0.185591
-0.144741
-0.095983
-0.037299
0.012639
0.038197
0.042325
0.042843
0.040113
0.046901
0.024170
-0.036430
-0.083720
-0.123066
-0.159465
-0.176185
-0.230609
-0.257100
-0.249713
-0.226808
-0.194873
-0.144056
-0.098538
-0.030259
0.031987
0.040361
0.063257
0.083448
0.069895
0.051717
0.016313
-0.023625
-0.071636
-0.121313
-0.143807
-0.174998
-0.182943
-0.199955
-0.209456
-0.201154
-0.165710
-0.126036
-0.100967
-0.056333
-0.029016
0.027021
0.065604
0.080103
0.061898
0.036939
0.010526
-0.033938
-0.069934
-0.113026
-0.162329
-0.199912
-0.236566
-0.246389
-0.222688
-0.195348
-0.174039
-0.134505
-0.099651
-0.048693
-0.014223
0.000783
0.048446
0.057235
0.026346
0.007500
-0.016402
-0.036254
-0.082805
-0.117110
-0.181974
-0.193129
-0.224574
-0.233006
-0.232901
-0.222195
-0.189851
-0.146499
-0.106749
-0.054908
-0.008873
0.026892
0.046318
0.058997
0.054196
0.045594
0.005453
-0.037745
-0.084935
-0.127040
-0.166533
-0.217030
-0.242815
-0.256008
-0.241884
-0.221757
-0.191636
-0.138086
-0.101365
-0.078665
-0.036381
-0.001327
0.028083
0.072621
0.060718
0.028780
0.001316
-0.051361
-0.076170
-0.136095
-0.189632
-0.236913
-0.232752
-0.237687
-0.266692
-0.247440
-0.209059
-0.160359
-0.096950
-0.056592
-0.028676
0.016139
0.049745
0.050736
0.049568
0.063782
0.025734
-0.030330
-0.095580
-0.162459
-0.217001
-0.255840
-0.272498
-0.255809
-0.254500
-0.245321
-0.195174
-0.154937
-0.113650
-0.053778
-0.015613
0.034603
0.093783
0.099091
0.057509
0.027900
-0.008334
-0.022959
-0.073597
-0.119465
-0.152768
-0.193550
-0.218666
-0.225391
-0.223013
-0.216156
-0.193393
-0.172213
-0.066807
-0.003667
0.027516
0.038474
0.063497
0.079221
0.069289
0.070271
0.037121
-0.026725
-0.041469
-0.088726
-0.153436
-0.197401
-0.221106
-0.237459
-0.214466
-0.191233
-0.161410
-0.110559
-0.066330
-0.030513
-0.030139
0.031161
0.080489
0.098757
0.103932
0.086348
0.043769
-0.002340
-0.046862
-0.074367
-0.138464
-0.175033
-0.185503
-0.206680
-0.188560
-0.155598
-0.105637
-0.072960
-0.068456
-0.043162
0.018491
0.042863
0.059448
0.087908
0.077159
0.067731
0.011166
-0.034060
-0.086459
-0.140003
-0.145219
-0.177753
-0.225723
-0.235092
-0.235052
-0.229328
-0.179750
-0.116453
-0.089618
-0.042176
-0.012589
0.010749
0.043661
0.069990
0.052982
0.027318
-0.013923
-0.059397
-0.121298
-0.184843
-0.218416
-0.260214
-0.284643
-0.277863
-0.276840
-0.211447
-0.187980
-0.158668
-0.144577
-0.104856
-0.037214
0.003903
0.038861
0.038866
0.022700
0.002082
-0.043281
-0.071070
-0.123514
-0.181244
-0.192731
-0.249143
-0.278005
-0.290860
-0.292941
-0.263312
-0.217756
-0.184194
-0.142631
-0.082343
-0.036666
-0.010150
0.008839
0.016071
-0.003030
-0.023180
-0.050376
-0.089941
-0.114182
-0.165300
-0.224926
-0.262197
-0.282553
-0.285187
-0.267133
-0.247777
-0.218684
-0.180464
-0.139797
-0.082348
-0.038626
-0.017750
-0.015805
0.002810
0.029856
-0.000701
-0.063022
-0.095189
-0.126452
-0.191298
-0.233025
-0.270883
-0.295501
-0.276248
-0.258328
-0.241923
-0.226099
-0.168333
-0.135261
-0.127834
-0.081439
-0.039572
0.000473
0.007535
0.026712
0.028164
-0.000263
-0.033952
-0.085456
-0.122577
-0.152496
-0.180381
-0.179877
-0.155105
-0.119755
-0.089669
-0.041912
0.009832
0.065675
0.115346
0.190699
0.241869
0.307779
0.349279
0.367806
0.382671
0.380517
0.369815
0.352083
0.327332
0.313244
0.310112
0.328516
0.370233
0.381062
0.463209
0.538339
0.622606
0.711375
0.751738
0.776361
0.821749
0.809198
0.753506
0.736574
0.685454
0.638346
0.524721
0.401055
0.315643
0.215200
0.119132
0.041319
-0.014982
-0.058865
-0.070411
-0.058184
-0.025573
0.022131
0.072183
0.087028
0.119258
0.115169
0.119315
0.102397
0.091886
0.071323
0.041267
-0.022768
-0.085270
-0.143087
-0.177066
-0.192037
-0.207681
-0.213210
-0.202279
-0.171461
-0.143351
-0.098251
-0.021537
0.016054
0.064468
0.082619
0.085390
0.071045
0.051572
0.023848
-0.023887
-0.067185
-0.138211
-0.175256
-0.193148
-0.237461
-0.261454
-0.282227
-0.199621
-0.164874
-0.132259
-0.069404
-0.028888
0.011018
0.039697
0.053100
0.069547
0.074631
0.049726
0.018053
-0.028611
-0.088137
-0.122855
-0.163901
-0.194538
-0.230571
-0.255052
-0.241306
-0.236899
-0.212080
-0.189326
-0.091252
0.010782
0.057386
0.080136
0.081816
0.089249
0.075588
0.048102
0.015557
-0.022159
-0.086110
-0.104842
-0.133110
-0.189495
-0.202983
-0.214303
-0.202146
-0.177778
-0.162955
-0.127350
-0.069176
-0.024576
0.003512
0.026637
0.067076
0.096450
0.091914
0.060987
0.038137
0.003443
-0.040852
-0.087232
-0.134247
-0.153848
-0.170801
-0.183120
-0.184131
-0.167472
-0.140432
-0.091443
-0.035937
0.000965
0.036321
0.073948
0.092573
0.111463
0.113123
0.092976
0.064730
0.018633
-0.022559
-0.067110
-0.111943
-0.135020
-0.157075
-0.158473
-0.152475
-0.125868
-0.088874
-0.046990
-0.013735
0.037134
0.066395
0.114314
0.155686
0.161684
0.145439
0.119525
0.098365
0.052694
-0.006195
-0.057614
-0.103904
-0.110777
-0.107473
-0.130926
-0.104699
-0.059841
-0.026688
0.014889
0.050230
0.086482
0.130689
0.137296
0.147283
0.173892
0.187038
0.160471
0.117039
0.074930
0.031922
-0.003261
-0.014083
-0.069192
-0.082215
-0.110565
-0.108690
-0.073639
-0.057604
-0.021192
0.023752
0.067634
0.103870
0.175032
0.214749
0.220813
0.180532
0.140490
0.124915
0.072493
0.024677
-0.023038
-0.059106
-0.101459
-0.129986
-0.142392
-0.137349
-0.117660
-0.075053
-0.034872
0.015655
0.070126
0.104847
0.143924
0.165605
0.177009
0.157115
0.136708
0.107040
0.057366
0.013965
-0.051160
-0.104270
-0.141149
-0.171510
-0.176915
-0.162585
-0.151374
-0.124829
-0.091959
-0.047612
0.011170
0.058712
0.066111
0.086038
0.098785
0.075076
0.065089
0.057122
0.031546
-0.012753
-0.093200
-0.145389
-0.186369
-0.211917
-0.214953
-0.219994
-0.210117
-0.164397
-0.115170
-0.086489
-0.049640
-0.001428
0.045746
0.061015
0.074642
0.057704
0.026451
-0.004201
-0.070431
-0.110882
-0.129485
-0.153029
-0.195908
-0.221799
-0.225487
-0.204400
-0.196841
-0.192351
-0.151000
-0.107666
-0.051944
0.018280
0.040903
0.035727
0.059330
0.063362
0.013000
0.014878
-0.038918
-0.109448
-0.137892
-0.172968
-0.209097
-0.228898
-0.248530
-0.231664
-0.214792
-0.187557
-0.150016
-0.098486
-0.053950
-0.012393
0.023990
0.045045
0.047371
0.045893
0.022737
-0.002772
-0.053409
-0.100922
-0.148196
-0.193285
-0.229590
-0.247508
-0.255407
-0.252635
-0.222214
-0.178560
-0.144899
-0.085057
-0.027490
0.003838
0.026815
0.044014
0.049835
0.045532
0.030019
-0.000439
-0.020301
-0.092218
-0.141225
-0.150156
-0.194849
-0.252754
-0.264837
-0.240847
-0.219942
-0.194875
-0.142550
-0.095259
-0.048402
0.003427
0.052046
0.067344
0.066769
0.053029
0.031152
0.009036
-0.034049
-0.067703
-0.131708
-0.188764
-0.227841
-0.239757
-0.231153
-0.207096
-0.201894
-0.188049
-0.147332
-0.103838
-0.070597
-0.004215
0.052952
0.075018
0.069271
0.017545
0.019759
0.039977
0.002732
-0.045720
-0.111213
-0.175159
-0.186596
-0.206800
-0.236454
-0.241330
-0.220524
-0.188301
-0.139712
-0.094094
-0.052730
-0.013606
0.025026
0.059463
0.066725
0.072768
0.049636
0.017931
-0.025944
-0.086116
-0.124386
-0.147658
-0.184631
-0.215570
-0.232666
-0.231937
-0.221411
-0.192603
-0.130500
-0.088138
-0.045392
-0.007904
0.040880
0.054507
0.041670
0.043345
0.007900
-0.005080
-0.037627
-0.071182
-0.124262
-0.163041
-0.190843
-0.197799
-0.214775
-0.218073
-0.198858
-0.178900
-0.137088
-0.090825
-0.049455
-0.013712
0.029772
0.053209
0.055977
0.044520
0.030934
0.006231
-0.042740
-0.065896
-0.121071
-0.188591
-0.206345
-0.222849
-0.235736
-0.260294
-0.213260
-0.188280
-0.130644
-0.096614
-0.056747
-0.020419
0.022363
0.048407
0.042070
0.035989
0.015811
-0.013815
-0.068271
-0.122629
-0.138574
-0.175036
-0.219240
-0.252869
-0.259505
-0.256355
-0.238452
-0.207716
-0.150703
-0.090510
-0.011192
0.035175
0.053034
0.047343
0.019977
0.045545
0.033259
-0.007966
-0.064940
-0.096915
-0.124285
-0.177013
-0.232744
-0.234342
-0.248674
-0.255717
-0.239725
-0.202257
-0.153067
-0.092624
-0.060795
-0.010281
0.029165
0.046137
0.045792
0.051186
0.029180
0.003277
-0.037631
-0.083106
-0.129348
-0.186664
-0.239676
-0.254246
-0.249140
-0.245289
-0.238646
-0.200630
-0.149636
-0.101487
-0.062788
-0.008833
0.042395
0.064111
0.073301
0.070384
0.068820
0.029086
-0.008546
-0.052221
-0.107650
-0.159038
-0.194302
-0.212260
-0.214204
-0.208276
-0.185302
-0.159679
-0.139507
-0.094374
-0.044540
-0.002450
0.051269
0.089364
0.093723
0.083868
0.060351
0.027376
-0.016541
-0.070661
-0.125701
-0.141150
-0.160433
-0.203959
-0.228688
-0.203359
-0.160596
-0.147195
-0.096024
-0.038437
0.004349
0.035631
0.030672
0.070498
0.101404
0.098409
0.079389
0.051093
0.024288
-0.029390
-0.085214
-0.146019
-0.184093
-0.180329
-0.197020
-0.176600
-0.155696
-0.132140
-0.103515
-0.064762
-0.032934
0.010114
0.044795
0.068204
0.074887
0.061864
0.016835
-0.007170
-0.044186
-0.079679
-0.127410
-0.184246
-0.236259
-0.246814
-0.241873
-0.241437
-0.222563
-0.207386
-0.165141
-0.105408
-0.065012
-0.032648
0.005327
0.023441
0.033642
0.034253
0.008556
-0.017508
-0.060607
-0.111618
-0.162793
-0.203792
-0.248592
-0.260381
-0.263917
-0.271748
-0.249368
-0.225558
-0.197238
-0.140587
-0.082435
-0.038197
-0.004102
0.002388
0.009952
0.025607
0.014286
-0.016149
-0.089359
-0.128294
-0.184928
-0.224942
-0.250778
-0.274355
-0.272774
-0.283217
-0.266997
-0.233147
-0.201210
-0.158255
-0.102573
-0.068490
-0.002761
0.019488
0.035995
0.026932
0.002752
-0.008389
-0.060947
-0.116215
-0.158732
-0.204558
-0.249271
-0.284172
-0.260127
-0.232173
-0.227210
-0.216828
-0.175057
-0.129983
-0.088511
-0.029719
0.017536
0.037103
0.033766
0.017948
0.014431
-0.001996
-0.053101
-0.117744
-0.168493
-0.225245
-0.280550
-0.295649
-0.283981
-0.275330
-0.273449
-0.239531
-0.184440
-0.110577
-0.039744
0.004228
0.041484
0.092106
0.130719
0.122088
0.090570
0.087691
0.059591
0.024744
0.009789
-0.011415
-0.031921
-0.038625
-0.023469
0.013015
0.058123
0.118028
0.199710
0.286934
0.353617
0.444798
0.504799
0.543847
0.589355
0.620367
0.645217
0.672185
0.656607
0.645170
0.629943
0.622902
0.577591
0.534775
0.517135
0.524243
0.510736
0.503074
0.542175
0.587795
0.589382
0.539189
0.498088
0.456821
0.408777
0.368757
0.282823
0.205556
0.131171
0.067760
0.007441
-0.058795
-0.103193
-0.100761
-0.133776
-0.150765
-0.131854
-0.110278
-0.085279
-0.018857
0.025634
0.065406
0.090399
0.125795
0.122700
0.116769
0.097881
0.055687
0.012357
-0.033739
-0.065799
-0.126493
-0.191255
-0.210516
-0.211321
-0.196704
-0.181428
-0.150923
-0.116148
-0.081484
-0.056200
-0.010208
0.030240
0.051601
0.062488
0.054933
0.047039
0.013332
-0.033434
-0.079767
-0.129447
-0.164851
-0.206998
-0.229148
-0.239339
-0.214690
-0.179760
-0.160187
-0.127217
-0.066844
-0.032323
0.006742
0.035661
0.070607
0.080175
0.052920
0.028759
0.000015
-0.026512
-0.051102
-0.074524
-0.104392
-0.153740
-0.199346
-0.201511
-0.202498
-0.189713
-0.161020
-0.133724
-0.075433
-0.022549
0.026089
0.052654
0.079382
0.073471
0.074477
0.066146
0.035489
-0.020665
-0.093087
-0.116995
-0.168445
-0.191612
-0.207527
-0.203258
-0.198251
-0.187729
-0.149331
-0.087416
-0.041245
0.001920
0.041417
0.091592
0.121627
0.130312
0.109944
0.089751
0.071694
0.031187
-0.021225
-0.065592
-0.104313
-0.111626
-0.141048
-0.160969
-0.157805
-0.167484
-0.111589
-0.066606
-0.021195
0.030747
0.080079
0.108704
0.139127
0.146404
0.140271
0.119580
0.090087
0.051351
0.004492
-0.030615
-0.076147
-0.102714
-0.122638
-0.129450
-0.122969
-0.110374
-0.074774
-0.043555
-0.012066
0.072963
0.126670
0.163516
0.192884
0.207883
0.183120
0.153076
0.124613
0.088740
0.043040
0.001570
-0.045052
-0.066213
-0.094562
-0.102296
-0.099053
-0.081259
-0.044943
-0.006881
0.046986
0.090048
0.141887
0.177023
0.187651
0.186211
0.176170
0.158022
0.153298
0.104693
0.046286
0.004131
-0.048615
-0.084239
-0.106195
-0.113933
-0.124220
-0.089389
-0.052592
-0.002366
0.072160
0.105723
0.132239
0.169059
0.204140
0.212254
0.196971
0.168395
0.139105
0.077674
0.031274
-0.029842
-0.084244
-0.116666
-0.126408
-0.145371
-0.147186
-0.130763
-0.054755
0.004831
0.043702
0.067260
0.099692
0.116850
0.139889
0.167978
0.141839
0.108858
0.087523
0.053123
0.010556
-0.035791
-0.103767
-0.156243
-0.171428
-0.176254
-0.178785
-0.162817
-0.124325
-0.060951
-0.015331
0.029733
0.066967
0.084144
0.105534
0.125411
0.104990
0.065446
0.029087
-0.017647
-0.063222
-0.096934
-0.149918
-0.179921
-0.196552
-0.214307
-0.210729
-0.185777
-0.165643
-0.120601
-0.089114
-0.027650
0.018925
0.049359
0.068767
0.096039
0.102772
0.075831
0.040829
-0.020339
-0.075227
-0.104096
-0.163922
-0.191972
-0.218597
-0.223814
-0.232027
-0.212215
-0.184885
-0.146142
-0.083870
-0.052356
0.049669
0.056983
0.055225
0.066574
0.057714
0.038213
0.023984
-0.011781
-0.064081
-0.107683
-0.163684
-0.191447
-0.216048
-0.228917
-0.228462
-0.211194
-0.171890
-0.126861
-0.066941
-0.023792
0.023675
0.050856
0.068674
0.080559
0.068842
0.044953
0.012782
-0.022685
-0.067770
-0.110450
-0.161970
-0.200552
-0.213400
-0.215408
-0.209961
-0.190711
-0.171921
-0.133764
-0.091177
-0.030054
0.028380
0.060709
0.074635
0.082401
0.076278
0.057092
0.031055
0.000215
-0.063831
-0.117509
-0.148342
-0.194973
-0.223145
-0.228009
-0.229665
-0.183449
-0.149138
-0.104129
-0.062001
-0.009706
0.026662
0.062523
0.109856
0.095424
0.073826
0.059128
0.034639
-0.010988
-0.070307
-0.108172
-0.147951
-0.175984
-0.197948
-0.201027
-0.197070
-0.179207
-0.167650
-0.132768
-0.053607
-0.001907
0.050532
0.075163
0.084442
0.102762
0.091934
0.070670
0.033259
-0.008030
-0.062485
-0.121425
-0.147869
-0.152097
-0.191919
-0.201120
-0.200617
-0.188043
-0.158248
-0.111175
-0.063241
-0.015676
0.031252
0.067484
0.095471
0.110169
0.105027
0.074140
0.024937
-0.006894
-0.043182
-0.089563
-0.123777
-0.173108
-0.203473
-0.229976
-0.220491
-0.201948
-0.182450
-0.133478
-0.077732
-0.028022
0.020647
0.069058
0.090647
0.089878
0.085546
0.066239
0.026936
-0.010197
-0.052837
-0.096691
-0.142040
-0.178878
-0.213967
-0.210982
-0.204228
-0.193792
-0.162727
-0.123272
-0.054974
-0.003701
-0.008095
0.014450
0.073870
0.096817
0.088933
0.055554
0.008916
-0.014215
-0.043933
-0.105883
-0.154648
-0.177421
-0.209702
-0.213404
-0.217629
-0.206016
-0.192405
-0.128057
-0.087286
-0.030755
0.007138
0.054393
0.066037
0.106610
0.096988
0.059177
0.032122
-0.006521
-0.053914
-0.107942
-0.179919
-0.205617
-0.207540
-0.207275
-0.203449
-0.188916
-0.172274
-0.114485
-0.074537
-0.026031
0.003042
0.039552
0.051145
0.068875
0.069570
0.042006
0.011574
-0.012720
-0.067519
-0.109414
-0.166137
-0.196741
-0.220306
-0.232661
-0.228484
-0.209276
-0.183923
-0.139848
-0.077515
-0.019148
0.009967
0.028896
0.043532
0.055392
0.053970
0.038788
0.012835
-0.048569
-0.091435
-0.122529
-0.158376
-0.178358
-0.197848
-0.214817
-0.226830
-0.212998
-0.160878
-0.099017
-0.066767
-0.038609
-0.013833
0.023403
0.081845
0.096005
0.073613
0.037631
-0.008281
-0.039998
-0.084722
-0.118574
-0.164485
-0.191256
-0.206742
-0.239271
-0.214306
-0.161043
-0.132234
-0.107210
-0.049307
-0.003427
0.051405
0.078047
0.101301
0.116022
0.108723
0.083746
0.069825
0.027761
-0.022027
-0.077917
-0.135626
-0.164482
-0.186710
-0.210859
-0.214357
-0.168598
-0.130395
-0.094036
-0.052768
-0.006998
0.047079
0.086651
0.105057
0.108205
0.104302
0.081605
0.069894
0.021183
-0.044950
-0.086903
-0.123339
-0.133289
-0.154026
-0.177918
-0.176712
-0.149348
-0.111364
-0.089274
-0.051374
0.036661
0.091351
0.101980
0.111790
0.130512
0.121815
0.088764
0.061360
0.016539
-0.032386
-0.076550
-0.125361
-0.166910
-0.198390
-0.201111
-0.186130
-0.179595
-0.130126
-0.095055
-0.065939
-0.016911
0.020268
0.050268
0.075444
0.092393
0.094543
0.065601
0.040412
-0.002472
-0.074318
-0.115768
-0.155501
-0.186758
-0.214435
-0.224153
-0.232973
-0.217331
-0.189826
-0.148117
-0.096825
-0.036626
0.028393
0.046019
0.050940
0.048877
0.036704
0.026783
-0.003913
-0.034133
-0.091716
-0.140605
-0.166673
-0.190809
-0.226284
-0.244832
-0.240969
-0.205544
-0.174784
-0.129571
-0.091148
-0.061381
-0.026616
-0.009783
0.008727
0.049668
0.024198
0.012171
0.005160
0.001261
-0.075382
-0.159191
-0.193335
-0.221188
-0.232096
-0.231754
-0.232418
-0.209696
-0.188060
-0.147659
-0.100390
-0.057199
-0.014657
0.017063
0.038974
0.045177
0.041788
0.016712
-0.016020
-0.031512
-0.081473
-0.141767
-0.179873
-0.212446
-0.223322
-0.237600
-0.236265
-0.223354
-0.183987
-0.147661
-0.109051
-0.065303
-0.026354
-0.016537
0.025441
0.066211
0.068370
0.032809
-0.009690
-0.038619
-0.089538
-0.136316
-0.180418
-0.234063
-0.245745
-0.250683
-0.238012
-0.225557
-0.188136
-0.127076
-0.070450
-0.012389
0.073176
0.124339
0.157760
0.173250
0.170312
0.162405
0.137401
0.112478
0.072907
0.045246
0.032212
0.008913
0.025619
0.043584
0.088247
0.147465
0.235607
0.297164
0.376837
0.466304
0.527365
0.593699
0.631562
0.698167
0.748865
0.785664
0.786536
0.763520
0.725437
0.683996
0.628773
0.592115
0.562112
0.536530
0.515755
0.488984
0.487958
0.512496
0.490417
0.458179
0.430958
0.422301
0.399235
0.356903
0.303950
0.246847
0.200802
0.157257
0.088724
0.031632
-0.010004
-0.057675
-0.093364
-0.107353
-0.112989
-0.110932
-0.089815
-0.055058
-0.019461
0.032377
0.063162
0.105779
0.138369
0.139131
0.120560
0.095994
0.058979
0.010300
-0.045188
-0.075577
-0.101807
-0.143656
-0.164618
-0.158596
-0.144025
-0.149563
-0.134562
-0.119628
-0.049603
0.004117
0.045619
0.077839
0.094513
0.102266
0.087557
0.065296
0.028523
-0.009791
-0.047575
-0.093416
-0.133268
-0.167844
-0.191621
-0.193176
-0.184307
-0.158287
-0.130067
-0.099766
-0.052706
-0.005931
0.044169
0.083148
0.094258
0.083512
0.066088
0.055823
0.014458
-0.033380
-0.058888
-0.068764
-0.128836
-0.167261
-0.181951
-0.178193
-0.161667
-0.171640
-0.149039
-0.093397
-0.052878
0.012497
0.066661
0.089399
0.119873
0.137721
0.126924
0.102219
0.061516
0.028271
-0.033817
-0.082735
-0.121944
-0.152795
-0.169151
-0.188767
-0.172565
-0.138826
-0.115134
-0.076852
-0.025566
0.027151
0.084014
0.109569
0.122847
0.112137
0.138719
0.145267
0.115080
0.054262
-0.007053
-0.051252
-0.081989
-0.115634
-0.143051
-0.147832
-0.121209
-0.108613
-0.085581
-0.055560
-0.009010
0.041433
0.102582
0.160397
0.181114
0.193541
0.186774
0.159928
0.135035
0.096166
0.055762
-0.008897
-0.065134
-0.101245
-0.119460
-0.121140
-0.097883
-0.068764
-0.036333
0.005022
0.062301
0.101936
0.141103
0.181517
0.193525
0.191469
0.203245
0.194629
0.163823
0.126131
0.053834
0.020528
-0.025573
-0.064279
-0.078412
-0.060859
-0.057664
-0.045031
-0.029752
-0.007348
0.051041
0.110205
0.154344
0.188128
0.208786
0.223725
0.223153
0.212204
0.177258
0.131708
0.083469
0.036967
0.013146
-0.021442
-0.071952
-0.079533
-0.068143
-0.049531
-0.024613
0.012814
0.067628
0.112805
0.150238
0.173614
0.204970
0.210932
0.204733
0.159336
0.140594
0.115870
0.056435
0.015391
-0.041465
-0.090449
-0.110737
-0.075127
-0.052120
-0.049627
-0.010222
0.010832
0.016812
0.057603
0.116517
0.170421
0.174840
0.176261
0.148899
0.138251
0.115609
0.058879
0.013206
-0.039718
-0.079785
-0.123641
-0.143831
-0.152701
-0.150803
-0.133163
-0.087584
-0.046274
-0.004746
0.034388
0.068894
0.078990
0.112913
0.120248
0.108129
0.110267
0.082721
0.042216
-0.019447
-0.070784
-0.112357
-0.143093
-0.179663
-0.194971
-0.194748
-0.181350
-0.108849
-0.052077
-0.037480
0.005932
0.037474
0.082097
0.081299
0.077624
0.089580
0.084862
0.052536
0.009107
-0.048743
-0.104479
-0.166966
-0.184563
-0.187026
-0.193936
-0.168382
-0.169034
-0.158361
-0.118928
-0.061571
0.006315
0.073525
0.082645
0.100068
0.100511
0.072569
0.052947
0.046817
0.008639
-0.056396
-0.103659
-0.141332
-0.173982
-0.189044
-0.208037
-0.206403
-0.172817
-0.134624
-0.114502
-0.073841
-0.018251
0.038291
0.059345
0.088477
0.088066
0.095623
0.076584
0.036358
0.000396
-0.058619
-0.108062
-0.125431
-0.159636
-0.189739
-0.204481
-0.194693
-0.176447
-0.129933
-0.101483
-0.051673
-0.004733
0.028499
0.051731
0.070532
0.080435
0.117884
0.093495
0.042803
-0.002391
-0.037843
-0.102760
-0.131131
-0.158278
-0.180595
-0.183358
-0.180752
-0.155729
-0.136855
-0.116652
-0.062823
0.001909
0.045732
0.074786
0.091212
0.097129
0.084028
0.083951
0.048714
0.022769
-0.017047
-0.065025
-0.108935
-0.142314
-0.185054
-0.197799
-0.183125
-0.137257
-0.113311
-0.092889
-0.038490
0.007982
0.044040
0.081099
0.112154
0.114711
0.101442
0.074582
0.023776
0.004705
-0.021418
-0.072735
-0.132178
-0.164916
-0.184563
-0.181685
-0.175551
-0.158518
-0.117877
-0.088849
-0.041889
0.021692
0.065905
0.083966
0.103942
0.096423
0.080740
0.094942
0.069360
0.013378
-0.060446
-0.115666
-0.139506
-0.157606
-0.175509
-0.168735
-0.171877
-0.158861
-0.132179
-0.099783
-0.040974
0.003959
0.043276
0.075502
0.100567
0.103481
0.097336
0.075378
0.054032
0.005213
-0.036723
-0.081107
-0.125638
-0.163140
-0.188423
-0.202793
-0.199904
-0.166953
-0.139664
-0.101519
-0.059412
-0.009166
0.035350
0.086232
0.096078
0.105547
0.101632
0.054857
0.041346
0.017284
-0.031305
-0.087457
-0.133815
-0.166923
-0.209096
-0.227423
-0.188270
-0.152432
-0.123956
-0.098475
-0.049406
0.002122
0.041511
0.066764
0.091772
0.100042
0.103134
0.094905
0.049200
0.022333
-0.032268
-0.094367
-0.142034
-0.172992
-0.199733
-0.207725
-0.202852
-0.194931
-0.154549
-0.131629
-0.077288
-0.024980
0.042298
0.073129
0.083515
0.107179
0.112217
0.083039
0.038615
-0.015992
-0.059962
-0.118965
-0.145442
-0.175050
-0.204442
-0.220632
-0.206214
-0.192201
-0.161190
-0.127416
-0.071818
-0.026573
0.015365
0.061322
0.099523
0.107369
0.110583
0.083033
0.049539
0.005288
-0.043487
-0.089474
-0.137992
-0.183000
-0.206035
-0.217395
-0.210777
-0.187055
-0.175972
-0.148294
-0.082724
-0.018850
0.025212
0.057340
0.058228
0.077513
0.094603
0.063167
0.021972
-0.021068
-0.076637
-0.124808
-0.154176
-0.168599
-0.178493
-0.192363
-0.186834
-0.172221
-0.151504
-0.100440
-0.047384
-0.014959
0.016664
0.056429
0.092291
0.112355
0.105244
0.081890
0.046233
0.009903
-0.049285
-0.070880
-0.105829
-0.143148
-0.176887
-0.201982
-0.178441
-0.141966
-0.082678
-0.038715
-0.019609
0.018362
0.078685
0.111858
0.121216
0.117960
0.119435
0.086751
0.070550
0.035493
-0.026751
-0.082343
-0.119801
-0.158596
-0.191867
-0.173397
-0.166476
-0.141063
-0.107082
-0.068684
-0.028916
0.037785
0.081828
0.126407
0.140135
0.149636
0.139844
0.114201
0.081170
0.043159
-0.001442
-0.045828
-0.089041
-0.129779
-0.156574
-0.156947
-0.147522
-0.134539
-0.095686
-0.065735
-0.006622
0.027493
0.055853
0.089832
0.114426
0.112874
0.095729
0.075241
0.048531
0.022217
-0.011907
-0.075992
-0.133977
-0.177748
-0.199191
-0.212212
-0.198855
-0.180714
-0.153589
-0.115879
-0.062002
0.004420
0.039351
0.066326
0.097385
0.087373
0.074000
0.050878
0.024916
-0.008582
-0.065725
-0.115018
