0.060581
0.097256
0.126626
0.150493
0.170289
0.174129
0.172182
0.136890
0.130510
0.095232
0.040857
-0.015049
-0.071485
-0.100003
-0.121052
-0.126156
-0.126833
-0.094323
-0.081354
-0.055283
-0.006488
0.046462
0.084468
0.117461
0.141070
0.148350
0.132378
0.120058
0.081904
0.040141
0.010198
-0.042026
-0.086789
-0.125332
-0.152818
-0.148397
-0.117693
-0.089081
-0.079659
-0.072433
-0.014625
0.028599
0.066786
0.109226
0.135117
0.150283
0.140837
0.119192
0.080817
0.049452
0.001962
-0.053125
-0.084418
-0.113583
-0.138266
-0.145212
-0.125949
-0.105802
-0.081037
-0.046589
-0.010298
0.027592
0.070776
0.107049
0.136090
0.160424
0.154238
0.132459
0.098930
0.051308
0.019734
-0.033186
-0.059513
-0.101656
-0.135023
-0.109220
-0.106975
-0.078094
-0.046829
-0.005521
0.041935
0.079176
0.101399
0.128896
0.157328
0.164688
0.152494
0.134277
0.113868
0.074528
0.034639
-0.000553
-0.027261
-0.065055
-0.096464
-0.107858
-0.099390
-0.054936
-0.034502
-0.001210
0.050893
0.100221
0.138477
0.158846
0.178468
0.196557
0.209601
0.178609
0.155719
0.115557
0.067063
0.027218
-0.004480
-0.034490
-0.053290
-0.058852
-0.043868
-0.009097
0.007622
0.030428
0.073956
0.117143
0.160073
0.200515
0.222434
0.236926
0.233192
0.206314
0.184435
0.158827
0.124560
0.078281
0.030281
-0.011668
-0.026173
-0.010297
-0.004008
0.003770
0.017145
0.062342
0.108329
0.163547
0.216473
0.226419
0.249177
0.260748
0.258889
0.236084
0.199398
0.166453
0.126137
0.072746
0.023113
-0.003948
-0.024843
-0.032793
-0.014985
0.012996
0.024731
0.062964
0.135242
0.184184
0.207506
0.215300
0.229842
0.245614
0.239893
0.207859
0.186248
0.138769
0.096215
0.045923
0.003091
-0.023632
-0.044781
-0.060404
-0.054377
-0.024225
0.003832
0.046603
0.092382
0.131520
0.150467
0.198463
0.221168
0.218902
0.213680
0.194370
0.154708
0.107612
0.052676
0.019077
-0.013770
-0.040711
-0.078265
-0.089038
-0.082097
-0.057254
-0.019261
0.015809
0.046418
0.077096
0.102845
0.139902
0.150548
0.174755
0.178184
0.171755
0.137714
0.065097
0.009377
-0.033759
-0.080984
-0.117882
-0.130103
-0.133299
-0.126732
-0.100887
-0.060398
-0.032812
0.001344
0.040694
0.089064
0.147770
0.153413
0.133563
0.152978
0.122907
0.105078
0.038664
-0.028119
-0.078543
-0.123760
-0.155420
-0.201761
-0.220407
-0.167766
-0.117376
-0.081447
-0.046097
-0.007710
0.007656
0.008700
0.091691
0.120912
0.149635
0.170521
0.147103
0.096580
0.028983
-0.019204
-0.081961
-0.122136
-0.138913
-0.156684
-0.151714
-0.146814
-0.136837
-0.099580
-0.053417
0.002912
0.045847
0.081020
0.100499
0.140961
0.137996
0.133756
0.098355
0.052435
0.000574
-0.054771
-0.085652
-0.083146
-0.132742
-0.149962
-0.152917
-0.123568
-0.115821
-0.083633
-0.045566
-0.007231
0.039160
0.072191
0.094005
0.126209
0.145181
0.134471
0.098793
0.066149
0.028873
-0.011995
-0.043139
-0.099425
-0.142710
-0.158314
-0.169734
-0.165532
-0.139990
-0.095330
-0.051942
0.006279
0.054436
0.086059
0.109407
0.136967
0.127416
0.130758
0.114019
0.076981
0.037259
-0.011589
-0.060092
-0.105326
-0.136201
-0.158384
-0.160871
-0.155642
-0.129342
-0.090419
-0.051714
-0.002899
0.046169
0.085537
0.113964
0.128857
0.139231
0.128119
0.109018
0.080937
0.039639
-0.008212
-0.063960
-0.098536
-0.125629
-0.144635
-0.149074
-0.138489
-0.124794
-0.094522
-0.051843
-0.004129
0.045917
0.087846
0.121571
0.140450
0.149322
0.138092
0.114386
0.073069
0.031405
-0.010475
-0.060103
-0.097747
-0.123934
-0.141700
-0.156617
-0.164869
-0.156006
-0.119534
-0.064176
0.007149
0.044121
0.088517
0.124285
0.156564
0.159737
0.142673
0.118792
0.084284
0.040418
-0.020727
-0.075737
-0.113795
-0.151359
-0.169550
-0.172627
-0.154226
-0.144735
-0.119298
-0.061594
0.013265
0.070511
0.092303
0.116056
0.133831
0.154632
0.142300
0.125684
0.083768
0.041010
-0.011618
-0.053549
-0.104069
-0.143035
-0.169747
-0.170586
-0.168698
-0.148429
-0.121361
-0.081318
-0.027989
0.010627
0.054434
0.089793
0.108851
0.144728
0.142389
0.119691
0.093026
0.049379
-0.003999
-0.053311
-0.100317
-0.136428
-0.165822
-0.178567
-0.174459
-0.156003
-0.119051
-0.070071
-0.025144
0.012871
0.052070
0.088966
0.112023
0.120422
0.114109
0.097462
0.064571
0.026647
-0.005675
-0.045934
-0.117759
-0.152662
-0.180473
-0.189055
-0.177803
-0.154457
-0.127959
-0.070382
-0.026670
0.002311
0.040434
0.079075
0.104231
0.114149
0.128300
0.106041
0.078236
0.043119
-0.011402
-0.063506
-0.115558
-0.153057
-0.178736
-0.191008
-0.177335
-0.142815
-0.113580
-0.095440
-0.056833
0.002756
0.060599
0.085235
0.108030
0.113549
0.107602
0.100715
0.056471
0.028668
-0.001788
-0.063810
-0.108023
-0.139112
-0.171144
-0.179146
-0.170920
-0.136114
-0.114591
-0.077270
-0.039937
0.004544
0.055154
0.073308
0.076149
0.107224
0.121361
0.101879
0.065040
0.021661
-0.021746
-0.064798
-0.111873
-0.135420
-0.155339
-0.165408
-0.164790
-0.143534
-0.130369
-0.075036
-0.026619
0.025628
0.050641
0.106564
0.136372
0.144553
0.151821
0.124856
0.089135
0.050108
0.000664
-0.030401
-0.074582
-0.112268
-0.127962
-0.125068
-0.111597
-0.095941
-0.079197
-0.052802
-0.001174
0.045663
0.087247
0.113943
0.118423
0.152890
0.128351
0.104259
0.070961
0.032005
0.000816
-0.044854
-0.073833
-0.091778
-0.116566
-0.136357
-0.118754
-0.086058
-0.052102
-0.017277
0.009353
0.055226
0.091459
0.119553
0.146757
0.158752
0.144114
0.122595
0.097565
0.052065
-0.001764
-0.048365
-0.098971
-0.121672
-0.145607
-0.170214
-0.153636
-0.133249
-0.091405
-0.025056
0.030213
0.061127
0.070162
0.096589
0.110159
0.118030
0.100287
0.088142
0.073208
0.038206
-0.018688
-0.068776
-0.108618
-0.144522
-0.173500
-0.173309
-0.165048
-0.127936
-0.085436
-0.046774
-0.023095
0.000639
0.028713
0.059711
0.090461
0.097586
0.099927
0.064695
0.032632
0.001486
-0.041836
-0.097131
-0.140801
-0.153683
-0.189326
-0.189220
-0.169088
-0.163031
-0.130514
-0.103030
-0.062875
-0.015245
0.017330
0.051315
0.073419
0.082803
0.079050
0.065566
0.026763
-0.018437
-0.065882
-0.106983
-0.147123
-0.174537
-0.193101
-0.202833
-0.205710
-0.174675
-0.141957
-0.108169
-0.068884
-0.011845
0.027573
0.043244
0.065430
0.067365
0.059371
0.035512
0.013241
-0.014403
-0.059619
-0.130935
-0.169902
-0.181341
-0.145568
-0.161111
-0.172814
-0.172408
-0.109258
-0.074995
-0.042548
-0.000096
0.049982
0.070767
0.086561
0.097937
0.079401
0.055053
0.009509
-0.010074
-0.046459
-0.093344
-0.149877
-0.182227
-0.196219
-0.206601
-0.201762
-0.176339
-0.140409
-0.092849
-0.041381
0.002150
0.048139
0.086043
0.123940
0.131344
0.111498
0.109408
0.111465
0.075527
0.028663
-0.007927
-0.022534
-0.032149
-0.030163
-0.009086
0.050118
0.101536
0.144582
0.203856
0.267039
0.349974
0.431961
0.510505
0.579159
0.601379
0.607827
0.599896
0.593453
0.571565
0.565444
0.563924
0.586588
0.624728
0.649261
0.670293
0.673244
0.681411
0.689574
0.715701
0.766833
0.802572
0.808339
0.794742
0.788706
0.730773
0.638297
0.562936
0.466456
0.368948
0.259282
0.160200
0.072713
0.017150
-0.012448
-0.027932
-0.010169
0.013302
0.034559
0.064390
0.112543
0.146867
0.186982
0.193256
0.199111
0.203665
0.188897
0.173303
0.129234
0.074486
0.042234
-0.017899
-0.069823
-0.102938
-0.122351
-0.120199
-0.139429
-0.111856
-0.069389
-0.025460
0.022603
0.056660
0.092117
0.116292
0.148696
0.158723
0.152933
0.116488
0.081953
0.042810
-0.016521
-0.071344
-0.113653
-0.138872
-0.175320
-0.187118
-0.202606
-0.136950
-0.072287
-0.033724
0.004021
0.036967
0.068688
0.099204
0.136576
0.132630
0.121618
0.111265
0.078004
0.020814
-0.015819
-0.065116
-0.120940
-0.129375
-0.154577
-0.169748
-0.168701
-0.155234
-0.134322
-0.072395
0.020252
0.078461
0.096958
0.128698
0.158304
0.151733
0.145400
0.116278
0.097518
0.051067
0.006570
-0.034428
-0.097378
-0.120976
-0.132187
-0.138425
-0.128255
-0.107473
-0.072501
-0.036505
0.020471
0.055671
0.095208
0.130142
0.168144
0.179332
0.162069
0.153257
0.116132
0.078716
0.035088
-0.013531
-0.063900
-0.083247
-0.108781
-0.112127
-0.100604
-0.088576
-0.063369
-0.019587
0.033101
0.092211
0.133770
0.169267
0.186533
0.227464
0.200979
0.182373
0.152200
0.108528
0.062265
0.005322
-0.032789
-0.054511
-0.074034
-0.083079
-0.071091
-0.057627
-0.013230
0.035005
0.075780
0.124402
0.174199
0.204316
0.227384
0.246306
0.233809
0.213033
0.180478
0.131495
0.092723
0.061936
0.025128
-0.017573
-0.055247
-0.066155
-0.058454
-0.040640
-0.009138
0.055720
0.109117
0.171553
0.202346
0.238626
0.264310
0.250767
0.246795
0.232925
0.204480
0.155189
0.120395
0.072406
0.027212
0.000056
-0.018369
-0.040550
-0.035582
-0.024167
0.004285
0.047525
0.091833
0.143077
0.184377
0.185970
0.223881
0.273270
0.270740
0.220452
0.179555
0.146398
0.108187
0.054824
0.011040
0.020329
-0.014315
-0.071178
-0.039384
-0.026187
-0.004346
0.029375
0.072787
0.107427
0.146752
0.166104
0.174789
0.189345
0.188595
0.165884
0.139487
0.101358
0.072552
0.040718
-0.006144
-0.038282
-0.066466
-0.081314
-0.078914
-0.078852
-0.043796
-0.009385
0.026061
0.066335
0.107047
0.131260
0.152023
0.163488
0.166307
0.143077
0.114251
0.064649
0.031104
-0.014265
-0.059797
-0.102931
-0.122029
-0.127587
-0.117057
-0.101861
-0.070945
-0.042260
-0.008778
0.039321
0.066573
0.089759
0.113967
0.127027
0.123086
0.103031
0.083911
0.022664
-0.031812
-0.058523
-0.081053
-0.119704
-0.150310
-0.145302
-0.145564
-0.130322
-0.113538
-0.095134
-0.048478
-0.000988
0.051882
0.084808
0.110941
0.097491
0.073939
0.090688
0.081447
0.039536
-0.029345
-0.072922
-0.113494
-0.136212
-0.139782
-0.164336
-0.160432
-0.155138
-0.132977
-0.087879
-0.031694
0.002277
0.038647
0.071249
0.080268
0.087215
0.112660
0.093637
0.061834
0.032276
0.000662
-0.052852
-0.098419
-0.137689
-0.178870
-0.181221
-0.158129
-0.120606
-0.106685
-0.066395
-0.022302
0.021896
0.065536
0.085688
0.099105
0.110912
0.104724
0.089498
0.057841
0.004367
-0.059031
-0.046694
-0.086675
-0.123275
-0.152267
-0.162390
-0.147870
-0.117048
-0.103576
-0.066462
-0.029876
0.009238
0.068533
0.108329
0.110709
0.120394
0.110543
0.090316
0.054365
0.008063
-0.043508
-0.082083
-0.096306
-0.103190
-0.134044
-0.148258
-0.162492
-0.157782
-0.105839
-0.050608
-0.006181
0.046226
0.087842
0.102000
0.107913
0.100466
0.092667
0.081313
0.082388
0.020990
-0.037746
-0.066971
-0.087586
-0.130853
-0.157396
-0.160331
-0.150275
-0.138886
-0.109740
-0.058105
-0.009220
0.052919
0.111029
0.135994
0.132705
0.126985
0.109993
0.096001
0.060769
0.020200
-0.005277
-0.054544
-0.098701
-0.121996
-0.158545
-0.201372
-0.156573
-0.141241
-0.103875
-0.053928
-0.000074
0.037201
0.076674
0.097475
0.114059
0.098029
0.114310
0.106157
0.054113
-0.001525
-0.038770
-0.077815
-0.107060
-0.121895
-0.148343
-0.174758
-0.167042
-0.158648
-0.122464
-0.059859
-0.018409
0.026316
0.069980
0.088521
0.092549
0.118569
0.118397
0.094410
0.058587
0.011758
-0.036050
-0.088656
-0.131672
-0.148714
-0.177207
-0.194404
-0.178333
-0.164279
-0.159980
-0.103772
-0.008750
0.043489
0.091622
0.123851
0.141035
0.122556
0.113045
0.096353
0.046167
0.016931
-0.035386
-0.088381
-0.122041
-0.144833
-0.180910
-0.197710
-0.191668
-0.161542
-0.107083
-0.059240
-0.016856
0.040138
0.066712
0.096010
0.120851
0.123349
0.108174
0.078956
0.051321
0.009832
-0.042446
-0.090121
-0.128593
-0.174832
-0.196356
-0.200703
-0.190770
-0.182615
-0.151082
-0.111754
-0.071741
-0.028904
0.015217
0.071220
0.118172
0.155184
0.132683
0.093530
0.052569
0.007849
-0.045278
-0.103341
-0.147431
-0.178160
-0.199999
-0.210169
-0.199255
-0.163002
-0.132689
-0.090854
-0.043556
-0.007275
0.033776
0.068556
0.092140
0.106814
0.097083
0.074421
0.034754
0.008662
-0.021599
-0.086435
-0.115711
-0.151970
-0.181219
-0.192594
-0.191482
-0.166887
-0.131964
-0.065515
-0.031123
-0.011404
0.032403
0.089050
0.133483
0.141415
0.118337
0.096636
0.087690
0.080961
0.024219
-0.045301
-0.093060
-0.136877
-0.153145
-0.160926
-0.179506
-0.167848
-0.112106
-0.047571
0.012434
0.050917
0.086589
0.119702
0.141980
0.140199
0.127072
0.113832
0.075597
0.035916
0.009184
-0.051770
-0.103099
-0.150413
-0.160504
-0.157628
-0.155834
-0.135981
-0.101977
-0.064471
-0.010642
0.032126
0.085041
0.110338
0.138258
0.141098
0.157643
0.150096
0.093403
0.078257
0.024912
-0.022487
-0.071528
-0.110529
-0.138088
-0.149652
-0.149887
-0.146278
-0.110840
-0.063049
-0.028321
0.009127
0.059690
0.093750
0.116702
0.127505
0.092367
0.101963
0.071458
0.020637
-0.026622
-0.069256
-0.122567
-0.163200
-0.177245
-0.171652
-0.179858
-0.167803
-0.153832
-0.122824
-0.078840
-0.041564
0.002080
0.065987
0.106506
0.098167
0.094486
0.080602
0.036374
0.001491
-0.045131
-0.114990
-0.155227
-0.188862
-0.211541
-0.226267
-0.221768
-0.202318
-0.164473
-0.125064
-0.067567
-0.021462
0.011336
0.044835
0.062078
0.059982
0.058101
0.048129
0.020439
-0.025964
-0.082078
-0.121209
-0.159987
-0.199938
-0.206673
-0.215177
-0.198298
-0.190437
-0.170123
-0.122169
-0.089170
-0.027092
0.002369
0.019832
0.047353
0.069685
0.065835
0.044600
0.002953
-0.047748
-0.094543
-0.128240
-0.162290
-0.169988
-0.178467
-0.205018
-0.185352
-0.199541
-0.181239
-0.110282
-0.059155
-0.020806
0.005563
0.038080
0.058488
0.068918
0.058926
0.026157
0.008873
-0.021849
-0.064971
-0.111096
-0.153809
-0.194344
-0.215118
-0.231357
-0.208522
-0.205597
-0.191286
-0.144214
-0.102701
-0.052758
-0.001322
0.034353
0.061879
0.070650
0.094284
0.095588
0.061740
0.052337
0.009868
-0.041934
-0.073825
-0.079674
-0.077078
-0.089763
-0.051840
-0.003540
0.026945
0.095531
0.175177
0.246803
0.311047
0.362941
0.416655
0.481152
0.535872
0.538319
0.519555
0.539423
0.527602
0.498052
0.493740
0.519116
0.550589
0.573030
0.599811
0.649099
0.701624
0.744173
0.803209
0.840744
0.858314
0.852321
0.862328
0.863340
0.820949
0.752544
0.655527
0.549793
0.439881
0.320570
0.231470
0.148960
0.071857
0.028047
0.013996
0.032671
0.057537
0.084045
0.122627
0.149656
0.186744
0.206033
0.214496
0.202522
0.165610
0.144138
0.109063
0.062919
-0.006981
-0.030160
-0.055278
-0.102478
-0.138066
-0.154482
-0.144870
-0.081328
-0.067151
-0.053254
-0.018444
0.030501
0.079643
0.113299
0.114381
0.123205
0.115479
0.105207
0.074099
0.023171
-0.034865
-0.077811
-0.122679
-0.151208
-0.165165
-0.191187
-0.177450
-0.155441
-0.117156
-0.076054
-0.028686
0.005104
0.050028
0.069154
0.102141
0.094785
0.099257
0.080865
0.033607
0.027619
-0.034404
-0.092677
-0.124316
-0.114617
-0.139433
-0.158535
-0.141847
-0.115505
-0.092958
-0.055915
-0.008881
0.036099
0.072994
0.098346
0.112570
0.116966
0.108275
0.091364
0.052587
0.020785
-0.031930
-0.090721
-0.122673
-0.142027
-0.150313
-0.149650
-0.138385
-0.110920
-0.088223
-0.043627
0.007403
0.066523
0.104773
0.133325
0.143343
0.147078
0.142004
0.128376
0.091032
0.039468
-0.019446
-0.044403
-0.089514
-0.118849
-0.129974
-0.140431
-0.140036
-0.113418
-0.080943
-0.029630
0.012589
0.059249
0.104763
0.143105
0.160781
0.173868
0.176140
0.163278
0.125805
0.078146
0.035836
-0.009287
-0.035357
-0.074623
-0.111455
-0.114687
-0.097626
-0.066076
-0.033580
0.009615
0.061381
0.108768
0.171926
0.194192
0.198853
0.228452
0.234395
0.181520
0.157328
0.113734
0.068051
0.029548
-0.013169
-0.039433
-0.057444
-0.060736
-0.058519
-0.058246
-0.008418
0.052397
0.099685
0.128549
0.154603
0.195094
0.222686
0.237701
0.240017
0.215318
0.157561
0.107491
0.081917
0.036337
-0.006349
-0.032263
-0.042651
-0.040539
-0.037512
-0.020540
0.001878
0.039251
0.082338
0.132424
0.174935
0.213607
0.239669
0.246678
0.222922
0.214106
0.177032
0.128008
0.079150
0.024685
-0.020798
-0.036621
-0.059081
-0.067629
-0.058545
-0.047480
-0.025347
0.013189
0.060149
0.110464
0.148632
0.184170
0.210482
0.240225
0.230919
0.198767
0.159848
0.111055
0.058553
0.013225
-0.026593
-0.068406
-0.108167
-0.119699
-0.098032
-0.068450
-0.051790
-0.028513
0.017385
0.062591
0.104668
0.138562
0.169777
0.177035
0.152125
0.131727
0.087696
0.097971
0.042667
-0.020359
-0.075963
-0.116140
-0.146979
-0.160181
-0.147815
-0.151456
-0.124497
-0.067556
-0.007033
0.029876
0.081205
0.111576
0.114513
0.115398
0.123934
0.112974
0.070108
0.032641
-0.011636
-0.055653
-0.096175
-0.147212
-0.187865
-0.185340
-0.179687
-0.183399
-0.113808
-0.077580
-0.036586
0.002197
0.052202
0.061276
0.095264
0.093409
0.076215
0.075250
0.070308
0.077130
0.000187
-0.064639
-0.120527
-0.149160
-0.164563
-0.174452
-0.175538
-0.174809
-0.133034
-0.079601
-0.017565
0.021579
0.057826
0.088153
0.101689
0.119270
0.111201
0.097516
0.059440
0.014926
-0.037702
-0.080370
-0.134496
-0.179009
-0.218133
-0.221134
-0.196643
-0.217330
-0.087504
-0.057993
-0.040589
-0.010867
0.056534
0.117423
0.117831
0.111018
0.109587
0.094285
0.041366
0.004503
-0.036484
-0.082809
-0.116826
-0.148123
-0.164640
-0.159419
-0.164260
-0.151332
-0.108127
-0.067038
-0.028447
-0.004707
0.032135
0.052299
0.077915
0.111688
0.109861
0.088540
0.065773
0.024523
-0.008044
-0.037028
-0.092829
-0.142251
-0.157822
-0.166379
-0.146101
-0.127346
-0.109734
-0.079663
-0.031320
0.014271
0.056388
0.094432
0.121351
0.113280
0.099328
0.068103
0.038213
-0.000745
-0.047257
-0.043396
-0.066405
-0.097312
-0.132490
-0.156222
-0.157369
-0.139021
-0.096592
-0.040441
-0.003834
0.011347
0.067405
0.091744
0.113729
0.122258
0.114386
0.105760
0.071038
0.027572
-0.028858
-0.073789
-0.108793
-0.137326
-0.162559
-0.174201
-0.146637
-0.109965
-0.096878
-0.063167
-0.017853
0.015438
0.051579
0.077492
0.095104
0.103773
0.099983
0.074086
0.041421
0.009660
-0.039461
-0.074879
-0.116841
-0.155904
-0.166358
-0.163244
-0.151560
-0.125844
-0.088803
-0.084128
-0.025430
0.021785
0.054452
0.075792
0.086088
0.088356
0.100494
0.084565
0.045002
0.001784
-0.039684
-0.081612
-0.116354
-0.140949
-0.166477
-0.186527
-0.163037
-0.136029
-0.099783
-0.063420
-0.021098
0.013323
0.057568
0.076331
0.091399
0.092173
0.107610
0.093603
0.060913
0.044772
-0.025762
-0.079089
-0.121309
-0.154537
-0.174742
-0.186920
-0.178796
-0.159747
-0.132879
-0.078252
0.002860
0.021508
0.049180
0.087307
0.103503
0.099287
0.076016
0.060833
0.027339
-0.012161
-0.053863
-0.100294
-0.144096
-0.159883
-0.167397
-0.168690
-0.158944
-0.145550
-0.102533
-0.051913
-0.050515
0.005265
0.049092
0.080185
0.096803
0.104260
0.085555
0.058692
0.032159
-0.013702
-0.060713
-0.104196
-0.160098
-0.196563
-0.212811
-0.206869
-0.176097
-0.135246
-0.111674
-0.087645
-0.029133
0.033656
0.066910
0.103671
0.128566
0.129830
0.097885
0.059661
0.033044
-0.004425
-0.033056
-0.080817
-0.137298
-0.177067
-0.180490
-0.188491
-0.182546
-0.158760
-0.124795
-0.082126
-0.042134
0.000471
0.041105
0.080392
0.078628
0.091742
0.095657
0.066444
0.017243
-0.003962
-0.034858
-0.089809
-0.138346
-0.179414
-0.179152
-0.197089
-0.189501
-0.169932
-0.122323
-0.077257
-0.039683
-0.005437
0.051012
0.093861
0.123294
0.130153
0.120462
0.087738
0.045830
0.003178
-0.016880
-0.070615
-0.109896
-0.147728
-0.159467
-0.159612
-0.135988
-0.136761
-0.096613
-0.056714
-0.012124
0.022028
0.054329
0.123692
0.140174
0.140991
0.184444
0.175784
0.116899
0.041571
-0.029089
-0.064313
-0.104345
-0.132167
-0.160751
-0.171631
-0.178668
-0.164947
-0.088924
-0.048135
-0.009601
0.054733
0.105205
0.131068
0.140519
0.145187
0.135977
0.148908
0.116949
0.077395
0.020845
-0.037676
-0.106702
-0.118057
-0.123140
-0.127461
-0.110954
-0.110640
-0.080643
-0.042110
0.002065
0.042470
0.085988
0.119003
0.107948
0.121064
0.109387
0.090893
0.075978
0.068008
0.035797
-0.040412
-0.110019
-0.147021
-0.161901
-0.183392
-0.198987
-0.184065
-0.149313
-0.103170
-0.049905
0.038853
0.047707
0.101364
0.138769
0.127648
0.109920
0.075347
0.043398
0.017642
-0.028429
-0.119085
-0.186167
-0.179621
-0.161248
-0.175941
-0.201039
-0.148563
-0.119326
-0.101309
-0.071051
-0.024543
0.020331
0.065236
0.087471
0.078827
0.078890
0.051954
0.031143
-0.013591
-0.069714
-0.110335
-0.142639
-0.171463
-0.191758
-0.208858
-0.185684
-0.164047
-0.171107
-0.144764
-0.083390
-0.064437
-0.037385
0.068777
0.097060
0.137336
0.090300
0.057641
0.051135
0.014997
-0.051827
-0.114197
-0.120508
-0.170520
-0.211521
-0.224512
-0.217753
-0.192784
-0.150460
-0.104583
-0.046277
-0.003992
0.030319
0.048612
0.066360
0.082107
0.069677
0.055712
0.012621
-0.028520
-0.073837
-0.106087
-0.113278
-0.142400
-0.184972
-0.201074
-0.203493
-0.193633
-0.160496
-0.130713
-0.062142
-0.010252
0.023555
0.030494
0.068098
0.072564
0.076888
0.072581
0.026126
-0.016693
-0.056720
-0.101148
-0.132153
-0.169778
-0.171876
-0.135044
-0.100817
-0.091328
-0.095227
-0.023161
0.040343
0.110986
0.154923
0.210832
0.268884
0.273717
0.269178
0.325817
0.347468
0.326383
0.311976
0.303356
0.290657
0.282981
0.323202
0.337060
0.376774
0.416021
0.463516
0.546911
0.649930
0.728153
0.805235
0.862689
0.908400
0.937124
0.926468
0.888248
0.844813
0.785252
0.741935
0.712275
0.650753
0.569257
0.485189
0.394408
0.314762
0.279465
0.262714
0.247581
0.252059
0.246294
0.243342
0.272917
0.281003
0.277387
0.259900
0.243642
0.200026
0.147221
0.084192
0.028935
-0.036243
-0.058531
-0.048518
-0.076789
-0.098620
-0.064870
-0.028273
0.026493
0.088654
0.096213
0.119111
0.149718
0.155516
0.160317
0.161543
0.120281
0.088938
0.040185
0.005204
-0.034475
-0.065924
-0.110867
-0.115164
-0.125699
-0.117997
-0.107879
-0.080421
-0.045198
-0.006227
0.013107
0.081478
0.151581
0.135098
0.115978
0.103696
0.114668
0.082322
0.036559
-0.018885
-0.058792
-0.097342
-0.124964
-0.125481
-0.134330
-0.135406
-0.124023
-0.083663
-0.030383
0.018446
0.053210
0.069781
0.104608
0.124954
0.129910
0.123552
0.126116
0.083538
0.030240
0.000147
-0.039492
-0.098154
-0.144593
-0.153312
-0.154831
-0.131544
-0.120682
-0.097817
-0.018020
0.022507
0.059194
0.103836
0.147555
0.187848
0.196286
0.160100
0.123686
0.096765
0.056159
0.013492
-0.016432
-0.070692
-0.108413
-0.114565
-0.094849
-0.075065
-0.071486
-0.041162
0.019899
0.062598
0.096978
0.132885
0.163987
0.187346
0.199009
0.183732
0.148402
0.124636
0.096320
0.050249
0.007883
-0.018701
-0.049646
-0.045659
-0.077898
-0.077728
-0.054227
-0.018163
0.018788
0.060974
0.142547
0.162520
0.195226
0.207867
0.230750
0.225749
0.206989
0.168349
0.127088
0.077548
0.036660
-0.010017
-0.047555
-0.042502
-0.032054
-0.008972
-0.003385
0.011519
0.053287
0.118472
0.171748
0.198037
0.213032
0.260727
0.280067
0.256765
0.221151
0.173818
0.125692
0.102188
0.087172
0.067625
0.006150
-0.032575
-0.030809
-0.015994
0.012462
0.055519
0.091758
0.150784
0.184389
0.211833
0.243244
0.285940
0.280780
0.255249
0.232719
0.205200
0.162067
0.103003
0.062283
0.018642
-0.007479
-0.029186
-0.036924
-0.020682
0.010434
0.042550
0.085537
0.116531
0.158896
0.200637
0.217929
0.217882
0.263314
0.273541
0.267685
0.216148
0.157080
0.097905
0.034143
-0.013991
-0.042230
-0.070371
-0.078197
-0.052081
-0.030885
0.002780
0.056063
0.088901
0.141312
0.179200
0.208760
0.211301
0.221066
0.220570
0.192808
0.145432
0.087284
0.025234
-0.007060
-0.039112
-0.089193
-0.130043
-0.137782
-0.078382
-0.057617
-0.057007
-0.017166
0.045235
0.077542
0.110520
0.158634
0.177755
0.184540
0.185683
0.151687
0.123788
0.083075
0.031735
-0.035220
-0.089188
-0.123039
-0.132075
-0.140168
-0.143495
-0.114122
-0.093075
-0.072389
0.001491
0.054337
0.097625
0.121053
0.133575
0.148771
0.157960
0.117581
0.106404
0.056590
-0.001278
-0.046984
-0.083580
-0.130724
-0.150815
-0.164300
-0.147685
-0.139140
-0.112055
-0.080169
-0.020628
0.036478
0.089243
0.115798
0.126348
0.129802
0.136966
0.106888
0.082373
0.039513
-0.013170
-0.066685
-0.114211
-0.158215
-0.191612
-0.141252
-0.118919
-0.108639
-0.101449
-0.049940
-0.000708
0.049068
0.082050
0.121308
0.148156
0.155241
0.145303
0.127941
0.070683
0.033940
-0.005280
-0.053618
-0.078930
-0.099032
-0.115957
-0.139626
-0.142673
-0.127304
-0.090591
-0.057605
0.012054
0.074928
0.108032
0.118646
0.140326
0.159777
0.157095
0.127124
0.096900
0.053749
-0.001316
-0.044117
-0.077396
-0.104322
-0.136238
-0.155104
-0.161636
-0.122666
-0.091861
-0.047852
-0.004383
0.031275
0.087762
0.132394
0.147186
0.152461
0.133616
0.128620
0.096105
0.063193
0.025407
-0.029618
-0.074992
-0.117615
-0.119291
-0.125257
-0.114934
-0.115417
-0.098645
-0.036358
0.002350
0.047844
0.099379
0.128127
0.140046
0.143150
0.141779
0.123818
0.102261
0.021167
-0.005945
-0.063866
-0.096715
-0.115144
-0.113935
-0.111973
-0.108444
-0.114874
-0.073457
-0.059720
0.016618
0.032888
0.083249
0.150932
0.167256
0.171027
0.154864
0.125414
0.098431
0.056834
0.005723
-0.047907
-0.071574
-0.088733
-0.116026
-0.132329
-0.132602
-0.106294
-0.090903
-0.061817
-0.023569
0.019845
0.069969
0.098302
0.127556
0.162173
0.148579
0.142324
0.107572
0.046714
0.009118
-0.029532
-0.079316
-0.111322
-0.124895
-0.138340
-0.128874
-0.103973
-0.084685
-0.066878
-0.015556
0.015850
0.057713
0.093866
0.112258
0.127776
0.129941
0.107821
0.087135
0.048380
0.004235
-0.044281
-0.108029
-0.152907
-0.134094
-0.132613
-0.121686
-0.113909
-0.075616
-0.067981
-0.009576
0.009828
0.047745
0.101449
0.128997
0.140345
0.126494
0.094984
0.077198
0.028872
-0.015791
-0.057100
-0.100575
-0.123271
-0.142624
-0.156182
-0.149285
-0.145823
-0.101543
-0.058867
-0.017646
0.029726
0.087611
0.097142
0.101746
0.115967
0.139635
0.099847
0.067975
0.030940
-0.008997
-0.059334
-0.100828
-0.107409
-0.126205
-0.152338
-0.151090
-0.097182
-0.078398
-0.054032
-0.024059
0.024792
0.057135
0.083956
0.113531
0.131324
0.136000
0.097076
0.048525
0.042635
-0.011426
-0.047015
-0.092951
-0.117508
-0.146836
-0.152606
-0.148932
-0.115656
-0.100652
-0.079732
-0.052545
0.013918
0.065546
0.083457
0.108803
0.129647
0.129012
0.120184
0.090437
0.038058
-0.003672
-0.044865
-0.076002
-0.104345
-0.131295
-0.133456
-0.128258
-0.115857
-0.083431
-0.033174
0.009246
0.047482
0.084694
0.125210
0.125224
0.164792
0.139785
0.140742
0.119035
0.076188
0.031697
-0.022973
-0.058690
-0.087328
-0.096384
-0.118220
-0.117981
-0.100639
-0.082337
-0.039912
0.021148
0.083816
0.117525
0.132125
0.148710
0.138506
0.142202
0.140356
0.114460
0.114246
0.056574
0.000479
-0.033403
-0.064932
-0.086926
-0.098015
-0.096051
-0.081695
-0.042692
0.002897
0.044571
0.085676
0.116712
0.138747
0.144841
0.148545
0.135013
0.089508
0.063645
0.044434
-0.007810
-0.055965
-0.085310
-0.113292
-0.140987
-0.118620
-0.116731
-0.123046
-0.092121
-0.046799
0.037755
0.085101
0.098417
0.107436
0.111994
0.116713
0.121642
0.115543
0.064659
0.024833
-0.022485
-0.064370
-0.096882
-0.141831
-0.160260
-0.165591
-0.163854
-0.128901
-0.102031
-0.062710
-0.031030
0.004341
0.037062
0.068519
0.090584
0.124085
0.110762
0.088999
0.051706
0.011121
-0.030149
-0.095387
-0.137151
-0.164733
-0.176192
-0.188963
-0.172022
-0.144612
-0.142235
-0.063130
-0.028295
-0.004469
0.023078
0.086009
0.102442
0.091473
0.059387
0.050500
0.039597
-0.006823
-0.035856
-0.053396
-0.094143
-0.152674
-0.171309
-0.182538
-0.176425
-0.144202
-0.119363
-0.054575
-0.024973
0.018317
0.049584
0.080179
0.083950
0.073800
0.044356
0.063911
0.023366
-0.013394
-0.050020
-0.096212
-0.147574
-0.185118
-0.219346
-0.209600
-0.186444
-0.146148
-0.094624
-0.057415
-0.000376
0.044866
0.046016
0.081009
0.098489
0.108841
0.113835
0.066455
0.032180
0.009183
-0.047031
-0.102559
-0.147625
-0.178780
-0.171107
-0.172129
-0.150965
-0.114442
-0.072245
-0.037014
0.014959
0.076984
0.131846
0.176254
0.216586
0.259158
0.265636
0.243860
0.250689
0.228201
0.198018
0.171782
0.149558
0.163847
0.174588
0.170966
0.241747
0.311894
0.381338
0.452683
0.516256
0.581468
0.658710
0.732852
0.795020
0.848598
0.865650
0.872427
0.857284
0.816448
0.762489
0.723695
0.670239
0.616330
0.594623
0.575007
0.555549
0.538535
0.497953
0.464087
0.448060
0.434322
0.418517
0.395642
0.357359
0.329004
0.312122
0.288267
0.238249
0.199707
0.141752
0.074599
0.028298
-0.026459
-0.060341
-0.076610
-0.061407
-0.047553
-0.018719
0.010483
0.049149
0.097905
0.148532
0.155576
0.156223
0.160410
0.183179
0.190311
0.166430
0.091404
0.024307
-0.013141
-0.053245
-0.064979
-0.081856
-0.085756
-0.089226
-0.083396
-0.058117
-0.036285
-0.003279
0.041532
0.083974
0.128745
0.150245
0.166635
0.175538
0.146213
0.111186
0.056509
0.010962
-0.036150
-0.068755
-0.112719
-0.138775
-0.145662
-0.136368
-0.103350
-0.085234
-0.044588
-0.003745
0.046663
0.092082
0.130951
0.149207
0.174718
0.171179
0.156044
0.110649
0.065114
0.002555
-0.043641
-0.087375
-0.121632
-0.144725
-0.134576
-0.140505
-0.126657
-0.076158
-0.046122
-0.016361
0.069833
0.077872
0.090550
0.141639
0.186025
0.163911
0.160774
0.121342
0.075790
0.025217
-0.014072
-0.056350
-0.068136
-0.086506
-0.106905
-0.112075
-0.079475
-0.040919
-0.013697
0.041990
0.100058
0.117581
0.202873
0.204940
0.207190
0.202621
0.184810
0.153599
0.115970
0.076805
0.036152
-0.007297
-0.051646
-0.065946
-0.066567
-0.074130
-0.073654
-0.045165
0.005080
0.058533
0.102662
0.130356
0.181175
0.202893
0.214064
0.239218
0.228810
0.197476
0.136584
0.100619
0.058339
0.016892
-0.008379
-0.034146
-0.040079
-0.042291
-0.016445
0.005839
0.057927
0.099342
0.149812
0.201972
0.247280
0.263842
0.260804
0.240343
0.223196
0.221354
0.170015
0.155280
0.108114
0.046998
-0.010251
-0.031653
-0.032298
-0.040919
-0.055891
0.002071
0.051580
0.129442
0.194572
0.224509
0.246292
0.261635
0.263741
0.282688
0.267608
0.218196
0.161985
0.140362
0.101673
0.069065
0.019443
-0.005433
-0.021854
-0.012164
0.026964
0.056123
0.069466
0.108780
0.146105
0.180593
0.218444
0.225693
0.247926
0.245453
0.221866
0.191266
0.124572
0.103917
0.065469
0.034192
0.021057
0.016185
-0.027387
-0.053533
-0.039887
-0.014167
0.034592
0.083251
0.128826
0.173215
0.192644
0.216287
0.222600
0.219551
0.175136
0.142347
0.095309
0.068827
0.042297
-0.004400
-0.038795
-0.067214
-0.087392
-0.099112
-0.088790
-0.050210
0.017648
0.045709
0.060792
0.106630
0.145840
0.162505
0.173741
0.174376
0.153014
0.147679
0.117768
0.037508
-0.017207
-0.058405
-0.089801
-0.113836
-0.123643
-0.114630
-0.086779
-0.049410
-0.031642
-0.003040
0.043347
0.072206
0.123422
0.140207
0.125336
0.137959
0.118499
0.070621
0.042412
0.013419
-0.044265
-0.069224
-0.102371
-0.130618
-0.121317
-0.120146
-0.105081
-0.081427
-0.039662
-0.010831
0.027196
0.082983
0.114909
0.125463
0.121010
0.108634
0.081694
0.041002
0.023261
-0.016430
-0.079601
-0.116105
-0.111795
-0.127455
-0.132050
-0.128010
-0.107969
-0.084931
-0.041417
0.001005
0.032881
0.070138
0.097369
0.120886
0.140150
0.106750
0.079686
0.051932
-0.003526
-0.016119
-0.046478
-0.081151
-0.096461
-0.098648
-0.111698
-0.131915
-0.097688
-0.080749
-0.029350
0.019483
0.071785
0.092783
0.117767
0.135009
0.143527
0.143822
0.112669
0.072395
0.052689
0.006474
-0.058013
-0.081166
-0.109735
-0.132201
-0.133641
-0.113652
-0.101705
-0.070198
-0.037897
0.029731
0.076022
0.091976
0.098131
0.112306
0.137281
0.148295
0.134347
0.088223
0.041795
0.001284
-0.039115
-0.086500
-0.128722
-0.153855
-0.137570
-0.114034
-0.089053
-0.055127
-0.022922
0.007411
0.075169
0.091196
0.122466
0.140599
0.136980
0.123427
0.102162
0.075390
0.048175
0.007192
-0.050767
-0.102368
-0.124945
-0.136128
-0.131164
-0.120342
-0.101060
-0.079339
-0.045876
0.000950
0.042465
0.074376
0.093149
0.104051
0.079952
0.120042
0.139313
0.128291
0.069075
0.047924
0.004191
-0.063010
-0.120945
-0.120731
-0.138472
-0.153886
-0.138576
-0.075217
-0.007349
0.035649
0.054581
0.100909
0.155582
0.174161
0.148816
0.143535
0.118915
0.080052
0.023642
-0.025543
-0.066036
-0.104305
-0.113510
-0.132431
-0.151668
-0.144243
-0.127944
-0.077053
-0.034651
-0.004961
0.037860
0.092150
0.122614
0.139755
0.141498
0.130464
0.108913
0.082017
0.033842
-0.019840
-0.066600
-0.106391
-0.138653
-0.164069
-0.173979
-0.154508
-0.153146
-0.116073
-0.066296
-0.011155
0.054931
0.081705
0.113311
0.141891
0.155265
0.152775
0.125912
0.068429
0.020570
-0.019830
-0.070486
-0.123050
-0.140398
-0.147079
-0.169750
-0.163762
-0.139681
-0.090196
-0.062596
-0.037748
-0.006265
0.081483
0.117902
0.141438
0.158833
0.149048
0.114160
0.069639
0.029367
-0.001204
-0.047528
-0.096107
-0.139454
-0.158916
-0.180162
-0.173580
-0.150299
-0.108633
-0.071693
-0.023677
0.037969
0.075827
0.098329
0.116823
0.150318
0.131149
0.108236
0.077077
0.040076
-0.004764
-0.064951
-0.119067
-0.149129
-0.176831
-0.157689
-0.129438
-0.132454
-0.141254
-0.058402
-0.013016
0.022943
0.060269
0.086684
0.114774
0.141161
0.113988
0.094383
0.080931
0.037148
-0.011819
-0.045675
-0.074972
-0.120219
-0.140392
-0.155720
-0.167199
-0.125906
-0.078127
-0.049317
-0.010240
0.033801
0.077208
0.131751
0.167905
0.173054
0.149109
0.131995
0.102712
0.065951
0.056113
0.000476
-0.057021
-0.091261
-0.128792
-0.135753
-0.110935
-0.100961
-0.095011
-0.047216
0.021886
0.078629
0.110262
0.140968
0.169220
0.173335
0.172500
0.132238
0.106128
0.066604
0.028003
-0.013878
-0.050845
-0.075025
-0.074959
-0.086076
-0.103462
-0.120281
-0.049185
0.007446
0.015534
0.098570
0.142372
0.168790
0.181730
0.189806
0.164615
0.148922
0.111439
0.062824
0.020892
-0.026646
-0.075391
-0.121407
-0.159535
-0.159619
-0.138054
-0.111009
-0.100040
-0.058996
-0.040462
0.004263
0.038732
0.119638
0.156932
0.148327
0.111642
0.129616
0.090771
0.062790
-0.001535
-0.045652
-0.101869
-0.122965
-0.121432
-0.143818
-0.142879
-0.141602
-0.117778
-0.080438
-0.036698
0.005345
0.045432
0.088344
0.085053
0.079936
0.096000
0.081747
0.048788
0.011510
-0.019528
-0.061256
-0.112419
-0.147993
-0.171110
-0.164539
-0.167814
-0.174685
-0.144631
-0.099974
-0.058411
-0.011368
0.020843
0.087875
0.104523
0.091197
0.089574
0.065255
0.017361
0.022903
-0.001996
-0.063525
-0.116283
-0.158733
-0.182166
-0.193886
-0.184213
-0.161582
-0.126305
-0.083779
-0.035968
0.002032
0.043621
0.073639
0.101178
0.091884
0.090236
0.084903
0.050954
0.009287
-0.044707
-0.089592
-0.133034
-0.161947
-0.196239
-0.195406
-0.175919
-0.156255
-0.122093
-0.099937
-0.078302
-0.043263
0.006922
0.058057
0.093922
0.080101
0.078550
0.057674
0.048803
0.006838
-0.039532
-0.061428
-0.116574
-0.160427
-0.175437
-0.165392
-0.184958
-0.165854
-0.121105
-0.049964
-0.020375
0.041682
0.089634
0.148444
0.197222
0.220739
0.211474
0.206191
0.194492
0.174292
0.142204
0.110730
0.091797
0.095436
0.099029
0.119382
0.143547
0.216364
0.278125
0.365450
0.426409
0.500389
0.577158
0.678305
0.751844
0.783237
0.799861
0.813169
0.802729
0.777152
0.762078
0.720900
0.677374
0.648691
0.643513
0.614860
0.596431
0.587976
0.602914
0.600949
0.561343
0.534066
0.515909
0.470736
0.415868
0.415345
0.370136
0.327005
0.263478
0.188741
0.132481
0.103664
0.058283
0.018979
-0.017122
-0.044340
-0.017968
-0.009401
-0.003141
0.033214
0.078165
0.128622
0.141887
0.160229
0.177045
0.200354
0.209563
0.173645
0.112930
0.070653
0.044400
-0.041967
-0.068431
-0.107028
-0.118544
-0.124740
-0.134264
-0.104659
-0.065502
-0.030022
0.032370
0.076271
0.109367
0.130792
0.147079
0.149086
0.152198
0.146954
0.102241
0.053200
0.006534
-0.057325
-0.105433
-0.124295
-0.150157
-0.156357
-0.126646
-0.104316
-0.034678
-0.028098
0.009939
0.053122
0.085218
0.094213
0.172002
0.208082
0.185879
0.134528
0.085198
0.030304
-0.028727
-0.096796
-0.081845
-0.091242
-0.136722
-0.144432
-0.119035
-0.082958
-0.041000
0.000497
0.018297
0.056146
0.096494
0.126956
0.152269
0.160362
0.176080
0.170255
0.133446
0.058691
0.008882
-0.007758
-0.050394
-0.101306
-0.136106
-0.125611
-0.119974
-0.095025
-0.060081
-0.008979
0.062073
0.109048
0.124781
0.123201
0.182420
0.186338
0.191996
0.169996
0.152452
0.095469
0.063535
0.020521
-0.022077
-0.068920
-0.087254
-0.088691
-0.084994
-0.071635
-0.025821
0.019887
0.064071
0.113654
0.158480
0.185855
0.220881
0.212158
0.243768
0.194033
0.156088
0.090897
0.046650
0.007238
0.029622
-0.008998
-0.044632
-0.061152
-0.041968
-0.031585
-0.016927
0.069811
0.149928
0.177979
0.219213
0.247998
0.270241
0.248819
0.229518
0.226568
0.187352
0.148972
0.104977
0.047560
0.010041
0.001695
-0.031853
-0.037816
-0.048324
0.005630
0.030804
0.080385
0.116423
0.153906
0.188474
0.232778
0.270157
0.247157
0.238542
0.236626
0.208538
0.172103
0.131449
0.091237
0.044509
0.021791
-0.005033
-0.008700
-0.052302
-0.005894
0.013514
0.055051
0.097628
0.140054
0.178882
0.208502
0.233579
0.256403
0.229885
0.217214
0.200192
0.162367
0.107024
0.058196
0.043747
-0.007727
-0.047083
-0.058802
-0.048534
-0.034578
0.000816
0.035736
0.056075
0.099698
0.153193
0.170886
0.190869
0.210090
0.225597
0.204674
0.158461
0.121830
0.073653
0.023333
-0.016518
-0.050347
-0.075355
-0.090967
-0.084950
-0.067079
-0.050584
-0.020559
0.037927
0.087445
0.125399
0.124447
0.150347
0.153644
0.144986
0.122709
0.102437
0.083993
0.012313
-0.037378
-0.063971
-0.092382
-0.134922
-0.128416
-0.142360
-0.111983
-0.072667
-0.069505
-0.004710
0.025471
0.070700
0.121494
0.154918
0.146605
0.138036
0.109797
0.078740
0.048959
-0.004102
-0.049549
-0.085470
-0.119181
-0.144977
-0.156554
-0.143531
-0.118267
-0.120938
-0.057160
-0.003698
0.007697
0.074691
0.104973
0.127941
0.116745
0.101451
0.071251
0.024905
0.029259
-0.010173
-0.078706
-0.097091
-0.117649
-0.156388
-0.143511
-0.134108
-0.111631
-0.086525
-0.050610
-0.001049
0.034613
0.063073
0.094414
0.106778
0.095982
0.073591
0.057785
0.067074
0.053298
-0.011712
-0.075451
-0.091948
-0.121149
-0.155603
-0.166033
-0.124242
-0.121133
-0.087491
-0.067600
-0.041629
0.007095
0.057207
0.094444
0.111005
0.111017
0.111412
0.094873
0.067515
0.039101
-0.001806
-0.049576
-0.086165
-0.098024
-0.137871
-0.151379
-0.123781
-0.095275
-0.062743
-0.009871
0.014692
0.054141
0.084164
0.099094
0.123377
0.122052
0.126202
0.124805
0.084318
0.023058
-0.012889
-0.060164
-0.100627
-0.143769
-0.139271
-0.129510
-0.131543
-0.120835
-0.101162
-0.070581
-0.024560
0.007866
0.093774
0.138890
0.149408
0.143892
0.128723
0.097609
0.054527
0.036356
0.006352
-0.045787
-0.097593
-0.138203
-0.159722
-0.153510
-0.139045
-0.106769
-0.074888
-0.033988
-0.004184
0.031434
0.065303
0.109016
0.120714
0.123135
0.106097
0.082768
0.051537
0.027597
-0.017465
-0.061854
-0.101510
-0.134349
-0.154066
-0.153928
-0.158063
-0.142157
-0.122145
-0.077850
-0.015340
0.015655
0.066357
0.092427
0.123444
0.154527
0.144860
0.102448
0.053798
0.015812
-0.027898
-0.067731
-0.115918
-0.173686
-0.136540
-0.153025
-0.160314
-0.133349
-0.080920
-0.039679
0.006025
0.046329
0.088187
0.112648
0.122312
0.114439
0.105043
0.088941
0.045136
0.005259
-0.025504
-0.098276
-0.117619
-0.148768
-0.171963
-0.159518
-0.163473
-0.146920
-0.124765
-0.075529
-0.019764
0.025835
0.069138
0.098504
0.108736
0.109033
0.135989
0.102141
0.060000
0.013995
-0.021019
-0.087588
-0.130629
-0.167331
-0.199423
-0.197157
-0.189961
-0.128738
-0.106392
-0.077974
-0.034909
0.007941
0.045085
0.085616
0.098540
0.120624
0.116476
0.102202
0.061835
0.006213
-0.062529
-0.109544
-0.147542
-0.230911
-0.189461
-0.178825
-0.163777
-0.116476
-0.063493
-0.069829
-0.024284
0.017575
0.056556
0.087089
0.108392
0.117756
0.123907
0.106815
0.059033
0.017851
-0.016975
-0.079152
-0.127532
-0.164751
-0.194768
-0.192377
-0.199803
-0.163412
-0.117514
-0.099683
-0.051172
-0.004215
0.039611
0.078905
0.107947
0.114203
0.099454
0.065421
0.038517
0.012839
-0.041721
-0.075718
-0.109877
-0.135133
-0.175001
-0.202464
-0.204088
-0.184882
-0.134137
-0.114430
-0.054677
-0.005564
0.031637
0.074937
0.092398
0.105388
0.113172
0.081936
0.017372
-0.003847
-0.027553
-0.069881
-0.122437
-0.161321
-0.186589
-0.188667
-0.202939
-0.197958
-0.152136
-0.055310
-0.006388
0.037835
0.071877
0.104610
0.129428
0.141433
0.130768
0.099889
0.081560
0.039936
-0.023977
-0.070309
-0.090424
-0.112517
-0.123364
-0.131739
-0.156967
-0.149784
-0.107881
-0.066645
0.003053
0.049629
0.073801
0.110195
0.113377
0.119403
0.111988
0.120107
0.099202
0.055401
0.020211
-0.021422
-0.081223
-0.126049
-0.139715
-0.140650
-0.140537
-0.117267
-0.069824
-0.033131
0.012788
0.046494
0.085930
0.130819
0.167339
0.156724
0.123340
0.138136
0.098554
0.056593
0.008697
-0.050790
-0.119444
-0.153806
-0.160655
-0.158084
-0.172754
-0.179748
-0.128820
-0.052181
-0.022002
-0.002017
0.100696
0.129621
0.110744
0.116002
0.109039
0.080740
0.051407
0.010086
-0.032215
-0.072274
-0.132136
-0.163951
-0.185902
-0.185635
-0.187114
-0.179836
-0.134254
-0.095508
-0.054474
-0.016861
0.020459
0.053608
0.068858
0.067509
0.069227
0.074088
0.039162
-0.023828
-0.062100
-0.104486
-0.150789
-0.172697
-0.192932
-0.210709
-0.222989
-0.198723
-0.149687
-0.116923
-0.077495
-0.042992
-0.012743
0.036275
0.058803
0.052328
0.045854
0.041746
0.002984
-0.004685
-0.064946
-0.100036
-0.138669
-0.162054
-0.188580
-0.207091
-0.202063
-0.195442
-0.149788
-0.120250
-0.089220
-0.038524
0.005437
0.059771
0.050174
0.039170
0.044186
0.022504
-0.009472
-0.047063
-0.089546
-0.130680
-0.148050
-0.178913
-0.197900
-0.209491
-0.210755
-0.192001
-0.151544
-0.103927
-0.069877
-0.022053
-0.013182
0.022424
0.062523
0.060604
0.066304
0.036256
0.023501
-0.000055
-0.061032
-0.120508
-0.175250
-0.202014
-0.216496
-0.223344
-0.218159
-0.191311
-0.157089
-0.129092
-0.084385
-0.017137
0.020317
0.048586
0.104850
0.138084
0.142195
0.133702
0.104297
0.067910
0.047218
0.014662
-0.019004
-0.036860
-0.038087
-0.025912
0.000932
0.061670
0.154137
0.218043
0.279915
0.355319
0.437106
0.504757
0.559791
0.602302
0.608647
0.614021
0.614081
0.606599
0.592999
0.595988
0.580652
0.577538
0.601403
0.594603
0.599634
0.633747
0.657858
0.671044
0.715029
0.714731
0.715116
0.698860
0.674425
0.615484
0.542897
0.459058
0.356461
0.259638
0.158824
0.118524
0.026796
0.015755
0.024373
-0.003362
0.003412
-0.016793
-0.001720
0.025793
0.067755
0.092602
0.128387
0.167535
0.191320
0.189174
0.169861
0.136845
0.094623
0.053339
-0.000401
-0.062130
-0.102592
-0.147170
-0.170017
-0.165119
-0.125558
-0.102093
-0.095365
-0.070054
0.003020
0.030588
0.061095
0.089541
0.133989
0.168562
0.155993
0.123299
0.066493
0.017829
-0.052337
-0.088879
-0.120784
-0.162331
-0.183036
-0.196006
-0.166568
-0.121967
-0.097222
-0.069288
-0.025393
0.020617
0.065588
0.097739
0.103128
0.103342
0.124694
0.102182
0.071453
0.013469
-0.039236
-0.075548
-0.114873
-0.135514
-0.160924
-0.165295
-0.155662
-0.121797
-0.105892
-0.076184
-0.034654
0.015704
0.064114
0.094544
0.134909
0.147475
0.157164
0.115038
0.071432
0.035855
0.002171
-0.050320
-0.098387
-0.135420
-0.153616
-0.162712
-0.149355
-0.133724
-0.097974
-0.053431
-0.015775
0.031449
0.095334
0.124869
0.155012
0.168522
0.168930
0.151077
0.117311
0.081010
0.022387
-0.033866
-0.082312
-0.124776
-0.141980
-0.142083
-0.133674
-0.058833
-0.051979
-0.002894
0.058906
0.077939
0.104685
0.151302
0.169082
0.186904
0.179529
0.164856
0.141899
0.106689
0.049989
0.004414
-0.047427
-0.073126
-0.090259
-0.117505
-0.094240
-0.064457
-0.014892
0.017630
0.057145
0.113596
0.152586
0.173834
0.203807
0.212608
0.221812
0.216179
0.170461
0.109939
0.051025
0.054358
0.027924
-0.024618
-0.080926
-0.071528
-0.055486
-0.030553
-0.007541
0.024130
0.081173
0.137135
0.186975
0.239144
0.250029
0.249769
0.237483
0.209222
0.163741
0.118035
0.065544
0.032911
-0.005702
-0.057735
-0.080245
-0.087386
-0.039588
-0.023247
0.030091
0.062663
0.102620
0.143444
0.185179
0.210540
0.212363
0.223228
0.219113
0.209595
0.193892
0.148285
0.086892
0.029713
-0.037916
-0.052278
-0.084740
-0.097739
-0.082618
-0.061573
-0.043422
0.005606
0.045557
0.111436
0.152517
0.162407
0.198969
0.229721
0.199522
0.159793
0.141733
0.111699
0.074333
0.009904
-0.040145
-0.074789
-0.104327
-0.134127
-0.131218
-0.099856
-0.066265
-0.018718
0.018177
0.055517
0.089336
0.117599
0.150674
0.170512
0.156944
0.127210
0.080745
0.051337
0.011967
-0.016178
-0.071355
-0.127222
-0.161152
-0.174762
-0.159482
-0.129383
-0.115674
-0.087408
-0.040529
0.033616
0.066597
0.106233
0.116589
0.117997
0.102288
0.099980
0.077241
0.021518
-0.025198
-0.082470
-0.122757
-0.156509
-0.182539
-0.186380
-0.182746
-0.161561
-0.135110
-0.089266
-0.041759
0.006624
0.048241
0.069915
0.085191
0.119822
0.123053
0.082735
0.024772
-0.014678
-0.040374
-0.101181
-0.112271
-0.145506
-0.181647
-0.186809
-0.189968
-0.162349
-0.141612
-0.108111
-0.042172
-0.015038
0.032896
0.092958
0.107199
0.115659
0.093915
0.079186
0.056355
0.003777
-0.040716
-0.090672
-0.125226
-0.143457
-0.176553
-0.176363
-0.165518
-0.152803
-0.107901
-0.081756
-0.041222
0.002095
0.031446
0.056626
0.090407
0.104497
0.073275
0.064776
0.051584
0.032158
-0.022369
-0.066904
-0.109839
-0.147480
-0.172604
-0.186989
-0.181421
-0.157601
-0.121921
-0.086590
-0.031239
-0.002527
0.025663
0.063855
0.104974
0.108007
0.085868
0.066016
0.022814
-0.001454
-0.029742
-0.073088
-0.077634
-0.134585
-0.158306
-0.168600
-0.169759
-0.144353
-0.102964
-0.062397
-0.021054
0.002777
0.042541
0.083986
0.096792
0.106518
0.093569
0.082312
0.045736
0.007540
-0.033239
-0.074041
-0.111253
-0.143695
-0.173687
-0.184508
-0.176115
-0.172649
-0.139284
-0.105901
-0.011274
0.028796
0.064617
0.078577
0.093202
0.092674
0.093149
0.108561
0.094210
0.020703
-0.030929
-0.084952
-0.126794
-0.152697
-0.139061
-0.134719
-0.163193
-0.153238
-0.129368
-0.082541
-0.051665
-0.006512
0.067423
0.089912
0.091387
0.094928
0.098869
0.069459
0.030260
-0.005831
-0.046452
-0.104921
-0.131672
-0.151383
-0.192342
-0.205234
-0.152982
-0.153742
-0.117623
-0.075863
-0.040654
0.011526
0.037904
0.075740
0.090404
0.085406
0.068893
0.069719
0.041444
-0.025069
-0.078318
-0.075847
-0.105153
-0.139686
-0.192956
-0.197022
-0.193096
-0.179466
-0.141315
-0.099098
-0.069550
-0.033216
0.004986
0.059151
0.125552
0.124398
0.103395
0.063391
0.029475
-0.006872
-0.058018
-0.105029
-0.147245
-0.168477
-0.171331
-0.182379
-0.180137
-0.158083
-0.138644
-0.096623
-0.028015
0.000423
0.035903
0.053863
0.077332
0.078359
0.072893
0.062924
0.032453
-0.017082
-0.071089
-0.121675
-0.148525
-0.186983
-0.210814
-0.221620
-0.206803
-0.179372
-0.120205
-0.075422
-0.047015
-0.003852
0.031638
0.054822
0.086249
0.097095
0.073215
0.047119
0.015000
-0.027366
-0.082031
-0.121708
-0.174310
-0.193057
-0.215939
-0.226930
-0.200379
-0.158783
-0.128442
-0.111924
-0.065359
-0.026756
0.053879
0.084154
0.089115
0.083298
0.070873
0.059552
0.035281
-0.013280
-0.068281
-0.132215
-0.177215
-0.192734
-0.220472
-0.231788
-0.216537
-0.208620
-0.176755
-0.110510
-0.062882
0.005684
0.054028
0.133370
0.124896
0.103021
0.081615
0.062080
0.051353
-0.001627
-0.048285
-0.088276
-0.143452
-0.170238
-0.195729
-0.188872
-0.159908
-0.147826
-0.114602
-0.066514
-0.012421
0.028227
0.066103
0.095151
0.114261
0.113838
0.096305
0.078309
0.040574
-0.004075
-0.026269
-0.078065
-0.131953
-0.150710
-0.171469
-0.164319
-0.152695
-0.150489
-0.126091
-0.069566
-0.003126
0.053066
0.078580
0.109465
0.129547
0.140091
0.119059
0.091064
0.047863
0.011161
-0.027019
-0.066310
-0.093572
-0.117912
-0.106570
-0.147532
-0.105766
-0.099860
-0.075430
-0.055919
-0.015708
0.029660
0.062849
0.079387
0.094157
0.113467
0.125566
0.087162
0.044960
-0.002288
-0.050198
-0.102885
-0.149501
-0.185224
-0.194734
-0.205791
-0.203533
-0.204302
-0.177654
-0.126124
-0.069844
-0.026061
0.030362
0.090046
0.117304
0.113849
0.082263
0.057178
0.024887
-0.023751
-0.062277
-0.114293
-0.168106
-0.202254
-0.226162
-0.219052
-0.187503
-0.183173
-0.171167
-0.133850
-0.090937
-0.046591
0.003326
0.036913
0.047903
0.052337
0.050253
0.035503
-0.013825
-0.062051
-0.126807
-0.156654
-0.159395
-0.190182
-0.243405
-0.255494
-0.240955
-0.202931
-0.155141
-0.119992
-0.078274
-0.050852
0.004301
0.042412
0.062854
0.075125
0.066857
0.041061
0.013068
-0.040453
-0.095099
-0.133199
-0.187434
-0.219142
-0.245768
-0.264770
-0.279436
-0.248346
-0.213408
-0.136321
-0.043619
0.017513
0.012248
0.016166
0.045570
0.069014
0.061207
0.046271
0.010028
-0.042073
-0.096939
-0.125875
-0.163323
-0.213104
-0.258196
-0.269887
-0.264246
-0.281129
-0.227049
-0.119323
-0.049709
0.002186
0.032467
0.067408
0.068186
0.049532
0.027115
0.036016
0.001424
-0.044997
-0.086635
-0.115608
-0.142477
-0.161482
-0.178914
-0.204014
-0.211194
-0.154342
-0.107879
-0.020441
0.036668
0.101229
0.145244
0.186971
0.230631
0.270430
0.287384
0.294826
0.276808
0.274919
0.274196
0.251276
0.224070
0.215665
0.236691
0.253080
0.283475
0.357479
0.427277
0.510047
0.585256
0.661423
0.746050
0.799363
0.861828
0.890094
0.863885
0.852999
0.818547
0.749632
0.682244
0.624625
0.545079
0.446823
0.367997
0.300492
0.235849
0.203467
0.187763
0.180300
0.199510
0.184150
0.230517
0.229967
0.248022
0.227484
0.211377
0.190704
0.147500
0.104728
0.047585
-0.007774
-0.055276
-0.098974
-0.126649
-0.136730
-0.103136
-0.080148
-0.067759
-0.046780
-0.016620
0.034422
0.072794
0.084755
0.101883
0.119887
0.125894
0.092514
0.057212
0.019723
-0.011097
-0.056735
-0.107685
-0.152274
-0.169915
-0.186396
-0.171688
-0.181267
-0.135804
-0.064090
-0.030567
0.003784
0.049927
0.088540
0.096202
0.097413
0.081305
0.071943
0.041216
-0.014376
-0.060628
-0.100857
-0.129315
-0.184217
-0.225724
-0.213980
-0.162978
-0.152528
-0.092352
-0.037990
-0.009926
0.057933
0.095227
0.097571
0.105843
0.110905
0.087605
0.071003
0.057532
0.033742
-0.000634
-0.068938
-0.122816
-0.170274
-0.154041
-0.152664
-0.152499
-0.135078
-0.105482
-0.053105
-0.023005
0.004962
0.037423
0.082445
0.108061
0.099434
0.095900
0.109023
0.077095
0.014373
-0.026586
-0.067849
-0.103921
-0.143650
-0.133220
-0.111311
-0.077774
-0.096547
-0.102748
-0.036359
0.025480
0.063412
0.088392
0.111783
0.117569
0.152571
0.132818
0.106689
0.078812
0.030851
-0.001204
-0.043019
-0.071740
-0.091092
-0.116633
-0.121670
-0.095317
-0.061623
-0.037945
0.028832
0.068315
0.110182
0.132603
0.144875
0.169789
0.198390
0.181117
0.159065
0.129425
0.079726
0.034613
-0.025262
-0.060890
-0.086117
-0.086289
-0.054215
-0.015617
-0.014178
-0.017349
0.032600
0.072230
0.106658
0.157645
0.190583
0.204414
0.204787
0.205461
0.181582
0.139616
0.100413
0.061384
0.026787
-0.010028
-0.066870
-0.078716
-0.091692
-0.068116
-0.043489
0.001684
0.030851
0.093704
0.145941
0.181494
0.216050
0.234531
0.229793
0.218087
0.217891
0.147767
0.090970
0.039189
0.008612
-0.048197
-0.061353
-0.079722
-0.071616
-0.063232
-0.033273
-0.000784
0.047739
0.083954
0.118568
0.146686
0.183658
0.195786
0.198059
0.193403
0.175329
0.117016
0.051701
0.001101
0.013368
-0.029637
-0.050154
-0.061495
-0.076763
-0.100914
-0.082766
-0.029931
-0.014498
0.051922
0.087364
0.120551
0.141655
0.145451
0.143019
0.150079
0.148125
0.110432
0.040213
-0.008693
-0.066476
-0.114826
-0.139735
-0.153561
-0.125652
-0.136167
-0.105901
-0.072218
-0.033641
0.007244
0.041172
0.077127
0.104698
0.120656
0.145749
0.134034
0.098831
0.038840
-0.015546
-0.051013
-0.106202
-0.149039
-0.156098
-0.158727
-0.161828
-0.141119
-0.153409
-0.132441
-0.095107
-0.033416
0.020992
0.059243
0.085497
0.092059
0.092215
0.107068
0.100910
0.059227
-0.013566
-0.057694
-0.105761
-0.140412
-0.167402
-0.177064
-0.189053
-0.187576
-0.173745
-0.122412
-0.088889
-0.023558
0.006685
0.039298
0.076075
0.086552
0.096078
0.078683
0.087564
0.040470
-0.020322
-0.061741
-0.098616
-0.149087
-0.206102
-0.197782
-0.207152
-0.192907
-0.151154
-0.111147
-0.082532
-0.055310
-0.005176
0.056024
0.099075
0.102009
0.094536
0.074533
0.037211
0.020950
-0.009077
-0.016014
-0.086321
-0.105956
-0.138740
-0.178749
-0.194379
-0.189583
-0.169664
-0.150473
-0.087351
-0.028667
0.011517
0.056076
0.085817
0.095939
0.110425
0.078221
0.056786
0.040117
0.010398
-0.027616
-0.085100
-0.141100
-0.178219
-0.167357
-0.193909
-0.185978
-0.165983
-0.126283
-0.095679
-0.044190
0.032394
0.079346
0.112308
0.137790
0.142686
0.106571
0.089194
0.048330
-0.007904
-0.041382
-0.072289
-0.130388
-0.171334
-0.184595
-0.192199
-0.165092
-0.164782
-0.139351
-0.115676
0.023653
0.113472
0.118236
0.093663
0.103189
0.108657
0.107680
0.075729
0.038149
-0.010357
-0.044981
-0.097481
-0.139851
-0.175357
-0.210608
-0.221174
-0.177737
-0.131867
-0.108401
-0.061106
-0.029270
0.004639
0.052162
0.083900
0.099371
0.090855
0.069658
0.127282
0.083953
0.005902
-0.053789
-0.089095
-0.132249
-0.170803
-0.194367
-0.187763
-0.161862
-0.155945
-0.134916
-0.085681
-0.045665
0.018307
0.073630
0.104467
0.105471
0.101995
0.094756
0.075941
0.053337
-0.016444
-0.085161
-0.143736
-0.155648
-0.178724
-0.170493
-0.177516
-0.169815
-0.148765
-0.126163
-0.105634
-0.063868
0.022642
0.063914
0.079091
0.090620
0.095593
0.102603
0.091444
0.038653
0.013652
-0.026412
-0.103478
-0.152256
-0.151830
-0.157002
-0.175172
-0.183488
-0.159533
-0.127397
-0.084396
-0.040459
0.009587
0.045175
0.052029
0.091600
0.085810
0.082779
0.056228
0.047829
0.003902
-0.054924
-0.113339
-0.157961
-0.183446
-0.168162
-0.185113
-0.202141
-0.191280
-0.151170
-0.094094
-0.038580
0.011734
0.057640
0.072974
0.070182
0.081353
0.077936
0.059728
0.032951
-0.029807
-0.078307
-0.102489
-0.137168
-0.173596
-0.190024
-0.200683
-0.196167
-0.177947
-0.146706
-0.107579
-0.082319
-0.024853
0.046261
0.079559
0.112583
0.097929
0.110795
0.101525
0.055846
-0.012072
-0.053094
-0.109418
-0.156241
-0.206833
-0.212791
-0.245172
-0.236159
-0.156153
-0.095097
-0.072966
-0.026153
0.016923
0.053646
0.099798
0.110457
0.090795
0.087412
0.109137
0.067241
0.009851
-0.037734
-0.083706
-0.127404
-0.161282
-0.185971
-0.203653
-0.189771
-0.155491
-0.100509
-0.040169
-0.014138
0.022133
0.046607
0.076036
0.093644
0.146935
0.159273
0.121258
0.086727
0.018802
-0.022233
-0.070119
-0.104950
-0.135091
-0.161224
-0.162878
-0.135491
-0.127011
-0.111332
-0.054944
-0.011759
0.025511
0.074900
0.110705
0.153168
0.153018
0.115787
0.105677
0.083854
0.047299
-0.024553
-0.095842
-0.083943
-0.083364
-0.102429
-0.122519
-0.139426
-0.116318
-0.084607
-0.047542
0.017228
0.048855
0.078532
0.111593
0.122867
0.112456
0.119589
0.102564
0.023922
-0.012264
-0.041385
-0.084515
-0.112836
-0.166072
-0.175713
-0.164946
-0.189015
-0.177612
-0.115105
-0.068125
-0.019763
0.023593
0.049415
0.072281
0.097166
0.102548
0.085816
0.064627
0.036649
-0.007582
-0.053906
-0.128699
-0.137913
-0.197874
-0.242161
-0.259086
-0.204828
-0.147377
-0.122801
-0.110606
-0.064345
-0.007338
0.031796
0.060962
0.065404
0.069408
0.059215
0.043278
0.000572
-0.050405
-0.082099
-0.110654
-0.166803
-0.206216
-0.224532
-0.232100
-0.208832
-0.195267
-0.167674
-0.131245
-0.087351
-0.017821
0.023304
0.025122
0.051745
0.068856
0.058786
0.061254
0.037091
-0.015906
-0.082750
-0.132166
-0.169041
-0.220537
-0.227372
-0.237758
-0.230922
-0.188031
-0.152346
-0.111412
-0.066698
-0.014051
0.025259
0.028380
0.053337
0.072423
0.057468
0.025971
0.001965
-0.012978
-0.058540
-0.131534
-0.158988
-0.194646
-0.224766
-0.228688
-0.215444
-0.197296
-0.157929
-0.106536
-0.083777
-0.036660
0.023396
0.049601
0.063918
0.064438
0.057263
0.028362
-0.007294
-0.045288
-0.082042
-0.131848
-0.168995
-0.196305
-0.209605
-0.202157
-0.179988
-0.143587
-0.088269
-0.027414
0.030747
0.098997
0.148309
0.182491
0.223890
0.244859
0.246716
0.246333
0.230691
0.211317
0.203580
0.179404
0.156066
0.168651
0.191797
0.224790
0.265334
0.308278
0.347813
0.442332
0.530759
0.647285
0.728132
0.782494
0.833146
0.869349
0.877438
0.869108
0.819349
0.763575
0.689585
0.635402
0.579979
0.508894
0.482917
0.446761
0.380378
0.338966
0.326607
0.320368
0.305470
0.279622
0.268171
0.267018
0.277915
0.262397
0.246140
0.216861
0.199371
0.151716
0.076805
0.009239
-0.036356
-0.072808
-0.108348
-0.122029
-0.117886
-0.088023
-0.062504
-0.027936
0.008397
0.055021
0.097588
0.167458
0.174436
0.150382
0.137967
0.121319
0.063423
0.014525
-0.027011
-0.057371
-0.094777
-0.128218
-0.156136
-0.167373
-0.158636
-0.132932
-0.106840
-0.078340
-0.040781
0.019688
0.089677
0.124666
0.163020
0.184312
0.140996
0.102048
0.062870
0.012864
-0.036470
-0.084161
-0.117639
-0.154065
-0.179843
-0.171618
-0.153135
-0.130461
-0.093754
-0.047624
-0.017358
0.026760
0.060416
0.096894
0.138069
0.134162
0.145006
0.119540
0.061243
0.021102
-0.026952
-0.068179
-0.106685
-0.135348
-0.160441
-0.167728
-0.157946
-0.127270
-0.094689
-0.042969
0.005940
0.056022
0.088897
0.124834
0.150841
0.174648
0.156916
0.123544
0.094016
0.054648
0.004420
-0.038908
-0.083750
-0.118954
-0.144874
-0.148447
-0.144616
-0.125680
-0.075634
-0.017348
0.047782
0.079788
0.126566
0.150647
0.148511
0.137625
0.141390
0.147870
0.109531
0.065848
0.036280
-0.019006
-0.037483
-0.079358
-0.083745
-0.078810
-0.092305
-0.088578
-0.056265
-0.005211
0.053910
0.099097
0.136522
0.199597
0.210600
0.213845
0.183038
0.143505
0.115167
0.096663
0.126907
0.048789
0.002090
-0.042570
-0.070973
-0.089179
-0.071821
-0.039270
0.006331
0.040601
0.082312
0.114032
0.152393
0.187638
0.230209
0.247280
0.234731
0.206669
0.162854
0.113942
0.074369
0.051132
0.024751
-0.001433
-0.039830
-0.069126
-0.065664
-0.028959
0.012453
0.056993
0.100070
0.145042
0.184544
0.217947
0.241724
0.241590
0.239192
0.223076
0.180912
0.126841
0.082904
0.037425
0.008049
-0.041807
-0.065242
-0.061722
-0.028250
0.024059
0.032851
0.029257
0.062475
0.131672
0.168703
0.191646
0.216737
0.228450
0.214151
0.225161
0.192912
0.136060
0.086363
0.023004
-0.019381
-0.072790
-0.089394
-0.093859
-0.094916
-0.072692
-0.039961
0.008419
0.046170
0.102795
0.147230
0.152202
0.208087
0.212347
0.187805
0.158352
0.110978
0.061007
0.023266
-0.031084
-0.088856
-0.121299
-0.147578
-0.154766
-0.142249
-0.081722
-0.047667
-0.003677
0.007778
0.078500
0.111345
0.133455
0.146262
0.153348
0.146411
0.107914
0.077415
0.051796
0.004044
-0.060360
-0.099480
-0.138625
-0.176311
-0.187194
-0.179108
-0.154927
-0.109048
-0.053162
-0.008528
0.026329
0.053358
0.093852
0.119966
0.120688
0.095408
0.082725
0.043727
-0.001499
-0.050554
-0.093122
-0.147684
-0.130070
-0.139026
-0.180759
-0.197487
-0.180805
-0.114779
-0.053993
-0.011602
0.003284
0.039084
0.080521
0.100844
0.139728
0.138938
0.124077
0.081208
0.010716
-0.035937
-0.072957
-0.128937
-0.177653
-0.182953
-0.181348
-0.168629
-0.152122
-0.121094
-0.078661
-0.027415
0.009677
0.051972
0.087884
0.109738
0.110312
0.094942
0.068333
0.037995
0.008569
-0.027561
-0.088083
-0.117698
-0.170853
-0.196981
-0.178252
-0.161524
-0.112506
-0.091214
-0.081136
-0.042744
0.004710
0.056738
0.106824
0.150065
0.159531
0.145609
0.133146
0.084149
0.018835
-0.029367
-0.073443
-0.106433
-0.142889
-0.170102
-0.186502
-0.176198
-0.135691
-0.112847
-0.079357
-0.027820
0.038703
0.089159
0.115697
0.149921
0.146579
0.130065
0.103742
0.069778
0.025172
-0.023403
-0.068869
-0.110146
-0.146766
-0.163694
-0.189454
-0.166667
-0.126256
-0.118013
-0.086432
-0.036863
0.081255
0.129186
0.119299
0.109452
0.132367
0.149109
0.121814
0.076322
0.025167
-0.049483
-0.066179
-0.099177
-0.124159
-0.141036
-0.160209
-0.163676
-0.146377
-0.118309
-0.082370
-0.030486
0.017730
0.051913
0.084268
0.118109
0.118145
0.096412
0.056016
0.034765
-0.007706
-0.009798
-0.048504
-0.083978
-0.133080
-0.165805
-0.172755
-0.154093
-0.129965
-0.086467
-0.058265
-0.008097
0.037263
0.071236
0.103510
0.122937
0.130648
0.110240
0.082579
0.038537
0.009766
-0.010436
-0.060574
-0.117380
-0.161548
-0.185546
-0.182789
-0.182027
-0.166075
-0.143552
-0.080242
-0.016120
0.026641
0.067004
0.107136
0.111896
0.114192
0.125523
0.096219
0.062752
0.029555
-0.033611
-0.085748
-0.121943
-0.168181
-0.186320
-0.196662
-0.185308
-0.158037
-0.133399
-0.094706
-0.052494
-0.012542
0.033990
0.083214
0.111507
0.120719
0.108829
0.058682
0.004123
-0.011070
-0.056154
-0.087430
-0.135606
-0.186152
-0.215126
-0.217691
-0.208560
-0.150371
-0.117804
-0.067081
-0.022600
0.029320
0.057625
0.071167
0.092953
0.109358
0.106906
0.071923
0.020394
0.008397
-0.039779
-0.115700
-0.156111
-0.179374
-0.186889
-0.205448
-0.208448
-0.137093
-0.110826
-0.080939
-0.037959
0.011718
0.062770
0.095167
0.114663
0.103104
0.094807
0.066796
0.025608
0.007943
-0.025453
-0.102065
-0.146731
-0.195076
-0.206474
-0.191182
-0.181986
-0.142179
-0.116103
-0.085849
-0.055420
-0.010347
0.044285
0.088235
0.137751
0.140898
0.119864
0.065100
0.019537
0.012521
-0.020306
-0.049831
-0.081229
-0.143251
-0.179171
-0.174639
-0.154302
-0.125725
-0.104658
-0.063608
-0.011036
0.032706
0.080957
0.110874
0.132456
0.132924
0.134829
0.107054
0.099942
0.022220
-0.034913
-0.071305
-0.120799
-0.158374
-0.172471
-0.171122
-0.161225
-0.125002
-0.096303
-0.051486
0.003081
0.081052
0.119574
0.155644
0.159031
0.159739
0.143790
0.115928
0.090471
0.045712
-0.003114
-0.050246
-0.113205
-0.155412
-0.185076
-0.188828
-0.180650
-0.160319
-0.141438
-0.080067
-0.005913
0.035369
0.074335
0.109425
0.125193
0.121013
0.101147
0.083518
0.052084
-0.007254
-0.075021
-0.125153
-0.163807
-0.202532
-0.191748
-0.176992
-0.189596
-0.185228
-0.155023
-0.103079
-0.076887
-0.006438
0.027727
0.070983
0.090560
0.070517
0.082526
0.051692
0.007691
-0.041633
-0.084062
-0.121911
-0.169199
-0.222214
-0.262308
-0.254938
-0.207943
-0.181363
-0.174646
-0.171225
-0.094115
-0.026570
0.026314
0.064557
0.088787
0.088459
0.076725
0.032387
-0.001070
-0.069376
-0.089020
-0.135757
-0.187407
-0.217989
-0.240472
-0.246595
-0.245690
-0.206924
-0.156202
-0.132062
-0.078332
-0.022342
0.005568
0.035415
0.067128
0.049013
0.045956
0.040670
0.003058
-0.053353
-0.118966
-0.167529
-0.210523
-0.193245
-0.218897
-0.229884
-0.225113
-0.212112
-0.184078
-0.129896
-0.068209
-0.020207
0.026992
0.056492
0.085635
0.071568
0.044509
0.026465
-0.004156
-0.043168
-0.108580
-0.152206
-0.183385
-0.220763
-0.245264
-0.241655
-0.234381
-0.209988
-0.166306
-0.139288
-0.116575
-0.061854
-0.008232
0.042165
0.087363
0.078088
0.075746
0.048177
0.034742
0.017404
-0.020650
-0.056422
-0.074750
-0.079521
-0.090995
-0.082425
-0.048250
-0.003233
0.046028
0.108196
0.173591
0.254980
0.345673
0.394704
0.436182
0.452970
0.475976
0.524829
0.522568
0.512636
0.488594
0.461757
0.474264
0.463074
0.479074
0.525684
0.573330
0.614645
0.633709
0.681754
0.715571
0.728680
0.747723
0.766521
0.783137
0.748015
0.676865
0.565507
0.464094
0.364197
0.273835
0.176800
0.085860
0.028124
-0.027079
-0.050559
-0.055514
-0.032903
0.000514
0.045207
0.081954
0.110765
0.135181
0.162717
0.172979
0.161531
0.163241
0.128912
0.084275
0.034865
-0.006628
-0.057784
-0.099795
-0.140019
-0.147768
-0.167078
-0.168671
-0.132796
-0.089072
-0.035869
-0.008488
0.010692
0.042331
0.065920
0.079263
0.108240
0.111884
0.069998
0.043533
-0.010169
-0.045267
-0.096067
-0.146108
-0.178236
-0.187431
-0.191085
-0.188345
-0.157056
-0.130735
-0.086207
-0.046403
0.006847
0.046280
0.071273
0.091965
0.086295
0.071433
0.036331
0.027525
-0.010555
-0.096307
-0.108993
-0.121842
-0.170149
-0.184767
-0.199598
-0.196135
-0.165887
-0.133267
-0.085538
-0.042607
0.006675
0.035486
0.063353
0.094996
0.103913
0.085016
0.067789
0.035537
-0.016899
-0.065687
-0.101214
-0.136338
-0.167138
-0.179020
-0.174395
-0.166618
-0.140768
-0.109855
-0.070388
-0.031653
0.015234
0.057126
0.087555
0.104289
0.113592
0.108828
0.074292
0.059485
0.011955
-0.027353
-0.041364
-0.080125
-0.124369
-0.157318
-0.175491
-0.170722
-0.144980
-0.090887
-0.043704
0.023749
0.079117
0.101206
0.109763
0.126613
0.144405
0.149566
0.107805
0.055576
0.013439
-0.022678
-0.066831
-0.061538
-0.081404
-0.095900
-0.105270
-0.108738
-0.099812
-0.059012
-0.010027
0.024920
0.060537
0.107868
0.157890
0.192892
0.191263
0.170300
0.135733
0.116129
0.061552
0.025299
0.003640
-0.053267
-0.124389
-0.143590
-0.097936
-0.084285
-0.034435
0.000061
0.029561
0.056493
0.079531
0.129830
0.184115
0.205983
0.197511
0.169968
0.122778
0.097770
0.079898
0.046793
0.015541
-0.026584
-0.062531
-0.088902
-0.101122
-0.106435
-0.073086
-0.025412
0.030699
0.094161
0.109075
0.142946
0.173681
0.196946
0.210250
0.178461
0.141241
0.114806
0.061047
0.033514
-0.019444
-0.056916
-0.090408
-0.117197
-0.106915
-0.078963
-0.065207
-0.034724
-0.007648
0.035663
0.064425
0.117087
0.148962
0.158060
0.151850
0.146416
0.134176
0.093911
0.042344
-0.011852
-0.043214
-0.113285
-0.147886
-0.154273
-0.157435
-0.154576
-0.109974
-0.078964
-0.046053
-0.006999
0.037999
0.083276
0.115175
0.127227
0.123336
0.113584
0.069244
0.018240
-0.033310
-0.025670
-0.065239
-0.130476
-0.156387
-0.168554
-0.186537
-0.179467
-0.149850
-0.090707
-0.081446
-0.040362
-0.019078
0.010124
0.054513
0.075552
0.108279
0.110261
0.050005
0.015302
-0.025962
-0.074677
-0.128262
-0.178312
-0.204581
-0.219468
-0.236663
-0.237559
-0.221306
-0.173412
-0.138650
-0.079878
0.005321
0.055050
0.072991
0.051621
0.059460
0.053794
0.075382
0.022733
-0.039539
-0.104105
-0.149952
-0.182001
-0.211213
-0.232992
-0.224353
-0.214864
-0.193612
-0.173619
-0.125307
-0.074924
-0.021385
0.020139
0.047986
0.057033
0.057403
0.053804
0.022825
-0.018639
-0.070070
-0.116055
-0.147702
-0.199300
-0.251928
-0.252896
-0.226095
-0.222016
-0.190113
-0.147692
-0.084052
-0.040667
0.008125
0.031926
0.046070
0.050217
0.049970
0.028969
0.016351
-0.012301
-0.045988
-0.086395
-0.124502
-0.155562
-0.178759
-0.192667
-0.202675
-0.225067
-0.209047
-0.157022
-0.088334
-0.057518
-0.023935
0.006770
0.030396
0.050383
0.053116
0.049116
0.023460
0.012121
-0.032103
-0.065291
-0.102156
-0.168270
-0.180917
-0.220999
-0.255724
-0.231569
-0.196232
-0.167431
-0.141439
-0.070705
-0.000079
0.051483
0.070579
0.069649
0.064898
0.053847
0.010601
-0.011595
-0.024673
-0.070449
-0.126502
-0.173870
-0.197983
-0.213153
-0.213654
-0.221231
-0.186323
-0.153870
-0.118396
-0.079569
-0.060875
-0.027788
0.036681
0.099371
0.126916
0.073222
0.025486
-0.012213
-0.055528
-0.106034
-0.149260
-0.174402
-0.183310
-0.198684
-0.216882
-0.189878
-0.188142
-0.162679
-0.114655
-0.059789
-0.021430
0.011070
0.022312
0.039267
0.053048
0.052649
0.017554
-0.008686
-0.065569
-0.073779
-0.092259
-0.146487
-0.202433
-0.237024
-0.236505
-0.228294
-0.192464
-0.149521
-0.117265
-0.077687
-0.038107
0.007997
0.032167
0.048016
0.054787
0.040372
-0.000813
-0.051131
-0.079718
-0.107827
-0.125035
-0.183918
-0.227529
-0.219584
-0.225045
-0.236437
-0.214120
-0.163115
-0.104590
-0.055244
-0.018226
0.013960
0.033152
0.051975
0.044091
0.027479
0.003982
-0.035917
-0.062776
-0.117278
-0.158306
-0.200788
-0.229397
-0.243185
-0.239527
-0.236198
-0.223887
-0.151173
-0.117907
-0.059790
-0.021617
-0.000061
0.026571
0.043676
0.036935
0.023362
0.007966
-0.030769
-0.099158
-0.156332
-0.140709
-0.191437
-0.241010
-0.258095
-0.236538
-0.221377
-0.180255
-0.162148
-0.145834
-0.110226
-0.054110
0.019522
0.057327
0.061848
0.067402
0.034419
0.012208
-0.022767
-0.064439
-0.114499
-0.161927
-0.190626
-0.216943
-0.240517
-0.245368
-0.237645
-0.207846
-0.172577
-0.133465
-0.086393
-0.044441
-0.012897
0.025724
0.036530
0.036920
0.028370
0.025694
-0.003192
-0.026910
-0.074215
-0.118991
-0.169519
-0.210665
-0.232780
-0.196457
-0.183686
-0.157238
-0.149543
-0.120533
-0.085455
-0.038644
0.005331
0.064871
0.103559
0.099457
0.083259
0.058156
0.025746
-0.030566
-0.079470
-0.123625
-0.175014
-0.208569
-0.223518
-0.222340
-0.202126
-0.184968
-0.152159
-0.069828
-0.026597
0.003609
0.024038
0.055263
0.087678
0.093058
0.087208
0.065013
0.011299
-0.023155
-0.055958
-0.108801
-0.146920
-0.170066
-0.198598
-0.216199
-0.215864
-0.171663
-0.134243
-0.085278
-0.059807
-0.023316
-0.000510
0.016071
0.041050
0.064404
0.080711
0.080285
0.006249
-0.049447
-0.094664
-0.130435
-0.180473
-0.212971
-0.204608
-0.238095
-0.207653
-0.185780
-0.156992
-0.141776
-0.087027
-0.045981
-0.005171
-0.000530
0.020490
0.054353
0.030602
-0.010369
-0.033207
-0.078403
-0.121297
-0.149134
-0.186831
-0.248448
-0.261033
-0.253724
-0.257329
-0.229945
-0.200184
-0.161676
-0.121839
-0.062442
-0.035996
-0.004982
0.018411
0.019065
0.000908
-0.027999
-0.069341
-0.109115
-0.132268
-0.170224
-0.224739
-0.279836
-0.228009
-0.229173
-0.241917
-0.225313
-0.199019
-0.158619
-0.105267
-0.063576
-0.034242
-0.010572
-0.005582
0.009236
0.001911
-0.024761
-0.050923
-0.101324
-0.142579
-0.176075
-0.229283
-0.245189
-0.243866
-0.268185
-0.249367
-0.221109
-0.200736
-0.174656
-0.139318
-0.089123
-0.045166
-0.010766
0.006507
0.044166
0.020029
-0.029218
-0.070890
-0.098029
-0.148801
-0.183155
-0.211644
-0.228847
-0.228370
-0.234942
-0.244014
-0.226946
-0.208209
-0.175949
-0.138575
-0.090668
-0.047725
-0.002604
0.019524
0.024344
0.017700
0.007512
-0.017227
-0.047436
-0.080392
-0.117198
-0.132860
-0.143072
-0.135620
-0.130840
-0.120104
-0.093413
-0.023675
0.039565
0.077829
0.138618
0.207925
0.258172
0.305799
0.328087
0.344616
0.390090
0.388209
0.383613
0.392366
0.385346
0.370994
0.359541
0.382230
0.409489
0.439772
0.490984
0.567587
0.647406
0.703133
0.732848
0.758398
0.770296
0.767171
0.755215
0.719508
0.695700
0.636706
0.523835
0.421684
0.309386
0.202995
0.133213
0.081476
0.020826
-0.013337
-0.004218
0.013094
0.021128
0.065064
0.104513
0.136258
0.156454
0.163250
0.151802
0.130370
0.102862
0.068900
0.032999
-0.003026
-0.068158
-0.124374
-0.149467
-0.156358
-0.170865
-0.184520
-0.170050
-0.126610
-0.090327
-0.068638
-0.042313
0.058875
0.117753
0.128130
0.106672
0.079155
0.064338
0.021282
-0.011997
-0.062895
-0.109044
-0.130096
-0.174879
-0.199352
-0.213496
-0.200074
-0.181040
-0.155850
-0.115747
-0.067115
-0.037372
-0.005293
0.017808
0.047968
0.066498
0.043886
0.040942
0.021692
-0.022064
-0.069223
-0.118689
-0.174056
-0.226286
-0.199965
-0.193190
-0.203274
-0.183375
-0.153763
-0.101617
-0.052921
-0.023914
0.009604
0.027798
0.050775
0.078655
0.091707
0.057194
0.039849
0.002908
-0.059307
-0.106538
-0.140213
-0.165735
-0.196247
-0.208244
-0.189360
-0.176454
-0.138429
-0.082796
-0.027090
0.017596
0.057624
0.083931
0.087014
0.086357
0.093305
0.067943
0.028191
-0.004808
-0.032396
-0.062691
-0.107530
-0.134838
-0.162297
-0.170140
-0.160577
-0.136287
-0.104702
-0.067559
-0.010031
0.029081
0.062100
0.087445
0.117112
0.123387
0.131734
0.099530
0.068860
0.040565
-0.007742
-0.047384
-0.102134
-0.131688
-0.158114
-0.177642
-0.155967
-0.122466
-0.091890
-0.029009
0.003733
0.020518
0.068184
0.140517
0.166592
0.184295
0.159940
0.141710
0.126950
0.079070
0.009623
-0.038015
-0.092603
-0.076643
-0.025561
-0.051944
-0.092955
-0.071650
-0.049387
0.005892
0.053863
0.089535
0.118807
0.142378
0.167233
0.172337
0.187725
0.163425
0.120131
0.090742
0.055293
-0.004306
-0.017988
-0.047925
-0.085217
-0.101607
-0.082193
-0.067505
-0.038750
0.011000
0.040416
0.076260
0.108573
0.129580
0.152320
0.152809
0.179020
0.176437
0.148790
0.114264
0.062966
0.005241
-0.051079
-0.076213
-0.098926
-0.111332
-0.104263
-0.083249
-0.047296
-0.015883
0.024395
0.054138
0.099693
0.121862
0.142559
0.160019
0.156305
0.126027
0.087376
0.057915
0.033625
-0.021380
-0.078119
-0.117296
-0.139630
-0.146482
-0.140465
-0.107024
-0.083372
-0.053894
-0.021184
0.003689
0.029846
0.083349
0.086523
0.072669
0.082218
0.099530
0.049887
0.002807
-0.040013
-0.089794
-0.070495
-0.081545
-0.122599
-0.164227
-0.162300
-0.132152
-0.111172
-0.086921
-0.042466
0.006501
0.035593
0.058926
0.081925
0.095336
0.077116
0.049216
0.022000
-0.015518
-0.045464
-0.088438
-0.147312
-0.192617
-0.208971
-0.224160
-0.225346
-0.211105
-0.165516
-0.135946
-0.052653
-0.021278
-0.008159
0.031963
0.051049
0.070786
0.075225
0.061867
0.022930
-0.030296
-0.070847
-0.112321
-0.152268
-0.212311
-0.221339
-0.232984
-0.238724
-0.201424
-0.161882
-0.126909
-0.088132
-0.057783
-0.015245
0.019799
0.049737
0.046287
0.050572
0.021725
-0.018408
-0.052996
-0.089373
-0.130751
-0.149442
-0.187357
-0.222015
-0.234672
-0.235550
-0.220676
-0.188854
-0.140505
-0.080065
-0.025404
0.006521
0.047365
0.090489
0.078696
0.074698
0.055070
0.022445
-0.014783
-0.074271
-0.117591
-0.149423
-0.172252
-0.203151
-0.218786
-0.240256
-0.188929
-0.148938
-0.090519
-0.079888
-0.044379
-0.006033
0.038023
0.054894
0.079741
0.083951
0.055517
0.015789
-0.027667
-0.075590
-0.123973
-0.152135
-0.177534
-0.167018
-0.156128
-0.188464
-0.190948
-0.165144
-0.127095
-0.083439
-0.034406
0.012671
0.046956
0.069770
0.085951
0.084581
0.050679
-0.008265
-0.049329
-0.055666
-0.076030
-0.143180
-0.181399
-0.207611
-0.221648
-0.214716
-0.189709
-0.153043
-0.125540
-0.084189
-0.061348
-0.006104
0.015333
0.061561
0.068106
0.087972
0.084728
0.045273
0.016224
-0.051861
-0.110103
-0.146019
-0.193829
-0.221021
-0.224702
-0.228104
-0.206911
-0.168924
-0.117674
-0.051880
-0.000188
0.025348
0.051270
0.081472
0.089930
0.081351
0.051972
0.019709
-0.019410
-0.076405
-0.132001
-0.187016
-0.205487
-0.204706
-0.216226
-0.223166
-0.210233
-0.180991
-0.112313
-0.085249
-0.013123
0.025374
0.043751
0.064995
0.062531
0.047637
0.043057
0.016134
-0.011865
-0.062520
-0.117972
-0.171091
-0.206080
-0.222411
-0.234791
-0.237111
-0.214642
-0.177545
-0.147513
-0.092764
-0.056108
0.019486
0.051081
0.058896
0.077360
0.070710
0.048655
0.014712
-0.037393
-0.070902
-0.122400
-0.163805
-0.201560
-0.228002
-0.229714
-0.226628
-0.216874
-0.188277
-0.140001
-0.078784
-0.023764
0.013222
0.028206
0.047993
0.048489
0.045402
0.027298
-0.009098
-0.031954
-0.075875
-0.102737
-0.154563
-0.197633
-0.218789
-0.240228
-0.229517
-0.211371
-0.193313
-0.167218
-0.089035
-0.055954
-0.017622
0.050458
0.092830
0.090619
0.070032
0.039825
0.002574
-0.029232
-0.097510
-0.162261
-0.174601
-0.199152
-0.213243
-0.229502
-0.246795
-0.245110
-0.207143
-0.156507
-0.130732
-0.064425
-0.002822
0.078617
0.129292
0.090760
0.064141
0.058334
0.022127
-0.008726
-0.042431
-0.111443
-0.157977
-0.197247
-0.218627
-0.205598
-0.214673
-0.205547
-0.164200
-0.126917
-0.068845
-0.012989
0.039872
0.076211
0.106717
0.099680
0.099929
0.073861
0.027584
0.003243
-0.034527
-0.081206
-0.138612
-0.183429
-0.203586
-0.192101
-0.165400
-0.172586
-0.131384
-0.089652
-0.044868
-0.008291
0.039611
0.083490
0.119601
0.118920
0.128170
0.100739
0.056424
0.022259
-0.030437
-0.076983
-0.120974
-0.150249
-0.158905
-0.171644
-0.161419
-0.156292
-0.134933
-0.096172
-0.061202
-0.023143
0.025489
0.063995
0.110859
0.118613
0.105523
0.084656
0.027915
-0.027756
-0.070737
-0.115859
-0.169554
-0.196505
-0.214033
-0.217227
-0.232638
-0.231255
-0.209843
-0.134596
-0.067232
-0.044441
0.004145
0.067489
0.071545
0.048235
0.073984
0.049392
-0.004111
-0.057925
-0.107843
-0.146696
-0.194014
-0.247753
-0.243898
-0.240694
-0.235251
-0.231881
-0.191694
-0.145982
-0.090677
-0.050858
-0.009563
0.013809
0.039093
0.050617
0.025591
0.004717
-0.044872
-0.085270
-0.134278
-0.190994
-0.200187
-0.198565
-0.220222
-0.231023
-0.249402
-0.233697
-0.186979
-0.162400
-0.110846
-0.063400
-0.026482
0.009659
0.036192
0.028273
0.021561
0.021415
-0.010452
-0.055700
-0.107214
-0.154509
-0.196109
-0.218044
-0.239927
-0.250120
-0.239484
-0.228263
-0.198721
-0.166862
-0.121177
-0.076072
-0.026058
-0.004532
0.027692
0.037438
0.044236
0.024213
-0.018235
-0.066319
-0.107463
-0.147702
-0.193329
-0.232694
-0.260264
-0.269763
-0.258895
-0.247469
-0.212769
-0.174008
-0.125562
-0.091396
-0.055344
-0.000913
0.026844
0.028379
0.024310
0.018942
-0.020986
-0.038677
-0.060975
-0.105913
-0.140404
-0.158725
-0.170568
-0.172781
-0.152522
-0.099163
-0.049731
0.010779
0.065289
0.107279
0.160896
0.212813
0.278640
0.318579
0.331164
0.349467
0.361728
0.370174
0.317530
0.299137
0.310064
0.290380
0.300597
0.334594
0.362598
0.429066
0.547981
0.616565
0.656746
0.729822
0.785236
0.831063
0.852615
0.859396
0.820916
0.787586
0.712817
0.661569
0.575832
0.467135
0.350909
0.246728
0.169184
0.119819
0.074014
0.036451
0.025447
0.038769
0.087872
0.118556
0.167434
0.189160
0.193942
0.196722
0.180621
0.148761
0.089913
0.045050
0.005605
-0.048371
-0.088877
-0.128124
-0.161959
-0.168090
-0.157756
-0.134598
-0.095733
-0.069077
-0.027798
0.032933
0.068026
0.104681
0.121997
0.122544
0.091827
0.096687
0.051935
0.015251
-0.038110
-0.094456
-0.134382
-0.169828
-0.200777
-0.214290
-0.192088
-0.132103
-0.114888
-0.114631
-0.064516
-0.019514
0.025828
0.054243
0.048979
0.071052
0.077754
0.094241
0.050027
0.005892
-0.032499
-0.084573
-0.123435
-0.160327
-0.196593
-0.208354
-0.195856
-0.177280
-0.140809
-0.109549
-0.057392
-0.017625
0.022144
0.073474
0.111853
0.117150
0.105000
0.077623
0.049546
0.009845
-0.034870
-0.092076
-0.104528
-0.142771
-0.179970
-0.194003
-0.186677
-0.179801
-0.140366
-0.091352
-0.043712
0.011626
0.052842
0.095496
0.130621
0.132364
0.115283
0.107346
0.066373
0.016620
-0.033898
-0.085497
-0.119953
-0.143746
-0.158238
-0.132596
-0.150078
-0.156514
-0.089948
-0.049841
0.004526
0.067761
0.089473
0.143479
0.161636
0.165019
0.158085
0.132465
0.104383
0.068832
0.018064
-0.045039
-0.091396
-0.107848
-0.143982
-0.151640
-0.145817
-0.113461
-0.049963
-0.034129
0.040814
0.115114
0.143823
0.170970
0.186959
0.203519
0.196295
0.168438
0.114148
0.102768
0.069274
0.017530
-0.016232
-0.058008
-0.088951
-0.107113
-0.090200
-0.072338
-0.047973
-0.001843
0.060446
0.122291
0.170014
0.191521
0.213968
0.225475
0.213658
0.197325
0.146398
0.104406
0.068474
0.002411
-0.016322
-0.055935
-0.085734
-0.095823
-0.078875
-0.046075
-0.015192
0.007708
0.050057
0.093452
0.140856
0.177531
0.211425
0.230034
0.228164
0.211879
0.154877
0.101926
0.051997
0.017564
-0.021383
-0.045577
-0.069198
-0.085601
-0.074819
-0.046020
-0.020529
-0.005096
0.033087
0.108837
0.126052
0.135904
0.142121
0.145025
0.143511
0.142625
0.120915
0.152704
0.095401
0.017099
-0.032227
-0.089743
-0.116147
-0.116126
-0.107140
-0.074201
-0.042954
-0.013440
0.037403
0.064912
0.105508
0.142828
0.162525
0.160727
0.144812
0.118776
0.084006
0.054620
-0.005794
-0.069979
-0.092129
-0.135716
-0.157090
-0.156052
-0.147574
-0.134974
-0.075602
-0.067523
0.011424
0.040194
0.059983
0.103966
0.116844
0.111665
0.109033
0.097511
0.060057
0.018163
-0.024346
-0.086323
-0.136867
-0.159601
-0.181411
-0.196710
-0.193616
-0.153139
-0.119743
-0.089210
-0.047808
0.010115
0.047739
0.085269
0.090225
0.091754
0.095772
0.068732
0.042119
-0.012882
-0.056042
-0.101861
-0.132526
-0.168197
-0.191775
-0.215360
-0.214046
-0.172278
-0.139235
-0.098236
-0.071719
-0.014437
0.035610
0.090682
0.110121
0.109254
0.094093
0.063832
0.041905
0.009367
-0.044164
-0.109108
-0.149573
-0.187553
-0.223753
-0.229656
-0.212580
-0.140174
-0.077906
-0.076754
-0.051405
0.002180
0.030018
0.072574
0.095231
0.095771
0.103138
0.086123
0.046794
-0.004992
-0.042118
-0.083047
-0.122960
-0.158889
-0.167702
-0.179601
-0.163598
-0.135780
-0.091124
-0.075727
-0.055756
-0.013886
0.061236
0.079413
0.115538
0.113577
0.117128
0.091260
0.052774
0.015654
-0.028617
-0.070893
-0.118919
-0.159129
-0.174727
-0.180761
-0.173767
-0.145394
-0.098733
-0.076035
-0.026364
0.021306
0.064847
0.109767
0.118390
0.097687
0.093930
0.068018
0.026068
-0.014491
-0.036063
-0.078834
-0.104676
-0.178443
-0.154942
-0.169744
-0.178331
-0.158834
-0.126801
-0.056179
-0.019641
0.012075
0.044664
0.082303
0.105719
0.111789
0.111133
0.087069
0.050802
0.004633
-0.040713
-0.078179
-0.120668
-0.159456
-0.175940
-0.182857
-0.193805
-0.168540
-0.100952
-0.061225
-0.025607
0.014432
0.038035
0.059505
0.096467
0.097655
0.095120
0.071424
0.082019
0.050443
-0.004650
-0.069110
-0.112418
-0.136726
-0.172853
-0.177810
-0.175964
-0.142066
-0.102846
-0.078552
-0.049757
-0.016337
0.039915
0.094823
0.118790
0.125393
0.100453
0.099596
0.055733
-0.000995
-0.039199
-0.083820
-0.140209
-0.175939
-0.197015
-0.185802
-0.166416
-0.171789
-0.139372
-0.114595
-0.070885
-0.038515
0.064812
0.095854
0.103677
0.113082
0.119973
0.082658
0.045378
0.006400
-0.041831
-0.104384
-0.143981
-0.170781
-0.184444
-0.214148
-0.206124
-0.175850
-0.129134
-0.088365
-0.040657
-0.009288
0.036667
0.069148
0.098073
0.110847
0.093842
0.084780
0.051391
0.002723
-0.038500
-0.088590
-0.127548
-0.163851
-0.187302
-0.218689
-0.205540
-0.195041
-0.165376
-0.070665
0.009793
0.007003
0.027828
0.059165
0.082885
0.120384
0.109388
0.088670
0.047497
-0.001060
-0.042553
-0.083278
-0.127818
-0.164998
-0.181881
-0.194338
-0.198980
-0.177189
-0.141636
-0.095150
-0.050262
0.001185
0.035732
0.073376
0.096091
0.113341
0.098952
0.073255
0.026262
-0.004709
-0.030871
-0.102438
-0.157616
-0.157899
-0.164511
-0.194555
-0.179799
-0.161533
-0.158558
-0.086270
-0.029002
0.028215
0.073129
0.081281
0.124091
0.127872
0.121883
0.103605
0.091756
0.039487
-0.011759
-0.035963
-0.074591
-0.123837
-0.159514
-0.157121
-0.166234
-0.145377
-0.102487
-0.059297
-0.026115
0.027009
0.082451
0.098321
0.122565
0.141519
0.128659
0.113144
0.079133
0.043484
-0.004345
-0.074213
-0.100181
-0.135467
-0.187176
-0.153030
-0.113458
-0.076093
-0.068427
-0.040337
0.008033
0.044176
0.078975
0.115451
0.155871
0.161931
0.182779
0.148585
0.100984
0.056609
0.005225
-0.034659
-0.075941
-0.109301
-0.143673
-0.159766
-0.172845
-0.162389
-0.121134
-0.063270
-0.005927
0.033831
0.073662
0.091526
0.097123
0.119708
0.112963
0.099395
0.045518
0.005145
-0.028406
-0.058413
-0.099522
-0.154464
-0.182817
-0.180239
-0.180835
-0.185219
-0.165545
-0.112244
-0.046163
0.010678
0.045668
0.055297
0.075474
0.083097
0.087221
0.053214
0.033105
-0.027601
-0.061446
-0.094131
-0.150194
-0.224879
-0.185204
-0.227398
-0.213172
-0.185846
-0.150696
-0.116662
-0.077033
-0.029309
0.024739
0.065462
0.074481
0.085790
0.073932
0.064137
0.021811
-0.037066
-0.087968
-0.117415
-0.152001
-0.202332
-0.207528
-0.220367
-0.228370
-0.206221
-0.165868
-0.109977
-0.049588
0.011340
0.036171
0.042779
0.064958
0.087511
0.087795
0.064730
0.020200
-0.029905
-0.079237
-0.111193
-0.134447
-0.200248
-0.231862
-0.239492
-0.235673
-0.206117
-0.155336
-0.105868
-0.051956
-0.018170
0.023564
0.071341
0.109494
0.096110
0.085011
0.065005
0.027990
-0.014657
-0.073583
-0.128732
-0.168314
-0.197583
-0.217749
-0.235441
-0.231435
-0.211060
-0.176114
-0.133292
-0.070850
-0.014252
0.030633
0.066475
0.119784
0.150181
0.139963
0.129293
0.121113
0.082576
0.065793
0.026808
-0.007223
-0.024111
-0.033546
-0.031799
-0.017517
0.061950
0.126032
0.181206
0.248865
0.335881
0.424677
0.482708
0.526109
0.572833
0.608185
0.604381
0.600126
0.581214
0.614862
0.601664
0.586198
0.570987
0.588382
0.588658
0.598981
0.619855
0.645933
0.661221
0.690563
0.722653
0.746969
0.780790
0.731627
0.654539
0.576924
0.495643
0.412856
0.323496
0.229998
0.138884
0.057729
0.020824
-0.009900
-0.039833
-0.048522
-0.026613
-0.002012
0.011964
0.081872
0.105442
0.124593
0.160757
0.185199
0.207697
0.204691
0.182474
0.146681
0.091043
0.017374
-0.031219
-0.075134
-0.117034
-0.147892
-0.152768
-0.135222
-0.109473
-0.088984
-0.039422
0.011611
0.039917
0.081909
0.097747
0.117423
0.133949
0.160188
0.130369
0.103433
0.047155
0.004769
-0.047686
-0.096718
-0.134770
-0.145999
-0.148727
-0.165435
-0.146703
-0.122175
-0.082154
-0.024249
0.033424
0.085336
0.104951
0.118550
0.118642
0.142131
0.128606
0.077984
0.029494
-0.017691
-0.093274
-0.083326
-0.080242
-0.121165
-0.150419
-0.154959
-0.143571
-0.106364
-0.049189
0.002552
0.046869
0.085077
0.125951
0.134602
0.144083
0.132466
0.120846
0.095099
0.058365
0.009479
-0.039440
-0.088770
-0.111161
-0.120777
-0.115830
-0.125302
-0.095806
-0.080630
-0.051968
0.009751
0.057023
0.095915
0.123431
0.156757
0.176802
0.164605
0.149632
0.110365
0.064228
0.014912
-0.021526
-0.043727
-0.069513
-0.111672
-0.122712
-0.130746
-0.113050
-0.079432
-0.023337
0.063606
0.137993
0.165092
0.183821
0.203130
0.200539
0.208891
0.196335
0.149547
0.079868
0.051881
0.027893
-0.005184
-0.043447
-0.074952
-0.104879
-0.066045
-0.057139
-0.037390
-0.003022
0.076758
0.144565
0.171612
0.213329
0.253786
0.284790
0.244857
0.223739
0.193429
0.142714
0.090703
0.043848
0.006867
-0.038595
-0.047234
-0.056804
-0.036270
-0.028578
-0.003361
0.055447
0.090128
0.147378
0.178435
0.223624
0.264568
0.272298
0.247395
0.208175
0.166750
0.152645
0.127310
0.083804
0.005727
-0.035783
-0.026637
-0.026289
-0.035274
-0.020974
0.008704
0.051362
0.110910
0.153217
0.203069
0.219781
0.236463
0.248550
0.255424
0.232100
0.186721
0.145117
0.113919
0.065693
0.011655
-0.008472
-0.062891
-0.108038
-0.051559
-0.029334
0.016079
0.038851
0.073128
0.118184
0.173242
0.209270
0.239650
0.242138
0.219918
0.194884
0.159749
0.103191
0.051299
-0.001859
-0.028372
-0.055552
-0.091712
-0.118850
-0.088371
-0.071792
-0.049540
0.001012
0.060074
0.108265
0.137447
0.158825
0.181879
0.187156
0.187285
0.158905
0.106768
0.042443
0.010107
-0.022072
-0.057415
-0.093110
-0.125334
-0.139780
-0.136836
-0.127078
-0.092964
-0.021920
0.037289
0.068769
0.101718
0.126696
0.144361
0.153033
0.157023
0.111998
0.062151
0.015971
-0.005228
-0.023710
-0.070174
-0.138484
-0.182292
-0.213510
-0.142731
-0.099263
-0.089139
-0.032961
-0.004104
0.063019
0.104497
0.111332
0.124559
0.139135
0.147985
0.104580
0.058837
0.048923
-0.013964
-0.070158
-0.091066
-0.121061
-0.155668
-0.182910
-0.164016
-0.139066
-0.119114
-0.054922
-0.007715
0.042014
0.088604
0.115835
0.118653
0.122929
0.126470
0.122817
0.096141
0.035823
-0.010901
-0.033634
-0.074154
-0.134301
-0.149799
-0.178795
-0.169704
-0.152929
-0.116566
-0.052116
0.002735
0.043940
0.080006
0.114566
0.139171
0.147299
0.134558
0.115007
0.100347
0.044889
-0.008807
-0.055118
-0.095503
-0.132914
-0.151006
-0.162680
-0.159681
-0.155875
-0.123823
-0.077207
-0.007206
0.051070
0.101554
0.127652
0.147244
0.136609
0.130530
0.130730
0.118342
0.071454
0.013571
-0.036214
-0.087388
-0.123078
-0.149513
-0.167502
-0.134504
-0.106057
-0.073993
-0.038234
-0.012603
0.036526
0.092827
0.107234
0.140715
0.168689
0.174612
0.147817
0.080634
0.067340
0.006967
-0.046074
-0.085559
-0.128510
-0.146218
-0.158058
-0.155296
-0.151113
-0.079155
-0.037645
0.001245
0.041339
0.093145
0.124317
0.132635
0.149906
0.155259
0.124029
0.087405
0.045350
-0.010000
-0.057030
-0.112900
-0.130787
-0.123853
-0.159185
-0.158416
-0.141213
-0.105038
-0.036426
-0.003372
0.060038
0.078319
0.124540
0.153049
0.172290
0.150112
0.123711
0.083658
0.037589
-0.015828
-0.065124
-0.116302
-0.155264
-0.170815
-0.178033
-0.179955
-0.120793
-0.092616
-0.044812
-0.003483
0.044396
0.083724
0.113932
0.132660
0.150352
0.147468
0.114742
0.079774
0.024117
-0.032153
-0.087569
-0.128991
-0.159038
-0.178370
-0.186669
-0.161763
-0.135297
-0.097686
-0.041099
0.011155
0.043532
0.082941
0.127524
0.123912
0.119073
0.109246
0.113273
0.101776
0.054259
-0.030437
-0.094532
-0.148072
-0.169612
-0.144995
-0.154493
-0.158616
-0.130521
-0.111874
-0.057356
-0.011095
0.027100
0.066435
0.098255
0.085916
0.099945
0.074188
0.128550
0.107526
0.054283
-0.019646
-0.061956
-0.114199
-0.156432
-0.173019
-0.180507
-0.171987
-0.139788
-0.109294
-0.067847
-0.039092
0.030301
0.098885
0.138757
0.152120
0.140047
0.102111
0.091645
0.063203
0.029400
-0.014259
-0.083165
-0.135514
-0.155257
-0.143695
-0.143532
-0.151391
-0.146871
-0.107545
-0.057342
-0.020055
0.011212
0.068406
0.107558
0.120847
0.122531
0.116994
0.100636
0.079661
0.033704
-0.012924
-0.057934
-0.100887
-0.133516
-0.167614
-0.182273
-0.182031
-0.147634
-0.113146
-0.068886
-0.039581
0.051662
0.091131
0.111541
0.150485
0.162014
0.155058
0.131093
0.102662
0.061957
0.030960
-0.018835
-0.090230
-0.134261
-0.152213
-0.158118
-0.140576
-0.104847
-0.092433
-0.049535
0.000411
0.049714
0.106954
0.133177
0.137534
0.131489
0.151888
0.153350
0.127699
0.088422
0.040347
-0.029135
-0.082508
-0.107295
-0.123576
-0.118781
-0.112933
-0.087504
-0.053714
0.004323
0.048338
0.108806
0.182475
0.194922
0.180434
0.182906
0.188921
0.163148
0.123706
0.069509
0.026465
-0.029835
-0.087270
-0.121539
-0.134916
-0.146685
-0.143195
-0.121150
-0.073574
-0.033537
0.021724
0.061030
0.089221
0.120055
0.140425
0.154093
0.158260
0.118457
0.085014
0.027578
-0.023198
-0.068649
-0.113591
-0.151648
-0.176836
-0.193146
-0.186332
-0.176925
-0.139838
-0.073802
0.001725
0.033879
0.046743
0.070885
0.104386
0.130118
0.118865
0.082273
0.057906
-0.001039
-0.001883
-0.042163
-0.122021
-0.173736
-0.219339
-0.249885
-0.207050
-0.172438
-0.133904
-0.100883
-0.044247
-0.011646
0.041518
0.111741
0.153875
0.160538
0.127052
0.082214
0.047726
-0.009351
-0.043406
-0.092930
-0.137845
-0.190654
-0.193727
-0.197632
-0.188173
-0.178879
-0.140883
-0.073527
-0.027743
0.009900
0.045305
0.072782
0.099770
0.098818
0.086551
0.085284
0.039024
-0.008557
-0.056545
-0.113145
-0.167877
-0.197776
-0.194802
-0.181660
-0.160697
-0.144106
-0.121983
-0.076929
-0.035811
0.008342
0.065259
0.093389
0.112614
0.111606
0.102312
0.081512
0.041697
-0.013218
-0.062446
-0.113996
-0.161184
-0.195570
-0.213012
-0.222526
-0.197808
-0.181198
-0.139587
-0.089349
-0.030383
0.041743
0.126465
0.162769
0.180355
0.195677
0.213290
0.214724
0.174689
0.117184
0.091923
0.011185
0.003766
0.009102
0.006451
-0.002872
0.045215
0.125831
0.187433
0.246516
0.330212
0.411922
0.492791
0.534456
0.588173
0.627014
0.633264
0.629341
0.638182
0.622104
0.606222
0.597124
0.586811
0.598197
0.574194
0.555923
0.568243
0.586913
0.611786
0.655509
0.663857
0.665769
0.653994
0.607477
0.581257
0.529429
0.466798
0.448914
0.383658
0.263205
0.170650
0.088988
0.012600
-0.035916
-0.065570
-0.084232
-0.077272
-0.069795
-0.019200
0.012876
0.066269
0.127825
0.182616
0.195318
0.208686
0.210374
0.199508
0.175041
0.135686
0.095798
0.035289
-0.028861
-0.088825
-0.112487
-0.129357
-0.148870
-0.134580
-0.080626
-0.020045
0.002506
0.022853
0.029757
0.104577
0.125838
0.138400
0.149533
0.132838
0.104951
0.112845
0.073119
0.022808
-0.035814
-0.087731
-0.104833
-0.133694
-0.147108
-0.140648
-0.123381
-0.092795
-0.041302
0.006056
0.046808
0.077349
0.107270
0.134888
0.159945
0.128452
0.124571
0.137061
0.080225
-0.006292
-0.060768
-0.090629
-0.111651
-0.147144
-0.168608
-0.138838
-0.102326
-0.061097
-0.010176
0.030521
0.075878
0.121804
0.149605
0.165818
0.167267
0.140686
0.116148
0.100842
0.076257
0.013817
-0.068750
-0.066030
-0.068431
-0.109908
-0.123576
-0.133942
-0.131985
-0.088175
-0.015811
0.046790
0.076293
0.143357
0.147341
0.200218
0.233639
0.228116
0.194458
0.149546
0.092229
0.047571
-0.001436
-0.051642
-0.082313
-0.088063
-0.093503
-0.088995
-0.080130
-0.048027
0.006449
0.075141
0.124426
0.161094
0.182502
0.212416
0.218819
0.211683
0.186499
0.154045
0.131056
0.074839
0.023567
-0.022760
-0.038606
-0.065736
-0.071698
-0.059930
-0.027926
-0.008450
0.047746
0.087890
0.148913
0.204615
0.232968
0.247582
0.267927
0.275203
0.239017
0.185829
0.132324
0.090387
0.062613
0.008104
-0.031016
-0.052213
-0.046791
-0.022091
0.014182
0.062972
0.113142
0.140352
0.191674
0.224482
0.242449
0.254404
0.253844
0.249378
0.227212
0.181678
0.120277
0.126954
0.088634
0.083789
0.021686
-0.042128
-0.070795
-0.053522
-0.027955
0.014323
0.109208
0.161357
0.166798
0.184781
0.218381
0.243293
0.263583
0.258032
0.254095
0.241300
0.187541
0.097540
0.045546
0.000085
-0.026443
-0.059440
-0.077735
-0.068199
-0.044660
-0.019531
0.024854
0.103484
0.160018
0.207058
0.223445
0.231572
0.226830
0.221491
0.204496
0.171547
0.141283
0.092944
0.023598
-0.018812
-0.062334
-0.085380
-0.096392
-0.089133
-0.057383
-0.032708
0.025116
0.063284
0.103323
0.136358
0.161590
0.183475
0.197920
0.200476
0.169945
0.132306
0.084562
0.028488
-0.029445
-0.076430
-0.105178
-0.104479
-0.105946
-0.112952
-0.099535
-0.071120
-0.053905
-0.012930
0.070236
0.135749
0.165648
0.181671
0.169650
0.153135
0.104891
0.082257
0.024491
-0.018532
-0.048493
-0.106314
-0.109059
-0.126331
-0.142762
-0.175675
-0.144346
-0.088395
-0.052782
-0.002745
0.050994
0.096128
0.112178
0.134496
0.142166
0.131230
0.118052
0.081055
0.029833
-0.010486
-0.067870
-0.097980
-0.114891
-0.135970
-0.145559
-0.143108
-0.142076
-0.106311
-0.042151
0.005012
0.049411
0.080373
0.112062
0.136280
0.146318
0.145264
0.111731
0.075005
0.030372
-0.039339
-0.062478
-0.113395
-0.156014
-0.174555
-0.130273
-0.129944
-0.126642
-0.083653
-0.035478
0.004134
0.048703
0.094455
0.122322
0.143221
0.161862
0.142013
0.121976
0.077925
0.031673
-0.017007
-0.066790
-0.102774
-0.134037
-0.163480
-0.169639
-0.153622
-0.130069
-0.103698
-0.055829
-0.011616
0.029719
0.084633
0.119340
0.167315
0.180584
0.143635
0.119182
0.082566
0.050477
0.010516
-0.052976
-0.095624
-0.128257
-0.152247
-0.159060
-0.156446
-0.124532
-0.084758
-0.035024
0.007299
0.049287
0.090105
0.122460
0.143753
0.152362
0.140474
0.132143
0.090999
0.038681
-0.017172
-0.051680
-0.094028
-0.126525
-0.151855
-0.159344
-0.155583
-0.140763
-0.109219
-0.053213
-0.004066
0.036904
0.079985
0.106269
0.140940
0.152603
0.146617
0.120259
0.085820
0.030580
-0.016257
-0.061653
-0.100443
-0.133880
-0.156815
-0.158974
-0.148350
-0.119541
-0.087726
-0.050709
-0.003340
0.040210
0.095641
0.119754
0.149435
0.137989
0.119426
0.084616
0.051545
0.009941
-0.025953
-0.044243
-0.081932
-0.129919
-0.167586
-0.174869
-0.186002
-0.166632
-0.101267
-0.036092
0.026196
0.044430
0.054805
0.109453
0.173886
0.156169
0.144008
0.117815
0.087412
0.011362
-0.060946
-0.069749
-0.075692
-0.091971
-0.133824
-0.156820
-0.161956
-0.150531
-0.110880
-0.065853
-0.015260
0.035910
0.083381
0.130079
0.158677
0.154172
0.135926
0.104265
0.064735
0.013639
-0.028714
-0.076087
-0.121437
-0.150932
-0.175412
-0.189437
-0.188165
-0.156891
-0.120954
-0.072623
-0.014842
0.042960
0.075950
0.107931
0.128558
0.133956
0.119169
0.094154
0.064637
0.012311
-0.031236
-0.077739
-0.123242
-0.157768
-0.181718
-0.166638
-0.167356
-0.147073
-0.109452
-0.057781
-0.001408
0.041636
0.092927
0.133228
0.160948
0.160121
0.155719
0.126323
0.084001
0.043250
0.006069
-0.045172
-0.081646
-0.121909
-0.145120
-0.140328
-0.150256
-0.128323
-0.108271
-0.053914
0.008474
0.082717
0.136476
0.157866
0.171607
0.165105
0.134850
0.109497
0.084811
0.033595
-0.013760
-0.056874
-0.077010
-0.095590
-0.093041
-0.100512
-0.145974
-0.119837
-0.040996
0.006770
0.049782
0.084702
0.119626
0.147503
0.174667
0.186562
0.177779
0.166313
0.089524
0.008065
-0.017275
-0.039078
-0.107772
-0.138071
-0.121919
-0.086838
-0.079191
-0.103807
-0.052523
-0.032481
0.017100
0.051121
0.072575
0.123802
0.157732
0.160926
0.137902
0.073927
0.034451
0.021346
-0.034286
-0.080997
-0.113089
-0.146007
-0.174335
-0.181081
-0.159854
-0.139954
-0.115234
-0.071412
-0.024248
0.020476
0.046754
0.070195
0.102391
0.104229
0.087155
0.069506
0.066647
0.042016
-0.025696
-0.100741
-0.155058
-0.176973
-0.192854
-0.202402
-0.197412
-0.171950
-0.119678
-0.057579
-0.036093
0.003595
0.051986
0.082312
0.096439
0.091444
0.088653
0.063090
0.013664
-0.030182
-0.060772
-0.094148
-0.148453
-0.197731
-0.219879
-0.237605
-0.197234
-0.168214
-0.140995
-0.099327
-0.066498
-0.039314
0.073397
0.113811
0.129689
0.109277
0.104631
0.088458
0.052265
-0.002374
-0.054457
-0.114660
-0.162519
-0.193786
-0.214782
-0.223580
-0.211052
-0.190879
-0.144997
-0.100432
-0.057729
-0.003727
0.069816
0.102030
0.109657
0.074201
0.084851
0.074054
0.004091
-0.030281
-0.095594
-0.133376
-0.145222
-0.205350
-0.241980
-0.269526
-0.231833
-0.197244
-0.150515
-0.092583
-0.023582
0.035063
0.092051
0.127940
0.158743
0.166819
0.167595
0.170419
0.151966
0.125250
0.076001
0.032628
0.021402
0.016988
0.015502
0.002811
0.058714
0.134135
0.218519
0.253957
0.330550
0.401932
0.472661
0.548542
0.604369
0.644070
0.710180
0.706864
0.678606
0.666385
0.662741
0.658082
0.634215
0.624674
0.604854
0.591838
0.618599
0.626928
0.642015
0.666364
0.695170
0.713851
0.692676
0.688328
0.636465
0.566933
0.503290
0.432102
0.344122
0.240358
0.150173
0.082738
0.015467
-0.027809
-0.055115
-0.064729
-0.068407
-0.025628
-0.006332
0.036743
0.065839
0.120044
0.183066
0.197447
0.186460
0.183358
0.190273
0.192750
0.166204
0.086010
0.037390
-0.007822
-0.044526
-0.100138
-0.140881
-0.173882
-0.175065
-0.110746
-0.073923
-0.030163
0.022574
0.070902
0.120258
0.138487
0.142478
0.147408
0.158803
0.147857
0.113161
0.051735
-0.025713
-0.056491
-0.088901
-0.143080
-0.174697
-0.166956
-0.162128
-0.135428
-0.108262
-0.067611
-0.034602
0.019850
0.087495
0.129188
0.150564
0.146861
0.132339
0.106744
0.080532
0.044574
-0.022866
-0.061830
-0.084315
-0.124040
-0.166481
-0.187737
-0.171972
-0.145134
-0.100300
-0.048887
0.020788
0.042929
0.103391
0.143674
0.174698
0.160736
0.150928
0.132915
0.094785
0.046506
0.000551
-0.036389
-0.078170
-0.103142
-0.136763
-0.148234
-0.139769
-0.104969
-0.064195
-0.000120
0.058919
0.095212
0.130405
0.162436
0.175169
0.177672
0.168377
0.134125
0.118470
0.085784
0.032334
-0.010043
-0.044345
-0.090064
-0.110215
-0.109017
-0.092881
-0.082773
-0.046042
-0.000349
0.057787
0.106203
0.139266
0.169835
0.209717
0.248295
0.223812
0.171607
0.133353
0.099648
0.063214
0.020638
-0.012758
-0.055984
-0.082726
-0.080866
-0.058528
-0.032743
-0.000784
0.044384
0.085743
0.131108
0.182929
0.203003
0.208723
0.203512
0.201041
0.219975
0.195143
0.151395
0.091602
0.029886
0.009472
0.005431
0.009069
-0.022511
-0.042840
-0.050384
0.010691
0.084225
0.141285
0.183091
0.218786
0.247647
0.256952
0.257912
0.256305
0.234648
0.205558
0.151705
0.098455
0.052993
0.034198
-0.021158
-0.058022
-0.062143
-0.042764
-0.024251
0.012999
0.061817
0.114791
0.154809
0.207289
0.235540
0.257439
0.248879
0.198510
0.217754
0.196762
0.147507
0.074223
0.008983
-0.028856
-0.047718
-0.070896
-0.074229
-0.065699
-0.033092
-0.010350
0.033404
0.086663
0.134470
0.162201
0.192519
0.198106
0.224777
0.211178
0.181945
0.142154
0.095418
0.022063
-0.026132
-0.060047
-0.072831
-0.075857
-0.090686
-0.103223
-0.126803
-0.038035
-0.009268
0.033235
0.075489
0.154282
0.186749
0.187181
0.179153
0.164864
0.141883
0.093055
0.064633
0.028322
-0.031566
-0.103394
-0.147859
-0.146579
-0.159894
-0.186872
-0.148167
-0.039426
0.029914
0.056315
0.073435
0.104805
0.129431
0.145465
0.146589
0.135427
0.114528
0.078434
0.039546
-0.021133
-0.054476
-0.121470
-0.173548
-0.191945
-0.167506
-0.111203
-0.079000
-0.085319
-0.076672
-0.039254
0.026718
0.069226
0.107561
0.127502
0.145800
0.146597
0.117896
0.060830
0.014302
-0.040478
-0.094816
-0.124098
-0.155010
-0.172366
-0.171407
-0.165177
-0.138743
-0.107374
-0.064399
-0.015332
0.037795
0.080928
0.108509
0.123872
0.115809
0.116655
0.078786
0.050048
0.015808
-0.035469
-0.065008
-0.105998
-0.143009
-0.172428
-0.173574
-0.154431
-0.142946
-0.114367
-0.019122
0.016347
0.071725
0.105701
0.152244
0.161093
0.145825
0.120746
0.100066
0.076233
0.031358
-0.028446
-0.064953
-0.124112
-0.156622
-0.170150
-0.172542
-0.162173
-0.125993
-0.089496
-0.070073
-0.021880
0.020330
0.069465
0.132435
0.166736
0.160600
0.143621
0.124762
0.088255
0.034684
-0.010792
-0.046513
-0.094354
-0.133312
-0.162672
-0.164349
-0.151016
-0.121454
-0.091434
-0.033633
0.011719
0.047423
0.090379
0.113797
0.123467
0.151885
0.143438
0.123623
0.084293
0.041626
-0.024450
-0.078360
-0.128273
-0.158164
-0.156793
-0.155187
-0.140841
-0.120186
-0.093400
-0.054939
0.009870
0.054440
0.089243
0.122389
0.146001
0.142431
0.137632
0.104721
0.061314
0.013383
-0.038424
-0.077393
-0.111220
-0.148768
-0.178029
-0.155564
-0.112908
-0.100980
-0.076951
-0.034622
0.015812
0.046378
0.074448
0.102289
0.114525
0.121113
0.126191
0.100457
0.063826
0.021697
-0.043337
-0.078676
-0.086957
-0.135977
-0.179799
-0.193896
-0.149023
-0.135778
-0.113812
-0.070836
0.003208
0.034953
0.063875
0.075820
0.125893
0.153379
0.156885
0.124574
0.065804
0.019625
-0.033345
-0.073119
-0.117947
-0.162573
-0.165717
-0.147805
-0.154393
-0.147668
-0.090710
-0.034726
0.010441
0.040882
0.080650
0.118386
0.118339
0.157506
0.161520
0.134553
0.083273
0.034873
-0.026087
-0.076018
-0.130011
-0.169585
-0.140100
-0.076849
-0.104676
-0.092394
-0.063262
-0.028105
0.024245
0.080389
0.123647
0.159873
0.182814
0.163225
0.137683
0.123512
0.078107
0.028836
-0.014260
-0.060985
-0.099599
-0.120233
-0.136069
-0.109894
-0.110354
-0.096153
-0.060151
-0.025858
0.034141
0.079507
0.118761
0.156142
0.176586
0.179846
0.176657
0.162228
0.104458
0.053829
0.000714
-0.040796
-0.080133
-0.098338
-0.122529
-0.133243
-0.129661
-0.104844
-0.054921
-0.013751
0.020887
0.046809
0.091442
0.115917
0.132313
0.150140
0.138193
0.108558
0.065003
0.014846
0.006605
-0.049708
-0.120240
-0.141650
-0.176040
-0.179067
-0.154487
-0.117362
-0.085823
-0.059653
-0.005015
0.036212
0.068601
0.097540
0.108861
0.123794
0.111698
0.082558
0.042655
0.009197
-0.049666
-0.108004
-0.154411
-0.193424
-0.225969
-0.235003
-0.246648
-0.176483
-0.112895
-0.071256
-0.050257
0.002180
0.004547
0.057524
0.095400
0.130385
0.119322
0.060121
0.023718
-0.016677
-0.055530
-0.105971
-0.150115
-0.178973
-0.199959
-0.214365
-0.199051
-0.175043
-0.139087
-0.090180
-0.044505
0.016031
0.049814
0.072677
0.083768
0.079696
0.069280
0.036963
0.001553
-0.044994
-0.064878
-0.090186
-0.143838
-0.187782
-0.203732
-0.208572
-0.195870
-0.170506
-0.135858
-0.091364
-0.047733
0.000508
0.050457
0.090124
0.096696
0.095290
0.071497
0.028230
0.030094
-0.018415
-0.091216
-0.138212
-0.152535
-0.175283
-0.201662
-0.211081
-0.196289
-0.179454
-0.142954
-0.117136
-0.051538
0.006321
0.052987
0.085351
0.108186
0.126581
0.128198
0.107597
0.074807
0.052309
0.017775
-0.012301
-0.038301
-0.050677
-0.053405
-0.059315
-0.031829
0.023939
0.081015
0.142301
0.224292
0.295835
0.384734
0.461114
0.505520
0.515050
0.513847
0.564697
0.570876
0.551341
0.519492
0.511811
0.533241
0.531027
0.520474
0.542706
0.603640
0.683182
0.729843
0.762397
0.808339
0.816376
0.837814
0.849154
0.832996
0.800921
0.718365
0.621953
0.524327
0.451324
0.356675
0.245266
0.145148
0.071963
0.047337
0.027563
0.022129
0.026043
0.046666
0.093760
0.152515
0.191713
0.228569
0.233885
0.230262
0.209560
0.184292
0.151043
0.121145
0.077571
0.030532
-0.009794
-0.065029
-0.113603
-0.131172
-0.115932
-0.120876
-0.097643
-0.061119
-0.035860
0.018230
0.061280
0.088819
0.107733
0.146488
0.156843
0.154770
0.143310
0.091078
0.039363
-0.018221
-0.061136
-0.107898
-0.145114
-0.150567
-0.163158
-0.161893
-0.151727
-0.108459
-0.071002
-0.026129
0.053866
0.113606
0.130536
0.125497
0.131168
0.114754
0.108226
0.082526
0.023273
-0.051682
-0.088934
-0.121623
-0.146900
-0.145881
-0.146619
-0.139875
-0.108150
-0.087456
-0.065349
-0.009506
0.053143
0.094498
0.140470
0.172225
0.169830
0.155769
0.119839
0.081989
0.031587
-0.010905
-0.059786
-0.097663
-0.133226
-0.134120
-0.143587
-0.127186
-0.092039
-0.076311
-0.032686
0.013274
0.086042
0.152358
0.171218
0.145459
0.179655
0.183228
0.145428
0.124901
0.069264
0.010580
-0.036514
-0.072377
-0.102338
-0.115111
-0.105038
-0.093149
-0.082345
-0.057936
-0.010260
0.057593
0.107412
0.137187
0.167111
0.173787
0.185691
0.155377
0.172295
0.145884
0.091349
0.040028
0.008498
-0.040725
-0.071491
-0.085001
-0.091632
-0.055769
-0.024526
-0.032542
0.032512
0.080494
0.120908
0.148081
0.172968
0.212050
0.233374
0.233559
0.216130
0.173701
0.133575
0.081680
0.025606
-0.003415
-0.037081
-0.047179
-0.036808
-0.028694
-0.008821
0.034133
0.084114
0.124785
0.167673
0.199692
0.230711
0.239564
0.232458
0.222016
0.202024
0.200087
0.163859
0.078098
0.024571
-0.012904
-0.035580
-0.058678
-0.068167
-0.075693
-0.043084
0.012295
0.076167
0.141455
0.188036
0.219300
0.258890
0.258402
0.269378
0.240973
0.213832
0.173460
0.123179
0.071872
0.025791
-0.008969
-0.054509
-0.051412
-0.054244
-0.062863
-0.026301
0.011710
0.039726
0.087176
0.123241
0.158505
0.202170
0.212097
0.212292
0.203181
0.180939
0.139371
0.095468
0.039563
-0.004616
-0.043280
-0.088628
-0.104172
-0.112690
-0.111238
-0.090908
-0.057586
-0.019498
0.029314
0.084164
0.129290
0.162489
0.164331
0.171183
0.149411
0.133183
0.097229
0.052790
-0.011866
-0.064576
-0.090501
-0.117366
-0.174276
-0.175892
-0.190317
-0.159099
-0.068837
0.032690
0.086584
0.095847
0.107363
0.127014
0.152310
0.171433
0.155786
0.109117
0.068294
0.026511
-0.029997
-0.060953
-0.103283
-0.137064
-0.148599
-0.160840
-0.158041
-0.121911
-0.094459
-0.069801
-0.021010
0.033931
0.093563
0.132873
0.126454
0.135197
0.168611
0.098295
0.026947
-0.049197
-0.041246
-0.053934
-0.097995
-0.141988
-0.181153
-0.195982
-0.155725
-0.126199
-0.085250
-0.047202
-0.015700
0.036813
0.087719
0.112798
0.125444
0.132145
0.121868
0.101600
0.062948
0.000818
-0.014320
-0.066874
-0.123043
-0.163861
-0.173876
-0.184052
-0.165466
-0.118059
-0.090896
-0.048512
-0.008917
0.037180
0.075386
0.102619
0.110931
0.111849
0.108363
0.093053
0.052850
-0.004084
-0.060795
-0.106265
-0.132988
-0.162030
-0.175108
-0.174610
-0.144955
-0.100963
-0.083838
-0.053886
0.020699
0.071065
0.090680
0.119373
0.123414
0.151989
0.160858
0.128874
0.083208
0.010265
-0.018310
-0.058856
-0.097125
-0.067241
-0.085125
-0.134526
-0.133492
-0.105668
-0.080037
-0.043093
0.007751
0.057639
0.110452
0.123007
0.120359
0.134202
0.127201
0.114519
0.071076
0.043098
0.008003
-0.029674
-0.075999
-0.138711
-0.161551
-0.167416
-0.177814
-0.127243
-0.087126
-0.047320
-0.011954
0.030221
0.088337
0.139241
0.160674
0.159829
0.128014
0.093634
0.045453
0.033773
-0.026842
-0.087339
-0.132425
-0.149215
-0.149917
-0.161458
-0.132878
-0.120202
-0.102049
-0.066535
-0.014612
0.037753
0.081390
0.115477
0.132172
0.166949
0.151833
0.119601
0.084463
0.032228
-0.040276
-0.069653
-0.098005
-0.130708
-0.166968
-0.164004
-0.159418
-0.124557
-0.098793
-0.047477
-0.002563
0.019167
0.056227
0.093871
0.134511
0.151169
0.147712
0.105828
0.072903
0.040845
-0.006571
-0.078975
-0.131470
-0.149591
-0.138355
-0.152869
-0.161211
-0.145805
-0.112572
-0.054685
-0.008414
0.029988
0.083236
0.127478
0.131200
0.127821
0.111651
0.076303
0.049113
0.018677
-0.033517
-0.078155
-0.114770
-0.149480
-0.163716
-0.175505
-0.173834
-0.143466
-0.107999
-0.043744
0.007581
0.064346
0.112384
0.127044
0.140111
0.131569
0.134820
0.107189
0.072527
0.063990
0.003644
-0.077740
-0.112722
-0.110120
-0.146171
-0.148950
-0.103953
-0.070831
-0.086627
-0.023452
0.031674
0.061113
0.116902
0.153486
0.173783
0.169311
0.149058
0.108346
0.081531
0.046290
0.003762
-0.021526
-0.070448
-0.122767
-0.141872
-0.128632
-0.118607
-0.127165
-0.067636
-0.028965
0.058219
0.106377
0.156797
0.174327
0.168441
0.180248
0.178588
0.149283
0.101557
0.062640
0.011604
-0.037228
-0.076665
-0.110223
-0.129266
-0.138967
-0.132230
-0.105888
-0.062534
-0.004810
0.025957
0.054993
0.094073
0.122728
0.132584
0.148795
0.128743
0.109056
0.074955
0.028490
-0.034924
-0.064142
-0.103911
-0.143286
-0.161542
-0.163957
-0.158407
-0.134235
-0.099761
-0.067061
-0.031052
0.039797
0.075499
0.090057
0.102065
0.110524
0.102564
0.075309
0.037420
-0.027655
-0.059777
-0.098847
-0.142472
-0.185080
-0.208220
-0.198608
-0.185342
-0.157019
-0.128997
-0.085566
-0.032893
0.007141
0.046875
0.076170
0.097039
0.118839
0.089934
0.036801
-0.019961
-0.015315
-0.060486
-0.117820
-0.161704
-0.202561
-0.195810
-0.192639
-0.190858
-0.176040
-0.124185
-0.081457
-0.036597
0.021818
0.055012
0.086569
0.094270
0.079849
0.068325
0.046384
0.040648
0.011705
-0.040937
-0.106746
-0.159128
-0.179650
-0.188347
-0.200877
-0.179831
-0.172887
-0.106353
-0.073290
-0.034465
0.042311
0.051404
0.065359
0.078729
0.077493
0.072498
0.047693
0.049405
-0.001869
-0.060699
-0.113277
-0.155001
-0.193948
-0.208113
-0.211157
-0.190649
-0.160817
-0.129222
-0.083392
-0.032198
0.011891
0.058996
0.094412
0.118363
0.146873
0.169613
0.158897
0.129366
0.099844
0.071376
0.035859
0.001777
-0.024123
0.002122
0.014015
0.052176
0.098056
0.167546
0.227435
0.304977
0.378831
0.466910
0.542898
0.584449
0.620133
0.635653
0.636270
0.617729
0.596279
0.579765
0.566113
0.584762
0.665054
0.676614
0.642614
0.630087
0.653130
0.688209
0.725025
0.734119
0.752605
0.753539
0.722892
0.644495
0.584385
0.513315
0.439315
0.353734
0.269521
0.177046
0.106791
0.062669
0.025407
-0.006644
-0.015202
-0.001325
0.017033
0.028210
0.061888
0.094936
0.112214
0.156957
0.175668
0.179190
0.179106
0.161390
0.134493
0.105319
0.073166
0.074230
-0.004076
-0.068469
-0.120826
-0.115112
-0.112896
-0.130437
-0.108608
-0.067059
-0.017250
0.011819
0.061567
0.117034
0.145192
0.151713
0.160503
0.141701
0.106673
0.057398
0.038958
-0.003116
-0.066996
-0.119984
-0.145640
-0.152926
-0.153068
-0.150572
-0.120352
-0.083695
-0.048645
-0.005082
0.054235
0.089979
0.118895
0.142808
0.137723
0.128199
0.104177
0.055689
0.032906
-0.018480
-0.068457
-0.107621
-0.132707
-0.136766
-0.147597
-0.149726
-0.147721
-0.123955
-0.043317
0.014298
0.046737
0.072624
0.129733
0.159192
0.159726
0.156757
0.135929
0.066388
0.061280
0.010042
-0.055178
-0.086213
-0.113672
-0.114064
-0.093151
-0.075162
-0.061291
-0.055503
-0.025751
0.033232
0.070536
0.134002
0.164025
0.160871
0.169982
0.164805
0.139855
0.102897
0.060192
0.021454
-0.038056
-0.072965
-0.076940
-0.093705
-0.081515
-0.079351
-0.081672
-0.052757
0.019949
0.094186
0.130255
0.162587
0.200261
0.201711
0.183134
0.170907
0.161096
0.138407
0.104582
0.066745
0.030479
-0.009885
-0.040640
-0.055715
-0.056054
-0.057940
-0.030246
0.010349
0.057726
0.089871
0.136807
0.182764
0.219101
0.224039
0.231493
0.248400
0.210327
0.160168
0.114466
0.063752
0.010548
-0.022661
-0.054001
-0.064048
-0.044916
-0.022552
0.041497
0.063757
0.096043
0.131661
0.149926
0.195925
0.247738
0.268893
0.247718
0.225829
0.243327
0.225381
0.146573
0.081910
0.036431
0.008428
-0.030309
-0.047724
-0.054118
-0.039601
-0.001366
0.027768
0.066305
0.128193
0.188360
0.214152
0.225417
0.225651
0.245287
0.223851
0.197838
0.158156
0.110854
0.063586
0.015117
-0.011716
-0.035791
-0.039844
-0.044042
-0.024421
-0.010259
0.001124
0.057292
0.103112
0.153609
0.182598
0.210073
0.225899
0.229481
0.205971
0.171279
0.119818
0.073768
0.049513
-0.004035
-0.044335
-0.079726
-0.103067
-0.115219
-0.103786
-0.067244
-0.052650
-0.003222
0.056748
0.133751
0.160636
0.171769
0.171705
0.176376
0.150763
0.130053
0.090364
0.043665
0.000846
-0.047500
-0.090506
-0.117617
-0.129560
-0.121098
-0.110560
-0.099694
-0.069083
0.012270
0.061521
0.066745
0.109673
0.134609
0.134742
0.141011
0.135972
0.118882
0.087200
0.050370
0.001836
-0.067906
-0.134696
-0.142161
-0.173232
-0.160229
-0.152262
-0.133635
-0.079011
-0.026411
0.020171
0.054300
0.086164
0.115242
0.133507
0.129392
0.096724
0.095510
0.066580
0.019877
-0.029494
-0.082766
-0.130184
-0.149082
-0.144241
-0.136229
-0.158336
-0.137493
-0.101312
-0.055150
-0.003748
0.035307
0.065845
0.101805
0.139875
0.142024
0.121860
0.105853
0.071397
0.023932
-0.026448
-0.080378
-0.131360
-0.148286
-0.147321
-0.151277
-0.133412
-0.115930
-0.089553
-0.057287
0.013734
0.064399
0.094326
0.091376
0.101022
0.103961
0.119835
0.120968
0.132833
0.062911
-0.021043
-0.069997
-0.084783
-0.115261
-0.160267
-0.171525
-0.161293
-0.134448
-0.092545
-0.051802
0.019382
0.086057
0.113829
0.140013
0.154602
0.150128
0.136750
0.106577
0.064694
0.027773
-0.018160
-0.071969
-0.103649
-0.142123
-0.179907
-0.160399
-0.141938
-0.099776
-0.064322
-0.040189
0.022966
0.069735
0.105112
0.116482
0.134316
0.130744
0.130483
0.106896
0.077580
0.018548
-0.021803
-0.072063
-0.115823
-0.145087
-0.152357
-0.154674
-0.145368
-0.119526
-0.072800
-0.039013
-0.003949
0.039738
0.084560
0.111544
0.111892
0.110761
0.161944
0.118792
0.034517
0.016152
0.012772
-0.049383
-0.082407
-0.124000
-0.150388
-0.157491
-0.128822
-0.107863
-0.080501
-0.046963
0.006532
0.047846
0.075546
0.120536
0.143165
0.138439
0.128020
0.104655
0.040027
0.020139
-0.034444
-0.088871
-0.122350
-0.151141
-0.148955
-0.131173
-0.116137
-0.117961
-0.104334
-0.049253
0.007365
0.042579
0.075456
0.115235
0.136176
0.134268
0.120011
0.082052
0.054006
0.010511
-0.052616
-0.091881
-0.128201
-0.163681
-0.175749
-0.170589
-0.149311
-0.133756
-0.100787
-0.063062
0.001010
0.055257
0.070828
0.090041
0.120154
0.149167
0.125132
0.089250
0.049260
0.006388
-0.032771
-0.089917
-0.131538
-0.140293
-0.160927
-0.175497
-0.177033
-0.162500
-0.115780
-0.068675
-0.007260
0.041927
0.066543
0.081550
0.102069
0.102272
0.103679
0.075305
0.025585
0.010794
-0.031813
-0.076000
-0.113810
-0.149184
-0.179418
-0.183086
-0.163808
-0.140765
-0.106763
-0.044283
-0.018753
0.013994
0.057673
0.087966
0.111150
0.121371
0.121013
0.080185
0.060332
0.012901
-0.042979
-0.100417
-0.126582
-0.177435
-0.170694
-0.183214
-0.171948
-0.139602
-0.112237
-0.063580
-0.008347
0.030317
0.070754
0.100224
0.082851
0.114025
0.120448
0.083533
0.034490
-0.000574
-0.040002
-0.079507
-0.105433
-0.128210
-0.162230
-0.179237
-0.159954
-0.113828
-0.077045
-0.048388
0.006555
0.060296
0.077960
0.120331
0.144460
0.140924
0.126318
0.105019
0.078511
0.040437
0.002562
-0.043248
-0.091884
-0.117017
-0.118555
-0.142446
-0.142773
-0.137031
-0.063376
-0.022568
0.006822
0.067508
0.094813
0.119654
0.128436
0.136219
0.113592
0.098928
0.065627
0.034657
0.001539
-0.036355
-0.071905
-0.103900
-0.111486
-0.114875
-0.108875
-0.099268
-0.073764
-0.043557
0.018201
0.075477
0.132025
0.157948
0.188282
0.192575
0.174057
0.137463
0.100384
0.058613
-0.001093
-0.052853
-0.092448
-0.127030
-0.133641
-0.141116
-0.132163
-0.113705
-0.078805
-0.038955
0.009520
0.044859
0.079390
0.112573
0.137739
0.133803
0.116464
0.089336
0.063086
0.000671
-0.042955
-0.097497
-0.134570
-0.159731
-0.177729
-0.189476
-0.177358
-0.159040
-0.131421
-0.083105
-0.026050
0.027185
0.046200
0.073297
0.085345
0.103850
0.081003
0.056006
0.040259
-0.010276
-0.065138
-0.126822
-0.155598
-0.172893
-0.193094
-0.191088
-0.190820
-0.186607
-0.153210
-0.107738
-0.047679
0.038824
0.059298
0.060180
0.079516
0.103255
0.094653
0.060514
0.032042
-0.026446
-0.098333
-0.108986
-0.140819
-0.195959
-0.195568
-0.203287
-0.192465
-0.159289
-0.134473
-0.108990
-0.087021
-0.017305
0.042633
0.075410
0.100768
0.108891
0.079230
0.048027
0.029773
-0.000878
-0.058291
-0.113069
-0.113659
-0.138621
-0.158869
-0.191659
-0.197877
-0.169444
-0.150467
-0.102204
-0.018659
0.019585
0.051585
0.071956
0.090197
0.076337
0.054679
0.038407
0.026377
-0.005687
-0.041981
-0.104445
-0.169117
-0.150859
-0.189469
-0.197664
-0.162820
-0.155660
-0.134380
-0.100481
-0.053051
0.010857
0.075332
0.138383
0.179079
0.197632
0.211264
0.215731
0.186345
0.151212
0.121315
0.088743
0.066861
0.066612
0.066045
0.090596
0.129477
0.189167
0.275555
0.341272
0.403925
0.485885
0.562200
0.612912
0.665569
0.713255
0.758567
0.786043
0.770299
0.744655
0.722181
0.717626
0.679302
0.619837
0.601233
0.574963
0.554029
0.540853
0.537555
0.516243
0.532150
0.570504
0.530771
0.481889
0.455904
0.424451
0.374813
0.317289
0.221608
0.148030
0.101063
0.087598
0.042882
-0.000661
-0.039983
-0.040222
-0.036885
-0.034384
-0.012449
0.020144
0.054606
0.103710
0.129946
0.154759
0.174104
0.179188
0.167149
0.140795
0.097018
0.053745
0.031672
-0.021104
-0.082834
-0.117473
-0.103756
-0.109238
-0.132707
-0.105354
-0.061915
-0.025672
0.005039
0.040359
0.079325
0.112227
0.126379
0.120375
0.102221
0.107542
0.091796
0.058177
0.009917
-0.043759
-0.078896
-0.128256
-0.161956
-0.175859
-0.142459
-0.126540
-0.089286
-0.056057
-0.019581
0.013503
0.048546
0.068320
0.114843
0.138263
0.140825
0.141268
0.101365
0.036910
-0.005780
-0.060309
-0.091823
-0.115819
-0.130732
-0.127115
-0.129098
-0.118524
-0.083159
-0.053604
-0.003213
0.055512
0.080090
0.153006
0.181256
0.155391
0.157152
0.133826
0.104378
0.055982
0.014423
-0.019538
-0.060130
-0.099635
-0.121562
-0.113480
-0.121235
-0.092881
-0.084524
-0.002894
0.037953
0.075587
0.102550
0.129403
0.157888
0.185667
0.176440
0.144496
0.118694
0.087894
0.070510
0.031357
-0.010936
-0.063591
-0.087438
-0.112975
-0.112032
-0.086007
-0.022961
0.021399
0.070505
0.104361
0.133345
0.177468
0.205728
0.214110
0.218560
0.208052
0.153167
0.115550
0.068514
0.012254
-0.019509
-0.029768
-0.063990
-0.063224
-0.056372
-0.045023
-0.009776
0.023246
0.060906
0.119186
0.173135
0.206970
0.239692
0.249712
0.232253
0.218672
0.185106
0.162597
0.128286
0.077272
0.036202
0.001196
-0.010765
-0.034135
-0.042975
-0.017424
0.017695
0.050442
0.093445
0.153802
0.187240
0.216669
0.237499
0.245961
0.237091
0.222951
0.187282
0.148349
0.109380
0.080110
0.021129
0.002620
-0.001122
-0.020378
-0.009824
0.010283
0.018838
0.039142
0.106847
0.145591
0.170810
0.206612
0.251130
0.257311
0.226976
0.182975
0.160364
0.133257
0.089820
0.020171
0.013461
-0.008835
-0.048134
-0.066143
-0.055237
-0.038002
-0.009166
0.023751
0.067634
0.130269
0.163314
0.185933
0.202661
0.231060
0.215241
0.193916
0.138422
0.094638
0.053307
-0.004465
-0.019397
-0.041124
-0.098652
-0.100195
-0.084238
-0.081168
-0.048939
-0.015408
0.029914
0.074336
0.122575
0.142216
0.154391
0.148623
0.154010
0.154981
0.121714
0.076407
0.013764
-0.038474
-0.086315
-0.117648
-0.122163
-0.129819
-0.110155
-0.089262
-0.072750
-0.046985
-0.005579
0.043952
0.075028
0.107772
0.132326
0.115548
0.133333
0.110512
0.076089
0.057103
0.028632
-0.026698
-0.093031
-0.135413
-0.148340
-0.165814
-0.157689
-0.134467
-0.105841
-0.071477
-0.017591
0.004435
0.020451
0.057627
0.109912
0.146526
0.124431
0.110600
0.085706
0.053978
0.002280
-0.065225
-0.119781
-0.144314
-0.181906
-0.149487
-0.151341
-0.143155
-0.128319
-0.094179
-0.039658
0.009647
0.039491
0.087996
0.125247
0.112161
0.111900
0.096550
0.073421
0.024766
-0.027219
-0.060763
-0.109011
-0.138503
-0.158635
-0.158664
-0.147840
-0.129802
-0.101282
-0.069029
-0.021522
0.017879
0.038853
0.060344
0.094295
0.127611
0.143769
0.139291
0.106677
0.065868
0.004906
-0.033564
-0.093852
-0.133523
-0.144058
-0.150864
-0.134184
-0.132220
-0.100917
-0.084770
-0.027977
0.008779
0.083751
0.112923
0.127450
0.132264
0.125849
0.099736
0.066280
0.032898
-0.005487
-0.054107
-0.111643
-0.117872
-0.138039
-0.148235
-0.163398
-0.162544
-0.111181
-0.056791
-0.018734
0.022146
0.077474
0.119021
0.140468
0.126751
0.119582
0.116747
0.092048
0.034903
-0.018278
-0.053748
-0.087665
-0.118782
-0.140023
-0.145498
-0.155418
-0.131468
-0.100894
-0.068414
-0.027236
0.018156
0.072544
0.103991
0.125583
0.133415
0.120291
0.104910
0.072507
0.023637
-0.017965
-0.063885
-0.105577
-0.126613
-0.148889
-0.156728
-0.152124
-0.136368
-0.114848
-0.081143
-0.020692
0.032164
0.060309
0.093521
0.101147
0.102236
0.099703
0.094392
0.065491
0.030666
-0.018729
-0.079942
-0.116912
-0.152000
-0.175005
-0.170442
-0.167487
-0.150234
-0.115984
-0.080382
-0.040920
-0.001017
0.041890
0.080567
0.106599
0.091304
0.090008
0.071052
0.058040
0.029717
-0.008949
-0.086371
-0.120921
-0.151412
-0.166726
-0.174830
-0.187917
-0.158130
-0.129685
-0.095329
-0.056893
-0.016804
0.042742
0.118582
0.148918
0.135740
0.104818
0.070924
0.034068
-0.011669
-0.052513
-0.099297
-0.155722
-0.174105
-0.200795
-0.204663
-0.217962
-0.136568
-0.072474
-0.056360
-0.045490
0.008627
0.055261
0.106301
0.102438
0.084554
0.075672
0.061003
0.054312
0.008746
-0.038831
-0.074467
-0.118233
-0.159473
-0.193538
-0.199446
-0.183061
-0.149720
-0.111944
-0.084988
-0.051760
0.003674
0.054013
0.084170
0.100585
0.098500
0.094816
0.076021
0.040643
-0.015812
-0.054643
-0.096951
-0.137376
-0.177095
-0.190403
-0.191696
-0.174675
-0.168064
-0.135607
-0.076420
-0.038878
0.011910
0.048013
0.090399
0.097153
0.099559
0.097497
0.078423
0.039797
-0.001938
-0.044515
-0.090915
-0.127932
-0.151427
-0.182439
-0.185899
-0.169228
-0.146435
-0.102769
-0.057335
-0.005122
0.056344
0.079263
0.101573
0.120764
0.131899
0.124362
0.089662
0.063656
0.031410
-0.033485
-0.094045
-0.140459
-0.159047
-0.157784
-0.152993
-0.135584
-0.115695
-0.112011
-0.042320
-0.002871
0.023655
0.077016
0.106214
0.151958
0.161397
0.141153
0.118421
0.071450
0.041758
-0.007371
-0.067510
-0.097197
-0.130879
-0.126303
-0.113614
-0.096527
-0.093070
-0.096302
-0.061283
-0.014466
0.037847
0.081447
0.107568
0.124254
0.121459
0.105993
0.077516
0.042746
0.012617
-0.042081
-0.106704
-0.120680
-0.154160
-0.174112
-0.161888
-0.129354
-0.120078
-0.112943
-0.087929
-0.039462
0.002592
0.034191
0.061390
0.083118
0.089045
0.084831
0.048043
0.015524
-0.028416
-0.073893
-0.105187
-0.135347
-0.172866
-0.211004
-0.221554
-0.220920
-0.177226
-0.134063
-0.089518
-0.073099
-0.040097
-0.010282
0.013876
0.032410
0.059130
0.094300
0.077992
0.014105
-0.050700
-0.113591
-0.135705
-0.175223
-0.190791
-0.217946
-0.187325
-0.186266
-0.180252
-0.146617
-0.095376
-0.053123
-0.024318
0.007104
0.040982
0.060058
0.066275
0.043309
0.038443
0.008872
-0.032799
-0.075140
-0.133566
-0.159489
-0.184893
-0.209251
-0.226332
-0.224460
-0.193461
-0.152116
-0.122951
-0.064133
-0.031574
-0.003062
0.038762
0.055909
0.056135
0.052853
0.041937
0.007612
-0.041452
-0.094093
-0.125292
-0.157980
-0.190902
-0.227753
-0.242168
-0.238318
-0.208427
-0.207822
-0.107555
-0.038125
0.002243
0.014119
0.022058
0.034981
0.036533
0.033429
0.026163
0.010161
-0.031325
-0.073375
-0.115490
-0.139328
-0.162656
-0.170243
-0.133372
-0.090710
-0.062774
-0.039335
0.004684
0.067020
0.128443
0.174234
0.219946
0.260314
0.291195
0.311101
0.319500
0.316750
0.298953
0.292189
0.270049
0.258034
0.254715
0.272064
0.284656
0.315229
0.370493
0.431343
0.501285
0.572464
0.654973
0.725048
0.781330
0.795249
0.799280
0.800262
0.788923
0.745141
0.689471
0.640223
0.562804
0.442417
0.321731
0.247299
0.191975
0.172323
0.147982
0.128434
0.113441
0.102819
0.122139
0.148285
0.137468
0.150440
0.181365
0.151644
0.135056
0.128246
0.099987
0.052168
-0.003779
-0.061206
-0.106190
-0.129824
-0.141490
-0.124751
-0.116970
-0.080692
-0.044172
0.003194
0.047755
0.082663
0.108470
0.133705
0.153933
0.128095
0.078254
0.034654
-0.004221
-0.029729
-0.056050
-0.085018
-0.116900
-0.144387
-0.167820
-0.162342
-0.143961
-0.115819
-0.084243
-0.028425
0.018548
0.053005
0.076183
0.104881
0.112018
0.113665
0.082014
0.042892
0.017330
-0.030174
-0.068956
-0.123037
-0.160961
-0.173145
-0.185713
-0.173680
-0.153037
-0.122605
-0.077779
-0.040436
0.008469
0.046281
0.073548
0.096183
0.102853
0.106490
0.102322
0.083051
0.030056
-0.031896
-0.084659
-0.134748
-0.146466
-0.145401
-0.155439
-0.153288
-0.118799
-0.086567
-0.062266
-0.025768
0.018073
0.086334
0.146761
0.135011
0.121719
0.123388
0.113198
0.083622
0.040917
-0.014457
-0.066998
-0.101380
-0.122459
-0.147052
-0.166241
-0.152860
-0.108001
-0.053606
-0.004355
0.030980
0.087028
0.114911
0.144401
0.169708
0.177835
0.173751
0.135694
0.131860
0.095019
0.051848
-0.017790
-0.070492
-0.105565
-0.131912
-0.107664
-0.101234
-0.097561
-0.060440
-0.013469
0.063549
0.103353
0.127459
0.157219
0.195415
0.208435
0.205712
0.166375
0.141471
0.103972
0.054376
0.007975
-0.039170
-0.071713
-0.090071
-0.093495
-0.086679
-0.074667
-0.052989
0.002877
0.070173
0.110850
0.154604
0.176280
0.217342
0.231466
0.209235
0.183568
0.160163
0.123859
0.078178
0.021073
-0.028098
-0.064252
-0.080710
-0.094517
-0.072266
-0.034494
0.002328
0.023779
0.080683
0.123763
0.170295
0.202595
0.216043
0.215487
0.211859
0.194751
0.155100
0.118462
0.073450
0.003109
-0.024418
-0.070670
-0.086286
-0.078005
-0.080211
-0.081250
-0.023199
0.018141
0.058555
0.102500
0.152876
0.183021
0.188439
0.200704
0.196505
0.174914
0.140782
0.101463
0.040913
-0.013406
-0.051223
-0.074557
-0.076338
-0.096150
-0.105166
-0.088267
-0.061860
-0.040335
-0.005032
0.022552
0.114276
0.177502
0.170548
0.192158
0.149207
0.100125
0.089152
0.075218
0.023228
