0.285859
0.305211
0.335449
0.364657
0.368568
0.377043
0.370234
0.344515
0.307391
0.260719
0.205589
0.157345
0.106043
0.059500
0.020956
0.014793
0.018888
0.054725
0.091676
0.123149
0.163178
0.200282
0.234071
0.266762
0.299669
0.297532
0.282389
0.258870
0.225286
0.179390
0.122750
0.073675
0.032038
-0.000579
-0.024498
-0.043076
-0.039511
-0.013084
0.024009
0.063662
0.111347
0.157386
0.209688
0.242161
0.251128
0.252525
0.255623
0.231196
0.193000
0.159093
0.109157
0.066313
0.016142
-0.006509
-0.027878
-0.048873
-0.037798
-0.019424
0.014985
0.076928
0.118691
0.164522
0.203003
0.261680
0.289691
0.293505
0.286917
0.259911
0.213390
0.171192
0.136628
0.101566
0.069366
0.036100
-0.000562
-0.011601
-0.009535
0.005584
0.038760
0.090111
0.141670
0.184841
0.236028
0.284043
0.307235
0.319815
0.311637
0.290629
0.249818
0.204807
0.160025
0.126369
0.082873
0.048438
0.017731
0.021252
0.025403
0.039740
0.075542
0.108853
0.158708
0.211839
0.255131
0.284827
0.314552
0.316824
0.319212
0.292685
0.253813
0.213359
0.173223
0.129470
0.080922
0.046183
0.015647
0.013267
0.013091
0.030321
0.073804
0.121049
0.177096
0.219581
0.272964
0.309255
0.332164
0.342308
0.347592
0.331574
0.292254
0.249752
0.202355
0.160071
0.119618
0.089487
0.080062
0.064682
0.066190
0.088918
0.126253
0.161524
0.212398
0.263445
0.315665
0.360932
0.388422
0.397366
0.388403
0.363777
0.330968
0.295519
0.253082
0.199956
0.153846
0.117157
0.088071
0.091195
0.093371
0.104147
0.144142
0.203722
0.250970
0.302081
0.345769
0.370280
0.403198
0.407275
0.387676
0.355740
0.318217
0.279420
0.236362
0.190944
0.148005
0.106395
0.080576
0.072463
0.059473
0.080126
0.112747
0.155307
0.202005
0.252730
0.295027
0.323326
0.360106
0.351524
0.347282
0.325680
0.283330
0.244591
0.194657
0.137562
0.092480
0.057971
0.013848
0.017837
0.027139
0.047455
0.078513
0.124321
0.172297
0.224428
0.263405
0.298163
0.316319
0.312066
0.308365
0.283739
0.253850
0.204465
0.166158
0.110219
0.071315
0.045512
0.019354
0.010318
0.009552
0.031237
0.061821
0.103707
0.164865
0.207341
0.253723
0.272896
0.305031
0.302384
0.299647
0.276822
0.246064
0.201996
0.154664
0.104820
0.059877
0.021590
-0.001628
-0.010389
-0.009942
0.012626
0.047850
0.096749
0.151108
0.192917
0.230809
0.269455
0.292459
0.291324
0.273566
0.256562
0.210195
0.173255
0.114529
0.075424
0.029039
0.008330
-0.012124
-0.022572
-0.025863
-0.009137
0.029464
0.070717
0.109620
0.166174
0.215073
0.242009
0.257014
0.273919
0.272105
0.243117
0.203421
0.153289
0.114846
0.062272
0.027461
-0.009567
-0.033276
-0.028791
-0.019057
-0.002578
0.028786
0.077857
0.124563
0.171877
0.222891
0.256904
0.286158
0.289577
0.297940
0.269344
0.228536
0.187084
0.142856
0.095524
0.061789
0.020831
0.007032
-0.000368
-0.001929
0.012146
0.055650
0.087226
0.147045
0.196119
0.242538
0.263496
0.286675
0.303642
0.304684
0.294506
0.260508
0.204749
0.152827
0.099960
0.066415
0.024731
0.000171
-0.004131
0.011903
0.027515
0.059493
0.094232
0.138639
0.192942
0.230581
0.264769
0.276251
0.294048
0.283785
0.261059
0.218974
0.170273
0.118475
0.076573
0.032632
-0.006454
-0.031742
-0.035779
-0.042731
-0.011820
0.017320
0.061526
0.107495
0.165383
0.212135
0.253798
0.278013
0.284071
0.279369
0.245314
0.213810
0.172415
0.119009
0.076737
0.038651
0.001352
-0.010961
-0.014229
-0.012888
0.020586
0.041993
0.073183
0.119033
0.170576
0.218969
0.257748
0.278210
0.282093
0.269544
0.253363
0.217171
0.178065
0.142717
0.087248
0.037414
0.006316
-0.018672
-0.024388
-0.015851
0.004769
0.045248
0.089648
0.141428
0.186131
0.234537
0.255411
0.278971
0.283780
0.272946
0.244804
0.213819
0.167361
0.119894
0.067587
0.031911
-0.000676
-0.015340
-0.030034
-0.042891
-0.019378
0.024571
0.060761
0.108179
0.157259
0.198061
0.234972
0.254550
0.250337
0.245994
0.226909
0.199292
0.154988
0.105275
0.056958
0.016296
-0.022372
-0.037136
-0.040644
-0.037103
-0.017818
0.008106
0.052376
0.095514
0.144271
0.192766
0.235513
0.258599
0.262824
0.245580
0.216169
0.184483
0.139714
0.111623
0.063335
0.010646
-0.026613
-0.046665
-0.048816
-0.036989
-0.007262
0.026745
0.073753
0.121647
0.169164
0.219586
0.254888
0.255933
0.257192
0.255912
0.223707
0.199131
0.164833
0.125161
0.080279
0.021983
-0.014133
-0.036677
-0.039091
-0.037778
-0.013252
0.012980
0.042143
0.080202
0.128730
0.176695
0.217068
0.256575
0.267128
0.260645
0.235590
0.207930
0.149983
0.089270
0.045952
-0.001639
-0.035530
-0.054156
-0.068717
-0.059053
-0.020456
0.017556
0.061486
0.111902
0.166008
0.195620
0.221695
0.242281
0.247626
0.249781
0.230564
0.200642
0.146396
0.100952
0.048083
0.015780
-0.021384
-0.028590
-0.026251
-0.020563
-0.006615
0.034301
0.071883
0.123482
0.176679
0.225349
0.260788
0.287157
0.287264
0.280142
0.256717
0.225280
0.193422
0.144459
0.103384
0.066817
0.022454
-0.002202
-0.000381
0.008956
0.023892
0.057052
0.092642
0.158114
0.199746
0.247181
0.268869
0.288808
0.305618
0.293074
0.269885
0.232258
0.202769
0.157332
0.106770
0.075781
0.033328
0.031919
0.024815
0.027726
0.037086
0.065172
0.104701
0.153204
0.200556
0.244765
0.282271
0.314289
0.311644
0.299883
0.259483
0.226738
0.184768
0.131655
0.069556
0.014970
-0.015556
-0.044903
-0.057082
-0.043702
-0.025160
0.020648
0.070183
0.109533
0.161978
0.196535
0.230815
0.252483
0.265991
0.256364
0.231479
0.202923
0.165357
0.102546
0.052236
0.001943
-0.040912
-0.059133
-0.074916
-0.061310
-0.040107
-0.005872
0.037889
0.088989
0.126055
0.174069
0.212378
0.236969
0.244858
0.242662
0.212349
0.172443
0.128623
0.084222
0.043333
-0.001148
-0.034644
-0.051371
-0.050501
-0.059445
-0.035063
-0.013830
0.027953
0.088848
0.142101
0.183462
0.213964
0.235376
0.234502
0.228463
0.206060
0.157505
0.119567
0.070835
0.025096
-0.029317
-0.061190
-0.077708
-0.076923
-0.067208
-0.052410
-0.008975
0.017530
0.062980
0.113624
0.155641
0.183240
0.216913
0.218698
0.212867
0.185153
0.153498
0.104855
0.057802
0.021958
-0.032637
-0.070222
-0.084149
-0.103881
-0.097587
-0.083437
-0.042442
0.007427
0.061571
0.107786
0.149650
0.180371
0.193128
0.201572
0.186670
0.164104
0.141908
0.106602
0.057203
0.019440
-0.013281
-0.038813
-0.042270
-0.042785
-0.026332
0.009456
0.049492
0.104450
0.174930
0.244197
0.316056
0.407520
0.466893
0.482212
0.487049
0.488112
0.475311
0.452911
0.441611
0.442612
0.429217
0.419168
0.430157
0.458384
0.508726
0.559981
0.630581
0.717361
0.795813
0.868898
0.953256
1.006907
1.041229
1.035405
1.017386
1.005165
0.954247
0.890238
0.809440
0.737047
0.639333
0.531025
0.442093
0.365010
0.314786
0.291941
0.269917
0.249981
0.253536
0.298919
0.319324
0.345324
0.355991
0.366665
0.345298
0.314700
0.274191
0.225049
0.142835
0.086148
0.034740
0.001941
-0.018503
-0.031229
-0.017991
0.000105
0.035488
0.071093
0.115212
0.160278
0.208852
0.240363
0.267607
0.262022
0.254146
0.238955
0.221801
0.176811
0.115787
0.077105
0.034339
0.009963
-0.018188
-0.040575
-0.033122
-0.015288
0.022449
0.065424
0.103635
0.147372
0.178734
0.214419
0.242808
0.259780
0.275055
0.262935
0.216104
0.158976
0.096605
0.041298
0.018234
-0.002322
-0.040047
-0.043433
-0.041466
-0.028396
0.000530
0.043181
0.061716
0.078115
0.131468
0.219429
0.262488
0.307819
0.294422
0.262057
0.199553
0.141319
0.100472
0.034056
-0.009582
-0.037339
-0.059118
-0.073283
-0.063447
-0.040636
-0.011748
0.038851
0.093269
0.138144
0.189524
0.217301
0.233455
0.236857
0.224946
0.225389
0.212498
0.173504
0.125399
0.078684
0.033790
-0.010234
-0.021997
-0.019509
-0.009824
0.016255
0.052670
0.095660
0.151764
0.198354
0.241190
0.281048
0.305555
0.326765
0.331206
0.321949
0.279913
0.231560
0.193125
0.147961
0.108003
0.078056
0.052608
0.048185
0.051495
0.078045
0.103521
0.155397
0.203111
0.233034
0.287109
0.328228
0.346920
0.363496
0.354738
0.317574
0.286586
0.249342
0.188006
0.146372
0.101026
0.080626
0.053587
0.052063
0.064922
0.084617
0.127879
0.160618
0.201960
0.248952
0.290287
0.329987
0.351696
0.375056
0.371008
0.343065
0.300665
0.267672
0.213988
0.175923
0.124249
0.084278
0.054253
0.047917
0.050981
0.073417
0.110721
0.149159
0.205575
0.262425
0.296614
0.331464
0.358938
0.351596
0.342750
0.324559
0.279870
0.242411
0.189868
0.151296
0.114890
0.071620
0.043815
0.042033
0.043473
0.072511
0.126032
0.184832
0.228762
0.253374
0.306490
0.319438
0.334608
0.352791
0.341032
0.327813
0.302583
0.244532
0.206879
0.143436
0.095317
0.060140
0.037296
0.030421
0.032487
0.050990
0.076895
0.124388
0.184411
0.231412
0.273955
0.318805
0.348855
0.351296
0.333639
0.310417
0.264660
0.212818
0.167706
0.128509
0.081183
0.035473
0.013198
-0.005651
0.004627
0.024642
0.040316
0.080045
0.131990
0.175829
0.215643
0.251201
0.263813
0.272062
0.254553
0.215887
0.190207
0.151017
0.092710
0.023818
-0.012607
-0.029296
-0.041816
-0.045056
-0.034639
-0.014297
0.010661
0.056827
0.099896
0.142824
0.178437
0.205834
0.233813
0.243222
0.239346
0.215663
0.178101
0.132328
0.095122
0.046900
-0.003543
-0.034819
-0.051004
-0.058182
-0.037453
-0.007605
0.018731
0.066100
0.102099
0.157200
0.205401
0.243056
0.259715
0.258164
0.243915
0.212515
0.191849
0.155699
0.104388
0.064758
0.031761
-0.005731
-0.012089
-0.025945
-0.010063
0.007596
0.029554
0.075690
0.127212
0.179913
0.234785
0.261639
0.269425
0.271067
0.267441
0.242155
0.214994
0.168582
0.124428
0.069642
0.026279
-0.005279
-0.016965
-0.026873
-0.019161
-0.002889
0.018744
0.055298
0.106888
0.154770
0.197859
0.248778
0.262137
0.269357
0.257001
0.217189
0.185441
0.146423
0.099395
0.056551
0.001666
-0.022372
-0.036622
-0.051969
-0.043808
-0.022808
-0.000636
0.044853
0.099283
0.158511
0.200623
0.240575
0.262532
0.281051
0.273042
0.245353
0.201748
0.164230
0.125133
0.060480
-0.002946
-0.027516
-0.033602
-0.048774
-0.044811
-0.009534
0.043745
0.085563
0.135343
0.178332
0.235126
0.267069
0.286260
0.286190
0.267261
0.246256
0.223111
0.180615
0.141234
0.085882
0.027653
-0.014402
-0.029364
-0.017472
0.003745
0.014674
0.054380
0.092075
0.125084
0.179018
0.211075
0.242244
0.258409
0.263362
0.262966
0.244461
0.199059
0.148742
0.100423
0.050702
0.009895
-0.023105
-0.059251
-0.073699
-0.069856
-0.046770
0.013107
0.055901
0.119219
0.163381
0.191420
0.223557
0.247155
0.244669
0.242825
0.219906
0.178670
0.120723
0.069994
0.024189
-0.022085
-0.053419
-0.071722
-0.070186
-0.062964
-0.034261
0.002754
0.049670
0.095539
0.145575
0.183185
0.215347
0.228932
0.244565
0.252488
0.231341
0.183081
0.150724
0.114302
0.074078
0.017932
-0.025184
-0.044685
-0.035555
-0.015922
0.006029
0.030076
0.082539
0.123601
0.169758
0.211257
0.253568
0.274154
0.263008
0.261716
0.245074
0.201767
0.162801
0.108914
0.054831
0.011252
-0.041407
-0.057723
-0.055242
-0.046572
-0.024898
0.013685
0.045503
0.099361
0.139651
0.188088
0.226856
0.245334
0.245834
0.240721
0.224776
0.192012
0.152727
0.100889
0.044059
0.000383
-0.045533
-0.075306
-0.078297
-0.068750
-0.043429
-0.002498
0.052567
0.108039
0.159757
0.197107
0.247663
0.276974
0.294084
0.278463
0.248785
0.196478
0.158155
0.117327
0.064779
0.026047
-0.010365
-0.036241
-0.028687
-0.025414
-0.004423
0.033827
0.071794
0.121431
0.181444
0.239811
0.276941
0.315538
0.317811
0.294305
0.287593
0.260836
0.216945
0.174685
0.132496
0.080180
0.041375
0.015035
0.024483
0.025390
0.053489
0.080053
0.126980
0.177812
0.224500
0.258338
0.280369
0.304379
0.299490
0.301644
0.274536
0.230679
0.185241
0.126209
0.073318
0.017906
-0.025974
-0.048529
-0.048923
-0.050145
-0.017167
0.013370
0.049705
0.091343
0.139206
0.191033
0.218533
0.224202
0.234179
0.221325
0.187930
0.154876
0.122333
0.061368
0.010272
-0.025111
-0.066926
-0.091936
-0.112948
-0.102669
-0.071722
-0.032274
0.009334
0.062478
0.122979
0.162661
0.184865
0.212150
0.227681
0.213299
0.192722
0.149625
0.093698
0.049582
0.015818
-0.021278
-0.055656
-0.074011
-0.082206
-0.066750
-0.049141
-0.012595
0.043135
0.087186
0.143746
0.202717
0.226334
0.244709
0.260873
0.249114
0.217086
0.185718
0.145571
0.093303
0.038014
-0.006977
-0.037218
-0.061997
-0.064044
-0.054932
-0.040932
-0.013931
0.024321
0.077051
0.128714
0.163750
0.196861
0.205467
0.213212
0.210422
0.189332
0.161568
0.106304
0.054511
0.002606
-0.046406
-0.070113
-0.091437
-0.107982
-0.094547
-0.077343
-0.042735
0.000568
0.048046
0.094685
0.125525
0.170615
0.189243
0.195230
0.180930
0.168845
0.136200
0.097833
0.071723
0.043547
0.032749
0.026207
0.016686
0.016044
0.052793
0.092034
0.122116
0.190645
0.260773
0.335462
0.399864
0.471436
0.511902
0.547460
0.572686
0.592956
0.587280
0.572880
0.560602
0.535159
0.528688
0.530198
0.545712
0.578241
0.625575
0.678509
0.762951
0.841192
0.888002
0.918185
0.946654
0.967825
0.978602
0.959107
0.920291
0.860937
0.776373
0.658299
0.545930
0.434212
0.342489
0.274403
0.197787
0.139164
0.124009
0.140474
0.151904
0.171675
0.208780
0.249961
0.280642
0.297116
0.313429
0.304483
0.277549
0.242816
0.184203
0.162072
0.122256
0.088244
0.040541
-0.002084
-0.039849
-0.056705
-0.041451
-0.021132
0.013194
0.050050
0.095546
0.144271
0.189947
0.227642
0.252753
0.257372
0.242270
0.211137
0.178977
0.137767
0.097942
0.048556
0.007079
-0.032159
-0.049855
-0.063267
-0.055898
-0.038688
0.002414
0.058281
0.103651
0.141584
0.186450
0.222547
0.240648
0.243672
0.242421
0.230602
0.204963
0.159194
0.114776
0.045519
0.010856
-0.016961
-0.041039
-0.048441
-0.035531
-0.028243
0.003659
0.049135
0.094327
0.151086
0.193846
0.219312
0.253539
0.260495
0.253649
0.229524
0.189047
0.142692
0.090664
0.040790
0.010307
-0.038240
-0.056553
-0.061036
-0.042836
-0.010207
0.016900
0.050068
0.108731
0.146055
0.175612
0.213638
0.223959
0.237385
0.226499
0.211449
0.189349
0.156463
0.095149
0.045928
-0.005662
-0.035828
-0.045602
-0.050152
-0.040542
-0.001298
0.044164
0.108269
0.150990
0.198563
0.233690
0.268590
0.285536
0.288459
0.284422
0.272050
0.234503
0.190111
0.147891
0.104774
0.056237
0.028499
0.002276
0.001431
0.019299
0.048544
0.099788
0.141968
0.189162
0.243544
0.284920
0.324893
0.348942
0.363312
0.354231
0.332936
0.290389
0.250847
0.195281
0.174145
0.121802
0.077872
0.048984
0.032589
0.039140
0.058574
0.099795
0.149524
0.201459
0.240992
0.281216
0.318082
0.331342
0.342947
0.335636
0.316475
0.286364
0.241400
0.196918
0.148834
0.087542
0.041671
0.023912
0.017744
0.032924
0.050207
0.084527
0.129874
0.180012
0.233317
0.278031
0.313473
0.321996
0.327890
0.318708
0.298494
0.265557
0.212699
0.174634
0.125435
0.091525
0.050143
0.029888
0.029613
0.025726
0.031286
0.067170
0.115969
0.157363
0.204291
0.255184
0.298500
0.322965
0.328255
0.321738
0.296766
0.264015
0.234502
0.179691
0.132969
0.086521
0.051547
0.027463
0.019850
0.018428
0.039946
0.070318
0.111600
0.154983
0.206191
0.245281
0.265315
0.294614
0.292865
0.287945
0.275302
0.232322
0.170555
0.119530
0.075624
0.040460
-0.003914
-0.038361
-0.048622
-0.033609
-0.013773
0.009000
0.056120
0.111671
0.162796
0.188561
0.221274
0.233417
0.250782
0.234141
0.202261
0.164493
0.129845
0.086906
0.044858
-0.006524
-0.050049
-0.078044
-0.087031
-0.063494
-0.063043
-0.022145
0.030060
0.065241
0.104398
0.167609
0.215789
0.241496
0.243122
0.227625
0.205412
0.170319
0.125619
0.077703
0.031986
-0.005052
-0.042628
-0.063342
-0.060600
-0.060253
-0.042945
-0.002686
0.035663
0.089961
0.129410
0.183679
0.227300
0.257143
0.271292
0.257203
0.233935
0.201904
0.168912
0.122880
0.079021
0.023100
-0.002919
-0.013044
-0.020859
-0.016133
0.001558
0.035253
0.076001
0.119790
0.165905
0.207906
0.246048
0.256399
0.251288
0.233366
0.207461
0.173151
0.121619
0.081787
0.037340
-0.003900
-0.029858
-0.032170
-0.032422
-0.030792
-0.011556
0.024088
0.058290
0.110199
0.163794
0.193721
0.207275
0.235235
0.255791
0.248525
0.212183
0.162404
0.128867
0.083566
0.034247
-0.011527
-0.040116
-0.062228
-0.061291
-0.063222
-0.039503
-0.003599
0.056583
0.094629
0.135496
0.173291
0.190431
0.218448
0.243541
0.252709
0.231221
0.196402
0.142561
0.080831
0.039996
0.020213
-0.009362
-0.031379
-0.045879
-0.035780
-0.016176
0.022590
0.080956
0.128773
0.169248
0.212681
0.233214
0.254243
0.260039
0.267441
0.244407
0.196552
0.145992
0.100079
0.059761
0.034775
0.000020
-0.033487
-0.035485
-0.033443
-0.012706
0.005692
0.056369
0.107179
0.167181
0.207532
0.239645
0.265663
0.265578
0.255226
0.224174
0.191845
0.142141
0.088165
0.038235
-0.009049
-0.045392
-0.073282
-0.071352
-0.060171
-0.030701
0.006996
0.032096
0.073912
0.118303
0.156284
0.184327
0.198302
0.210034
0.205435
0.185963
0.169264
0.135615
0.083147
0.036198
-0.015778
-0.051971
-0.083215
-0.087826
-0.075394
-0.055394
-0.017122
0.029337
0.084271
0.130107
0.162961
0.190412
0.222595
0.234504
0.213542
0.190263
0.158061
0.126532
0.092185
0.055988
0.017222
-0.032297
-0.049798
-0.060851
-0.050118
-0.022920
0.021963
0.060212
0.107036
0.156755
0.202633
0.233223
0.250017
0.251576
0.242003
0.221756
0.181374
0.137987
0.094666
0.047783
0.007117
-0.035004
-0.062536
-0.069160
-0.071136
-0.041948
-0.005334
0.036107
0.073808
0.120726
0.171362
0.213839
0.244796
0.257412
0.244983
0.230499
0.206177
0.161867
0.104828
0.057132
0.013307
-0.020651
-0.034304
-0.038514
-0.032022
0.008422
0.044158
0.083420
0.113030
0.167597
0.210232
0.245115
0.263637
0.270510
0.254565
0.225032
0.184920
0.122306
0.071244
0.032952
0.011107
-0.003197
-0.027513
-0.051346
-0.045898
-0.025021
0.004877
0.064809
0.113726
0.162013
0.215871
0.242055
0.270157
0.279748
0.271666
0.255432
0.217300
0.178033
0.127020
0.089126
0.057487
0.019014
-0.013863
-0.031153
-0.033356
-0.005281
0.034883
0.092464
0.142840
0.198339
0.228186
0.253120
0.281124
0.277570
0.259935
0.233259
0.204371
0.146275
0.118170
0.092040
0.054688
0.027526
-0.002185
-0.009455
-0.004956
0.015073
0.053465
0.089317
0.122783
0.171072
0.205222
0.235491
0.250123
0.252638
0.232488
0.209171
0.171374
0.117229
0.072667
0.023884
-0.025784
-0.059760
-0.097148
-0.116297
-0.101911
-0.077391
-0.044349
0.003172
0.040738
0.096460
0.150268
0.179392
0.205859
0.207494
0.205501
0.179138
0.133806
0.092603
0.050542
0.002518
-0.038800
-0.070737
-0.107166
-0.114012
-0.097167
-0.063374
-0.030494
0.018218
0.064713
0.120855
0.167963
0.182930
0.190088
0.192698
0.183829
0.170873
0.133112
0.083557
0.032484
-0.011849
-0.039892
-0.049904
-0.063525
-0.067261
-0.057014
-0.032994
-0.021459
0.028055
0.086243
0.142215
0.181667
0.223736
0.218294
0.222557
0.222610
0.206126
0.164128
0.124702
0.081083
0.030945
-0.019649
-0.067805
-0.100252
-0.102506
-0.089469
-0.053225
-0.020572
0.021310
0.059020
0.117619
0.166819
0.200098
0.217004
0.231234
0.216870
0.204763
0.190463
0.161745
0.127208
0.092341
0.074705
0.073213
0.059363
0.055711
0.081160
0.127967
0.179252
0.247744
0.314988
0.374455
0.451358
0.510533
0.566440
0.616268
0.620924
0.624015
0.622305
0.604536
0.589291
0.591150
0.597780
0.616044
0.637671
0.661746
0.682137
0.706090
0.739867
0.801226
0.852109
0.887626
0.906405
0.912728
0.874156
0.832489
0.751375
0.665365
0.572255
0.467247
0.376874
0.300402
0.216723
0.139127
0.100351
0.091156
0.101745
0.115304
0.131818
0.177640
0.215923
0.230546
0.270853
0.295004
0.308947
0.306707
0.278585
0.248069
0.218250
0.165695
0.127033
0.071254
0.019404
-0.011281
-0.032858
-0.043112
-0.037281
-0.020810
0.016008
0.059766
0.090394
0.138754
0.178521
0.212275
0.247281
0.268043
0.263384
0.231635
0.189488
0.137270
0.089277
0.034309
-0.015882
-0.048543
-0.067511
-0.074648
-0.071112
-0.052198
-0.012594
0.029895
0.077693
0.120154
0.165347
0.196240
0.220629
0.238320
0.235555
0.217337
0.181023
0.144097
0.105188
0.053287
0.013212
-0.024535
-0.044298
-0.046422
-0.046170
-0.021659
0.016193
0.075639
0.121891
0.172660
0.213568
0.246139
0.269111
0.266110
0.261771
0.235052
0.198386
0.159474
0.111877
0.067293
0.023595
-0.001850
-0.037260
-0.050987
-0.042316
-0.009289
0.035135
0.092418
0.138774
0.187356
0.206177
0.244421
0.262605
0.258422
0.259755
0.234958
0.209388
0.177739
0.130518
0.075741
0.044266
0.015369
-0.024921
-0.024815
-0.017946
0.010392
0.044238
0.076181
0.124395
0.166029
0.198252
0.233471
0.254548
0.268341
0.265949
0.249616
0.223137
0.193203
0.148823
0.107772
0.064150
0.030356
0.010483
-0.000711
0.014026
0.039618
0.087167
0.141847
0.182350
0.238683
0.281552
0.312819
0.333580
0.330089
0.331431
0.310032
0.272005
0.242663
0.201199
0.156063
0.109430
0.081855
0.067660
0.060579
0.071135
0.091019
0.117909
0.162760
0.209452
0.256396
0.309235
0.346570
0.358792
0.360771
0.351363
0.336542
0.316174
0.274901
0.216967
0.182295
0.141794
0.106819
0.073453
0.053316
0.056674
0.083739
0.117246
0.155238
0.196545
0.242127
0.285678
0.313967
0.328270
0.339335
0.329334
0.294676
0.264158
0.223096
0.165158
0.109082
0.062482
0.040361
0.033510
0.018659
0.033435
0.043741
0.076570
0.116849
0.163994
0.197144
0.240044
0.265268
0.286189
0.293644
0.288244
0.267076
0.232121
0.167508
0.117009
0.077281
0.059786
0.044343
0.013763
-0.013769
-0.027716
0.014629
0.071809
0.145953
0.195225
0.240421
0.263839
0.288309
0.288952
0.299030
0.294035
0.274003
0.244179
0.199184
0.158660
0.103850
0.062261
0.025991
0.002486
-0.000103
0.009136
0.027447
0.058913
0.105408
0.149797
0.192046
0.227087
0.242596
0.258545
0.257650
0.242324
0.222129
0.176573
0.143642
0.092797
0.045167
0.006462
-0.035524
-0.060300
-0.062084
-0.043389
-0.020032
0.010537
0.052024
0.094458
0.139260
0.177380
0.205276
0.226595
0.227782
0.207762
0.190459
0.154454
0.117923
0.067211
0.011379
-0.032946
-0.063242
-0.099617
-0.106345
-0.097431
-0.074763
-0.043517
0.011064
0.070257
0.121609
0.152208
0.192367
0.223620
0.225089
0.231839
0.233175
0.208768
0.166815
0.108278
0.047441
-0.001754
-0.031208
-0.050612
-0.046038
-0.015649
0.007194
0.045431
0.081758
0.137992
0.181364
0.227577
0.260017
0.277139
0.283779
0.275220
0.249983
0.214112
0.163010
0.119945
0.069118
0.027125
0.000691
-0.024284
-0.037406
-0.025998
-0.003257
0.030495
0.063867
0.120492
0.172128
0.215837
0.255910
0.272585
0.274302
0.266493
0.240326
0.195759
0.139290
0.082821
0.045357
0.015546
-0.017385
-0.047565
-0.072531
-0.058665
-0.024105
0.013382
0.062217
0.103746
0.144598
0.172077
0.217621
0.244946
0.250588
0.245714
0.221501
0.188143
0.144777
0.086908
0.034800
-0.007185
-0.040817
-0.072270
-0.066262
-0.057488
-0.012608
0.018928
0.057808
0.099368
0.148836
0.190943
0.224416
0.241150
0.243225
0.225549
0.212490
0.176040
0.147626
0.107823
0.065244
0.015655
-0.012045
-0.046238
-0.045655
-0.041731
-0.005986
0.035368
0.088540
0.129104
0.173339
0.190516
0.226618
0.236284
0.237305
0.242716
0.222234
0.178884
0.132017
0.090134
0.045000
0.006866
-0.019650
-0.045578
-0.055101
-0.042524
-0.019149
0.025425
0.053605
0.088471
0.140454
0.186115
0.210478
0.226812
0.229722
0.215850
0.194863
0.155154
0.115908
0.065723
0.010570
-0.031449
-0.055319
-0.083661
-0.094190
-0.084034
-0.066162
-0.041087
0.020553
0.080971
0.128003
0.183591
0.203898
0.225451
0.229190
0.214962
0.189007
0.159756
0.124395
0.071749
0.025593
-0.016114
-0.038081
-0.058165
-0.063010
-0.038903
-0.009095
0.015046
0.068809
0.115544
0.158556
0.193145
0.233224
0.246048
0.243684
0.248211
0.227351
0.194814
0.148676
0.100630
0.039932
0.017368
-0.004168
-0.013742
-0.006991
0.002198
0.025302
0.058100
0.087739
0.136728
0.174704
0.225556
0.261424
0.273995
0.276974
0.274018
0.244613
0.213262
0.177796
0.135424
0.089471
0.051801
0.009733
-0.006065
-0.018723
-0.009015
0.029008
0.058550
0.084207
0.121297
0.171522
0.222946
0.255183
0.264244
0.257967
0.247604
0.220210
0.195319
0.154166
0.098125
0.058500
0.019222
-0.022241
-0.048306
-0.052257
-0.036477
-0.013006
0.020102
0.057372
0.094011
0.130622
0.158465
0.189722
0.218517
0.228775
0.219332
0.200300
0.163646
0.110388
0.059331
0.017623
-0.021862
-0.051030
-0.066126
-0.081573
-0.068556
-0.039744
-0.019872
0.025014
0.084735
0.132446
0.166303
0.200034
0.226644
0.234508
0.223511
0.197236
0.163096
0.109058
0.061580
0.020740
-0.005917
-0.036430
-0.072818
-0.084953
-0.082463
-0.058544
-0.022826
0.018235
0.072893
0.121307
0.155446
0.168334
0.185702
0.197945
0.189913
0.157333
0.129275
0.077582
0.021739
-0.027782
-0.086581
-0.115473
-0.120294
-0.119467
-0.111087
-0.063933
-0.022238
0.024951
0.055602
0.086434
0.106201
0.137137
0.179811
0.192446
0.175233
0.146081
0.111408
0.075376
0.033417
0.002395
-0.019806
-0.053345
-0.074263
-0.093899
-0.108095
-0.093489
-0.069906
-0.005330
0.059277
0.097004
0.151145
0.170772
0.192335
0.194010
0.179327
0.159810
0.152931
0.133583
0.090491
0.041670
0.005126
-0.025077
-0.040266
-0.031003
-0.013652
0.036990
0.082327
0.135661
0.201400
0.261860
0.305639
0.340847
0.374189
0.405117
0.401967
0.410902
0.393396
0.373732
0.365735
0.340347
0.331031
0.323445
0.322455
0.340298
0.388101
0.438666
0.500941
0.592676
0.670143
0.738958
0.834261
0.900876
0.943464
0.931033
0.924230
0.903149
0.854949
0.793196
0.723805
0.652245
0.569820
0.487220
0.417274
0.347669
0.295461
0.272524
0.266554
0.263750
0.264338
0.276342
0.303513
0.322592
0.333940
0.332945
0.311839
0.277535
0.241227
0.176726
0.109290
0.055403
0.023356
-0.005319
-0.021290
-0.038529
-0.045520
-0.014497
0.034400
0.073229
0.130488
0.182328
0.229928
0.258503
0.274681
0.277331
0.270709
0.235399
0.172806
0.127394
0.081327
0.035005
-0.005955
-0.051908
-0.074202
-0.092646
-0.084957
-0.068448
-0.040974
0.017809
0.083088
0.126318
0.171152
0.184141
0.180243
0.183494
0.170614
0.138666
0.106628
0.071683
0.028502
-0.007734
-0.041994
-0.080897
-0.080420
-0.061576
-0.052669
-0.030041
-0.020054
0.005819
0.058560
0.114754
0.151891
0.190786
0.224677
0.231811
0.211362
0.205050
0.175166
0.128464
0.076905
0.028583
-0.013421
-0.062519
-0.077801
-0.077214
-0.065394
-0.037523
0.009861
0.064364
0.120927
0.171915
0.192134
0.214896
0.247100
0.252376
0.255465
0.250005
0.212811
0.183989
0.146539
0.085503
0.038750
-0.012855
-0.035570
-0.037471
-0.036086
-0.017593
0.021514
0.076721
0.136543
0.187925
0.223088
0.251488
0.271680
0.269553
0.261365
0.233946
0.197821
0.150248
0.090902
0.044619
0.015961
-0.009632
-0.036191
-0.056471
-0.044242
-0.016676
0.009264
0.059522
0.134571
0.200015
0.246858
0.270487
0.285354
0.295564
0.294990
0.285031
0.268334
0.237367
0.167597
0.108143
0.071660
0.056154
0.044707
0.043238
0.040385
0.067829
0.102309
0.141101
0.180967
0.224146
0.264462
0.296096
0.319589
0.329925
0.328426
0.320890
0.297294
0.248130
0.194309
0.153394
0.119649
0.090014
0.069742
0.065150
0.069130
0.081808
0.117077
0.154278
0.200948
0.236523
0.284001
0.301685
0.318996
0.322985
0.321130
0.293540
0.271455
0.257490
0.225142
0.168812
0.090730
0.014252
0.008892
0.009074
0.014686
0.041005
0.086344
0.119363
0.145490
0.192647
0.235116
0.269944
0.298561
0.293015
0.285417
0.260305
0.230932
0.183376
0.126634
0.089710
0.050409
0.021420
0.001731
-0.005450
-0.000995
0.004119
0.044039
0.106484
0.157722
0.192985
0.240359
0.276571
0.293136
0.289738
0.276222
0.248731
0.217296
0.175799
0.124607
0.061202
0.041658
0.013531
0.010064
-0.003813
-0.003901
0.003451
0.012624
0.042578
0.091434
0.177667
0.234728
0.282212
0.301067
0.284040
0.248965
0.215547
0.175652
0.115511
0.081559
0.047104
-0.000997
-0.049022
-0.065419
-0.054468
-0.053724
-0.053092
-0.017672
0.028903
0.063287
0.100409
0.145326
0.172618
0.198524
0.204892
0.209092
0.166028
0.138243
0.092052
0.042706
-0.003347
-0.039457
-0.072564
-0.085652
-0.097665
-0.082832
-0.058904
-0.038237
0.002492
0.040991
0.099543
0.146134
0.201104
0.226763
0.225031
0.221946
0.211174
0.173435
0.143614
0.103672
0.064717
0.034411
-0.031044
-0.072909
-0.069277
-0.035647
-0.018941
0.011685
0.074881
0.128511
0.169864
0.208988
0.234962
0.249030
0.262560
0.252164
0.228453
0.164785
0.115696
0.074798
0.028081
0.003129
-0.014510
-0.046548
-0.053603
-0.032376
0.004534
0.029902
0.064392
0.107488
0.158520
0.181255
0.212814
0.223056
0.232726
0.221074
0.188349
0.164642
0.119826
0.083964
0.054092
-0.000078
-0.062808
-0.067036
-0.067186
-0.066151
-0.036389
0.003009
0.051150
0.086797
0.134259
0.177290
0.202249
0.223370
0.252047
0.235708
0.211216
0.171973
0.122358
0.083201
0.041567
0.008885
-0.023069
-0.054159
-0.070237
-0.058403
-0.039755
0.018649
0.075529
0.097888
0.113308
0.164694
0.204739
0.237280
0.250405
0.231374
0.225617
0.192230
0.151425
0.103437
0.043621
0.006573
-0.028632
-0.085451
-0.062085
-0.021351
-0.001673
0.049565
0.075894
0.136434
0.186263
0.221163
0.231440
0.228490
0.234330
0.235749
0.201722
0.190491
0.115540
0.076379
0.057711
0.015193
-0.022090
-0.054725
-0.084862
-0.074285
-0.054480
-0.031704
0.009668
0.060666
0.095627
0.144986
0.191009
0.207263
0.214425
0.213348
0.205686
0.182562
0.117933
0.062296
0.024695
-0.020628
-0.058480
-0.072849
-0.074965
-0.075233
-0.055178
-0.013549
-0.000364
0.040783
0.106801
0.149810
0.174109
0.219208
0.245105
0.272026
0.247715
0.219455
0.156253
0.102048
0.060067
0.012788
-0.027302
-0.056437
-0.043596
-0.037224
-0.018557
0.031530
0.093601
0.124106
0.156947
0.196728
0.234923
0.233235
0.251767
0.244534
0.232753
0.211737
0.161600
0.092729
0.048391
0.027063
0.020082
-0.000959
-0.014698
-0.011811
-0.008372
0.027259
0.072544
0.124127
0.160832
0.188377
0.211786
0.228791
0.229568
0.226712
0.209471
0.165402
0.122164
0.073168
0.015219
-0.025814
-0.045248
-0.049624
-0.037680
-0.020646
-0.008818
0.007785
0.046559
0.105750
0.169505
0.216662
0.248099
0.271245
0.263402
0.275651
0.252219
0.189710
0.138758
0.117239
0.079003
0.032803
0.006688
-0.019198
-0.010937
-0.003005
-0.000903
0.029846
0.076330
0.104854
0.133130
0.160745
0.203165
0.216178
0.218066
0.217105
0.193921
0.187028
0.145419
0.102461
0.033971
-0.016870
-0.023587
-0.015868
-0.047970
-0.058152
-0.040113
-0.015063
0.028400
0.066403
0.139551
0.211126
0.247793
0.281138
0.293286
0.219727
0.202742
0.160010
0.094677
0.103805
0.016506
-0.095418
-0.113839
-0.137978
-0.142524
-0.126382
-0.110823
-0.055962
-0.025575
0.011800
0.078128
0.115003
0.166946
0.166547
0.175730
0.180205
0.168950
0.156330
0.116085
0.039831
-0.044887
-0.094229
-0.113824
-0.161555
-0.149630
-0.110607
-0.094138
-0.053127
-0.032138
0.043091
0.102915
0.122879
0.162942
0.177638
0.179875
0.166490
0.146591
0.123132
0.114339
0.077232
0.032839
-0.018825
-0.072979
-0.103179
-0.102031
-0.065891
-0.065393
-0.042935
0.008257
0.048822
0.071009
0.126999
0.169383
0.192291
0.201867
0.208683
0.181306
0.132936
0.075736
0.037879
0.003882
-0.017566
-0.022667
-0.036905
-0.055758
-0.020958
0.047794
0.073308
0.096879
0.150193
0.225119
0.267249
0.308112
0.320599
0.326249
0.351690
0.378686
0.332440
0.294304
0.294551
0.263195
0.275250
0.298100
0.293099
0.328283
0.400317
0.452560
0.499084
0.571520
0.600590
0.659128
0.751584
0.839836
0.915307
0.964479
0.981129
0.923454
0.896913
0.849816
0.797825
0.737736
0.670754
0.613586
0.573425
0.554405
0.462152
0.382599
0.380182
0.423560
0.416182
0.329119
0.318498
0.340437
0.330502
0.323148
0.339671
0.313965
0.276310
0.238215
0.164019
0.118282
0.078713
0.091390
0.085360
-0.014341
-0.019344
0.029294
0.069984
0.131729
0.161108
0.187022
0.152548
0.117994
0.202810
0.220117
0.197787
0.179111
0.156812
0.109206
0.072156
0.029612
-0.020529
-0.054729
-0.082499
-0.093980
-0.083853
-0.045692
-0.008185
0.006276
0.042190
0.080405
0.098984
0.136935
0.144306
0.150813
0.135070
0.127910
0.114009
0.086959
0.043539
0.014965
-0.022322
-0.048283
-0.062223
-0.054633
-0.034221
0.009368
0.038291
0.062658
0.116794
0.161102
0.184007
0.206312
0.248766
0.245817
0.239004
0.209363
0.176329
0.133335
0.078973
0.041857
0.013724
-0.023327
-0.046718
-0.050479
-0.043704
-0.025187
0.021239
0.068444
0.111686
0.142920
0.167357
0.200527
0.232249
0.258884
0.268878
0.226691
0.139819
0.085493
0.065793
0.054708
0.017795
-0.029449
-0.071196
-0.067767
-0.045849
-0.028346
-0.013259
0.027611
0.116634
0.171149
0.210129
0.235663
0.225579
0.244606
0.226586
0.150292
0.151457
0.131658
0.098884
0.068792
0.028571
-0.012456
-0.028148
-0.023741
-0.017325
0.020223
0.058385
0.094067
0.128372
0.214316
0.291528
0.253471
0.243351
0.269028
0.291203
0.270162
0.208388
0.165106
0.121398
0.095403
0.074358
0.041593
0.015075
0.018382
0.033861
0.056206
0.101962
0.148519
0.194929
0.215179
0.233789
0.298820
0.344253
0.356402
0.372692
0.337101
0.292608
0.243485
0.201821
0.159311
0.108804
0.053786
0.017833
0.051892
0.035218
0.084275
0.133309
0.161049
0.215580
0.230947
0.283869
0.313212
0.287649
0.265929
0.248119
0.243441
0.225792
0.192470
0.150652
0.102595
0.066624
0.026815
-0.008638
0.002756
-0.000264
0.013667
0.046056
0.081296
0.141360
0.203887
0.238943
0.280677
0.290046
0.288342
0.281198
0.258276
0.222624
0.185688
0.132748
0.077516
0.028712
0.000148
-0.036753
-0.054480
-0.014270
0.007128
0.039693
0.064889
0.094297
0.144601
0.185188
0.205572
0.229794
0.254807
0.240039
0.225669
0.205630
0.185271
0.159378
0.110729
0.058727
-0.006119
0.011137
0.013529
0.020034
0.041855
0.067012
0.095191
0.131846
0.145689
0.162661
0.205921
0.259841
0.232412
0.198105
0.199942
0.165732
0.105956
0.079194
0.057630
0.007640
-0.033975
-0.051362
-0.068591
-0.098205
-0.066148
-0.039994
-0.011617
0.053638
0.108183
0.119845
0.149542
0.182806
0.178239
0.155924
0.097843
0.090813
0.073975
0.032092
-0.013226
-0.043690
-0.058398
-0.062218
-0.075763
-0.084428
-0.093632
-0.032001
0.011942
0.047415
0.080103
0.104165
0.149454
0.172774
0.185386
0.194960
0.173991
0.136045
0.084430
0.037400
0.017339
-0.018867
-0.042109
-0.052273
-0.042156
-0.035626
-0.012872
0.013559
0.048804
0.084981
0.136405
0.183616
0.226367
0.236153
0.230309
0.210910
0.175876
0.166718
0.125255
0.082457
0.014902
-0.025906
-0.051706
-0.076926
-0.099243
-0.088664
-0.081696
-0.034230
0.023551
0.054188
0.105981
0.161833
0.186686
0.180158
0.161750
0.184367
0.160186
0.158473
0.114044
0.049093
0.009553
-0.031166
-0.063164
-0.093193
-0.081343
-0.081194
-0.070616
-0.037301
-0.002720
0.043193
0.093811
0.115906
0.141625
0.161695
0.189518
0.188098
0.157439
0.144482
0.112321
0.046108
-0.004658
-0.019467
-0.062521
-0.054966
-0.033556
-0.023666
-0.014954
0.018327
0.030208
0.099842
0.112577
0.172423
0.192939
0.217176
0.227051
0.219706
0.193598
0.167611
0.124785
0.082652
0.035819
-0.002893
-0.026151
-0.040592
-0.061027
-0.044337
-0.039596
-0.015944
0.020022
0.063286
0.121716
0.147524
0.176699
0.195620
0.190514
0.171371
0.155329
0.127161
0.068241
0.020099
-0.002778
-0.032886
-0.066276
-0.082476
-0.085338
-0.085046
-0.058097
-0.022746
0.030822
0.027838
0.102484
0.163962
0.151310
0.171707
0.210263
0.165968
0.100978
0.093151
0.101649
0.087902
0.047941
0.002007
-0.022879
-0.027083
-0.077759
-0.097031
-0.231992
-0.170243
-0.102017
-0.011984
0.048827
0.104469
0.155093
0.142474
0.182893
0.181453
0.179583
0.146634
0.108601
0.058093
0.021999
-0.021775
-0.071250
-0.069070
-0.084126
-0.070893
-0.058359
-0.018067
0.013899
0.048159
0.094183
0.162933
0.205061
0.186535
0.154364
0.117106
0.144350
0.137336
0.119621
0.060593
0.025268
-0.095105
-0.175331
-0.124561
-0.075095
-0.021785
-0.041792
0.002837
0.087615
0.129981
0.150766
0.162861
0.175400
0.185277
0.210430
0.223423
0.270444
0.228890
0.149214
0.060890
0.005890
-0.031746
-0.042111
-0.012486
-0.089432
-0.124244
-0.064353
0.029339
0.061017
0.054210
0.081140
0.148110
0.206480
0.246883
0.230875
0.214437
0.202959
0.182728
0.122174
0.067720
-0.008698
-0.058609
-0.049691
-0.017067
0.000189
0.017655
-0.003211
0.010046
0.076290
0.099938
0.083580
0.177011
0.197242
0.235179
0.286120
0.328776
0.315693
0.223758
0.095169
0.058137
0.014162
-0.004983
-0.017206
-0.080599
-0.120256
-0.033542
-0.008090
0.033829
0.049725
0.066758
0.134451
0.179077
0.207121
0.206241
0.211611
0.217554
0.199383
0.173956
0.105276
0.043196
0.007338
-0.020175
-0.050875
-0.060427
-0.054599
-0.018522
0.000728
0.001037
-0.089911
-0.040901
0.058032
0.102147
0.154425
0.225455
0.203426
0.182981
0.139243
0.116359
0.112287
0.048686
-0.018352
-0.022357
-0.068195
-0.113726
-0.124077
-0.110775
-0.103332
-0.112572
-0.031173
0.066088
0.085694
0.101610
0.112571
0.143060
0.188054
0.172881
0.122473
0.112048
0.094238
0.007455
-0.010961
-0.006831
-0.051134
-0.086125
-0.111142
-0.117539
-0.101896
-0.045170
0.022650
0.064769
0.113761
0.148498
0.163838
0.181306
0.205610
0.176488
0.146454
0.110027
0.077283
0.043075
-0.006307
-0.041835
-0.081840
-0.097020
-0.099835
-0.096590
-0.077482
-0.056827
-0.024696
0.028699
0.056578
0.097673
0.128841
0.180766
0.211761
0.179989
0.161777
0.104194
0.035341
-0.014915
-0.047348
-0.101432
-0.131242
-0.082247
-0.072345
-0.105173
-0.121444
-0.080955
-0.022482
0.079873
0.181965
0.208478
0.245407
0.270024
0.294361
0.316545
0.296687
0.274107
0.272028
0.273906
0.268878
0.253270
0.270499
0.290122
0.335364
0.378033
0.424337
0.453502
0.434022
0.521835
0.662040
0.767535
0.827257
0.870510
0.895092
0.935195
0.944284
0.908614
0.864495
0.840760
0.814047
0.766084
0.698891
0.621807
0.585382
0.544740
0.477759
0.449562
0.430816
0.423260
0.415249
0.390800
0.370688
0.350064
0.356902
0.346662
0.317455
0.273090
0.223910
0.138129
0.077869
0.043334
0.000438
-0.022584
-0.030797
-0.035488
-0.013717
0.007808
0.038356
0.072482
0.124595
0.148472
0.178684
0.213117
0.228384
0.214853
0.204059
0.169860
0.129939
0.076509
0.038991
-0.012658
-0.033115
-0.059437
-0.043683
-0.070591
-0.069047
-0.064140
-0.064714
0.016874
0.086456
0.130881
0.119697
0.141509
0.140377
0.183874
0.146333
0.087722
0.015872
-0.026608
-0.031184
-0.001240
-0.063202
-0.080708
-0.081743
-0.094996
-0.075681
-0.043168
-0.030963
0.027631
0.078348
0.125726
0.146925
0.150181
0.169656
0.183536
0.171160
0.124039
0.090958
0.075337
0.049951
-0.026017
-0.075681
-0.111877
-0.130953
-0.106731
-0.101615
-0.066813
-0.015081
0.032366
0.105003
0.153078
0.175272
0.195642
0.205087
0.174082
0.169375
0.143377
0.095420
0.037888
-0.008374
-0.053127
-0.076885
-0.064626
-0.066616
-0.069443
-0.022080
-0.040363
0.001547
0.048089
0.100611
0.143842
0.190457
0.223320
0.178926
0.148038
0.156851
0.139145
0.113902
0.057240
0.014131
-0.024741
-0.054301
-0.065240
-0.071189
-0.031623
-0.025281
-0.004931
0.014047
0.063613
0.114844
0.179447
0.204991
0.218221
0.222072
0.218186
0.192206
0.152468
0.117371
0.064594
0.010830
-0.003286
-0.003128
-0.038132
-0.050802
-0.037433
-0.015157
0.034037
0.082846
0.122556
0.166312
0.200441
0.232576
0.265180
0.243463
0.241268
0.243201
0.210306
0.182315
0.101722
0.028178
0.021068
0.018028
-0.019825
-0.001469
-0.004262
0.027908
0.055125
0.090613
0.100036
0.158353
0.184697
0.193381
0.222558
0.221420
0.222793
0.231768
0.189356
0.124015
0.085933
0.065115
0.040144
-0.023426
-0.058429
-0.062400
-0.036553
-0.014884
0.020598
0.057498
0.116306
0.159684
0.183504
0.211962
0.226702
0.226311
0.220388
0.202825
0.172476
0.111150
0.072115
0.026757
0.005139
-0.006981
-0.047551
-0.090382
-0.104835
-0.101958
-0.063641
0.007477
0.053011
0.106040
0.155611
0.184951
0.203693
0.203480
0.191008
0.165900
0.144190
0.093495
0.042854
0.013520
-0.044920
-0.069567
-0.083955
-0.098183
-0.097643
-0.088879
-0.081257
-0.022930
0.031346
0.070960
0.080509
0.088009
0.127998
0.146967
0.130699
0.113872
0.090050
0.061389
0.005938
-0.043769
-0.087304
-0.108222
-0.133496
-0.169927
-0.189167
-0.158706
-0.102471
-0.054294
-0.007140
0.038910
0.076022
0.090927
0.101955
0.151370
0.104142
0.110628
0.097133
0.035195
-0.020010
-0.047058
-0.089709
-0.139514
-0.146353
-0.150486
-0.151764
-0.138267
-0.095227
-0.067126
-0.025929
0.027886
0.051081
0.058957
0.088161
0.110580
0.114344
0.091877
0.069831
0.028141
-0.006182
-0.044989
-0.079105
-0.092679
-0.129439
-0.132426
-0.152670
-0.157764
-0.128713
-0.050436
-0.007915
0.020120
0.058674
0.123129
0.147755
0.172566
0.156874
0.104477
0.025434
-0.016451
-0.060557
-0.103763
-0.101695
-0.103794
-0.142138
-0.159782
-0.152594
-0.134536
-0.096445
-0.071984
-0.023075
0.028649
0.080044
0.106707
0.114069
0.137455
0.124395
0.101440
0.081372
0.031967
-0.008045
-0.053185
-0.096934
-0.118456
-0.138121
-0.143799
-0.152156
-0.138828
-0.094402
-0.047146
-0.027332
0.025007
0.065724
0.084185
0.125765
0.120531
0.112452
0.084491
0.063682
0.026895
-0.019983
-0.070616
-0.105949
-0.130333
-0.142656
-0.140467
-0.122595
-0.095795
-0.063112
-0.042355
0.001754
0.049159
0.074840
0.104797
0.136841
0.139546
0.133335
0.133413
0.116510
0.052432
-0.004924
-0.047009
-0.093457
-0.122293
-0.145974
-0.150185
-0.151158
-0.133520
-0.102918
-0.052975
-0.011149
0.026218
0.059941
0.085466
0.111187
0.123659
0.116864
0.096360
0.056798
0.011879
-0.023827
-0.060128
-0.108937
-0.143336
-0.165587
-0.175645
-0.166116
-0.160438
-0.118546
-0.088057
-0.063603
-0.021997
0.027295
0.072097
0.111534
0.115719
0.109641
0.084066
0.035359
0.008620
-0.057365
-0.106217
-0.124314
-0.160421
-0.166418
-0.171610
-0.155979
-0.129297
-0.098592
-0.080325
-0.049200
0.002155
0.044032
0.087654
0.102001
0.120174
0.113547
0.086114
0.064302
0.024025
-0.027199
-0.072766
-0.116159
-0.143789
-0.156901
-0.165693
-0.166630
-0.157530
-0.136388
-0.088436
-0.031965
0.016035
0.057414
0.088099
0.114057
0.111567
0.112812
0.064860
0.044839
0.026325
-0.027954
-0.076641
-0.132552
-0.169811
-0.176355
-0.194588
-0.178873
-0.142177
-0.120155
-0.088624
-0.048729
-0.013489
0.024552
0.057201
0.075780
0.092888
0.089469
0.064977
0.033207
-0.008309
-0.061015
-0.101596
-0.147258
-0.188587
-0.206584
-0.209240
-0.193589
-0.176715
-0.137119
-0.100370
-0.055686
-0.019340
0.019383
0.040183
0.067987
0.087895
0.062349
0.049939
0.047350
0.010999
-0.045839
-0.090009
-0.105408
-0.144084
-0.152397
-0.161681
-0.148698
-0.118321
-0.079342
-0.039818
0.003399
0.051900
0.091189
0.125929
0.131289
0.142021
0.145590
0.139941
0.099381
0.060060
-0.004249
-0.059210
-0.104289
-0.132697
-0.147664
-0.151936
-0.147886
-0.132510
-0.097841
-0.054961
-0.021457
0.027714
0.064367
0.093331
0.100228
0.113762
0.094345
0.085230
0.061212
0.026102
-0.015845
-0.047325
-0.083037
-0.111450
-0.134053
-0.148885
-0.121335
-0.088245
-0.076106
-0.039330
-0.007481
0.042078
0.073181
0.098275
0.113718
0.127067
0.113321
0.078217
0.050060
0.022873
-0.031740
-0.082216
-0.111775
-0.142651
-0.161851
-0.176506
-0.172969
-0.143913
-0.120804
-0.082218
-0.037776
0.000509
0.038340
0.060722
0.090362
0.101077
0.089888
0.067112
0.045030
0.007000
-0.041108
-0.097936
-0.134029
-0.179339
-0.199528
-0.205520
-0.182362
-0.151858
-0.135005
-0.100806
-0.046861
0.010984
0.035430
0.065932
0.093183
0.102727
0.075621
0.047762
0.038011
-0.010061
-0.056586
-0.100634
-0.146148
-0.167759
-0.182712
-0.195221
-0.189339
-0.170085
-0.126052
-0.109476
-0.086322
-0.036692
0.007735
0.032470
0.065482
0.071210
0.072386
0.048047
0.007942
-0.033571
-0.089335
-0.130033
-0.178231
-0.211152
-0.219503
-0.247008
-0.260880
-0.237050
-0.146590
-0.098919
-0.069588
-0.042205
-0.001333
0.034942
0.045133
0.049075
0.057691
0.030605
-0.001636
-0.066960
-0.101333
-0.113321
-0.165108
-0.195937
-0.229492
-0.244895
-0.220836
-0.205523
-0.169597
-0.134155
-0.087869
-0.043793
-0.005463
0.033876
0.058546
0.053173
0.064419
0.045235
0.023196
-0.018375
-0.048808
-0.087227
-0.103250
-0.115641
-0.128025
-0.124363
-0.087677
-0.042904
-0.009291
0.052659
0.107596
0.167220
0.227247
0.276210
0.335014
0.362423
0.389425
0.393969
0.400614
0.404930
0.387937
0.371176
0.376102
0.363230
0.381337
0.407556
0.460594
0.509697
0.572411
0.645123
0.715971
0.770161
0.799295
0.816352
0.833317
0.819926
0.786473
0.749849
0.677860
0.580929
0.492178
0.349500
0.252031
0.167608
0.094448
0.044136
-0.003523
-0.028231
-0.022910
0.008191
0.059419
0.086319
0.103490
0.108191
0.146897
0.150527
0.145918
0.093286
0.029964
0.008838
-0.035014
-0.085405
-0.113712
-0.140958
-0.146391
-0.129960
-0.091650
-0.077873
-0.064384
-0.054752
-0.046470
-0.003023
0.041942
0.058784
0.090652
0.093209
0.084432
0.074133
0.045107
0.008294
-0.027892
-0.063249
-0.116865
-0.126654
-0.127320
-0.139970
-0.141956
-0.124540
-0.100725
-0.074557
-0.012933
0.026792
0.061596
0.088891
0.114561
0.121726
0.124644
0.106984
0.082832
0.045890
0.015939
-0.049061
-0.109459
-0.149232
-0.183689
-0.172467
-0.164134
-0.153963
-0.132641
-0.108086
-0.064035
-0.009087
0.029679
0.064165
0.101395
0.103714
0.084493
0.069774
0.049471
0.030081
-0.030145
-0.093591
-0.120574
-0.143055
-0.158720
-0.174093
-0.176573
-0.176738
-0.147432
-0.099027
-0.055061
0.002514
0.044443
0.073620
0.101312
0.125469
0.122230
0.096768
0.058932
0.024816
-0.028164
-0.058076
-0.083242
-0.121996
-0.145082
-0.150677
-0.140971
-0.125857
-0.092938
-0.054048
0.009832
0.055350
0.096626
0.125586
0.150727
0.157214
0.154938
0.157872
0.120778
0.068075
0.014986
-0.037224
-0.052092
-0.057640
-0.085683
-0.097727
-0.098486
-0.066595
-0.018986
0.002784
0.041416
0.117109
0.122513
0.160229
0.195930
0.211053
0.206234
0.178977
0.139247
0.089794
0.050522
0.016992
-0.022646
-0.044451
-0.063252
-0.078097
-0.081964
-0.059658
-0.032259
0.011369
0.059559
0.102541
0.131061
0.161129
0.170046
0.181471
0.185350
0.162939
0.142468
0.088519
0.059205
0.014179
-0.031318
-0.073679
-0.083262
-0.095133
-0.094292
-0.079631
-0.031961
0.020073
0.070320
0.103188
0.138719
0.171352
0.196697
0.205820
0.202609
0.180338
0.163107
0.118557
0.081752
0.020048
-0.000925
-0.041471
-0.071597
-0.083515
-0.075590
-0.050417
-0.010760
0.038494
0.074543
0.098124
0.128452
0.177058
0.190050
0.216239
0.189002
0.171906
0.141638
0.097541
0.059656
0.006281
-0.032662
-0.061470
-0.082156
-0.091477
-0.090814
-0.069645
-0.057085
-0.017906
0.022564
0.075566
0.114816
0.149362
0.163024
0.160580
0.155046
0.122301
0.091044
0.060200
0.006561
-0.027659
-0.090286
-0.128613
-0.153483
-0.159959
-0.154877
-0.138467
-0.114484
-0.089410
-0.041503
0.015242
0.032706
0.073017
0.102740
0.121372
0.113756
0.107739
0.071685
0.036113
-0.008681
-0.063019
-0.115301
-0.155487
-0.175685
-0.202796
-0.193791
-0.159630
-0.117521
-0.064103
-0.019808
0.007960
0.053025
0.093966
0.116509
0.128704
0.122190
0.100255
0.076526
0.036566
-0.010990
-0.051333
-0.106364
-0.128772
-0.156749
-0.152850
-0.129649
-0.110034
-0.080468
-0.037990
0.001996
0.028308
0.078728
0.112451
0.141073
0.155479
0.152679
0.119621
0.080911
0.029802
-0.008469
-0.057532
-0.084729
-0.115606
-0.142776
-0.148394
-0.156741
-0.145518
-0.098463
-0.060733
-0.023252
0.002110
0.038558
0.084887
0.117670
0.115653
0.089823
0.066379
0.035245
0.014916
-0.010527
-0.050604
-0.111586
-0.149527
-0.168994
-0.172275
-0.160179
-0.145073
-0.110501
-0.067497
-0.011667
0.028584
0.068644
0.104295
0.121279
0.138279
0.130634
0.116581
0.080179
0.038596
0.005940
-0.029556
-0.076380
-0.097097
-0.116764
-0.126492
-0.118598
-0.110108
-0.073315
-0.026431
0.021471
0.053903
0.099111
0.135337
0.158480
0.171768
0.158706
0.143618
0.093928
0.069189
0.032380
0.002864
-0.047846
-0.084291
-0.122218
-0.136620
-0.121718
-0.110037
-0.085097
-0.033486
0.009877
0.059132
0.092439
0.120562
0.145545
0.150544
0.144499
0.116434
0.080646
0.051174
-0.003619
-0.050618
-0.096608
-0.119611
-0.143865
-0.146399
-0.158940
-0.145285
-0.114988
-0.088030
-0.040684
0.015921
0.060332
0.087981
0.112960
0.121638
0.116643
0.096224
0.062586
0.027597
-0.011493
-0.057680
-0.089514
-0.125223
-0.146930
-0.163872
-0.168339
-0.141665
-0.102484
-0.064983
-0.020945
0.019924
0.068317
0.099075
0.129088
0.139857
0.141323
0.123557
0.085294
0.038427
0.001093
-0.047255
-0.090733
-0.125708
-0.140374
-0.133160
-0.114322
-0.095073
-0.069906
-0.042139
0.014745
0.046802
0.082793
0.112620
0.132342
0.142176
0.140556
0.118742
0.088092
0.032356
-0.001724
-0.034603
-0.082999
-0.122516
-0.145379
-0.140889
-0.132741
-0.120351
-0.089108
-0.064744
-0.014444
0.021535
0.053347
0.089526
0.116426
0.128702
0.117772
0.092005
0.062400
0.026432
-0.010355
-0.060213
-0.106268
-0.142575
-0.158734
-0.168363
-0.168236
-0.167812
-0.126002
-0.073230
-0.013568
0.025132
0.053183
0.082902
0.112936
0.119898
0.134814
0.112821
0.078612
0.039335
-0.006315
-0.036190
-0.071087
-0.106015
-0.134980
-0.144811
-0.139572
-0.135978
-0.088601
-0.043601
-0.003199
0.041825
0.084506
0.107613
0.121305
0.149366
0.147986
0.125710
0.089814
0.054858
0.011138
-0.047902
-0.091610
-0.131757
-0.153312
-0.149479
-0.153829
-0.129884
-0.100307
-0.058872
-0.008639
0.021301
0.049799
0.087964
0.111575
0.113859
0.096030
0.083366
0.058512
0.028297
-0.015731
-0.051968
-0.095114
-0.125172
-0.146629
-0.158844
-0.156276
-0.127295
-0.095857
-0.060117
-0.016958
0.022074
0.075363
0.101050
0.123425
0.133975
0.134629
0.126698
0.095097
0.052799
0.002523
-0.033969
-0.069345
-0.095669
-0.118416
-0.120308
-0.110189
-0.089811
-0.051454
-0.017634
0.036342
0.081274
0.105236
0.141017
0.160151
0.177622
0.177937
0.165761
0.127497
0.090392
0.037341
0.001941
-0.037774
-0.072296
-0.096539
-0.092677
-0.083395
-0.054443
-0.004999
0.034115
0.076322
0.105520
0.142459
0.174964
0.211759
0.222076
0.207489
0.196091
0.152295
0.100642
0.055804
0.000256
-0.052501
-0.087956
-0.118961
-0.124438
-0.136670
-0.128091
-0.087605
-0.035480
0.015844
0.062883
0.094887
0.110349
0.136764
0.136938
0.124850
0.101084
0.081306
0.037292
-0.004775
-0.053252
-0.094571
-0.136771
-0.158547
-0.179388
-0.176326
-0.160358
-0.117383
-0.074968
-0.040850
0.005454
0.049882
0.077751
0.114307
0.118085
0.103267
0.094716
0.055458
0.018157
-0.018053
-0.060479
-0.094521
-0.132468
-0.159065
-0.171255
-0.158257
-0.125351
-0.105522
-0.061464
-0.018396
0.029693
0.071933
0.109913
0.133204
0.140801
0.133274
0.113051
0.092200
0.054373
-0.006262
-0.050516
-0.096065
-0.130279
-0.155506
-0.163688
-0.151537
-0.137464
-0.107572
-0.051452
0.004097
0.042388
0.082636
0.109575
0.126536
0.132844
0.126498
0.098595
0.068596
0.039534
0.010553
-0.060762
-0.114981
-0.137859
-0.165927
-0.187000
-0.171239
-0.148469
-0.119578
-0.085289
-0.031857
0.004051
0.042140
0.072371
0.093413
0.119872
0.095481
0.091103
0.058350
0.021512
-0.020817
-0.087485
-0.128185
-0.160952
-0.159983
-0.159004
-0.144667
-0.142940
-0.098929
-0.033181
0.032908
0.092065
0.149246
0.187275
0.222056
0.266285
0.256819
0.243268
0.218560
0.202152
0.188389
0.165184
0.139720
0.134614
0.138542
0.143853
0.198443
0.254706
0.320141
0.405730
0.474264
0.545643
0.614797
0.677112
0.739122
0.785921
0.813881
0.831266
0.840724
0.827461
0.791564
0.734569
0.660630
0.650564
0.603361
0.560758
0.527673
0.491134
0.482912
0.440507
0.431613
0.408266
0.341133
0.373048
0.273804
0.245079
0.274358
0.244862
0.208494
0.163061
0.108115
0.056680
0.004685
-0.032938
-0.069747
-0.085824
-0.080536
-0.058603
-0.036533
0.007003
0.044039
0.083933
0.124057
0.160907
0.181729
0.192361
0.170587
0.144839
0.122309
0.095566
0.049142
0.000870
-0.044330
-0.082070
-0.111709
-0.138940
-0.126585
-0.108973
-0.083118
-0.059515
0.019498
0.064194
0.113411
0.153244
0.182560
0.210924
0.210943
0.164991
0.082879
0.049436
0.028913
-0.019896
-0.060286
-0.097539
-0.111268
-0.117332
-0.094842
-0.073114
-0.053778
0.000583
0.049926
0.094305
0.124250
0.153703
0.193083
0.207306
0.194097
0.153180
0.095971
0.074895
0.030740
-0.030607
-0.062704
-0.089923
-0.108139
-0.115239
-0.102778
-0.077737
-0.066620
-0.033435
0.004390
0.065016
0.086059
0.122543
0.152199
0.168703
0.148498
0.118039
0.092086
0.051136
0.028442
-0.021702
-0.077735
-0.093635
-0.081681
-0.106531
-0.103915
-0.081321
-0.038807
0.006617
0.032970
0.086143
0.132478
0.178138
0.195537
0.206549
0.204226
0.194887
0.163537
0.124541
0.084051
0.033827
-0.003785
-0.029644
-0.050782
-0.055887
-0.050424
-0.029824
-0.009083
0.052976
0.104052
0.154468
0.189272
0.227250
0.248411
0.254175
0.273216
0.244589
0.216144
0.169004
0.135982
0.082168
0.050927
0.015999
-0.005981
-0.020761
-0.022238
0.012725
0.040229
0.076404
0.114760
0.168469
0.198196
0.242222
0.275422
0.287169
0.274414
0.267834
0.237295
0.188834
0.135281
0.097065
0.044805
0.019582
0.000085
-0.022027
-0.008801
0.010411
0.029493
0.080728
0.119934
0.166619
0.221853
0.253472
0.267000
0.282608
0.277649
0.250466
0.220603
0.188769
0.138704
0.092574
0.066935
0.020395
0.002674
-0.013323
-0.001567
0.015668
0.048334
0.078297
0.128234
0.160342
0.215488
0.248385
0.271434
0.285922
0.281844
0.249075
0.236147
0.197064
0.153795
0.116290
0.060844
0.028190
-0.003037
-0.017801
-0.009000
0.009456
0.048439
0.088105
0.132984
0.162022
0.199449
0.239696
0.252603
0.261393
0.263781
0.238376
0.203746
0.154583
0.100893
0.055693
0.017078
-0.025716
-0.050633
-0.072546
-0.060820
-0.041966
-0.018297
0.019704
0.056123
0.097622
0.145060
0.180398
0.203056
0.218084
0.208869
0.176871
0.151376
0.106576
0.060309
0.011626
-0.032402
-0.067904
-0.097094
-0.113578
-0.109586
-0.081406
-0.054828
-0.016234
0.037287
0.073693
0.105703
0.128359
0.150473
0.166824
0.175903
0.156020
0.133385
0.103847
0.054895
-0.008837
-0.069827
-0.086755
-0.089362
-0.107409
-0.103850
-0.072809
-0.033902
0.006955
0.040256
0.076976
0.128207
0.178484
0.190542
0.194291
0.190243
0.179356
0.153498
0.120335
0.070229
0.018779
-0.033678
-0.065801
-0.080129
-0.096759
-0.090761
-0.070390
-0.034658
0.002032
0.049805
0.083005
0.131995
0.175357
0.206351
0.206989
0.199502
0.176042
0.139082
0.090450
0.057346
0.011819
-0.038603
-0.084685
-0.088844
-0.097872
-0.082788
-0.080306
-0.042610
-0.005119
0.034870
0.077552
0.131439
0.164762
0.192690
0.213957
0.187110
0.164493
0.148857
0.085951
0.018933
-0.010391
-0.041989
-0.079809
-0.095586
-0.093806
-0.087172
-0.073495
-0.035933
0.005748
0.050085
0.090859
0.131630
0.167189
0.203951
0.220187
0.202027
0.183494
0.148739
0.107644
0.063044
0.017844
-0.010267
-0.031783
-0.060817
-0.077792
-0.074682
-0.056645
-0.009543
0.030579
0.069607
0.115647
0.149749
0.186718
0.204235
0.220470
0.206811
0.184916
0.154030
0.127806
0.073522
0.029426
-0.010357
-0.047853
-0.061249
-0.068945
-0.070061
-0.048235
-0.014165
0.011961
0.039415
0.104858
0.146430
0.162259
0.186412
0.175971
0.165763
0.193530
0.165157
0.114039
0.062577
0.007901
-0.036038
-0.072987
-0.081404
-0.102773
-0.088970
-0.074887
-0.048407
-0.012597
0.025074
0.064682
0.108454
0.152974
0.184368
0.194566
0.177814
0.160831
0.126351
0.088504
0.056768
-0.006121
-0.054145
-0.082464
-0.088322
-0.107985
-0.086110
-0.077867
-0.057905
-0.007175
0.047774
0.105803
0.159477
0.180023
0.205546
0.208655
0.194057
0.179718
0.162768
0.106868
0.052304
0.020412
-0.013404
-0.044235
-0.069602
-0.080869
-0.075812
-0.057199
-0.020342
0.014916
0.055620
0.096521
0.135913
0.169667
0.197792
0.200109
0.205180
0.186423
0.145077
0.107461
0.054129
0.016419
-0.041689
-0.081026
-0.093505
-0.098788
-0.101797
-0.088839
-0.055509
-0.014175
0.019914
0.060797
0.097764
0.143348
0.169663
0.183475
0.166981
0.147421
0.121473
0.073796
0.034490
-0.008556
-0.071891
-0.088986
-0.104249
-0.108246
-0.099760
-0.081696
-0.042816
-0.005828
0.034432
0.078816
0.127453
0.158869
0.168574
0.176784
0.186932
0.184261
0.154903
0.110598
0.052706
0.017203
-0.030714
-0.067680
-0.087855
-0.078600
-0.079223
-0.063855
-0.036500
-0.004244
0.057525
0.105904
0.156275
0.177576
0.208484
0.208848
0.194403
0.182651
0.149049
0.118275
0.075395
0.023288
-0.027032
-0.066219
-0.085682
-0.077136
-0.077489
-0.066458
-0.040753
-0.000362
0.053015
0.106848
0.143110
0.182507
0.213708
0.223505
0.207071
0.197097
0.171833
0.125004
0.075508
0.026429
-0.011379
-0.033992
-0.069429
-0.083926
-0.076897
-0.053602
-0.028384
0.004780
0.052194
0.092328
0.141592
0.173662
0.203783
0.212866
0.219185
0.196482
0.163281
0.125835
0.081682
0.035864
-0.004629
-0.033484
-0.034218
-0.037855
-0.037494
-0.019348
0.020806
0.072389
0.114349
0.153073
0.204808
0.242637
0.270880
0.269576
0.259891
0.232051
0.198475
0.154392
0.100804
0.046266
0.006219
-0.029409
-0.058324
-0.064541
-0.046100
-0.032750
-0.015786
0.018506
0.072104
0.121766
0.160053
0.192481
0.217736
0.226828
0.220048
0.184206
0.157486
0.118160
0.065758
0.010072
-0.032701
-0.064327
-0.097844
-0.133572
-0.118592
-0.095325
-0.056278
-0.022365
0.002857
0.054574
0.105719
0.136327
0.170943
0.180390
0.167398
0.146616
0.120425
0.062679
0.007160
-0.021925
-0.066675
-0.103561
-0.130891
-0.132502
-0.128820
-0.107558
-0.071179
-0.030549
0.017210
0.062897
0.101657
0.141153
0.166531
0.186206
0.180763
0.161157
0.134663
0.090301
0.044255
-0.002401
-0.047636
-0.071242
-0.095846
-0.106072
-0.104298
-0.092491
-0.049661
-0.002883
0.022761
0.072103
0.121645
0.155953
0.182797
0.199453
0.178492
0.167890
0.122263
0.072478
0.029832
-0.002938
-0.027212
-0.066776
-0.092684
-0.121332
-0.110020
-0.093466
-0.047462
-0.008737
0.023129
0.076917
0.110992
0.139493
0.158077
0.156960
0.155721
0.126942
0.074616
0.040736
-0.000553
-0.013009
-0.035107
-0.073245
-0.104468
-0.123118
-0.131958
-0.096805
-0.023476
0.035329
0.102155
0.154337
0.208527
0.264683
0.300535
0.299386
0.312738
0.309982
0.310249
0.309384
0.303854
0.280981
0.233929
0.242302
0.249155
0.263087
0.315416
0.375523
0.426361
0.504762
0.602361
0.663466
0.731581
0.803608
0.876034
0.944956
0.956389
0.920529
0.886443
0.842067
0.803206
0.742020
0.720141
0.647583
0.544353
0.473623
0.418582
0.356027
0.327291
0.379892
0.387228
0.364080
0.365230
0.342199
0.341186
0.345288
0.312220
0.326891
0.263420
0.194659
0.143803
0.086882
0.049386
-0.040823
-0.005827
-0.030889
-0.037412
-0.030861
-0.006462
0.026089
0.072345
0.104838
0.180772
0.215633
0.243548
0.235405
0.222496
0.201367
0.160919
0.117434
0.089607
0.035383
-0.022533
-0.063535
-0.089354
-0.106031
-0.108859
-0.099578
-0.064380
-0.007284
0.069961
0.108349
0.120799
0.139875
0.160916
0.197129
0.218826
0.210692
0.157644
0.116552
0.083527
0.032658
-0.029066
-0.072669
-0.087888
-0.069856
-0.071398
-0.051715
-0.008364
0.015023
0.064810
0.124990
0.179563
0.201405
0.213982
0.225913
0.236990
0.219635
0.180868
0.130192
0.094795
0.049302
0.005916
-0.012454
-0.042907
-0.058528
-0.048295
-0.029376
0.005656
0.038377
0.091082
0.139281
0.185287
0.211803
0.232337
0.239929
0.236069
0.214914
0.182804
0.135003
0.096788
0.047360
0.009246
-0.030340
-0.059353
-0.072213
-0.058652
-0.039355
-0.005756
0.035699
0.093108
0.134591
0.178379
0.216455
0.238124
0.247215
0.246452
0.218125
0.189089
0.141960
0.091446
0.043463
0.016116
-0.012103
-0.026638
-0.033055
-0.030479
-0.017034
0.020716
0.065886
0.115804
0.159130
0.210813
0.262176
0.283747
0.301014
0.287585
0.273202
0.240641
0.216018
0.180415
0.123022
0.071675
0.042360
0.028842
0.030952
0.034590
0.048157
0.078488
0.120569
0.168897
0.224334
0.268340
0.304129
0.338335
0.345959
0.351893
0.325734
0.283126
0.244167
0.205113
0.154474
0.113879
0.081957
0.045315
0.032619
0.035874
0.067140
0.099363
0.136951
0.158494
0.217476
0.273162
0.304224
0.315983
0.311143
0.314411
0.296685
0.259705
0.231578
0.173479
0.123796
0.083299
0.052791
0.028755
0.020187
0.010530
0.031275
0.056044
0.104254
0.136285
0.180847
0.236373
0.272807
0.291913
0.297814
0.298606
0.276832
0.244768
0.197042
0.148041
0.100490
0.059645
0.021964
0.004318
-0.006081
-0.005745
0.012857
0.044196
0.088311
0.136233
0.173179
0.211435
0.253977
0.285392
0.299555
0.299094
0.273488
0.243450
0.184560
0.137772
0.091933
0.058703
0.015586
-0.008607
-0.019708
-0.016244
0.001114
0.033458
0.060710
0.110897
0.150184
0.185257
0.217509
0.243339
0.247543
0.243655
0.217893
0.202706
0.161060
0.118851
0.061683
0.014112
-0.019048
-0.042150
-0.062864
-0.087520
-0.065079
-0.027454
0.011732
0.067821
0.110464
0.145509
0.184864
0.191275
0.210270
0.205854
0.191585
0.151228
0.110206
0.058497
0.007495
-0.029280
-0.069008
-0.095318
-0.094012
-0.095877
-0.081327
-0.042360
-0.003467
0.050892
0.093114
0.133342
0.173991
0.206961
0.220024
0.206624
0.182956
0.160880
0.117561
0.075778
0.039431
0.000183
-0.035658
-0.063651
-0.073683
-0.052224
-0.036889
-0.008044
0.038606
0.083606
0.141574
0.181841
0.209654
0.231937
0.248458
0.246911
0.215616
0.187714
0.137422
0.085613
0.024603
-0.000656
-0.007813
-0.044145
-0.066757
-0.055476
-0.051769
-0.007386
0.036587
0.079540
0.129260
0.164971
0.197089
0.206104
0.219410
0.224812
0.212220
0.180343
0.128768
0.084247
0.035421
-0.004988
-0.039890
-0.081008
-0.095977
-0.077772
-0.039715
-0.017726
0.021681
0.068187
0.098253
0.141016
0.186091
0.227693
0.231535
0.226504
0.204722
0.183254
0.152166
0.105161
0.066004
0.011413
-0.022802
-0.040796
-0.045452
-0.032463
-0.019488
0.009513
0.049282
0.098421
0.144272
0.192525
0.237772
0.250821
0.254081
0.252086
0.247825
0.203878
0.160246
0.108200
0.051231
0.016690
-0.003380
-0.039107
-0.054962
-0.056011
-0.035095
-0.001774
0.033763
0.069874
0.117354
0.167890
0.200048
0.223421
0.235776
0.225014
0.211871
0.174696
0.126297
0.074524
0.023348
-0.019303
-0.064869
-0.096531
-0.099603
-0.087897
-0.080522
-0.030535
0.010267
0.055879
0.109112
0.150879
0.186098
0.203318
0.208096
0.213855
0.187206
0.163700
0.109097
0.064146
0.031563
-0.010418
-0.058193
-0.078406
-0.080479
-0.066874
-0.059714
-0.035977
0.008444
0.069875
0.114406
0.163956
0.208354
0.227989
0.228110
0.237097
0.212855
0.170060
0.133875
0.099595
0.057330
0.005695
-0.044462
-0.067083
-0.071537
-0.076314
-0.051856
-0.015796
0.025580
0.063001
0.117492
0.152340
0.183318
0.204885
0.213534
0.207034
0.188645
0.160130
0.114480
0.062060
0.002240
-0.037773
-0.077647
-0.104476
-0.105122
-0.123243
-0.097652
-0.064413
-0.017614
0.027536
0.087277
0.145227
0.198073
0.198139
0.206293
0.199997
0.183474
0.151148
0.123123
0.080384
0.030164
-0.013185
-0.046503
-0.079506
-0.084500
-0.072315
-0.050336
-0.016389
0.025535
0.065706
0.117641
0.158387
0.199417
0.221331
0.227616
0.223089
0.204754
0.174852
0.145988
0.095355
0.049651
0.013041
-0.017075
-0.056891
-0.069944
-0.064270
-0.035962
-0.008909
0.033626
0.086802
0.135369
0.166291
0.190052
0.224693
0.246409
0.242446
0.222018
0.186410
0.142077
0.094594
0.044041
-0.006256
-0.043541
-0.077919
-0.080475
-0.067820
-0.041448
-0.021063
0.013555
0.069115
0.141256
0.190798
0.214448
0.231652
0.239562
0.245255
0.242529
0.208614
0.164635
0.122668
0.073706
0.014055
-0.025145
-0.022409
-0.016448
-0.025104
0.002352
0.032620
0.067101
0.113677
0.153694
0.185335
0.208907
0.229621
0.240901
0.256278
0.245383
0.189561
0.159318
0.114654
0.069938
0.009554
-0.023742
-0.052601
-0.056668
-0.058352
-0.043461
-0.011921
0.024972
0.072134
0.121770
0.144482
0.183846
0.207112
0.227011
0.209902
0.183499
0.136465
0.094475
0.048610
-0.000706
-0.044291
-0.084877
-0.116742
-0.111634
-0.113028
-0.100696
-0.070630
-0.034303
0.009217
0.060359
0.108167
0.153551
0.172419
0.163969
0.163088
0.142447
0.106224
0.057737
0.024554
-0.007995
-0.057772
-0.092819
-0.108330
-0.124122
-0.123080
-0.100394
-0.058416
-0.020785
0.025766
0.086761
0.145678
0.168297
0.192083
0.211257
0.211276
0.179641
0.141604
0.098224
0.046229
-0.001315
-0.039027
-0.071928
-0.092372
-0.096152
-0.092107
-0.081203
-0.053226
-0.022470
0.023853
0.082148
0.144993
0.167091
0.188763
0.198983
0.183409
0.161874
0.124145
0.082700
0.017164
-0.017619
-0.041919
-0.094069
-0.113016
-0.144802
-0.136672
-0.123691
-0.083188
-0.043409
-0.003080
0.050506
0.104188
0.140431
0.166484
0.187285
0.185259
0.183585
0.148288
0.107716
0.089032
0.039972
0.022285
-0.000036
-0.015841
-0.002031
0.013112
0.043653
0.083761
0.151139
0.224514
0.301692
0.365889
0.423603
0.474600
0.526477
0.555580
0.583092
0.579829
0.560354
0.548527
0.534035
0.522922
0.516709
0.528699
0.563235
0.610592
0.662163
0.736774
0.801536
0.864852
0.891917
0.921887
0.938378
0.939116
0.929810
0.907356
0.866813
0.784088
0.678215
0.569938
0.458690
0.355924
0.283871
0.200127
0.127572
0.079293
0.078789
0.101782
0.146712
0.182607
0.221765
0.257919
0.268555
0.279818
0.276683
0.283889
0.255930
0.208549
0.153884
0.112531
0.066256
0.017694
-0.013083
-0.044683
-0.051185
-0.048615
-0.033842
0.000049
0.055645
0.123617
0.165760
0.191945
0.208608
0.223160
0.241080
0.231013
0.209111
0.181951
0.155853
0.106216
0.044708
-0.005363
-0.037325
-0.059409
-0.065946
-0.076395
-0.058936
-0.029227
0.011064
0.064475
0.108797
0.155165
0.185256
0.198042
0.210623
0.218854
0.193482
0.155878
0.114730
0.055004
0.000424
-0.034801
-0.067988
-0.094933
-0.093481
-0.093560
-0.068206
-0.043722
0.002959
0.057924
0.105042
0.154780
0.185620
0.215175
0.222153
0.220805
0.192240
0.155457
0.124200
0.076515
0.028823
-0.004944
-0.032500
-0.057776
-0.073573
-0.059447
-0.031384
0.009305
0.049054
0.094985
0.157916
0.198559
0.224224
0.247089
0.261996
0.262403
0.245533
0.220713
0.177179
0.125187
0.073374
0.036966
-0.007114
-0.023525
-0.036477
-0.040502
-0.011994
0.030374
0.070146
0.113425
0.153667
0.201776
0.237471
0.267998
0.282165
0.266137
0.254330
0.214432
0.168281
0.126467
0.067526
0.036926
0.012378
-0.011769
-0.029944
-0.014711
-0.012753
0.012704
0.074891
0.133165
0.172100
0.222928
0.259395
0.294626
0.303455
0.299158
0.278073
0.246841
0.204465
0.172213
0.122345
0.083119
0.066089
0.037178
0.015140
0.021733
0.054173
0.083757
0.123791
0.174374
0.238535
0.290660
0.328708
0.355786
0.369374
0.363675
0.333506
0.302552
0.267734
0.227008
0.170528
0.116452
0.087450
0.040342
0.026872
0.037072
0.050146
0.110202
0.154332
0.194197
0.238150
0.267962
0.306345
0.324994
0.340092
0.342767
0.315018
0.274009
0.226405
0.183428
0.124109
0.081800
0.055367
0.028397
0.012576
0.010073
0.024169
0.056840
0.099236
0.144661
0.201516
0.239738
0.282622
0.298428
0.301535
0.290105
0.273619
0.239900
0.198057
0.143889
0.105088
0.066567
0.032084
-0.000118
-0.009381
-0.006415
0.009395
0.036634
0.084239
0.133843
0.165246
0.200888
0.245077
0.277896
0.290152
0.284337
0.260248
0.226733
0.184956
0.135599
0.088235
0.040807
0.011294
-0.019800
-0.036976
-0.031709
0.009671
0.015099
0.050890
0.108062
0.147947
0.191121
0.227626
0.243746
0.253077
0.254375
0.225274
0.188907
0.145834
0.098457
0.043482
-0.002304
-0.041098
-0.069853
-0.075587
-0.082232
-0.054276
-0.019100
0.020126
0.063197
0.119014
0.145717
0.181426
0.201507
0.208219
0.208135
0.201911
0.175445
0.117425
0.047417
0.007581
-0.035643
-0.072306
-0.086167
-0.093011
-0.086477
-0.061179
-0.019880
0.024111
0.072703
0.111784
0.153152
0.195225
0.228779
0.228511
0.236252
0.233785
0.210691
0.168840
0.110101
0.056405
0.010258
-0.019422
-0.042880
-0.056070
-0.054330
-0.040509
-0.013419
0.030642
0.085582
0.134036
0.177612
0.214038
0.234389
0.241428
0.229176
0.210019
0.179526
0.133070
0.085104
0.036173
-0.007488
-0.038528
-0.052478
-0.062896
-0.067642
-0.039554
-0.006407
0.036776
0.077690
0.125615
0.173173
0.211296
0.227449
0.246779
0.234665
0.202967
0.177955
0.140592
0.082236
0.018280
0.003609
-0.004957
-0.057086
-0.077554
-0.060104
-0.034940
-0.001437
0.042481
0.090848
0.138750
0.173921
0.220856
0.244736
0.256041
0.251247
0.231729
0.200111
0.154687
0.113500
0.066459
0.027015
-0.016266
-0.040886
-0.045661
-0.032469
-0.020313
0.015430
0.068054
0.120009
0.151781
0.179906
0.224534
0.253136
0.248401
0.239945
0.218061
0.191487
0.139117
0.092058
0.045812
0.000331
-0.033698
-0.054316
-0.073506
-0.080115
-0.064189
-0.029721
0.015505
0.066501
0.109027
0.158201
0.203084
0.223419
0.235225
0.230425
0.210560
0.181231
0.125060
0.072911
0.037635
-0.003027
-0.039898
-0.074201
-0.093223
-0.075536
-0.053831
-0.015687
0.027002
0.074410
0.133650
0.170795
0.204881
0.230089
0.245037
0.238913
0.213756
0.187203
0.141211
0.097756
0.052305
-0.001642
-0.027984
-0.056901
-0.065688
-0.056506
-0.034880
-0.002196
0.054886
0.099711
0.131197
0.172523
0.211185
0.242485
0.245572
0.236835
0.213497
0.175843
0.125758
0.073655
0.023907
-0.021523
-0.056685
-0.085165
-0.097818
-0.102245
-0.082887
-0.055163
0.006520
0.050610
0.113712
0.150838
0.178392
0.178687
0.202989
0.183995
0.174866
0.140753
0.100459
0.058054
0.008706
-0.024756
-0.047796
-0.077134
-0.072006
-0.080764
-0.062534
-0.011359
0.048888
0.080288
0.116483
0.163990
0.206029
0.231548
0.239507
0.230396
0.201787
0.168648
0.129616
0.091966
0.061773
0.010620
-0.043575
-0.064039
-0.070174
-0.070627
-0.047153
-0.016893
0.042260
0.088355
0.128789
0.162457
0.197610
0.227905
0.245798
0.239925
0.217963
0.178268
0.131193
0.094030
0.037030
-0.005585
-0.043583
-0.073532
-0.086728
-0.068116
-0.039290
-0.001960
0.047972
0.089753
0.134149
0.172343
0.203869
0.227433
0.249130
0.247041
0.249229
0.217981
0.149735
0.106632
0.052017
0.013121
-0.017400
-0.046508
-0.054774
-0.034678
-0.032353
-0.018379
0.045294
0.122611
0.167295
0.186747
0.245658
0.263077
0.278329
0.287670
0.262040
0.222840
0.201293
0.149008
0.103661
0.052120
0.027229
0.002233
-0.021379
-0.011680
0.007239
0.050316
0.089445
0.122553
0.163243
0.217908
0.240173
0.264055
0.271479
0.261946
0.240113
0.199689
0.150554
0.089580
0.038829
-0.019827
-0.057363
-0.060033
-0.054631
-0.050040
-0.038727
-0.008327
0.031449
0.081244
0.112972
0.148367
0.193836
0.210175
0.230521
0.223970
0.198169
0.169570
0.128944
0.078067
0.016527
-0.032096
-0.084798
-0.106076
-0.118634
-0.104849
-0.069481
-0.032530
0.009831
0.047539
0.100548
0.149095
0.188686
0.212490
0.222710
0.210548
0.185025
0.153472
0.105941
0.039274
0.001609
-0.037688
-0.060752
-0.087470
-0.092459
-0.099262
-0.064254
-0.024576
0.016298
0.067360
0.105654
0.144614
0.188025
0.216956
0.228298
0.215841
0.186357
0.160600
0.118702
0.058944
0.000756
-0.037562
-0.072822
-0.097510
-0.123181
-0.099543
-0.074682
-0.041999
-0.019947
0.025912
0.075959
0.139476
0.181617
0.190310
0.187023
0.192201
0.176739
0.148112
0.095900
0.040146
-0.006071
-0.051962
-0.085413
-0.099539
-0.106663
-0.100472
-0.086437
-0.055965
0.008863
0.059561
0.102646
0.140820
0.174573
0.191885
0.203443
0.205713
0.183039
0.151380
0.114646
0.079154
0.046897
0.021959
-0.004902
-0.012827
-0.009649
0.012356
0.058087
0.109060
0.161373
0.206171
0.283071
0.351749
0.396848
0.438128
0.465686
0.490586
0.507142
0.504709
0.503963
0.483346
0.469017
0.457527
0.443946
0.446348
0.478538
0.537338
0.594617
0.657295
0.740405
0.809577
0.880284
0.933436
0.964556
0.981819
0.986392
0.951762
0.901094
0.847083
0.782168
0.670779
0.539680
0.437704
0.340308
0.270427
0.213268
0.163311
0.148490
0.157689
0.193933
0.218897
0.253761
0.302781
0.329436
0.334860
0.329843
0.309656
0.281095
0.246809
0.208566
0.139696
0.098211
0.047859
0.014281
-0.008305
-0.023700
-0.031304
-0.019506
0.023904
0.072308
0.120804
0.164645
0.213174
0.237702
0.254420
0.259661
0.258883
0.229491
0.191689
0.144975
0.101385
0.043951
-0.013562
-0.059349
-0.080999
-0.080382
-0.082943
-0.070876
-0.032510
0.019065
0.073234
0.106084
0.135463
0.180579
0.219821
0.238500
0.220168
0.196007
0.156736
0.125469
0.093049
0.035245
-0.018811
-0.045595
-0.066993
-0.071629
-0.071589
-0.052575
-0.013480
0.032245
0.093278
0.145138
0.187464
0.213062
0.241480
0.256170
0.235648
0.221513
0.197084
0.158554
0.111672
0.065405
0.026241
-0.007744
-0.038215
-0.045260
-0.046840
-0.017324
0.030008
0.070769
0.109113
0.155378
0.205957
0.245940
0.263060
0.276509
0.276367
0.248632
0.208990
0.173949
0.121309
0.072829
0.010771
-0.020490
-0.042228
-0.046424
-0.043741
-0.023115
0.020042
0.069095
0.116534
0.155169
0.212154
0.259685
0.284564
0.287140
0.283894
0.257055
0.220271
0.172594
0.126609
0.090702
0.048346
0.016800
-0.003164
-0.003791
-0.007455
0.015655
0.071390
0.114265
0.151304
0.191324
0.245036
0.304467
0.325660
0.331922
0.322257
0.294162
0.261517
0.232265
0.182003
0.121361
0.071781
0.053677
0.034268
0.032045
0.049194
0.085182
0.109987
0.148158
0.183696
0.226980
0.302644
0.346988
0.380202
0.383031
0.372835
0.346498
0.308957
0.264097
0.225965
0.174734
0.141453
0.094932
0.058314
0.052467
0.057357
0.081511
0.121084
0.146631
0.196249
0.246751
0.300556
0.336454
0.352467
0.359712
0.341936
0.320293
0.275922
0.227822
0.189668
0.143068
0.092447
0.069408
0.041798
0.031321
0.039993
0.053014
0.092134
0.128357
0.171561
0.214117
0.265268
0.290687
0.318121
0.333701
0.327611
0.297217
0.258848
0.218899
0.178614
0.122640
0.071004
0.045748
0.014072
0.012132
0.016342
0.042767
0.073945
0.119821
0.159991
0.209978
0.249829
0.276167
0.285910
0.288660
0.287086
0.262369
0.221757
0.180890
0.121427
0.087122
0.047453
0.010909
-0.017400
-0.037112
-0.038220
0.000789
0.037065
0.063537
0.102629
0.154930
0.211188
0.230782
0.248418
0.259025
0.249329
0.226917
0.200096
0.139936
0.090275
0.045950
-0.010402
-0.054341
-0.090833
-0.094460
-0.092816
-0.050103
-0.000592
0.056968
0.101531
0.134974
0.176514
0.215868
0.249621
0.249972
0.232925
0.214870
0.170035
0.123542
0.089012
0.065598
0.029051
-0.014762
-0.057018
-0.062946
-0.039765
-0.019888
0.016145
0.043785
0.090789
0.144702
0.184460
0.226128
0.244400
0.253066
0.235897
0.198468
0.181845
0.154357
0.107630
0.044602
-0.007420
-0.055538
-0.057324
-0.016887
-0.004209
-0.001353
0.033292
0.075021
0.130332
0.163984
0.204677
0.237670
0.259525
0.260175
0.238064
0.216118
0.178971
0.149975
0.111111
0.057258
0.009582
-0.029471
-0.066281
-0.074218
-0.051459
-0.022040
-0.000707
0.038800
0.111898
0.161613
0.196303
0.211602
0.236240
0.259174
0.248250
0.219358
0.199641
0.159095
0.111874
0.065891
0.016346
-0.007917
-0.036772
-0.033102
-0.027594
0.001361
0.028464
0.067930
0.108214
0.152543
0.211985
0.243041
0.261719
0.268804
0.267769
0.236650
0.205245
0.167104
0.127430
0.076828
0.031136
-0.005734
-0.030930
-0.043229
-0.020254
-0.001982
0.023775
0.048234
0.091340
0.135980
0.199457
0.233812
0.270667
0.292618
0.289252
0.233829
0.191512
0.144749
0.097321
0.053651
0.005488
-0.008816
-0.026881
-0.026875
-0.043665
-0.028512
0.000940
0.051333
0.091396
0.149015
0.205693
0.235281
0.247069
0.261469
0.253137
0.222239
0.181557
0.137708
0.095330
0.047602
0.015328
-0.020814
-0.041227
-0.051135
-0.036454
-0.028276
0.004819
0.047083
0.107848
0.155037
0.196215
0.232760
0.263583
0.279786
0.266673
0.228970
0.185700
0.148601
0.092468
0.066829
0.008526
-0.022633
-0.049911
-0.046090
-0.053617
-0.068996
-0.004205
0.085292
0.118003
0.157822
0.190001
0.238378
0.255909
0.251734
0.245079
0.225882
0.198843
0.147078
0.089223
0.028754
-0.013401
-0.051071
-0.079928
-0.082441
-0.081369
-0.059441
-0.018043
0.027665
0.073155
0.118173
0.164916
0.199637
0.223937
0.235688
0.227399
0.211930
0.180053
0.131202
0.097395
0.046404
0.004079
-0.038063
-0.050477
-0.066901
-0.054980
-0.023433
0.013882
0.036652
0.086082
0.136367
0.180752
0.219985
0.247870
0.254432
0.244544
0.229063
0.182909
0.128683
0.091548
0.058205
0.014871
-0.029452
-0.056535
-0.060012
-0.046868
-0.013678
0.011448
0.048571
0.103646
0.150340
0.185271
0.225515
0.252468
0.258234
0.249386
0.207812
0.169413
0.140639
0.078381
0.033120
-0.010429
-0.050794
-0.062902
-0.067537
-0.056173
-0.038315
-0.001050
0.038863
0.088514
0.140411
0.195649
0.235165
0.242471
0.244101
0.248248
0.234885
0.194514
0.146194
0.115904
0.062332
0.009823
-0.005891
-0.017015
-0.039204
-0.041864
-0.001381
0.047802
0.093696
0.136237
0.165843
0.205723
0.236662
0.288386
0.292590
0.290333
0.251370
0.222636
0.178387
0.131858
0.087612
0.039405
-0.000215
0.001519
0.006472
0.018290
0.042735
0.067241
0.103016
0.156267
0.210364
0.253942
0.289822
0.323406
0.334873
0.315902
0.278804
0.255069
0.208570
0.135869
0.082664
0.029751
-0.011831
-0.037362
-0.049665
-0.039070
0.002028
0.036968
0.070715
0.117464
0.156413
0.195991
0.245196
0.267188
0.256322
0.251102
0.229494
0.188589
0.143241
0.095923
0.046273
-0.006746
-0.052649
-0.064092
-0.084861
-0.083850
-0.063418
-0.028013
0.006048
0.065002
0.115051
0.146487
0.188814
0.222363
0.236036
0.234017
0.204094
0.173756
0.131036
0.054691
0.009672
-0.029169
-0.058354
-0.077913
-0.083401
-0.075793
-0.051614
-0.018083
0.027542
0.090746
0.130067
0.174309
0.220180
0.237638
0.232176
0.222007
0.210297
0.172278
0.121037
0.081879
0.034156
-0.002835
-0.053428
-0.072561
-0.076904
-0.081621
-0.057977
-0.024945
0.009871
0.061137
0.112262
0.159248
0.187042
0.209904
0.231353
0.217371
0.189763
0.157520
0.107127
0.047676
0.005396
-0.032436
-0.073329
-0.094296
-0.102494
-0.115145
-0.082434
-0.030759
0.014375
0.065507
0.114181
0.154670
0.185405
0.197451
0.210211
0.216430
0.181799
0.151297
0.109124
0.066226
0.018883
-0.020200
-0.065824
-0.081203
-0.084217
-0.071320
-0.041908
0.003144
0.053598
0.124856
0.179777
0.223881
0.265228
0.304820
0.337900
0.339721
0.326257
0.315276
0.282723
0.237579
0.217096
0.203333
0.195370
0.186514
0.206294
0.252836
0.310285
0.382138
0.459586
0.533904
0.604569
0.674047
0.739295
0.792605
0.847634
0.890214
0.909015
0.892393
0.866952
0.845099
0.786799
0.730269
0.709979
0.681686
0.657690
0.635738
0.631703
0.622327
0.592844
0.571149
0.569236
0.559477
0.559670
0.526860
0.472271
0.427637
0.363316
0.307536
0.255137
0.199930
0.151680
0.091211
0.040622
0.020761
0.034523
0.043619
0.046931
0.064085
0.110657
0.152738
0.191851
0.235732
0.273175
0.299107
0.294204
0.281670
0.244706
0.201228
0.176848
0.129363
0.086572
0.032975
-0.010402
-0.041062
-0.070109
-0.057985
-0.066564
-0.066358
-0.029906
0.073309
0.169973
0.236447
0.252589
0.236295
0.233619
0.235647
0.206200
0.180555
0.146660
0.105458
0.065918
0.016223
-0.031980
-0.075005
-0.093437
-0.092481
-0.045351
0.006719
0.061392
0.098806
0.160657
0.199592
0.222675
0.230839
0.242378
0.232228
0.184917
0.153342
0.114741
0.060675
0.030729
-0.013225
-0.020733
-0.037477
-0.043218
-0.035923
-0.022684
0.022182
0.065694
0.119967
0.163531
0.215383
0.263097
0.281571
0.266985
0.242722
0.235742
0.207489
0.130854
0.106364
0.085473
0.002595
-0.012330
0.002146
0.002727
-0.022064
-0.019518
0.026709
0.098905
0.153563
0.209032
0.262081
0.286339
0.292825
0.303436
0.287531
0.262415
0.228288
0.184502
0.135495
0.087774
0.043093
0.013416
-0.010587
-0.011132
-0.001599
0.025728
0.061659
0.098910
0.142324
0.187696
0.240181
0.280886
0.315656
0.318946
0.300069
0.273943
0.243733
0.204587
0.171768
0.113371
0.074859
0.042144
0.014656
0.011253
0.035053
0.067713
0.096691
0.154890
0.199005
0.236100
0.258911
0.297386
0.337091
0.358427
0.338035
0.325556
0.295995
0.262364
0.223254
0.179623
0.138007
0.095716
0.056899
0.056821
0.071444
0.105330
0.137788
0.177031
0.215150
0.266108
0.322889
0.380859
0.387483
0.393549
0.382571
0.356718
0.317844
0.268569
0.225077
0.173828
0.126949
0.088864
0.056524
0.060513
0.070593
0.080884
0.107994
0.115217
0.138201
0.205885
0.295842
0.361652
0.364458
0.350895
0.333720
0.313409
0.278230
0.226372
0.180760
0.135915
0.084336
0.057126
0.033459
0.024528
0.025264
0.047783
0.082168
0.142759
0.184104
0.228735
0.265037
0.291043
0.319737
0.338833
0.307654
0.294265
0.256356
0.219141
0.161184
0.110073
0.063396
0.027137
0.004862
-0.008325
0.012026
0.027729
0.055057
0.103459
0.141739
0.177831
0.212879
0.253391
0.307930
0.324098
0.298518
0.269620
0.235129
0.189957
0.121493
0.061645
0.011077
-0.041881
-0.030285
-0.027021
-0.022186
-0.004621
0.012747
0.032674
0.094290
0.150672
0.171393
0.180102
0.228362
0.265681
0.236205
0.201961
0.145606
0.121960
0.066951
0.040011
-0.026455
-0.064127
-0.026822
-0.014710
-0.035230
-0.027530
-0.000882
0.049052
0.124615
0.162333
0.194538
0.201087
0.238002
0.274731
0.266444
0.202273
0.146871
0.137461
0.126097
0.098198
0.049597
-0.008412
-0.020813
-0.026341
-0.014082
0.006212
0.035519
0.081918
0.119675
0.180970
0.224933
0.249093
0.278299
0.280286
0.261774
0.243924
0.207698
0.164770
0.117778
0.070973
0.023262
-0.000805
-0.030084
-0.034604
-0.021328
0.002413
0.026938
0.077489
0.115190
0.157092
0.177848
0.210978
0.243428
0.266337
0.265527
0.247364
0.206483
0.161324
0.117838
0.065963
0.002562
-0.036069
-0.055482
-0.054653
-0.041308
-0.014243
0.025469
0.060633
0.120611
0.163722
0.214077
0.248278
0.268298
0.261396
0.256871
0.237095
0.193178
0.156663
0.121772
0.078202
0.035275
-0.012916
-0.053917
-0.063577
-0.054333
-0.015324
0.041481
0.088274
0.133818
0.177147
0.219012
0.258171
0.274833
0.284460
0.274163
0.254706
0.212266
0.170730
0.118722
0.065198
0.028565
-0.013198
-0.043406
-0.041563
-0.031580
0.007051
0.033369
0.072978
0.118537
0.155023
0.190610
0.227035
0.251113
0.265707
0.249957
0.218498
0.193585
0.149117
0.084571
0.035214
-0.011743
-0.038983
-0.058133
-0.070540
-0.060139
-0.040704
-0.009797
0.042664
0.084684
0.137503
0.179124
0.207890
0.245340
0.259321
0.251058
0.229269
0.197453
0.157656
0.105285
0.052782
0.002964
-0.039789
-0.059456
-0.063787
-0.045537
-0.032817
0.012463
0.051534
0.106574
0.142374
0.195360
0.249081
0.278126
0.277007
0.266608
0.241764
0.190921
0.137150
0.106624
0.044892
0.025965
-0.007330
-0.033408
-0.051377
-0.063396
-0.036922
-0.000828
0.059159
0.111034
0.141646
0.171235
0.202519
0.211863
0.226579
0.242261
0.231783
0.198249
0.134677
0.076438
0.025469
-0.019016
-0.066250
-0.088230
-0.094153
-0.087091
-0.034280
0.015193
0.042575
0.067581
0.127225
0.166880
0.225013
0.235481
0.238378
0.225174
0.195877
0.169866
0.124229
0.075121
0.018249
-0.030222
-0.061786
-0.060474
-0.064986
-0.051588
-0.028317
0.004540
0.043543
0.091916
0.146543
0.190044
0.210961
0.237009
0.245797
0.240131
0.232094
0.191954
0.162729
0.126240
0.082910
0.023904
-0.007760
-0.032780
-0.028438
-0.026520
0.002659
0.036838
0.087466
0.136142
0.192551
0.227014
0.265334
0.276411
0.276674
0.271554
0.247861
0.217836
0.170365
0.106187
0.052761
0.026345
-0.012117
-0.033679
-0.041308
-0.043574
-0.029605
0.018741
0.066863
0.109370
0.164564
0.217511
0.246799
0.278430
0.283824
0.276316
0.260979
0.225654
0.182670
0.135127
0.078261
0.034470
0.004789
-0.029828
-0.028866
-0.031945
-0.006502
0.036834
0.088137
0.142725
0.177300
0.225134
0.240163
0.260183
0.270298
0.270964
0.236768
0.207237
0.158194
0.109799
0.063745
0.015333
-0.017998
-0.050595
-0.066837
-0.053503
-0.028321
0.015981
0.049787
0.094867
0.139465
0.181192
0.215155
0.245111
0.241364
0.224030
0.200105
0.173310
0.117825
0.060280
0.015858
-0.029017
-0.075378
-0.094100
-0.088365
-0.077493
-0.058454
-0.032138
0.017656
0.065165
0.106877
0.140938
0.168758
0.198157
0.202069
0.201357
0.174974
0.142745
0.089585
0.038815
-0.009669
-0.045011
-0.087333
-0.109438
-0.106602
-0.106352
-0.075359
-0.037535
0.009685
0.068404
0.118853
0.156153
0.188248
0.204708
0.210953
0.200387
0.168068
0.153114
0.116087
0.063213
0.005930
-0.031018
-0.074792
-0.093973
-0.093793
-0.082720
-0.063114
-0.020824
0.028668
0.078069
0.126061
0.161641
0.194278
0.206882
0.212292
0.197055
0.176632
0.159288
0.091480
0.042270
-0.001397
-0.066411
-0.104568
-0.087301
-0.070068
-0.087018
-0.073823
-0.035999
0.007086
0.059967
0.096259
0.136640
0.184287
0.202002
0.218288
0.216750
0.200404
0.176062
0.147850
0.104744
0.076874
0.045334
0.032050
0.015026
0.032450
0.043556
0.081943
0.135307
0.201871
0.272420
0.347366
0.407158
0.469869
0.535585
0.588799
0.614009
0.611919
0.602323
0.582722
0.553701
0.540977
0.543025
0.554779
0.567823
0.610317
0.643914
0.680661
0.726936
0.778108
0.812869
0.857036
0.889853
0.900944
0.884577
0.842486
0.779469
0.698325
0.605852
0.493208
0.379751
0.292124
0.208712
0.123485
0.058303
0.034490
0.027198
0.047105
0.058125
0.098330
0.154810
0.199426
0.232941
0.247419
0.258460
0.262219
0.253071
0.229321
0.196618
0.152397
0.090378
0.040690
0.013959
-0.039935
-0.069139
-0.085551
-0.069281
-0.044195
-0.007373
0.047343
0.102908
0.127070
0.164670
0.201018
0.223843
0.215493
0.207185
0.196913
0.165292
0.120491
0.075744
0.008078
-0.036212
-0.060468
-0.065079
-0.053655
-0.047008
-0.045023
-0.020979
0.024310
0.075398
0.130109
0.182998
0.218058
0.249178
0.252405
0.246651
0.221582
0.177053
0.133821
0.086733
0.037309
-0.013225
-0.053831
-0.087886
-0.097342
-0.071213
-0.039931
-0.006805
0.038680
0.090111
0.140146
0.173365
0.201100
0.235192
0.231878
0.211507
0.197820
0.161213
0.117370
0.069118
0.025585
-0.017637
-0.049823
-0.068774
-0.078666
-0.067278
-0.047330
-0.003910
0.024871
0.069172
0.115655
0.165488
0.216190
0.240318
0.246048
0.237473
0.213082
0.186095
0.141695
0.089149
0.048288
0.006281
-0.025953
-0.039418
-0.040560
-0.025072
-0.000774
0.025779
0.069911
0.126768
0.175721
0.221535
0.252187
0.276998
0.294464
0.295482
0.268968
0.233891
0.185061
0.129736
0.079534
0.049487
0.029050
0.001429
0.003970
0.006424
0.031827
0.072873
0.111303
0.159701
0.205735
0.252523
0.283005
0.297237
0.299352
0.297274
0.279099
0.243379
0.206434
0.157445
0.109145
0.059247
0.027837
0.012320
0.008065
0.014725
0.031354
0.073590
0.123265
0.172622
0.219964
0.266563
0.301143
0.314717
0.324660
0.314053
0.291785
0.263901
0.219642
0.167638
0.121116
0.087868
0.051242
0.035037
0.021777
0.030900
0.044555
0.083156
0.130436
0.184108
0.240864
0.276532
0.304890
0.319245
0.324745
0.316907
0.296625
0.273431
0.230312
0.180786
0.134745
0.083038
0.044929
0.022870
0.009745
0.015129
0.039025
0.067574
0.113321
0.165967
0.200404
0.242792
0.279857
0.283384
0.295301
0.290969
0.260937
0.222590
0.172483
0.111079
0.060253
0.017448
-0.012131
-0.024605
-0.045801
-0.047458
-0.022422
0.008935
0.062145
0.105028
0.149351
0.182810
0.213017
0.227370
0.243472
0.233063
0.210181
0.169280
0.124585
0.071851
0.014914
-0.031170
-0.065199
-0.082342
-0.082439
-0.062146
-0.040083
-0.004613
0.030306
0.081252
0.133518
0.168440
0.198223
0.215031
0.215239
0.211477
0.174190
0.157529
0.112105
0.073725
0.010793
-0.027140
-0.051057
-0.072473
-0.081564
-0.067873
-0.050560
-0.011995
0.024148
0.062905
0.117091
0.146890
0.184968
0.203641
0.205532
0.195518
0.164921
0.133087
0.088754
0.035431
-0.015758
-0.054737
-0.086938
-0.109774
-0.107510
-0.103666
-0.085864
-0.054291
-0.011048
0.043012
0.082376
0.124040
0.161750
0.187772
0.184878
0.175924
0.146329
0.117825
0.071549
0.021470
-0.017751
-0.056625
-0.090799
-0.114878
-0.136228
-0.118571
-0.092755
-0.059402
-0.012373
0.039098
0.098863
0.149502
0.180003
0.194124
0.200016
0.186482
0.162716
0.129601
0.099486
0.050993
0.014390
-0.022471
-0.049944
-0.071538
-0.077386
-0.075006
-0.054350
-0.007125
0.035447
0.091411
0.119145
0.159467
0.186536
0.208180
0.216165
0.207274
0.177111
0.137389
0.097627
0.031151
-0.019934
-0.049509
-0.072654
-0.093146
-0.093988
-0.091258
-0.070126
-0.033083
0.016361
0.071700
0.099710
0.132392
0.154058
0.172810
0.182185
0.178932
0.155650
0.127593
0.074334
0.020182
-0.019750
-0.075760
-0.096518
-0.107821
-0.116371
-0.116641
-0.087364
-0.054219
-0.007893
0.046744
0.092119
0.131878
0.156346
0.176254
0.184593
0.173521
0.148032
0.110018
0.064698
0.017781
-0.019226
-0.059452
-0.088552
-0.107253
-0.119051
-0.111935
-0.096917
-0.052018
-0.007682
0.050689
0.094035
0.139289
0.171495
0.194402
0.203222
0.196102
0.163310
0.131414
0.080938
0.035906
-0.010097
-0.051361
-0.086682
-0.102122
-0.104592
-0.096296
-0.083447
-0.042929
-0.003883
0.047214
0.082126
0.125829
0.157262
0.177567
0.186209
0.170387
0.139185
0.103026
0.062155
0.006432
-0.050555
-0.091340
-0.123722
-0.138635
-0.134934
-0.129835
-0.120892
-0.084579
-0.029302
0.020451
0.061787
0.091857
0.130025
0.149879
0.153611
0.143155
0.126615
0.090386
0.049815
0.006709
-0.038771
-0.089212
-0.114465
-0.131294
-0.139586
-0.133745
-0.106933
-0.076583
-0.031681
0.030195
0.087075
0.122975
0.141028
0.152734
0.172906
0.168861
0.146597
0.115314
0.071654
0.026208
-0.022993
-0.069925
-0.095630
-0.108932
-0.116219
-0.116714
-0.093700
-0.047119
-0.007139
0.037213
0.095636
0.141195
0.170592
0.186334
0.181701
0.172789
0.142776
0.116507
0.077844
0.037690
-0.006409
-0.058876
-0.092407
-0.114821
-0.128620
-0.123666
-0.098322
-0.058112
-0.006838
0.032624
0.077652
0.113873
0.154531
0.176315
0.176046
0.167156
0.152964
0.109990
0.081519
0.019780
-0.020205
-0.057188
-0.085060
-0.096563
-0.092341
-0.085255
-0.055866
-0.021142
0.033328
0.075052
0.120299
0.157713
0.194486
0.214506
0.228980
0.221411
0.194516
0.153968
0.112062
0.059785
0.008527
-0.034862
-0.062165
-0.091006
-0.112171
-0.106123
-0.074465
-0.042992
0.005913
0.047804
0.104027
0.136347
0.150645
0.173104
0.167394
0.158333
0.143512
0.116110
0.053289
0.004952
-0.040988
-0.088694
-0.118765
-0.143866
-0.155115
-0.151725
-0.130055
-0.090400
-0.034185
0.006494
0.046566
0.087842
0.108924
0.117542
0.120581
0.114314
0.084558
0.051223
0.011008
-0.034687
-0.091267
-0.138482
-0.171819
-0.199167
-0.197534
-0.186771
-0.154414
-0.119265
-0.080959
-0.024769
0.020371
0.072125
0.103590
0.120694
0.124499
0.112077
0.073637
0.055251
0.013023
-0.024577
-0.060644
-0.107937
-0.137789
-0.144460
-0.153456
-0.161144
-0.139582
-0.100859
-0.048736
0.004619
0.055439
0.100789
0.115381
0.135801
0.136170
0.128851
0.106610
0.065936
0.010247
-0.037674
-0.075854
-0.122927
-0.162983
-0.180116
-0.186793
-0.181087
-0.158471
-0.121882
-0.084964
-0.034402
0.017531
0.064514
0.092765
0.107469
0.113543
0.096668
0.063759
0.030298
-0.016651
-0.049835
-0.099943
-0.145125
-0.169815
-0.183723
-0.177260
-0.171390
-0.139296
-0.087311
-0.022931
0.037465
0.080193
0.147146
0.196310
0.232115
0.256081
0.255225
0.245170
0.222531
0.199529
0.178144
0.163946
0.153624
0.157140
0.168399
0.195054
0.230460
0.283750
0.357740
0.449891
0.507367
0.585122
0.659958
0.726589
0.788844
0.832435
0.862489
0.868556
0.845932
0.803203
0.753060
0.706947
0.640009
0.590306
0.541031
0.491603
0.466160
0.422165
0.389333
0.372066
0.352373
0.353707
0.350340
0.325834
0.308415
0.292938
0.258279
0.207991
0.175409
0.117077
0.060244
-0.000042
-0.041200
-0.080433
-0.094206
-0.089913
-0.101074
-0.097846
-0.064979
0.003250
0.038634
0.074109
0.115521
0.139911
0.147886
0.152945
0.133857
0.114677
0.089528
0.044720
-0.004902
-0.053903
-0.113797
-0.141330
-0.142375
-0.146752
-0.137260
-0.109013
-0.080841
-0.034189
0.004170
0.046923
0.093750
0.132409
0.155513
0.152877
0.142600
0.114357
0.086715
0.036211
0.005158
-0.048955
-0.095682
-0.123946
-0.141410
-0.136484
-0.130143
-0.116024
-0.084025
-0.046003
-0.004904
0.047433
0.096001
0.130611
0.139404
0.143800
0.119432
0.107032
0.064591
0.016898
-0.021058
-0.051945
-0.094026
-0.134632
-0.161949
-0.171648
-0.159342
-0.138679
-0.102876
-0.055345
-0.001279
0.039998
0.079425
0.113749
0.141987
0.150012
0.135745
0.119262
0.096064
0.030803
-0.034558
-0.078129
-0.108757
-0.132401
-0.138700
-0.155206
-0.139350
-0.114628
-0.065126
-0.015462
0.031865
0.077070
0.116385
0.145362
0.154431
0.160646
0.165482
0.152569
0.115741
0.080239
0.032166
-0.016312
-0.051570
-0.083555
-0.095166
-0.091407
-0.084336
-0.057630
-0.006678
0.027213
0.068059
0.109895
0.148363
0.188237
0.211022
0.213916
0.198633
0.170782
0.136707
0.095417
0.053588
0.007096
-0.028861
-0.047214
-0.077468
-0.094796
-0.102411
-0.069285
-0.026238
0.035616
0.078816
0.117254
0.162231
0.196925
0.221625
0.209508
0.206134
0.206506
0.167682
0.098511
0.051059
0.045004
-0.001170
-0.037088
-0.059600
-0.068896
-0.044693
-0.019862
0.011207
0.056200
0.104486
0.151869
0.206554
0.239972
0.248562
0.257822
0.246541
0.209707
0.169515
0.118902
0.098368
0.051448
-0.001763
-0.043383
-0.046650
-0.038167
-0.049900
-0.033178
0.003240
0.055288
0.100484
0.159033
0.175855
0.234239
0.244789
0.236623
0.221537
0.199202
0.180911
0.130268
0.090471
0.043917
-0.033090
-0.082559
-0.079049
-0.101233
-0.116863
-0.094377
-0.056467
0.011456
0.050948
0.089435
0.125932
0.167020
0.192773
0.190865
0.188462
0.160457
0.123384
0.083847
0.016903
-0.026400
-0.069264
-0.099656
-0.118363
-0.124184
-0.114420
-0.095054
-0.068376
-0.036105
0.027995
0.055818
0.094506
0.121437
0.129356
0.154359
0.132923
0.124014
0.093690
0.046449
-0.010125
-0.074960
-0.145107
-0.143724
-0.159260
-0.139830
-0.128596
-0.111548
-0.074243
-0.037099
0.011117
0.045521
0.087697
0.127455
0.153219
0.144384
0.126104
0.101005
0.064589
0.023897
-0.028139
-0.079781
-0.106178
-0.141661
-0.163618
-0.168851
-0.147724
-0.117184
-0.089487
-0.053896
-0.003780
0.036106
0.052410
0.079461
0.109822
0.139949
0.127944
0.093658
0.024868
-0.042145
-0.056539
-0.084408
-0.124711
-0.157014
-0.192316
-0.189826
-0.184881
-0.160666
-0.125126
-0.070657
-0.010592
0.026301
0.058200
0.111131
0.133501
0.133199
0.121146
0.089054
0.028027
-0.023365
-0.049344
-0.071068
-0.086549
-0.141642
-0.167807
-0.174217
-0.179819
-0.143251
-0.103163
-0.056855
-0.013252
0.037391
0.069909
0.110475
0.141235
0.136029
0.126230
0.098180
0.058961
0.009136
-0.034073
-0.071464
-0.107844
-0.140227
-0.162254
-0.174544
-0.162338
-0.140391
-0.091461
-0.044744
-0.004260
0.023197
0.073831
0.090358
0.061821
0.098441
0.107814
0.100127
0.078129
0.022934
-0.032040
-0.085260
-0.128490
-0.153495
-0.172317
-0.174467
-0.160444
-0.143951
-0.105338
-0.072434
-0.018715
0.028838
0.069985
0.091173
0.105970
0.099563
0.084943
0.072312
0.046760
0.017517
-0.023411
-0.075211
-0.120807
-0.153379
-0.173889
-0.180540
-0.165288
-0.141616
-0.107445
-0.062361
-0.010417
0.030406
0.044886
0.091792
0.135697
0.144155
0.131122
0.099780
0.034298
-0.025556
-0.071408
-0.102477
-0.142449
-0.152567
-0.164845
-0.168283
-0.168553
-0.157154
-0.118051
-0.067868
-0.019764
0.022856
0.061340
0.086507
0.111771
0.120611
0.112803
0.082877
0.032276
-0.019265
-0.070874
-0.116709
-0.143289
-0.171134
-0.202091
-0.210204
-0.186164
-0.166702
-0.131542
-0.101746
-0.056733
0.003081
0.036721
0.066820
0.090607
0.090631
0.087549
0.079154
0.051447
0.012967
-0.108309
-0.207493
-0.224150
-0.208882
-0.202243
-0.211874
-0.206188
-0.173752
-0.126992
-0.070826
-0.021735
0.004682
0.061874
0.094739
0.102857
0.078871
0.091838
0.113551
0.073282
0.011016
-0.061725
-0.093845
-0.116098
-0.143392
-0.166251
-0.166599
-0.151453
-0.126397
-0.103776
-0.055089
-0.005198
0.038522
0.083269
0.116531
0.139322
0.135398
0.124136
0.104734
0.066276
0.034936
-0.030032
-0.085410
-0.140151
-0.169696
-0.186697
-0.145110
-0.099714
-0.112144
-0.127949
-0.093730
-0.024582
0.008654
0.043132
0.077113
0.090424
0.104179
0.086685
0.064214
0.014327
0.005228
0.019132
-0.031725
-0.067708
-0.120075
-0.130267
-0.086303
-0.104047
-0.118287
-0.056815
-0.012992
0.047165
0.093352
0.116173
0.113131
0.120488
0.129667
0.150477
0.154354
0.144355
0.090892
0.022154
-0.045293
-0.061297
-0.087921
-0.148293
-0.150920
-0.105878
-0.080310
-0.045387
-0.057596
-0.036667
0.008649
0.066357
0.105434
0.149428
0.165541
0.170155
0.128773
0.076417
0.023707
-0.007422
-0.034696
-0.119070
-0.162695
-0.187079
-0.182475
-0.174037
-0.125394
-0.112782
-0.077298
-0.047731
0.024428
0.067806
0.111003
0.124725
0.123041
0.095931
0.043142
-0.015726
-0.085042
-0.148572
-0.188352
-0.188831
-0.188761
-0.165652
-0.133964
-0.140015
-0.111777
-0.089343
-0.148056
-0.072241
0.013234
0.031454
0.002677
0.088235
0.189288
0.133034
0.054968
0.001061
-0.016662
-0.052995
-0.067357
-0.073456
-0.100829
-0.148056
-0.184399
-0.203808
-0.136074
-0.122538
-0.123112
-0.069694
0.009771
0.060317
0.091227
0.134301
0.146671
0.123088
0.073882
0.029119
-0.001673
-0.046206
-0.073052
-0.103894
-0.133846
-0.175354
-0.187053
-0.190422
-0.165618
-0.120918
-0.066496
-0.067688
-0.018919
0.040919
0.073246
0.099220
0.098474
0.094677
0.043654
-0.017498
-0.080210
-0.128315
-0.168385
-0.156471
-0.177269
-0.134444
-0.144161
-0.153478
-0.121048
-0.060362
0.003002
0.075431
0.123472
0.181663
0.222866
0.239318
0.250443
0.236601
0.263895
0.285142
0.297058
0.275849
0.245113
0.232591
0.233484
0.245553
0.295019
0.302872
0.354573
0.455002
0.513679
0.604158
0.686245
0.751921
0.808215
0.884463
0.956071
1.002134
0.921420
0.860024
0.796344
0.713129
0.659985
0.601591
0.509758
0.455611
0.371173
0.289867
0.268416
0.272239
0.248132
0.270244
0.227737
0.200031
0.234846
0.230466
0.253220
0.282184
0.246130
0.217602
0.159905
0.109487
0.039179
-0.028435
-0.113896
-0.126453
-0.109499
-0.095421
-0.075801
-0.039522
0.006343
0.057532
0.100467
0.143704
0.160305
0.190679
0.170228
0.142645
0.128239
0.070410
0.021208
-0.025602
-0.070060
-0.084511
-0.091785
-0.132251
-0.124252
-0.129906
-0.113616
-0.053859
0.006547
0.019794
0.018737
0.044553
0.120002
0.161157
0.177122
0.150631
0.105781
0.093815
0.083436
-0.005522
-0.058066
-0.091963
-0.126222
-0.159905
-0.184737
-0.187329
-0.145809
-0.067620
-0.000966
0.025659
0.050927
0.128834
0.164237
0.149119
0.146464
0.152646
0.120208
0.093419
0.089023
0.068640
-0.013995
-0.143415
-0.219674
-0.197393
-0.153163
-0.080145
-0.097788
-0.112856
-0.017915
0.017448
0.078930
0.129798
0.164972
0.191089
0.176584
0.167784
0.144532
0.101396
0.044647
0.012051
0.003497
-0.041751
-0.121199
-0.147367
-0.164728
-0.121824
-0.074784
-0.019264
0.036441
0.067742
0.102354
0.127911
0.178137
0.205933
0.231144
0.236623
0.174068
0.132781
0.097328
0.088506
0.029005
-0.027583
-0.083147
-0.104906
-0.114636
-0.109634
-0.089209
-0.023775
0.046166
0.077682
0.126773
0.161621
0.202781
0.215463
0.202169
0.185212
0.164677
0.121311
0.106041
0.111332
0.132037
0.019980
-0.065019
-0.060350
-0.021785
-0.019945
-0.005509
0.004167
0.072410
0.102885
0.137927
0.161210
0.215820
0.265056
0.252376
0.250933
0.262572
0.218073
0.159032
0.113837
0.063371
0.028155
-0.021649
-0.049779
-0.058798
-0.041792
-0.003761
0.057907
0.084252
0.143211
0.169864
0.183047
0.197361
0.248382
0.276838
0.278943
0.212286
0.212453
0.212409
0.132165
0.019384
-0.042268
-0.061671
-0.067775
-0.029159
0.009520
0.019350
0.037252
0.102624
0.138439
0.161983
0.225054
0.246819
0.219205
0.216142
0.215388
0.183505
0.136521
0.070308
0.051740
0.029584
-0.016091
-0.027745
-0.041584
-0.037740
-0.052627
-0.046432
-0.017103
0.000413
0.035927
0.094499
0.172934
0.172493
0.160601
0.217735
0.199395
0.159944
0.115924
0.077004
0.013159
-0.006565
-0.008340
-0.080861
-0.107029
-0.104022
-0.093922
-0.063010
-0.035600
-0.002584
0.049003
0.103750
0.118657
0.140642
0.178620
0.176417
0.147573
0.127690
0.051490
0.034719
0.024754
-0.020790
-0.089955
-0.106137
-0.161856
-0.140704
-0.138646
-0.109755
-0.076382
-0.027568
0.009222
0.072422
0.076358
0.136889
0.161206
0.156017
0.147284
0.157866
0.145750
0.054613
-0.074492
-0.125200
-0.134882
-0.160394
-0.148966
-0.137485
-0.146390
-0.187289
-0.158122
-0.043698
0.028981
0.049229
0.052473
0.093291
0.117356
0.148876
0.134641
0.082383
0.059846
0.040896
0.036499
0.006764
-0.073098
-0.123719
-0.188972
-0.211001
-0.143710
-0.084003
-0.057719
-0.004489
0.057681
0.067872
0.088511
0.124770
0.177637
0.196721
0.137159
0.074089
0.048377
0.013786
0.015704
-0.005234
-0.075636
-0.155414
-0.176912
-0.138369
-0.116463
-0.095912
-0.044102
-0.040182
0.026053
0.049117
0.073690
0.119304
0.132421
0.125607
0.124210
0.114311
0.062876
0.015758
-0.007309
-0.050782
-0.061830
-0.128633
-0.177397
-0.195798
-0.152637
-0.107743
-0.096043
-0.048236
0.019271
0.069355
0.146661
0.163310
0.168543
0.107508
0.059414
0.114243
0.079177
0.025357
-0.002818
-0.026980
-0.068802
-0.120774
-0.148628
-0.130460
-0.143456
-0.127795
-0.089940
-0.022974
0.000059
0.039861
0.107230
0.146816
0.153920
0.154211
0.140773
0.119587
0.085070
0.056165
0.033067
-0.025303
-0.103170
-0.122653
-0.150649
-0.147027
-0.130212
-0.121847
-0.059371
0.007360
0.066544
0.061297
-0.013796
0.003292
0.067506
0.114237
0.130296
0.142385
0.081830
0.016342
-0.024327
-0.073027
-0.099855
-0.113846
-0.187051
-0.185150
-0.139271
-0.137688
-0.123679
-0.092094
-0.029130
0.064213
0.094691
0.106487
0.099813
0.084992
0.069359
0.073317
0.055476
0.015069
-0.023315
-0.073790
-0.125209
-0.137983
-0.166489
-0.180782
-0.159297
-0.128050
-0.087696
-0.045722
-0.016418
0.024896
0.088045
0.107645
0.131972
0.139323
0.126628
0.096481
0.045025
0.017419
-0.014634
-0.042389
-0.113755
-0.155934
-0.193960
-0.194747
-0.176354
-0.132336
-0.100054
-0.068250
-0.023339
0.026903
0.072595
0.098843
0.104330
0.124953
0.123977
0.105521
0.061416
-0.002476
-0.057656
-0.099107
-0.131203
-0.163577
-0.164386
-0.162459
-0.149867
-0.141471
-0.128100
-0.111426
-0.061014
0.006105
0.037337
0.085478
0.130546
0.136746
0.123386
0.088052
0.039367
0.007535
-0.018815
-0.067459
-0.099844
-0.120119
-0.161883
-0.169031
-0.166720
-0.149301
-0.098664
-0.050781
0.004173
0.060205
0.101202
0.146285
0.154794
0.163049
0.141768
0.130280
0.098926
0.050769
0.019259
-0.025865
-0.078049
-0.104676
-0.116918
-0.108875
-0.081079
-0.069974
-0.066400
-0.069149
-0.020684
0.037225
0.089321
0.110556
0.138342
0.146472
0.144409
0.121723
0.095696
0.051095
0.010458
-0.040414
-0.078529
-0.097613
-0.113060
-0.139022
-0.119537
-0.117140
-0.074598
-0.027096
0.027117
0.063474
0.095605
0.109648
0.155134
0.173159
0.138573
0.097090
0.065932
0.000982
-0.046867
-0.081017
-0.126024
-0.148139
-0.142073
-0.168113
-0.176048
-0.141769
-0.088091
-0.055328
0.013897
0.072140
0.091625
0.101750
0.094688
0.122828
0.124178
0.105452
0.063194
0.015921
-0.036014
-0.062371
-0.089730
-0.117555
-0.148764
-0.172293
-0.167403
-0.148830
-0.117389
-0.068835
-0.013662
0.016254
0.045787
0.070062
0.097213
0.118771
0.091165
0.083271
0.052715
0.009086
-0.050221
-0.121792
-0.157300
-0.163280
-0.197330
-0.216508
-0.200110
-0.167284
-0.136225
-0.102339
-0.068707
-0.013172
0.025173
0.069068
0.094389
0.098213
0.073069
0.043689
0.017028
-0.027495
-0.068616
-0.119566
-0.159661
-0.186753
-0.216087
-0.208195
-0.172891
-0.165813
-0.149599
-0.124733
-0.083620
-0.016650
0.030919
0.070443
0.078061
0.091811
0.073568
0.045588
0.024166
-0.016082
-0.049225
-0.086504
-0.137838
-0.191507
-0.173512
-0.157427
-0.156586
-0.147874
-0.110701
-0.072781
-0.029148
0.018225
0.064431
0.101280
0.129872
0.112274
0.093654
0.079274
0.046777
0.002085
-0.034826
-0.071419
-0.096495
-0.102012
-0.086212
-0.098709
-0.084994
-0.049966
0.002616
0.040648
0.100641
0.150887
0.210703
0.252569
0.294792
0.306286
0.330811
0.327732
0.355835
0.341892
0.335242
0.331931
0.322279
0.338456
0.320862
0.344114
0.380637
0.458156
0.544208
0.598980
0.673717
0.743126
0.800251
0.855710
0.867579
0.866297
0.838992
0.808089
0.762768
0.689436
0.609450
0.521557
0.412834
0.321427
0.239473
0.183079
0.136908
0.116501
0.109203
0.113174
0.158320
0.188014
0.228189
0.252810
0.270482
0.254813
0.237789
0.212543
0.166586
0.112912
0.060785
0.012526
-0.030167
-0.076826
-0.109188
-0.096021
-0.088285
-0.049186
-0.037207
0.007121
0.035589
0.068610
0.072688
0.088301
0.139560
0.145402
0.117110
0.118445
0.098625
0.057917
-0.004675
-0.045333
-0.088755
-0.120593
-0.131601
-0.142258
-0.142430
-0.129154
-0.094858
-0.070341
-0.027539
0.043870
0.069176
0.109756
0.137278
0.140888
0.144679
0.111367
0.079974
0.054690
0.003320
-0.034312
-0.075490
-0.108600
-0.124114
-0.127263
-0.125254
-0.093896
-0.068719
-0.035664
-0.002543
0.045069
0.083905
0.127532
0.139334
0.150429
0.151869
0.155377
0.124097
0.081846
0.047462
0.003232
-0.037740
-0.089045
-0.134539
-0.132646
-0.130202
-0.096496
-0.072012
-0.024506
0.021723
0.080711
0.130090
0.147009
0.163489
0.165511
0.171588
0.143676
0.106855
0.067677
0.010501
-0.036971
-0.063175
-0.108510
-0.135118
-0.120520
-0.107522
-0.067370
-0.042622
-0.010706
0.037771
0.074034
0.119108
0.149168
0.189142
0.180107
0.183482
0.171784
0.126587
0.082861
0.044860
0.008127
-0.022604
-0.043549
-0.064457
-0.064481
-0.064807
-0.056207
-0.010513
0.044033
0.085220
0.132394
0.181663
0.221339
0.236939
0.239865
0.247354
0.206306
0.184513
0.158301
0.104476
0.060001
0.028200
-0.008868
-0.022908
-0.027354
-0.019566
0.007030
0.050770
0.082766
0.133162
0.191312
0.223661
0.259364
0.264565
0.246798
0.220808
0.224578
0.195621
0.159480
0.131556
0.079732
0.038760
0.010479
-0.019620
-0.002080
0.016854
0.027240
0.028944
0.067213
0.109029
0.153122
0.186535
0.212677
0.210198
0.235302
0.232278
0.220306
0.169195
0.125748
0.067289
-0.004708
-0.001411
0.027070
0.007097
-0.033126
-0.025284
-0.002311
0.030810
0.072479
0.117272
0.154183
0.188638
0.200988
0.208185
0.187522
0.237539
0.234504
0.189981
0.129438
0.102182
0.038220
-0.005872
-0.023604
-0.044650
-0.042569
-0.043533
-0.015734
0.025367
0.072545
0.096895
0.121990
0.163164
0.196300
0.216812
0.218336
0.210017
0.196450
0.152775
0.108940
0.058177
0.013334
-0.020725
-0.056355
-0.071754
-0.070028
-0.084893
-0.076729
-0.054621
-0.012158
0.039378
0.083516
0.110125
0.135165
0.150423
0.158593
0.157490
0.142032
0.103608
0.067337
0.031559
-0.011859
-0.062438
-0.094868
-0.117583
-0.131947
-0.116337
-0.089792
-0.065589
-0.026727
0.015746
0.052039
0.093489
0.139630
0.155207
0.157314
0.166261
0.144309
0.111883
0.066784
0.025156
-0.022123
-0.074434
-0.102550
-0.119777
-0.124912
-0.114153
-0.084464
-0.052102
-0.008211
0.037383
0.084483
0.128067
0.157926
0.170964
0.171381
0.154852
0.148710
0.124291
0.088075
0.038145
-0.006368
-0.048185
-0.082796
-0.090295
-0.093240
-0.113760
-0.098662
-0.059307
-0.028329
0.016543
0.060621
0.133501
0.152386
0.158675
0.163867
0.158645
0.140061
0.109580
0.069790
0.021928
-0.021473
-0.060833
-0.106412
-0.121991
-0.117305
-0.108157
-0.088557
-0.037369
-0.013151
0.023268
0.077052
0.104780
0.153025
0.170789
0.168244
0.168187
0.143609
0.114415
0.078443
0.041903
0.002965
-0.043239
-0.064119
-0.081749
-0.091105
-0.080403
-0.060712
-0.038406
-0.006365
0.046970
0.106601
0.139202
0.186168
0.187153
0.190823
0.185088
0.177099
0.130823
0.094400
0.050178
0.002972
-0.047772
-0.085263
-0.090151
-0.087492
-0.077472
-0.063524
-0.037052
-0.002177
0.044047
0.103272
0.138131
0.145270
0.152236
0.161819
0.157753
0.142376
0.111736
0.062731
0.010598
-0.027968
-0.057397
-0.096979
-0.112580
-0.123080
-0.114460
-0.095857
-0.047511
-0.025457
0.035576
0.065955
0.117376
0.144551
0.184316
0.183968
0.174960
0.150441
0.110784
0.066398
0.023432
-0.014692
-0.048603
-0.084453
-0.099772
-0.118830
-0.108757
-0.068989
-0.031824
0.004211
0.057756
0.098870
0.136592
0.172369
0.191173
0.196039
0.179090
0.152567
0.123023
0.077809
0.028673
-0.019662
-0.053672
-0.079996
-0.107087
-0.105198
-0.090771
-0.080622
-0.045660
-0.014005
0.029629
0.072273
0.115702
0.151948
0.162381
0.162429
0.150400
0.136495
0.104520
0.068021
0.021787
-0.028160
-0.076208
-0.104855
-0.114061
-0.125832
-0.116236
-0.101567
-0.065305
-0.036655
0.010415
0.070429
0.125933
0.139021
0.165064
0.166443
0.154002
0.129989
0.100352
0.065525
0.024109
-0.012417
-0.045678
-0.084399
-0.114913
-0.121288
-0.101785
-0.072321
-0.035590
0.001052
0.050402
0.090816
0.131546
0.161212
0.173965
0.176888
0.177934
0.163435
0.131283
0.061023
-0.016527
-0.026039
-0.048503
-0.080567
-0.099626
-0.099279
-0.082815
-0.069553
-0.062848
-0.009993
0.035406
0.074225
0.107380
0.155343
0.170899
0.180608
0.173842
0.143095
0.109015
0.073016
0.033860
-0.010884
-0.059569
-0.093021
-0.107614
-0.109807
-0.087729
-0.056428
-0.021111
0.015141
0.052549
0.099075
0.149771
0.185795
0.197051
0.212114
0.209945
0.187094
0.149793
0.111807
0.076372
0.048489
-0.003231
-0.045873
-0.062113
-0.052816
-0.038438
-0.022018
-0.028326
0.030179
0.090390
0.130678
0.177301
0.208625
0.223714
0.217717
0.219447
0.199195
0.179280
0.148573
0.094210
0.042841
0.005744
-0.025433
-0.048218
-0.050217
-0.031389
-0.015206
0.014305
0.043835
0.086298
0.119229
0.145340
0.169824
0.178465
0.176221
0.167427
0.156637
0.135405
0.104167
0.047634
-0.009950
-0.054479
-0.086649
-0.099129
-0.098568
-0.094541
-0.075237
-0.034491
0.005513
0.052833
0.099931
0.133739
0.179512
0.186734
0.193091
0.193895
0.166608
0.131158
0.095648
0.046959
0.002918
-0.049666
-0.080952
-0.094469
-0.104843
-0.086233
-0.072061
-0.043674
-0.008106
0.034044
0.080768
0.112048
0.128189
0.147589
0.163757
0.162993
0.113936
0.075658
0.066879
0.033536
-0.020948
-0.069191
-0.116169
-0.149970
-0.136200
-0.094612
-0.102116
-0.082570
-0.048641
-0.007748
0.047449
0.098440
0.138937
0.144872
0.144582
0.144283
0.140926
0.113579
0.044037
-0.017237
-0.050757
-0.075675
-0.086651
-0.106467
-0.132752
-0.128346
-0.092137
-0.053453
0.004201
0.047058
0.058226
0.095703
0.120158
0.129806
0.141408
0.155523
0.145315
0.144293
0.107345
0.030926
-0.033067
-0.075760
-0.093944
-0.097329
-0.106605
-0.092229
-0.076725
-0.042575
-0.004443
0.023618
0.057212
0.111737
0.148214
0.162443
0.178136
0.178112
0.148850
0.132910
0.115658
0.086806
0.052495
0.014953
-0.029395
-0.020149
-0.009224
0.007516
0.028571
0.066925
0.129621
0.205187
0.286233
0.345277
0.392944
0.453085
0.505898
0.524711
0.512733
0.505006
0.494876
0.495571
0.475016
0.461384
0.471410
0.501013
0.537553
0.581466
0.641159
0.704553
0.751241
0.784672
0.832680
0.897817
0.946285
0.929582
0.837444
0.751922
0.694540
0.619438
0.535323
0.436337
0.334086
0.303635
0.210646
0.100719
0.077279
0.067108
0.082872
0.096328
0.147655
0.165426
0.203564
0.237686
0.263982
0.267682
0.286025
0.288166
0.264246
0.193826
0.125330
0.089405
0.036822
-0.020746
-0.077235
-0.069966
-0.028498
-0.008521
-0.042318
-0.023460
-0.005331
0.053596
0.074098
0.106353
0.153943
0.166923
0.175326
0.182845
0.169602
0.154947
0.108847
0.036442
-0.032110
-0.075967
-0.099795
-0.118149
-0.115213
-0.055548
-0.025334
0.012257
0.043384
0.088101
0.106824
0.120269
0.172711
0.217961
0.230869
0.195545
0.197133
0.181981
0.128127
0.059416
-0.011047
-0.042314
-0.090570
-0.122477
-0.152068
-0.111263
-0.066654
-0.045144
0.059787
0.125298
0.168011
0.191150
0.182868
0.182087
0.174742
0.187726
0.170481
0.153257
0.098431
0.102187
0.071412
-0.003121
-0.040870
-0.026366
-0.062180
-0.061078
-0.101098
-0.086250
0.009121
0.096993
0.110871
0.140485
0.132058
0.186086
0.224403
0.234050
0.212106
0.151914
0.102767
0.027675
0.004997
0.033334
0.022386
0.012647
-0.002135
0.002945
0.013208
0.021064
0.085086
0.145884
0.144217
0.213536
0.239705
0.272422
0.317862
0.301314
0.263016
0.226320
0.204822
0.179429
0.100617
0.032560
0.000361
-0.010620
0.016633
0.054840
0.069361
0.086396
0.164864
0.156512
0.167553
0.213904
0.265744
0.241454
0.255580
0.253884
0.290684
0.289338
0.205425
0.127953
0.084724
0.076369
0.091842
0.035667
0.020949
0.059234
0.074592
0.070348
0.106328
0.151393
0.239584
0.296635
0.327171
0.329130
0.323739
0.301059
0.264250
0.228555
0.181726
0.122062
0.083877
0.066146
0.126827
0.133728
0.103843
0.060029
0.083880
0.127798
0.129966
0.166429
0.226105
0.288963
0.346430
0.375066
0.396967
0.387784
0.330780
0.207859
0.233490
0.175426
0.072670
0.089882
0.079681
0.059521
0.018921
0.036358
0.029790
0.114376
0.125228
0.191876
0.232174
0.222090
0.218979
0.239209
0.262856
0.253037
0.235038
0.230451
0.187035
0.118564
0.091142
0.046106
-0.005447
-0.024171
0.015970
0.051790
0.028581
0.045587
0.091103
0.136232
0.175268
0.164668
0.187106
0.256884
0.284018
0.299767
0.290552
0.227659
0.130620
0.116058
0.024044
-0.001889
-0.031040
-0.032859
-0.052151
-0.050397
-0.002620
0.023311
0.068238
0.122180
0.169408
0.203304
0.217053
0.243485
0.251107
0.234069
0.207098
0.161228
0.143723
0.115952
0.030319
0.004443
-0.048460
-0.048872
-0.068650
-0.090197
-0.074440
-0.047124
0.016532
0.076492
0.127999
0.142453
0.165331
0.211760
0.182642
0.153096
0.201532
0.135853
0.086497
0.040534
-0.012972
-0.060935
-0.107639
-0.101241
-0.084405
-0.042591
-0.038445
0.002757
0.033194
0.088790
0.146239
0.160355
0.181969
0.189779
0.235687
0.212813
0.194583
0.160342
0.066348
0.052158
0.017723
-0.004975
-0.020242
-0.029774
-0.013541
-0.028267
-0.056852
-0.025507
0.066722
0.121042
0.171241
0.248038
0.231079
0.223855
0.133664
0.193009
0.262212
0.147429
0.124560
0.047832
0.028029
-0.013733
-0.043943
-0.046858
-0.053697
-0.063209
-0.053464
-0.026852
0.006167
0.017324
0.104705
0.164343
0.220930
0.252443
0.246159
0.214799
0.212236
0.155575
0.090012
0.056120
0.032298
0.018859
-0.014578
-0.044322
-0.084730
-0.062241
-0.030366
-0.034334
0.007350
0.052708
0.121805
0.194203
0.206564
0.230949
0.225312
0.245259
0.219613
0.175703
0.117631
0.084674
0.039871
-0.001606
-0.032972
-0.046859
-0.077833
-0.075649
-0.039701
-0.000237
0.037083
0.089445
0.134766
0.189346
0.190426
0.210338
0.187077
0.204034
0.206310
0.187211
0.121944
0.069379
0.033639
0.010283
-0.019289
-0.052519
-0.100394
-0.113751
-0.056951
0.005013
0.046268
0.072506
0.096228
0.101036
0.173284
0.211120
0.208430
0.128795
0.116319
0.153419
0.085504
0.078193
0.044928
0.032236
-0.006527
-0.058969
-0.056281
-0.073505
-0.086572
-0.024463
0.051526
0.059833
0.119344
0.122057
0.137534
0.187706
0.209895
0.222735
0.206691
0.166139
0.105161
0.040953
-0.014862
-0.037218
-0.079483
-0.088544
-0.069052
-0.039271
-0.026469
-0.025367
0.035565
0.039693
0.108374
0.165429
0.135499
0.182743
0.203844
0.212683
0.187370
0.146794
0.100106
0.054085
0.015211
-0.013281
-0.041646
-0.055641
-0.061549
-0.065395
-0.071150
-0.089036
-0.019115
0.045342
0.096754
0.145133
0.166164
0.197261
0.188527
0.190210
0.181718
0.136730
0.104605
0.076387
0.019695
-0.031458
-0.052665
-0.081694
-0.104869
-0.111514
-0.099784
-0.049306
0.029988
0.099923
0.122557
0.146499
0.195860
0.209633
0.216413
0.220001
0.195718
0.168165
0.130310
0.084404
0.042408
0.025181
-0.024970
-0.069157
-0.076451
-0.064860
-0.060771
-0.042410
0.031202
0.096095
0.149391
0.177923
0.216454
0.233785
0.249372
0.210129
0.182784
0.143840
0.163396
0.122942
0.066190
0.028947
-0.030201
-0.058075
-0.051963
-0.049712
-0.036130
0.001903
0.073512
0.072427
0.107972
0.166829
0.229648
0.226287
0.245007
0.253863
0.234573
0.192875
0.130182
0.102256
0.063106
0.003186
-0.022228
-0.026171
-0.040903
-0.066164
-0.070932
-0.018780
0.033475
0.100795
0.150473
0.170675
0.195422
0.230872
0.221071
0.192894
0.168076
0.125022
0.150544
0.088349
0.017423
-0.000135
-0.047840
-0.041094
-0.041396
-0.047749
-0.037877
-0.007536
0.018783
0.054179
0.101806
0.131181
0.130783
0.127197
0.124338
0.143846
0.168133
0.146973
0.122070
0.031206
0.017401
-0.031207
-0.083428
-0.099213
-0.113378
-0.094113
-0.074841
-0.037648
-0.021888
-0.004802
0.037185
0.121904
0.140833
0.167026
0.153258
0.152635
0.152801
0.115702
0.078273
0.041945
-0.035080
-0.057305
-0.091310
-0.133483
-0.124459
-0.132188
-0.119344
-0.073692
-0.029008
0.016416
0.078165
0.092802
0.110241
0.137513
0.163176
0.169661
0.137616
0.103321
0.051985
0.005767
-0.015679
-0.031199
-0.068025
-0.110987
-0.125498
-0.139533
-0.111274
-0.083746
-0.021314
0.013152
0.061434
0.100011
0.134723
0.144388
0.151883
0.152098
0.131616
0.096997
0.067924
0.031445
-0.020563
-0.056178
-0.111503
-0.134259
-0.142692
-0.148911
-0.107127
-0.074381
-0.047452
-0.015242
0.045565
0.094786
0.140994
0.161633
0.176001
0.200984
0.189712
0.165454
0.148963
0.121281
0.090129
0.068389
0.044654
0.032662
0.052319
0.056559
0.092557
0.151197
0.185439
0.258208
0.358005
0.380733
0.467819
0.525667
0.552689
0.578630
0.612115
0.602547
0.597339
0.581951
0.573822
0.573884
0.583149
0.600463
0.585458
0.601562
0.613589
0.652874
0.693179
0.715098
0.753118
0.760899
0.741878
0.721315
0.662359
0.585480
0.500517
0.420691
0.327707
0.245803
0.178527
0.100783
0.036807
-0.008758
-0.023213
-0.027924
-0.014772
0.009883
0.040372
0.071259
0.111703
0.140845
0.181138
0.204800
0.199911
0.200392
0.174101
0.138814
0.087412
0.033046
-0.004942
-0.029866
-0.065021
-0.081653
-0.079956
-0.096434
-0.094339
-0.078175
-0.024385
0.028049
0.081351
0.122992
0.140418
0.146038
0.136773
0.146515
0.135606
0.100686
0.058187
0.022826
-0.020836
-0.069070
-0.124741
-0.130227
-0.120753
-0.112779
-0.093673
-0.055318
-0.009706
0.018321
0.065631
0.106609
0.139261
0.165412
0.180930
0.162086
0.126743
0.094864
0.053131
0.009393
-0.026983
-0.078402
-0.104429
-0.108603
-0.117078
-0.109107
-0.091966
-0.058313
-0.012632
0.023240
0.060678
0.098181
0.130275
0.149848
0.180428
0.171437
0.147514
0.101248
0.077987
0.033582
-0.013958
-0.060642
-0.097829
-0.114728
-0.113243
-0.099056
-0.092798
-0.054752
-0.013601
0.030445
0.078990
0.116393
0.144527
0.170516
0.196042
0.181574
0.171764
0.141879
0.106709
0.045287
-0.001620
-0.039178
-0.052962
-0.085446
-0.093369
-0.088298
-0.055001
-0.039025
-0.003186
0.053822
0.101823
0.138144
0.177317
0.195026
0.207341
0.213263
0.189169
0.157893
0.118142
0.067706
0.020955
-0.025404
-0.043892
-0.056089
-0.059393
-0.048106
-0.042121
0.003142
0.058931
0.113271
0.153919
0.180505
0.206550
0.243916
0.252990
0.236884
0.220408
0.193421
0.149763
0.109686
0.060073
0.015190
-0.011157
-0.033372
-0.033838
-0.035456
-0.013408
0.030196
0.065630
0.109122
0.152310
0.193713
0.227974
0.253275
0.256698
0.242548
0.225764
0.189082
0.161475
0.118039
0.074263
0.025090
0.002212
-0.022533
-0.023206
-0.019814
-0.024695
0.021633
0.084536
0.132766
0.149406
0.181124
0.221888
0.248935
0.245812
0.227091
0.216199
0.195420
0.153341
0.116771
0.070330
0.022388
-0.018625
-0.048064
-0.058855
-0.041807
-0.018798
0.007670
0.046555
0.083961
0.122297
0.160805
0.201003
0.211339
0.219505
0.187892
0.188120
0.170469
0.115284
0.060286
0.014737
-0.023287
-0.060073
-0.081580
-0.091483
-0.085652
-0.065548
-0.045352
0.000774
0.041019
0.083871
0.117514
0.153156
0.173778
0.176757
0.176687
0.150428
0.112001
0.081886
0.024063
-0.025883
-0.073375
-0.101475
-0.113447
-0.116718
-0.113707
-0.103810
-0.078455
-0.034172
0.018738
0.067726
0.099385
0.122912
0.155334
0.165559
0.144727
0.125286
0.085810
0.043536
0.003537
-0.045773
-0.078191
-0.115063
-0.123097
-0.132773
-0.132547
-0.109059
-0.082668
-0.065621
-0.015617
0.041564
0.082100
0.114545
0.113798
0.124453
0.129544
0.119164
0.093603
0.033594
-0.016575
-0.046135
-0.062467
-0.110253
-0.138250
-0.143375
-0.132752
-0.113369
-0.087065
-0.055021
-0.001742
0.028327
0.071093
0.101906
0.137310
0.151443
0.140146
0.122254
0.096677
0.058118
-0.005943
-0.052363
-0.089938
-0.107368
-0.125115
-0.129663
-0.143559
-0.127679
-0.090692
-0.054683
-0.014552
0.016990
0.067285
0.122855
0.137155
0.150401
0.143186
0.124158
0.100466
0.059357
0.018404
-0.022995
-0.059160
-0.084941
-0.109485
-0.120923
-0.125637
-0.108672
-0.094142
-0.044764
0.011314
0.059707
0.097789
0.155944
0.164100
0.156846
0.144615
0.140185
0.100164
0.040278
-0.017002
-0.049776
-0.079554
-0.107111
-0.138555
-0.178465
-0.164522
-0.109640
-0.079537
-0.018671
0.019033
0.000529
0.049559
0.089902
0.130545
0.154435
0.150588
0.147935
0.087896
0.019692
-0.008356
-0.039802
-0.043782
-0.097016
-0.103804
-0.096035
-0.128857
-0.116473
-0.088480
-0.079367
-0.073998
-0.002756
0.111717
0.117817
0.170932
0.166606
0.186731
0.110262
0.034646
0.044147
0.005431
-0.065284
-0.072447
-0.082572
-0.039288
-0.123714
-0.148952
-0.140312
-0.082461
0.003488
-0.000163
0.058621
0.124999
0.153619
0.132016
0.095177
0.049508
0.073819
0.005599
0.018858
-0.032369
-0.029757
-0.068272
-0.050344
-0.064424
-0.115875
-0.120516
-0.075847
-0.036671
-0.038346
-0.048957
-0.040564
0.040411
0.079175
0.114020
0.198425
0.184552
0.110225
0.058633
0.015686
-0.031671
-0.033066
-0.062564
-0.109252
-0.131134
-0.141847
-0.130074
-0.086626
-0.063950
-0.036295
0.018466
0.039983
0.060569
0.092607
0.115919
0.119936
0.115210
0.095039
0.082011
0.061043
0.008614
-0.046811
-0.087801
-0.121310
-0.127907
-0.129054
-0.144109
-0.135892
-0.125534
-0.071743
0.000273
0.037114
0.087898
0.105817
0.126723
0.143860
0.141307
0.132166
0.094544
0.059032
0.013773
-0.026196
-0.064172
-0.097283
-0.123803
-0.139465
-0.128773
-0.104703
-0.076072
-0.033641
0.009356
0.050520
0.086056
0.101441
0.128614
0.137116
0.147329
0.129145
0.098595
0.083562
0.042611
-0.001368
-0.044908
-0.077568
-0.098639
-0.110982
-0.117322
-0.094390
-0.059392
-0.031219
0.023488
0.075367
0.113278
0.142569
0.158030
0.160717
0.156039
0.134011
0.109925
0.083622
0.043419
-0.000421
-0.033566
-0.055920
-0.077741
-0.105735
-0.090901
-0.076461
-0.035220
-0.002271
0.041198
0.107554
0.151488
0.181186
0.195263
0.187357
0.201498
0.169093
0.113551
0.079216
0.039330
-0.010093
-0.056039
-0.088588
-0.118055
-0.122516
-0.137245
-0.125590
-0.089032
-0.050268
-0.001998
0.040461
0.078681
0.119251
0.146211
0.151261
0.138725
0.119437
0.086983
0.039393
-0.004422
-0.032654
-0.086330
-0.154534
-0.168329
-0.169165
-0.163399
-0.150953
-0.130528
-0.075097
-0.018320
0.025149
0.042242
0.071779
0.107268
0.109199
0.094583
0.077944
0.063073
0.021016
-0.021405
-0.068446
-0.118754
-0.152336
-0.175492
-0.181796
-0.178847
-0.166797
-0.141098
-0.079388
-0.029042
0.019542
0.044870
0.070441
0.106002
0.121251
0.108708
0.086849
0.050862
-0.004870
-0.051668
-0.082156
-0.116841
-0.146621
-0.162557
-0.175581
-0.169210
-0.153492
-0.122188
-0.088719
-0.061932
-0.011470
0.023015
0.067435
0.100399
0.094156
0.076649
0.066291
0.044888
0.013390
-0.032048
-0.085764
-0.134708
-0.176507
-0.212424
-0.207691
-0.188041
-0.167716
-0.115110
-0.083229
-0.047891
0.006865
0.035642
0.064006
0.080519
0.093056
0.099042
0.085685
0.044744
0.011476
-0.028234
-0.058011
-0.108147
-0.142150
-0.149942
-0.152603
-0.143394
-0.112521
-0.056252
0.002457
0.045832
0.110491
0.161525
0.210782
0.245935
0.258843
0.282387
0.282692
0.269713
0.237801
0.223244
0.198458
0.200824
0.197100
0.221112
0.238538
0.248449
0.299556
0.372614
0.448409
0.526798
0.603963
0.688240
0.753329
0.812743
0.847866
0.864110
0.862443
0.819815
0.755470
0.719237
0.677753
0.609238
0.531245
0.466338
0.397444
0.347606
0.296468
0.251897
0.245353
0.232370
0.228426
0.234036
0.247471
0.253811
0.250000
0.237286
0.226969
0.202990
0.151908
0.090444
0.032461
-0.017204
-0.051713
-0.083770
-0.099897
-0.114184
-0.114147
-0.047121
0.012330
0.070080
0.098987
0.123583
0.140920
0.165051
0.163626
0.158143
0.142864
0.103422
0.054270
0.021782
-0.016388
-0.061063
-0.101920
-0.145639
-0.155169
-0.147641
-0.120347
-0.093469
-0.048820
-0.019823
0.021230
0.080440
0.103832
0.120971
0.124106
0.129989
0.115807
0.082027
0.043980
-0.004398
-0.049403
-0.090636
-0.125097
-0.147160
-0.167262
-0.166875
-0.144880
-0.091483
-0.038258
0.003997
0.040421
0.093875
0.112804
0.140857
0.146173
0.129780
0.092357
0.086707
0.105751
0.057384
-0.008115
-0.055633
-0.094438
-0.125674
-0.127153
-0.105402
-0.112965
-0.082719
-0.016700
0.017984
0.067510
0.101880
0.138977
0.157202
0.159480
0.159967
0.137247
0.104276
0.065334
0.021701
-0.024406
-0.060956
-0.085453
-0.097224
-0.118120
-0.110913
-0.080108
-0.063081
-0.015396
0.028087
0.076780
0.111291
0.154411
0.177968
0.186576
0.184507
0.178935
0.136555
0.096436
0.059874
0.000853
-0.039649
-0.075957
-0.111945
-0.138006
-0.099961
-0.037709
-0.004346
0.040182
0.098738
0.132994
0.174420
0.190692
0.206968
0.222649
0.246060
0.226787
0.187155
0.136167
0.074522
0.042617
0.027578
0.017224
-0.011744
-0.029286
-0.021406
-0.023411
0.004323
0.047191
0.097741
0.161864
0.214129
0.224468
0.239572
0.232045
0.183829
0.169612
0.175760
0.223888
0.215502
0.113345
0.024599
-0.018571
-0.018134
-0.053685
-0.017036
0.013801
0.042217
0.072442
0.092955
0.172051
0.188046
0.218903
0.238742
0.273237
0.269483
0.257473
0.217312
0.177535
0.131508
0.086052
0.017315
-0.048927
-0.023757
-0.005869
-0.020201
0.003491
0.030089
0.063422
0.101587
0.157134
0.184448
0.228847
0.257635
0.266440
0.273260
0.251418
0.210268
0.158862
0.122801
0.075179
0.035796
0.008133
-0.058274
-0.088681
-0.106423
-0.048402
0.027207
0.050004
0.051232
0.105046
0.145150
0.197129
0.219045
0.246628
0.230326
0.194697
0.158240
0.103593
0.058601
0.025797
-0.019269
-0.051737
-0.097623
-0.106915
-0.090245
-0.060932
-0.040352
-0.042267
0.008239
0.067410
0.137781
0.176374
0.180972
0.201760
0.197280
0.154657
0.128663
0.087860
0.043178
-0.014893
-0.049639
-0.066669
-0.103357
-0.111185
-0.108641
-0.086461
-0.071663
-0.013160
0.039613
0.078705
0.133757
0.157969
0.133181
0.127390
0.149250
0.153586
0.136316
0.125214
0.059375
0.005917
-0.040882
-0.081591
-0.099792
-0.119158
-0.108097
-0.087818
-0.064764
-0.023207
0.023164
0.067233
0.119876
0.149991
0.164160
0.161995
0.151870
0.142537
0.106236
0.058968
0.018915
-0.023998
-0.066755
-0.081187
