-0.075918
-0.028768
0.005534
0.046231
0.067334
0.076692
0.073542
0.055888
-0.005350
-0.046866
-0.074069
-0.127189
-0.167623
-0.215130
-0.227620
-0.237381
-0.248363
-0.244291
-0.192334
-0.148166
-0.107882
-0.050965
-0.008928
0.024812
0.048596
0.066022
0.049487
0.013326
-0.012268
-0.036833
-0.072346
-0.102454
-0.151877
-0.187749
-0.216747
-0.234291
-0.234304
-0.236651
-0.191613
-0.148198
-0.109286
-0.026922
0.003255
0.042059
0.081581
0.066518
0.045353
0.033311
-0.019369
-0.058110
-0.105197
-0.125974
-0.169830
-0.201523
-0.237775
-0.248355
-0.246726
-0.230341
-0.182873
-0.151758
-0.102108
-0.062038
-0.023362
0.003888
0.034522
0.068189
0.076334
0.048294
0.008933
-0.057983
-0.101214
-0.126401
-0.199726
-0.215517
-0.251356
-0.260395
-0.287703
-0.255348
-0.168458
-0.105588
-0.057104
-0.009865
0.056306
0.110145
0.140746
0.162375
0.158067
0.154434
0.148205
0.143055
0.113140
0.045976
0.041617
0.067119
0.076411
0.088671
0.132574
0.182197
0.280266
0.350113
0.429571
0.511455
0.576089
0.660300
0.748169
0.803243
0.820619
0.824542
0.824959
0.798438
0.737298
0.688951
0.646903
0.610216
0.570232
0.546083
0.537840
0.515913
0.475426
0.433294
0.425416
0.410324
0.382868
0.384925
0.368048
0.305175
0.286466
0.251810
0.205761
0.163082
0.107004
0.044943
-0.009230
-0.058391
-0.081323
-0.108564
-0.109771
-0.092930
-0.051646
-0.033645
-0.007821
0.033479
0.057560
0.107184
0.135807
0.124366
0.115047
0.095367
0.039821
0.012850
-0.019607
-0.069329
-0.116449
-0.135547
-0.157804
-0.178023
-0.201223
-0.200108
-0.154313
-0.110259
-0.051447
-0.000431
0.029756
0.071887
0.091624
0.106039
0.094329
0.047441
0.015134
-0.009193
-0.042269
-0.101299
-0.152446
-0.170601
-0.175387
-0.198475
-0.207394
-0.195162
-0.161952
-0.117639
-0.072782
-0.030909
0.010093
0.057272
0.077009
0.072245
0.068125
0.051165
0.018084
-0.041200
-0.072537
-0.097848
-0.131864
-0.166803
-0.199305
-0.214506
-0.204979
-0.186036
-0.143254
-0.084980
-0.032974
0.011634
0.053636
0.075690
0.089909
0.088519
0.103160
0.091956
0.052539
0.006912
-0.044283
-0.108844
-0.134286
-0.156147
-0.217264
-0.229911
-0.176685
-0.129788
-0.101300
-0.077852
-0.043329
0.016383
0.064680
0.112473
0.129280
0.141048
0.136379
0.115789
0.061270
0.032454
-0.026779
-0.084565
-0.123903
-0.134492
-0.158504
-0.163751
-0.153176
-0.126292
-0.071016
-0.020525
0.020275
0.044995
0.083401
0.128898
0.150389
0.159343
0.137304
0.127636
0.098290
0.073432
0.015947
-0.035773
-0.074125
-0.094025
-0.110579
-0.131825
-0.120313
-0.109800
-0.074652
-0.041647
0.014612
0.075357
0.134514
0.153387
0.184241
0.192643
0.182401
0.172360
0.144216
0.099985
0.046406
-0.016718
-0.065013
-0.097282
-0.119301
-0.129887
-0.118886
-0.109852
-0.082185
-0.029420
0.002050
0.064456
0.129455
0.163715
0.193295
0.196113
0.167188
0.145623
0.103824
0.067072
0.052173
0.003657
-0.064649
-0.116163
-0.137331
-0.138796
-0.126555
-0.102250
-0.073054
-0.044245
-0.016250
0.040142
0.097179
0.132389
0.150659
0.153067
0.152457
0.150009
0.142814
0.075571
0.001968
-0.036467
-0.072492
-0.112612
-0.144110
-0.152829
-0.131875
-0.115663
-0.084005
-0.050052
-0.005835
0.041335
0.074392
0.088344
0.112467
0.148388
0.161086
0.137836
0.101640
0.038714
-0.014525
-0.070828
-0.116791
-0.148383
-0.179911
-0.183174
-0.185286
-0.168252
-0.157318
-0.097541
-0.043574
-0.000077
0.049830
0.075534
0.115614
0.124116
0.118344
0.100169
0.059516
0.020045
-0.016288
-0.050377
-0.090191
-0.144487
-0.188272
-0.213532
-0.196124
-0.176830
-0.148827
-0.090754
-0.057788
-0.019748
0.020111
0.051326
0.063148
0.085663
0.086688
0.043500
0.006337
-0.017403
-0.040136
-0.088563
-0.142892
-0.179925
-0.192460
-0.188549
-0.197145
-0.189209
-0.141739
-0.094410
-0.047995
-0.004749
0.029505
0.053666
0.073367
0.084684
0.087986
0.071618
0.052831
0.030386
-0.038085
-0.085294
-0.131709
-0.171825
-0.207206
-0.210846
-0.206589
-0.186469
-0.134195
-0.097415
-0.038743
0.011564
0.055575
0.083601
0.093339
0.097372
0.083979
0.079557
0.056818
0.009991
-0.043578
-0.084277
-0.114595
-0.170210
-0.162986
-0.168879
-0.196169
-0.194239
-0.153967
-0.089142
-0.037070
0.011417
0.053784
0.085430
0.088439
0.120244
0.110123
0.070527
0.044691
0.005485
-0.045171
-0.060984
-0.130041
-0.178317
-0.199009
-0.200180
-0.197466
-0.184161
-0.136347
-0.101633
-0.036120
0.006804
0.051093
0.066999
0.110278
0.114790
0.107732
0.099598
0.063346
0.012903
-0.032742
-0.085845
-0.137162
-0.150207
-0.182511
-0.195499
-0.188519
-0.172799
-0.139405
-0.095689
-0.073268
-0.033680
0.024856
0.044095
0.105931
0.110724
0.105518
0.088556
0.063051
0.014496
-0.034875
-0.082327
-0.121556
-0.155083
-0.171083
-0.174554
-0.177680
-0.174443
-0.127138
-0.077711
-0.040049
0.008080
0.047085
0.060642
0.082386
0.102266
0.092610
0.083296
0.035848
-0.010289
-0.023284
-0.066323
-0.136210
-0.193751
-0.216641
-0.215024
-0.218577
-0.176764
-0.151883
-0.105702
-0.050405
0.001408
0.042004
0.083212
0.118367
0.106421
0.086890
0.063168
0.060527
0.005714
-0.055087
-0.106944
-0.134218
-0.157390
-0.183675
-0.184520
-0.192720
-0.194819
-0.142863
-0.109402
-0.064491
-0.030778
0.013717
0.050287
0.092822
0.115070
0.112846
0.078860
0.032973
-0.035887
-0.097061
-0.144604
-0.161819
-0.158565
-0.189105
-0.219421
-0.215911
-0.179385
-0.133659
-0.102123
-0.041042
0.001873
0.025521
0.067716
0.096376
0.113774
0.126567
0.116280
0.084504
0.034171
-0.038910
-0.094870
-0.159890
-0.183265
-0.177663
-0.178940
-0.171879
-0.147198
-0.112847
-0.066662
-0.026036
0.010364
0.050555
0.093703
0.132554
0.136650
0.136438
0.093711
0.054981
0.000895
-0.044142
-0.088946
-0.111018
-0.140917
-0.153224
-0.169342
-0.153121
-0.133530
-0.113254
-0.085490
-0.025428
0.033383
0.096188
0.125248
0.147994
0.162731
0.150525
0.124757
0.092846
0.065235
0.025305
-0.036408
-0.097183
-0.130224
-0.149367
-0.155725
-0.150218
-0.129816
-0.105066
-0.067234
0.006717
0.080243
0.108737
0.111816
0.119252
0.155243
0.131661
0.106259
0.080011
0.029321
-0.033908
-0.085851
-0.129663
-0.165250
-0.215216
-0.229563
-0.223457
-0.181675
-0.131342
-0.090140
-0.056887
-0.002831
0.045954
0.068086
0.096823
0.108411
0.088639
0.070477
0.025967
-0.033831
-0.086756
-0.115809
-0.128317
-0.171455
-0.200997
-0.230050
-0.204272
-0.178132
-0.154519
-0.141883
-0.105584
-0.067647
-0.012344
0.021716
0.067862
0.070361
0.055126
0.048170
0.026255
-0.015575
-0.051165
-0.098808
-0.162755
-0.199477
-0.210862
-0.223052
-0.233038
-0.217384
-0.171259
-0.107399
-0.054689
-0.013119
0.034344
0.048483
0.049327
0.066779
0.046256
0.037671
0.023215
-0.005019
-0.074693
-0.126838
-0.164387
-0.222499
-0.241442
-0.249964
-0.241960
-0.211506
-0.157920
-0.118380
-0.074815
-0.019973
0.020469
0.035698
0.055677
0.059276
0.067294
0.060095
0.027767
-0.023645
-0.083878
-0.139697
-0.162328
-0.203709
-0.243010
-0.261951
-0.244967
-0.207548
-0.190861
-0.162319
-0.147417
-0.096081
-0.020609
0.025846
0.068506
0.085368
0.084893
0.073270
0.037517
0.014327
0.007100
-0.025636
-0.061585
-0.084986
-0.091416
-0.129365
-0.118639
-0.064415
0.010825
0.065644
0.149101
0.222963
0.268280
0.311708
0.381419
0.437393
0.503313
0.519964
0.516713
0.512150
0.506618
0.490862
0.500459
0.539446
0.581923
0.601063
0.626350
0.646048
0.702490
0.735460
0.778393
0.814158
0.860674
0.869979
0.835795
0.806368
0.759210
0.650114
0.543255
0.429207
0.338557
0.238240
0.143712
0.057889
0.011445
0.008472
0.017436
0.028011
0.066142
0.088427
0.087530
0.133156
0.174693
0.193693
0.188130
0.198506
0.189408
0.151720
0.102658
0.071994
0.046061
-0.007581
-0.071522
-0.127671
-0.139232
-0.126289
-0.119716
-0.101096
-0.079927
-0.051052
-0.021293
0.023839
0.069231
0.104064
0.117134
0.131418
0.120318
0.086869
0.080249
0.051509
-0.043544
-0.094092
-0.122469
-0.136069
-0.160229
-0.167004
-0.151786
-0.158266
-0.154821
-0.099579
-0.003275
0.029145
0.016876
0.035662
0.110579
0.115450
0.128269
0.100337
0.039131
0.007162
-0.029070
-0.073148
-0.134280
-0.162170
-0.197227
-0.186815
-0.165447
-0.152341
-0.124760
-0.068833
0.007798
0.073797
0.137391
0.142398
0.141700
0.149477
0.135682
0.114279
0.053448
0.047113
-0.024344
-0.064873
-0.102138
-0.162905
-0.194427
-0.197993
-0.223044
-0.169457
-0.125273
-0.083446
-0.050847
0.034731
0.106004
0.127491
0.146904
0.185797
0.183911
0.142952
0.109811
0.098687
0.033857
-0.041613
-0.075722
-0.110615
-0.135864
-0.145239
-0.154837
-0.139758
-0.111539
-0.074696
-0.005145
0.076845
0.155454
0.149428
0.200742
0.232494
0.199503
0.166427
0.117948
0.069003
0.006846
-0.014903
-0.036447
-0.053151
-0.052407
-0.076403
-0.084091
-0.089615
-0.052579
-0.031459
0.034088
0.073720
0.102587
0.164025
0.214199
0.214215
0.176851
0.171712
0.159229
0.146857
0.117849
0.061362
-0.016074
-0.045877
-0.074215
-0.081139
-0.083627
-0.050188
-0.027396
0.009646
0.056130
0.086793
0.166326
0.196661
0.216392
0.204711
0.190756
0.193899
0.161642
0.129732
0.080414
0.015583
-0.034123
-0.042237
-0.058322
-0.069449
-0.047297
-0.053311
-0.010620
0.029763
0.071199
0.075299
0.106606
0.146581
0.189976
0.174293
0.184347
0.167082
0.124722
0.106539
0.090111
0.022353
-0.054364
-0.076324
-0.106793
-0.127025
-0.101750
-0.080273
-0.049152
-0.003453
0.031831
0.080970
0.130572
0.149525
0.174151
0.197323
0.226274
0.186901
0.127154
0.063764
-0.012093
-0.057035
-0.094213
-0.126306
-0.170026
-0.165124
-0.120988
-0.057485
-0.025342
0.017229
0.069154
0.081196
0.112750
0.132774
0.168384
0.168776
0.158179
0.156676
0.096036
0.002891
-0.063099
-0.061945
-0.059192
-0.068272
-0.108208
-0.147849
-0.150054
-0.125032
-0.099842
-0.058178
0.018008
0.082430
0.072727
0.096182
0.129853
0.115978
0.122155
0.114328
0.083958
0.064000
0.014772
-0.049986
-0.094631
-0.127469
-0.137425
-0.150335
-0.172988
-0.177152
-0.133847
-0.075347
0.000240
0.058056
0.077235
0.107786
0.140140
0.150827
0.147643
0.105884
0.064185
0.014732
-0.016554
-0.069469
-0.127365
-0.143953
-0.152806
-0.148757
-0.135603
-0.117643
-0.070663
-0.034171
0.013930
0.059419
0.096197
0.136485
0.190539
0.222148
0.167721
0.114644
0.079517
0.043514
0.008400
-0.035493
-0.109098
-0.133762
-0.161432
-0.163557
-0.170368
-0.139723
-0.102912
-0.033347
0.038708
0.057508
0.082407
0.113043
0.121400
0.137829
0.107368
0.089340
0.058910
0.044963
0.023902
0.019282
-0.022432
-0.055578
-0.117959
-0.144068
-0.170952
-0.139339
-0.097929
-0.050723
0.001131
0.050565
0.079182
0.120479
0.141109
0.158697
0.165530
0.130676
0.085370
0.053876
0.008678
-0.035819
-0.103791
-0.161213
-0.182324
-0.206079
-0.176876
-0.130886
-0.052365
-0.007995
0.031215
0.059764
0.087669
0.097623
0.128011
0.151158
0.151759
0.168155
0.131138
0.065449
0.027626
-0.021051
-0.053531
-0.098698
-0.118641
-0.136810
-0.159785
-0.154232
-0.099294
-0.059222
-0.011818
0.021301
0.046649
0.090709
0.124907
0.138242
0.125226
0.139934
0.111698
0.085950
0.016906
-0.053576
-0.122560
-0.144182
-0.156764
-0.144183
-0.151749
-0.153865
-0.109797
-0.064919
-0.024838
0.055004
0.066473
0.066022
0.108286
0.121467
0.118022
0.091673
0.084795
0.035875
-0.020097
-0.073464
-0.084858
-0.085869
-0.129848
-0.145461
-0.142328
-0.141096
-0.101121
-0.064410
-0.017610
0.035709
0.071783
0.082343
0.108512
0.103506
0.101536
0.086640
0.061411
0.066369
0.002666
-0.071409
-0.101894
-0.108077
-0.120090
-0.142315
-0.145024
-0.114672
-0.072613
-0.011259
0.001075
0.040821
0.072602
0.088737
0.112860
0.121248
0.113625
0.096333
0.062193
0.026243
-0.002345
-0.071485
-0.114232
-0.147160
-0.164059
-0.174411
-0.156389
-0.115412
-0.074477
-0.022629
0.044192
0.107434
0.116862
0.154466
0.168022
0.163967
0.149987
0.123207
0.090490
0.064170
0.041585
-0.012482
-0.031998
-0.075378
-0.109540
-0.131183
-0.101440
-0.079300
-0.083654
-0.055411
0.005014
0.050260
0.089243
0.117621
0.142948
0.169241
0.178443
0.151384
0.128886
0.091858
0.034010
-0.006217
-0.038973
-0.071174
-0.102693
-0.102578
-0.101689
-0.070862
-0.042247
0.007705
0.026179
0.089891
0.126003
0.155722
0.180422
0.179954
0.192022
0.185551
0.126593
0.075749
0.023653
-0.047119
-0.097002
-0.117130
-0.118670
-0.134914
-0.137983
-0.112699
-0.075978
-0.037246
0.012110
0.051442
0.104800
0.132930
0.141310
0.130420
0.135629
0.109612
0.079174
0.055325
-0.000928
-0.065353
-0.121097
-0.132231
-0.173022
-0.204191
-0.242299
-0.225777
-0.166914
-0.102176
-0.055662
0.012645
0.063283
0.085573
0.059112
0.076419
0.089709
0.048106
0.033837
0.007799
-0.004708
-0.049173
-0.126497
-0.169621
-0.211726
-0.194742
-0.205434
-0.170645
-0.121851
-0.095027
-0.007654
0.020600
0.064836
0.090275
0.114550
0.106888
0.120217
0.106316
0.073772
0.009528
-0.044541
-0.087278
-0.117897
-0.169720
-0.164017
-0.167664
-0.212016
-0.212148
-0.180579
-0.130584
-0.074970
-0.026649
0.006406
0.056577
0.095235
0.119734
0.096306
0.080236
0.055267
-0.008284
-0.051545
-0.095144
-0.128313
-0.140739
-0.178668
-0.194995
-0.180887
-0.148605
-0.117395
-0.112653
-0.074711
-0.022808
0.004769
0.030796
0.042280
0.065114
0.091978
0.078898
0.060902
0.038469
-0.005688
-0.075202
-0.117979
-0.157155
-0.180927
-0.180945
-0.180963
-0.127942
-0.042523
0.014591
0.055716
0.114000
0.172500
0.219479
0.269827
0.298536
0.363243
0.359692
0.344609
0.363123
0.349036
0.342969
0.341717
0.321606
0.334418
0.368467
0.432149
0.528923
0.582041
0.673443
0.776799
0.821696
0.887055
0.917122
0.944382
0.888916
0.942048
0.913551
0.811879
0.736491
0.609309
0.504244
0.387649
0.292124
0.240300
0.181032
0.168161
0.135081
0.129890
0.132097
0.117989
0.168754
0.241259
0.251523
0.262574
0.272812
0.284184
0.227806
0.170086
0.113927
0.071471
0.051461
0.009922
-0.052155
-0.067776
-0.086021
-0.102082
-0.081749
-0.040117
0.014512
0.038599
0.043975
0.102160
0.132904
0.166023
0.170463
0.167522
0.140946
0.076400
0.054563
0.005041
-0.053000
-0.084819
-0.128962
-0.170581
-0.135269
-0.157900
-0.166619
-0.105747
-0.070142
-0.003145
0.051550
0.113210
0.149842
0.172650
0.166857
0.143509
0.118033
0.071044
0.018560
-0.045058
-0.062750
-0.080222
-0.132334
-0.149008
-0.189000
-0.179163
-0.133067
-0.089568
-0.077056
-0.010924
0.071080
0.115431
0.131663
0.120949
0.131903
0.152669
0.108980
0.081004
0.042169
0.011556
-0.033446
-0.088068
-0.160014
-0.155907
-0.151869
-0.172268
-0.155699
-0.082261
-0.031225
0.014409
0.037350
0.115192
0.167594
0.200450
0.187819
0.161767
0.157543
0.106246
0.059832
0.029420
0.000873
-0.062283
-0.156379
-0.141075
-0.178328
-0.137927
-0.099761
-0.069149
-0.025706
0.026887
0.054887
0.112224
0.147762
0.187622
0.241329
0.211913
0.155149
0.117266
0.126473
0.069980
-0.008305
-0.052712
-0.099378
-0.108748
-0.143414
-0.165476
-0.131585
-0.040153
0.004757
0.050513
0.097054
0.139658
0.220560
0.189588
0.222712
0.259201
0.271932
0.236171
0.207487
0.107292
0.039995
-0.039480
-0.094465
-0.101144
-0.118049
-0.062094
-0.061727
-0.024039
0.042300
0.117860
0.124417
0.159353
0.172909
0.246449
0.207878
0.184217
0.214909
0.240997
0.168012
0.058310
0.017425
-0.016015
-0.027282
-0.014235
-0.043786
-0.104317
-0.072012
0.005988
0.066106
0.118520
0.135233
0.152101
0.184399
0.207571
0.233687
0.242559
0.252246
0.169103
0.079522
0.091192
0.037764
-0.009798
-0.037450
-0.069510
-0.077778
-0.064949
-0.042498
-0.016605
0.036688
0.063183
0.086456
0.098976
0.146314
0.178718
0.215823
0.187089
0.183540
0.152211
0.112125
0.073197
0.007439
-0.051199
-0.070379
-0.054145
-0.111267
-0.122135
-0.132544
-0.079579
-0.018515
0.069352
0.126838
0.140806
0.207856
0.205849
0.186918
0.165279
0.152316
0.139958
0.103335
0.057176
0.009172
-0.059330
-0.118030
-0.160367
-0.150091
-0.108963
-0.068924
-0.070124
-0.046198
0.000603
0.059583
0.127254
0.177291
0.183172
0.144800
0.147482
0.087756
0.084571
0.073792
0.050665
-0.015835
-0.068119
-0.097978
-0.131421
-0.167209
-0.190926
-0.162380
-0.101817
-0.025703
0.005441
0.055739
0.123635
0.168650
0.183107
0.177125
0.190420
0.131588
0.119884
0.075018
0.022237
-0.065985
-0.136765
-0.157967
-0.190010
-0.127495
-0.069926
-0.062558
-0.075774
-0.070720
-0.004287
0.072644
0.114650
0.141735
0.143690
0.125022
0.145641
0.131017
0.138180
0.083627
0.029198
-0.054748
-0.104115
-0.105194
-0.105026
-0.128154
-0.108039
-0.120905
-0.077312
-0.042207
0.007666
0.052060
0.080119
0.149355
0.169027
0.168162
0.170415
0.153511
0.102323
0.052337
0.008922
-0.045255
-0.072115
-0.075698
-0.116111
-0.163892
-0.148135
-0.162771
-0.114975
-0.073433
-0.052890
0.034205
0.101779
0.118762
0.174916
0.177429
0.173496
0.156518
0.125932
0.111022
0.064779
0.028381
-0.065133
-0.131862
-0.180834
-0.174218
-0.132332
-0.109986
-0.077742
-0.009171
0.042128
0.050946
0.104934
0.143983
0.159546
0.170888
0.172214
0.120922
0.091065
0.035003
-0.023911
-0.003956
-0.047221
-0.047743
-0.105814
-0.121851
-0.119712
-0.126209
-0.087251
-0.046607
-0.004426
0.088861
0.127596
0.120912
0.135476
0.126083
0.145850
0.090153
0.022483
0.021043
-0.043335
-0.082174
-0.099876
-0.134816
-0.163843
-0.104546
-0.124378
-0.132496
-0.089669
-0.028811
0.031095
-0.013264
0.069639
0.161331
0.215410
0.187138
0.163261
0.135561
0.103528
0.041051
-0.000753
-0.032897
-0.082744
-0.132361
-0.149632
-0.130431
-0.109486
-0.112518
-0.106430
-0.063836
-0.003646
0.047601
0.114812
0.150201
0.147616
0.175432
0.134824
0.139640
0.094349
0.028235
-0.056285
-0.100834
-0.154987
-0.217709
-0.238828
-0.165473
-0.106778
-0.087248
-0.035983
-0.036255
-0.030719
0.006580
0.025376
0.077542
0.183134
0.193970
0.180478
0.122848
0.076758
0.049446
-0.056485
-0.049529
-0.064030
-0.109402
-0.108284
-0.107716
-0.118863
-0.067981
-0.076050
-0.056945
0.002703
0.056338
0.139325
0.202666
0.172041
0.161782
0.183403
0.176465
0.137963
0.102507
0.034404
-0.028668
-0.086252
-0.089291
-0.097924
-0.115949
-0.149054
-0.127305
-0.084943
-0.045785
-0.005508
0.101367
0.194575
0.203551
0.205648
0.198140
0.198154
0.175290
0.145480
0.100279
0.034369
-0.030506
-0.067829
-0.113170
-0.156453
-0.101874
-0.088709
-0.018753
-0.005342
0.030004
0.015863
0.035076
0.094769
0.193498
0.142572
0.141649
0.164820
0.146017
0.135135
0.103184
0.018284
-0.057443
-0.097620
-0.138753
-0.163810
-0.138583
-0.165992
-0.155606
-0.129786
-0.063428
0.022431
0.032214
0.070889
0.136706
0.136412
0.100072
0.114773
0.120614
0.070102
0.014713
-0.031980
-0.077826
-0.120886
-0.172247
-0.177584
-0.166241
-0.202857
-0.175379
-0.095820
-0.129170
-0.064250
-0.012671
0.034215
0.061787
0.082698
0.104873
0.111241
0.069298
0.079981
0.034989
-0.034447
-0.096830
-0.108574
-0.144484
-0.193272
-0.221832
-0.185852
-0.141731
-0.126240
-0.095029
-0.067917
-0.001896
0.032849
0.103525
0.120708
0.119461
0.144913
0.087488
0.044144
0.003136
-0.034196
-0.122849
-0.174024
-0.160253
-0.154391
-0.145253
-0.168922
-0.167824
-0.139464
-0.107868
-0.023731
0.018882
0.048360
0.099609
0.115802
0.101523
0.110714
0.079576
0.021325
-0.039920
-0.019896
-0.083896
-0.118530
-0.163599
-0.217407
-0.202256
-0.199533
-0.194326
-0.155185
-0.126832
-0.063887
-0.002803
0.045378
0.068181
0.118936
0.153241
0.101718
0.098779
0.143999
0.130251
0.076421
0.029733
0.016044
-0.011290
-0.031644
0.012652
-0.000703
0.043735
0.119245
0.241935
0.333948
0.410495
0.478991
0.530136
0.558851
0.658164
0.685413
0.646914
0.704112
0.728070
0.726899
0.669620
0.681516
0.659542
0.636625
0.649243
0.622728
0.612401
0.621374
0.657763
0.716726
0.731129
0.660174
0.627341
0.564983
0.520145
0.458979
0.399956
0.334873
0.281578
0.247218
0.174892
0.128569
0.033078
-0.012036
0.002669
-0.012136
-0.060203
-0.019303
0.002956
0.033427
0.085878
0.156616
0.184306
0.190701
0.169381
0.168093
0.139644
0.111013
0.073628
0.032466
0.015563
-0.037823
-0.088822
-0.113171
-0.113009
-0.121865
-0.116125
-0.116091
-0.078504
0.006637
0.050320
0.100543
0.151407
0.166502
0.179973
0.131298
0.074771
0.066537
0.013560
-0.015318
-0.037093
-0.093792
-0.140251
-0.196485
-0.164274
-0.127521
-0.116979
-0.125047
-0.084830
-0.059997
0.033161
0.117553
0.082809
0.082190
0.108779
0.165953
0.174938
0.094423
0.067952
0.021048
-0.027785
-0.055485
-0.109762
-0.188967
-0.209380
-0.161473
-0.124220
-0.082523
-0.047726
-0.015796
0.031171
0.093732
0.127089
0.141041
0.124531
0.137273
0.117594
0.133856
0.093671
0.040954
-0.011959
-0.086459
-0.140918
-0.155451
-0.135262
-0.115115
-0.102320
-0.068954
-0.016215
-0.001864
0.021330
0.090982
0.129277
0.153901
0.151785
0.162937
0.159285
0.068820
0.069214
0.072266
-0.024292
-0.059171
-0.106500
-0.130154
-0.136463
-0.115767
-0.026805
0.020823
0.008436
0.056122
0.060612
0.099071
0.174264
0.178997
0.194053
0.228529
0.202510
0.173191
0.101234
0.040351
0.024237
-0.031339
-0.061977
-0.086802
-0.097871
-0.138221
-0.076217
0.008081
0.065466
0.078932
0.144890
0.171688
0.179205
0.187533
0.186691
0.239552
0.136701
0.142826
0.073524
0.060626
0.049749
0.014269
-0.011332
-0.062604
-0.052858
-0.076831
-0.041457
-0.032933
-0.042550
0.048716
0.115074
0.140414
0.173814
0.230797
0.228933
0.248518
0.253470
0.212126
0.134825
0.079287
0.044821
-0.005687
0.015523
-0.033888
-0.048984
-0.129083
-0.119403
-0.049909
-0.034415
-0.002657
0.060219
0.151288
0.209273
0.212352
0.217109
0.212664
0.193279
0.207359
0.157620
0.102604
0.015579
-0.066474
-0.081951
-0.053343
-0.074272
-0.096447
-0.066394
-0.048974
-0.035826
-0.031843
0.109146
0.172239
0.199776
0.221474
0.215067
0.223740
0.159789
0.129748
0.095205
0.021838
-0.030437
-0.049614
-0.086920
-0.144406
-0.156230
-0.131169
-0.098885
-0.023921
-0.006441
0.046270
0.086990
0.132770
0.144374
0.180670
0.177289
0.170550
0.150347
0.111659
0.061512
0.010477
-0.065313
-0.098491
-0.133408
-0.141522
-0.161329
-0.170293
-0.162841
-0.113528
-0.045472
-0.001228
0.058067
0.088672
0.142142
0.129579
0.146856
0.145742
0.079775
0.032649
0.072992
0.018788
0.025313
-0.065502
-0.120328
-0.188056
-0.174217
-0.111637
-0.081018
-0.057428
-0.060482
-0.010745
0.062534
0.095163
0.101355
0.086009
0.087252
0.127400
0.190143
0.114408
0.007717
-0.025177
-0.047659
-0.068048
-0.120980
-0.166862
-0.177034
-0.153627
-0.099916
-0.052848
-0.076626
-0.002358
0.053428
0.079850
0.164648
0.172228
0.140231
0.108484
0.134919
0.112375
0.056338
-0.019037
-0.022893
-0.078828
-0.097473
-0.095882
-0.066737
-0.130075
-0.178224
-0.146621
-0.092261
-0.000382
0.091076
0.116333
0.099960
0.109437
0.151750
0.146715
0.123745
0.114726
0.064019
-0.022705
-0.056799
-0.065491
-0.080300
-0.118879
-0.137431
-0.151101
-0.108662
-0.111107
-0.086577
0.020671
0.084596
0.090696
0.094401
0.156910
0.151875
0.152221
0.142218
0.114331
0.048503
-0.003737
-0.051146
-0.050739
-0.107745
-0.137565
-0.163686
-0.183641
-0.164391
-0.126279
-0.085818
-0.065416
-0.017736
0.113100
0.170107
0.144232
0.093787
0.149197
0.135182
0.115664
0.075172
0.010138
-0.059559
-0.100324
-0.157654
-0.186591
-0.210428
-0.141381
-0.106068
-0.070559
-0.019078
0.024403
0.052088
0.087583
0.090188
0.099975
0.169156
0.162190
0.136912
0.093836
0.049398
0.010180
-0.057767
-0.094732
-0.151391
-0.228209
-0.267629
-0.242843
-0.161710
-0.055684
-0.040409
-0.042042
0.030952
0.102416
0.155020
0.154553
0.133858
0.151386
0.124326
0.112419
0.065851
-0.009849
-0.066628
-0.062708
-0.125286
-0.162403
-0.198486
-0.179002
-0.138724
-0.086650
-0.040017
-0.011247
0.014963
0.080369
0.128824
0.127224
0.132498
0.140384
0.138096
0.091395
0.058487
-0.001648
-0.024048
-0.090197
-0.159226
-0.199332
-0.137894
-0.137227
-0.119899
-0.069598
-0.021934
0.040625
0.074232
0.093682
0.161798
0.174610
0.179276
0.177903
0.163782
0.097102
0.024524
-0.016416
-0.057742
-0.120461
-0.162773
-0.174013
-0.179882
-0.178465
-0.128328
-0.052862
-0.026806
0.007837
0.075245
0.121649
0.148087
0.146599
0.207881
0.239828
0.188137
0.168720
0.108589
0.036736
-0.039166
-0.063993
-0.072610
-0.101978
-0.131899
-0.197897
-0.146964
-0.047678
-0.036306
0.021768
0.089955
0.127339
0.106255
0.183414
0.201614
0.188954
0.152436
0.125125
0.066781
0.008169
-0.029412
-0.107739
-0.174773
-0.188518
-0.155721
-0.190512
-0.192940
-0.108102
-0.034680
0.001703
0.072870
0.104692
0.088477
0.084653
0.116788
0.095906
0.080508
0.058582
0.001075
-0.034581
-0.050039
-0.102815
-0.164181
-0.184945
-0.205333
-0.257027
-0.211644
-0.099955
-0.087851
-0.090073
-0.046495
0.031882
0.091972
0.128428
0.112598
0.095707
0.048538
0.030996
0.003058
-0.069878
-0.051819
-0.096868
-0.145469
-0.193926
-0.241538
-0.230864
-0.173682
-0.157111
-0.108346
-0.038124
-0.013030
0.012364
0.058991
0.086983
0.123946
0.129804
0.097810
0.052460
0.004342
-0.073920
-0.125786
-0.131324
-0.170933
-0.218296
-0.226504
-0.249593
-0.224116
-0.148750
-0.132705
-0.101845
-0.023123
0.065509
0.089105
0.125646
0.145372
0.151163
0.076362
0.032685
-0.009103
-0.042509
-0.124954
-0.156676
-0.149409
-0.210099
-0.271339
-0.249240
-0.164175
-0.136314
-0.132684
-0.148296
-0.075815
-0.017993
0.052905
0.124785
0.147115
0.127464
0.130550
0.079791
0.038975
-0.011474
-0.039419
-0.057411
-0.055686
-0.058664
-0.036128
-0.015160
0.005413
0.008485
0.153010
0.215797
0.287545
0.350354
0.433240
0.484468
0.493090
0.521277
0.568092
0.582155
0.601410
0.581330
0.592022
0.590755
0.584340
0.570361
0.564618
0.618454
0.626430
0.641472
0.656117
0.672212
0.691204
0.708088
0.696513
0.653273
0.585817
0.543104
0.490732
0.424212
0.319668
0.223184
0.144135
0.078411
0.037993
0.010388
0.007477
-0.019951
-0.018837
0.070415
0.051483
0.060427
0.080689
0.124573
0.138067
0.176626
0.185607
0.160128
0.173594
0.123969
0.061931
0.006739
-0.012570
-0.044543
-0.121166
-0.159220
-0.170585
-0.144405
-0.077884
-0.060381
-0.039724
-0.010700
0.055682
0.096564
0.147745
0.143703
0.110292
0.091734
0.088238
0.037599
-0.006137
-0.032813
-0.071275
-0.132296
-0.166623
-0.148238
-0.170952
-0.169837
-0.157226
-0.094968
-0.071500
-0.056341
0.019518
0.093593
0.157365
0.149855
0.124498
0.099412
0.071639
0.020344
-0.003732
0.016035
-0.044961
-0.108487
-0.125571
-0.150051
-0.131458
-0.156115
-0.136002
-0.145893
-0.103751
-0.052100
0.064978
0.104207
0.123207
0.168996
0.159773
0.123693
0.108693
0.087161
0.054050
0.011859
-0.042828
-0.083484
-0.116915
-0.144859
-0.138477
-0.155903
-0.099563
-0.072096
-0.047417
-0.040367
0.038708
0.100422
0.150229
0.143224
0.158962
0.174556
0.125475
0.102285
0.091103
-0.003147
-0.033544
-0.051730
-0.114232
-0.124273
-0.152479
-0.155153
-0.119473
-0.066960
-0.029851
0.025894
0.092465
0.131850
0.157930
0.191012
0.214648
0.175646
0.168432
0.123975
0.083658
0.043964
-0.004898
-0.063820
-0.092421
-0.103784
-0.105751
-0.111562
-0.070292
-0.056934
-0.002287
0.054947
0.091236
0.142504
0.183112
0.225143
0.196887
0.192591
0.165957
0.125956
0.129222
0.079532
-0.005516
-0.035139
-0.052574
-0.063162
-0.053149
-0.071325
-0.104546
-0.044188
0.000054
0.043434
0.061917
0.154824
0.185086
0.219332
0.191618
0.135511
0.137394
0.155610
0.139157
0.083816
0.039033
0.004742
-0.036086
-0.041307
-0.048327
-0.096020
-0.080367
-0.008093
-0.011671
0.026312
0.065167
0.110281
0.152593
0.157788
0.157665
0.160375
0.187159
0.162560
0.131912
0.067025
-0.033014
-0.041861
-0.031606
-0.027116
-0.095643
-0.084185
-0.044612
-0.040269
-0.005203
0.020089
0.055528
0.121660
0.124240
0.144533
0.220480
0.200520
0.171088
0.124893
0.080844
0.041544
-0.017129
-0.065778
-0.119293
-0.123947
-0.109489
-0.131921
-0.111370
-0.095197
-0.040255
-0.028973
0.013856
0.057380
0.090197
0.131210
0.178509
0.177733
0.166762
0.113035
0.055560
0.016802
-0.027261
-0.060377
-0.090540
-0.122015
-0.141321
-0.137869
-0.143558
-0.119702
-0.070100
-0.008799
0.036589
0.070651
0.109249
0.121625
0.111780
0.086157
0.100469
0.079442
0.015426
-0.018869
-0.069323
-0.107973
-0.160097
-0.186713
-0.185161
-0.202038
-0.135063
-0.046233
-0.017131
-0.014113
-0.025022
0.067893
0.107922
0.128687
0.129268
0.149777
0.095239
0.052761
0.006820
-0.058938
-0.096161
-0.120165
-0.139154
-0.169025
-0.157905
-0.138652
-0.110752
-0.083434
-0.039722
0.000098
0.009200
0.056079
0.113550
0.136065
0.137961
0.105047
0.052038
0.014657
-0.028450
-0.073113
-0.100167
-0.103087
-0.099598
-0.124534
-0.136102
-0.152293
-0.160032
-0.136195
-0.058286
0.007718
0.067234
0.051669
0.087840
0.114738
0.112414
0.099943
0.085901
0.063686
0.054720
0.004400
-0.037206
-0.082863
-0.129957
-0.159121
-0.190690
-0.174156
-0.192250
-0.162476
-0.059838
0.004529
0.045310
0.094451
0.127814
0.152619
0.154638
0.136111
0.135544
0.076806
0.023223
-0.015779
-0.085628
-0.118400
-0.171369
-0.117963
-0.154287
-0.141666
-0.174169
-0.135743
-0.057222
-0.015831
0.039304
0.074464
0.090597
0.110317
0.122379
0.129780
0.108990
0.069529
0.038351
-0.006069
-0.083818
-0.135777
-0.137521
-0.154009
-0.142999
-0.158916
-0.164943
-0.166569
-0.119368
-0.073722
-0.011943
0.030085
0.109803
0.109238
0.108789
0.147268
0.097170
0.072639
0.023237
-0.007343
-0.047356
-0.065722
-0.106393
-0.176439
-0.211905
-0.213584
-0.154041
-0.098645
-0.068993
-0.014701
-0.047938
0.052554
0.082240
0.085186
0.076227
0.089616
0.071804
0.077214
0.035137
-0.007571
-0.057120
-0.103109
-0.129387
-0.156013
-0.172782
-0.168353
-0.137690
-0.108562
-0.047261
-0.016225
0.027380
0.047858
0.070384
0.079047
0.166650
0.176164
0.157900
0.110747
0.075373
0.013542
-0.074730
-0.100678
-0.103047
-0.125297
-0.141764
-0.130243
-0.148337
-0.088118
-0.057470
-0.016666
0.056093
0.075963
0.104668
0.139335
0.153806
0.139958
0.123631
0.107288
0.068348
-0.001437
-0.077072
-0.136122
-0.095231
-0.091637
-0.097304
-0.103098
-0.073089
-0.082130
-0.067459
0.007261
0.078591
0.122828
0.146223
0.167002
0.195027
0.219968
0.211450
0.131895
-0.014891
-0.059353
-0.067027
-0.095253
-0.133232
-0.174510
-0.177965
-0.144048
-0.137484
-0.128265
-0.040376
0.026134
0.045995
0.086334
0.128509
0.159608
0.149854
0.129287
0.108233
0.064289
0.005303
-0.042422
-0.072074
-0.127840
-0.178985
-0.206213
-0.211215
-0.187822
-0.150657
-0.144461
-0.116855
-0.068512
-0.018729
0.057214
0.096845
0.108406
0.115386
0.081047
0.053229
0.035162
-0.012298
-0.065444
-0.120900
-0.187452
-0.204885
-0.216247
-0.207886
-0.198119
-0.203918
-0.177024
-0.088286
-0.041772
-0.018507
0.016195
0.062740
0.101273
0.126229
0.118679
0.077270
0.055118
0.021394
-0.065925
-0.146810
-0.181431
-0.239385
-0.255445
-0.254497
-0.228499
-0.222346
-0.194384
-0.129579
-0.061751
0.006537
0.044262
0.070836
0.088512
0.085810
0.071482
0.059504
0.038955
0.007267
-0.059765
-0.083864
-0.147519
-0.187873
-0.233702
-0.234054
-0.223127
-0.224452
-0.227481
-0.165057
-0.078219
0.029063
0.047822
0.063640
0.086130
0.077301
0.080823
0.076110
0.035015
-0.006862
-0.073135
-0.133381
-0.164949
-0.188209
-0.235816
-0.234120
-0.220704
-0.208562
-0.176628
-0.114589
-0.055386
0.021302
0.093480
0.140962
0.182702
0.245512
0.254155
0.224768
0.177319
0.136894
0.179849
0.162002
0.111853
0.158356
0.193288
0.180555
0.182633
0.251525
0.310907
0.387917
0.476776
0.574563
0.688062
0.771375
0.828939
0.877695
0.871978
0.843293
0.812319
0.777368
0.720509
0.659595
0.615415
0.514193
0.457583
0.393405
0.334604
0.289039
0.299077
0.275530
0.273706
0.285089
0.289502
0.315258
0.287541
0.255894
0.232414
0.215871
0.203894
0.165235
0.077118
0.010267
0.003501
-0.050704
-0.077289
-0.070501
-0.098769
-0.066247
-0.088859
-0.031533
0.050794
0.123002
0.134282
0.138620
0.162591
0.145404
0.112866
0.101717
0.056508
0.020018
-0.018217
-0.066071
-0.077063
-0.127484
-0.172975
-0.178213
-0.177466
-0.156210
-0.122511
-0.106336
-0.044549
0.036203
0.079761
0.073071
0.085735
0.117692
0.098617
0.060935
0.030892
0.007056
-0.043451
-0.102613
-0.109322
-0.131408
-0.150915
-0.178262
-0.164250
-0.188942
-0.139719
-0.061316
-0.016976
0.045870
0.086004
0.079136
0.108908
0.137923
0.132028
0.091788
0.038372
0.021833
-0.059391
-0.066100
-0.091634
-0.133648
-0.147692
-0.148969
-0.155534
-0.162642
-0.080597
-0.054834
0.019213
0.045379
0.084059
0.139440
0.118129
0.104964
0.082922
0.093822
0.089991
0.081671
0.024218
-0.008323
-0.086721
-0.182658
-0.211871
-0.187913
-0.149031
-0.131597
-0.105561
-0.064271
0.002775
0.059325
0.095162
0.192008
0.200063
0.202026
0.162558
0.155543
0.116181
0.063021
0.023680
0.010697
-0.060932
-0.086563
-0.110554
-0.129662
-0.117322
-0.082561
-0.049004
-0.007103
0.007239
0.061325
0.103684
0.143242
0.183477
0.204294
0.166959
0.165828
0.214568
0.156709
0.076790
0.008301
-0.025975
-0.043161
-0.098748
-0.122062
-0.173844
-0.092698
-0.004756
-0.009340
0.004839
0.078764
0.143835
0.184393
0.201864
0.204531
0.205485
0.194301
0.192226
0.153263
0.091181
0.004463
-0.035987
-0.058020
-0.073421
-0.105586
-0.083876
-0.057708
-0.026656
0.042630
0.048331
0.030100
0.111479
0.163212
0.165573
0.183471
0.217563
0.191196
0.168632
0.126122
0.062238
0.026853
-0.046718
-0.087952
-0.073628
-0.090457
-0.094700
-0.073942
-0.042478
0.000708
0.047761
0.065310
0.121093
0.152892
0.145927
0.121075
0.169147
0.191990
0.151374
0.115073
0.053138
-0.041513
-0.075378
-0.089018
-0.084890
-0.098532
-0.075530
-0.051594
-0.076521
-0.015194
0.050904
0.094389
0.146299
0.127574
0.099196
0.114995
0.094422
0.097328
0.077434
0.057102
0.033758
-0.021065
-0.057192
-0.087030
-0.138580
-0.143171
-0.155616
-0.108110
-0.055788
-0.040061
-0.024720
0.011283
0.056043
0.110055
0.122909
0.147373
0.130067
0.094642
0.071354
0.018284
-0.051298
-0.060239
-0.106744
-0.147925
-0.159707
-0.153560
-0.148547
-0.151294
-0.122525
-0.046259
0.017606
0.041842
0.046159
0.090007
0.127344
0.134403
0.123216
0.068939
0.046751
-0.020239
-0.080037
-0.101308
-0.123884
-0.160492
-0.170863
-0.187597
-0.178868
-0.142612
-0.104997
-0.080828
-0.040574
0.040671
0.099298
0.072217
0.120434
0.139649
0.106871
0.127414
0.081505
-0.003906
-0.049388
-0.129045
-0.170729
-0.155850
-0.162334
-0.183923
-0.180240
-0.171211
-0.138894
-0.070794
-0.024404
0.017382
0.055637
0.099135
0.132485
0.134536
0.134079
0.126853
0.100484
0.032565
-0.007067
-0.046821
-0.108617
-0.163146
-0.188853
-0.228634
-0.230818
-0.193160
-0.133644
-0.082961
-0.036221
0.011402
0.049377
0.083661
0.141473
0.153218
0.142626
0.108329
0.076425
0.052002
0.010439
-0.041499
-0.115880
-0.146339
-0.152247
-0.190263
-0.201181
-0.191699
-0.180830
-0.125583
-0.052389
0.013587
0.059756
0.090794
0.105080
0.150555
0.151911
0.131993
0.100868
0.060922
0.009027
-0.058779
-0.132136
-0.141579
-0.165751
-0.175383
-0.192354
-0.172272
-0.146654
-0.097342
-0.056906
0.000811
0.022241
0.030172
0.074162
0.130402
0.112487
0.108298
0.093552
0.050481
0.000022
-0.069460
-0.104348
-0.110399
-0.142945
-0.209649
-0.208639
-0.185156
-0.148424
-0.129477
-0.078505
-0.021801
0.045395
0.081143
0.105420
0.104391
0.108265
0.080652
0.038150
0.006617
-0.037851
-0.088703
-0.149223
-0.139721
-0.169751
-0.208766
-0.164754
-0.129256
-0.108592
-0.082860
-0.043571
0.002712
0.034059
0.091214
0.125483
0.108032
0.111401
0.094896
0.067961
0.038442
0.007408
-0.035918
-0.105467
-0.155467
-0.181711
-0.175972
-0.154150
-0.110710
-0.069534
-0.013797
-0.014855
0.031294
0.106161
0.141771
0.135185
0.110819
0.113399
0.094694
0.054141
0.012915
-0.028965
-0.074090
-0.080325
-0.138938
-0.182268
-0.176826
-0.126793
-0.093553
-0.094618
-0.060276
0.010684
0.060053
0.107758
0.124067
0.134655
0.145141
0.139039
0.130806
0.093825
0.041872
0.021202
-0.034653
-0.109681
-0.157930
-0.184154
-0.178591
-0.123328
-0.091582
-0.066804
-0.048119
-0.017576
0.016208
0.088780
0.145577
0.147660
0.147426
0.084984
0.081285
0.039642
0.009152
-0.021932
-0.074714
-0.131860
-0.205423
-0.196657
-0.214905
-0.199264
-0.182911
-0.158438
-0.111255
-0.039559
0.008474
0.034498
0.053221
0.072670
0.082105
0.081209
0.071901
0.054638
0.016296
-0.075086
-0.121573
-0.168044
-0.208177
-0.255198
-0.266980
-0.248036
-0.186842
-0.161933
-0.129955
-0.100252
-0.041430
-0.001884
0.048588
0.085625
0.105554
0.097242
0.084061
0.030589
-0.049489
-0.116551
-0.143913
-0.168953
-0.245322
-0.266345
-0.238595
-0.230313
-0.219633
-0.177897
-0.141054
-0.119777
-0.038828
0.035364
0.062663
0.041394
0.070495
0.102331
0.056719
0.008645
-0.011625
-0.085274
-0.161711
-0.203761
-0.217510
-0.253388
-0.270124
-0.267453
-0.245153
-0.185931
-0.131787
-0.104830
-0.045988
-0.009200
0.036270
0.079951
0.092337
0.068986
0.051971
0.020125
-0.030191
-0.095236
-0.146310
-0.192218
-0.210661
-0.261051
-0.280028
-0.283627
-0.252626
-0.196360
-0.146732
-0.092076
-0.042347
-0.020405
0.035618
0.101276
0.124978
0.157058
0.119445
0.042494
0.038131
0.034029
0.038926
-0.004465
-0.033419
-0.047354
-0.011140
0.016994
0.075712
0.139248
0.192863
0.262055
0.340993
0.429034
0.496323
0.564710
0.628483
0.661388
0.706261
0.720787
0.729716
0.703715
0.692549
0.610447
0.571440
0.513654
0.492686
0.490639
0.508599
0.515495
0.533030
0.512462
0.467284
0.436396
0.435057
0.415131
0.426915
0.345553
0.279706
0.229836
0.170691
0.147152
0.117631
0.050963
-0.016156
-0.074669
-0.118675
-0.123741
-0.085608
-0.047248
-0.007961
-0.003037
0.026999
0.080404
0.110569
0.128552
0.115012
0.173766
0.115286
0.063175
0.015755
-0.023179
-0.059280
-0.097340
-0.130753
-0.158558
-0.178777
-0.162751
-0.171643
-0.149233
-0.095213
-0.072500
0.000496
0.049436
0.062785
0.071728
0.096287
0.076683
0.041817
0.025596
-0.005725
-0.035023
-0.084996
-0.132550
-0.152228
-0.172768
-0.180098
-0.179368
-0.184833
-0.146401
-0.119657
-0.062815
0.011235
0.032765
0.058018
0.077084
0.121842
0.133612
0.078804
0.012682
-0.040700
-0.025917
-0.083371
-0.137479
-0.165802
-0.175983
-0.174810
-0.182036
-0.159134
-0.116980
-0.075674
-0.030538
0.023821
0.044085
0.084372
0.120140
0.085571
0.073684
0.058513
0.009696
-0.018986
-0.051634
-0.088963
-0.125867
-0.144475
-0.164001
-0.158783
-0.200273
-0.162352
-0.122428
-0.058070
-0.038282
0.039256
0.065263
0.099733
0.121055
0.140917
0.128992
0.101591
0.059050
0.031574
-0.018032
-0.068208
-0.115167
-0.147954
-0.137283
-0.128300
-0.094320
-0.086705
-0.087542
-0.081651
-0.045779
0.025333
0.097203
0.148139
0.161581
0.198023
0.177771
0.144438
0.110042
0.058905
0.013850
-0.067934
-0.093347
-0.118338
-0.128702
-0.127460
-0.122539
-0.093195
-0.059546
-0.014511
0.057002
0.107979
0.140789
0.119830
0.159485
0.201115
0.184203
0.155165
0.146046
0.072145
0.021488
-0.019106
-0.062176
-0.092077
-0.117688
-0.106626
-0.111091
-0.124582
-0.100163
-0.047887
0.072241
0.154084
0.169306
0.156129
0.198235
0.203267
0.216886
0.170280
0.131666
0.103671
0.044768
-0.034850
-0.090627
-0.102021
-0.127207
-0.141041
-0.126279
-0.092862
-0.064613
-0.003413
0.029231
0.072785
0.117203
0.151459
0.147666
0.155260
0.193336
0.175100
0.127863
0.084760
0.054902
-0.000974
-0.059095
-0.091433
-0.139948
-0.175502
-0.154733
-0.115148
-0.083742
-0.047964
-0.012756
0.040155
0.091664
0.106690
0.128392
0.154397
0.141007
0.138787
0.082179
0.035863
-0.000602
-0.035477
-0.076181
-0.115870
-0.141879
-0.192026
-0.194398
-0.156592
-0.107921
-0.075843
-0.013525
0.029414
0.065196
0.104831
0.108330
0.106459
0.120089
0.092882
0.070174
0.026728
-0.029732
-0.073961
-0.126981
-0.171796
-0.169839
-0.187302
-0.191025
-0.142093
-0.120099
-0.088716
-0.040309
-0.016064
0.017705
0.062128
0.099556
0.128194
0.096387
0.049957
0.061307
0.019888
-0.035403
-0.073026
-0.129250
-0.157415
-0.166156
-0.185442
-0.168719
-0.174382
-0.143151
-0.122602
-0.085640
-0.091313
0.030597
0.079540
0.111309
0.100293
0.068068
0.071098
0.058982
-0.007158
-0.062966
-0.099724
-0.122774
-0.148836
-0.175006
-0.163177
-0.166228
-0.162452
-0.131654
-0.118405
-0.074138
0.023481
0.082406
0.103196
0.109042
0.111374
0.110949
0.080946
0.074279
0.010563
-0.061392
-0.102666
-0.149225
-0.178496
-0.196554
-0.200006
-0.173267
-0.150785
-0.119588
-0.102188
-0.063878
-0.009798
0.051817
0.107189
0.087335
0.135261
0.113694
0.080944
0.058693
0.025255
-0.050322
-0.075299
-0.093493
-0.133306
-0.177938
-0.217276
-0.201639
-0.134104
-0.117451
-0.075020
-0.043198
-0.002034
0.058243
0.104862
0.131107
0.190229
0.141964
0.097606
0.051026
0.010038
-0.051274
-0.090693
-0.150398
-0.178830
-0.169235
-0.180635
-0.174775
-0.152847
-0.129413
-0.108062
-0.060869
0.003400
0.069358
0.090820
0.111793
0.146827
0.118987
0.075589
0.032698
0.007682
-0.039519
-0.081406
-0.116287
-0.141229
-0.146994
-0.158383
-0.189912
-0.191656
-0.137139
-0.084232
-0.035483
-0.008254
0.028262
0.069547
0.102947
0.119136
0.100925
0.094412
0.042524
0.009383
-0.013597
-0.069793
-0.120933
-0.173299
-0.171582
-0.194565
-0.210982
-0.163965
-0.158171
-0.132792
-0.074660
-0.006011
0.036731
0.056885
0.086756
0.121896
0.115627
0.084915
0.054083
0.041058
-0.012709
-0.071881
-0.121050
-0.154067
-0.173425
-0.219553
-0.221585
-0.183568
-0.159599
-0.090503
-0.036484
0.020449
0.073418
0.103330
0.113450
0.118879
0.104906
0.103985
0.080063
0.063922
0.034646
-0.022713
-0.069120
-0.110115
-0.129247
-0.161252
-0.150829
-0.149368
-0.122403
-0.088479
-0.067321
-0.035912
0.046649
0.097174
0.124276
0.151005
0.169020
0.140248
0.109023
0.066586
0.021833
-0.028543
-0.076021
-0.138956
-0.141713
-0.137150
-0.107119
-0.094057
-0.046826
0.002818
0.007526
0.055906
0.112250
0.121343
0.139561
0.158682
0.124623
0.120123
0.099367
0.053011
0.006912
-0.045152
-0.073071
-0.107870
-0.143963
-0.171350
-0.164831
-0.119931
-0.106537
-0.121506
-0.071119
-0.012111
0.024740
0.073077
0.137596
0.141160
0.098552
0.092354
0.053297
0.009650
-0.054294
-0.082419
-0.123515
-0.145740
-0.169371
-0.204090
-0.196551
-0.155386
-0.141806
-0.107935
-0.039516
0.000887
0.045362
0.069221
0.075213
0.079193
0.091075
0.101885
0.071557
0.023351
-0.058772
-0.131121
-0.153549
-0.184807
-0.183974
-0.236080
-0.207047
-0.175404
-0.140173
-0.112361
-0.072504
-0.018593
0.031242
0.071248
0.080903
0.118009
0.106909
0.072814
0.042788
-0.020313
-0.061401
-0.094977
-0.144538
-0.205340
-0.227817
-0.237740
-0.218708
-0.187432
-0.163203
-0.119750
-0.069399
-0.022911
0.031351
0.086145
0.104471
0.104563
0.101095
0.077540
0.050021
0.006541
-0.059002
-0.103343
-0.143433
-0.187635
-0.208087
-0.222961
-0.212201
-0.200022
-0.146501
-0.097443
-0.067966
-0.025292
0.025973
0.043262
0.065878
0.097882
0.090981
0.082147
0.047790
0.005887
-0.058683
-0.090185
-0.128981
-0.161927
-0.163390
-0.182174
-0.162073
-0.132784
-0.091953
-0.026799
0.047094
0.090298
0.144310
0.195570
0.249173
0.261438
0.280179
0.289825
0.279777
0.262559
0.256829
0.251844
0.246075
0.248256
0.248950
0.255015
0.285723
0.349676
0.437335
0.516402
0.593409
0.690830
0.766953
0.847411
0.857346
0.862205
0.856663
0.832378
0.777610
0.733616
0.691050
0.620939
0.529016
0.420783
0.320851
0.245577
0.211861
0.188628
0.189320
0.201757
0.204148
0.228525
0.262070
0.270583
0.270617
0.289702
0.262418
0.237245
0.192628
0.144694
0.077486
0.023083
-0.019334
-0.088824
-0.110539
-0.128167
-0.112201
-0.067647
-0.054210
-0.039987
0.002708
0.066785
0.107974
0.158910
0.176235
0.180996
0.169021
0.143499
0.079274
0.095442
0.025461
-0.018437
-0.077153
-0.144950
-0.144814
-0.152217
-0.137521
-0.131510
-0.094986
-0.036570
0.021801
0.042372
0.088940
0.121331
0.145058
0.164946
0.153145
0.124259
0.077053
0.038442
0.007594
-0.043316
-0.095036
-0.140809
-0.170716
-0.174843
-0.149687
-0.125777
-0.087099
-0.044896
0.009756
0.051178
0.099000
0.147385
0.140720
0.160288
0.172203
0.140537
0.104228
0.080414
0.040973
-0.023665
-0.077634
-0.113484
-0.136278
-0.157908
-0.152106
-0.119989
-0.097284
-0.054489
-0.010605
0.037071
0.100021
0.141130
0.189740
0.200767
0.188755
0.159984
0.113776
0.066672
0.029747
-0.013741
-0.047235
-0.060282
-0.098869
-0.114734
-0.113435
-0.095187
-0.055616
-0.011877
0.045787
0.098982
0.142181
0.177973
0.190982
0.213858
0.212385
0.192580
0.158130
0.117684
0.056329
0.018381
-0.030522
-0.048702
-0.045101
-0.069497
-0.085868
-0.067736
-0.026061
0.018825
0.065598
0.109203
0.151136
0.194094
0.218786
0.236828
0.230849
0.197397
0.187426
0.156489
0.128202
0.084165
0.030452
-0.020174
-0.039805
-0.050174
-0.050969
-0.023645
0.021345
0.073039
0.113840
0.147631
0.169268
0.199599
0.244623
0.261998
0.253531
0.233330
0.202921
0.164273
0.113799
0.080067
0.042379
-0.015339
-0.037545
-0.023842
-0.046973
-0.027808
0.003006
0.065991
0.126571
0.185087
0.220624
0.256744
0.242090
0.254502
0.263120
0.229676
0.197559
0.160632
0.108498
0.050909
0.003262
-0.009631
-0.026031
-0.042403
-0.039171
-0.013324
0.015581
0.060697
0.090663
0.130657
0.170031
0.214856
0.248848
0.251617
0.230065
0.228358
0.197288
0.143289
0.090587
0.022634
-0.049278
-0.067737
-0.074814
-0.078907
-0.079460
-0.037248
0.008624
0.056290
0.086036
0.125251
0.166682
0.186187
0.217484
0.229771
0.209117
0.182928
0.149419
0.107755
0.062366
-0.013971
-0.064539
-0.049483
-0.069119
-0.091910
-0.096640
-0.080571
-0.052324
-0.023382
0.011827
0.057756
0.122781
0.153908
0.236538
0.238351
0.218969
0.181968
0.120740
0.071258
-0.000752
-0.065913
-0.114248
-0.146203
-0.141585
-0.134365
-0.136690
-0.117975
-0.063776
0.011309
0.076745
0.093968
0.130088
0.165460
0.168994
0.174858
0.206600
0.186029
0.136115
0.098329
0.056655
0.012772
-0.038179
-0.087262
-0.121077
-0.125547
-0.112568
-0.094269
-0.096722
-0.039904
0.011373
0.075630
0.110072
0.138236
0.164305
0.217922
0.225658
0.192964
0.176269
0.116270
0.047275
-0.019615
-0.030747
-0.063241
-0.101692
-0.117373
-0.111255
-0.066475
-0.039905
-0.011306
0.016937
0.058702
0.123136
0.193351
0.197770
0.192428
0.173874
0.156016
0.132253
0.111688
0.070624
0.024169
-0.025178
-0.090093
-0.085402
-0.089110
-0.081431
-0.066630
-0.041389
-0.006924
0.051825
0.099064
0.141896
0.180644
0.193215
0.209744
0.177221
0.161180
0.136246
0.098136
0.054728
0.004114
-0.035534
-0.066810
-0.079152
-0.088456
-0.075929
-0.045273
-0.005311
0.033211
0.067705
0.113521
0.142325
0.172266
0.188766
0.199256
0.192301
0.183417
0.142690
0.097627
0.055253
0.008336
-0.043335
-0.072700
-0.085626
-0.093504
-0.087032
-0.066429
-0.034347
-0.002022
0.053248
0.112227
0.159341
0.191332
0.203887
0.209775
0.206764
0.180043
0.137981
0.059942
0.042816
-0.003547
-0.055131
-0.088389
-0.098395
-0.115395
-0.109399
-0.096085
-0.050208
0.003944
0.060214
0.108399
0.153525
0.189964
0.201930
0.195345
0.201608
0.185105
0.145090
0.094942
0.036908
0.006184
-0.030945
-0.065865
-0.100226
-0.118700
-0.109618
-0.069589
-0.041859
0.004562
0.064731
0.121576
0.166488
0.195354
0.225667
0.249216
0.226679
0.205851
0.165928
0.127612
0.054992
0.006738
-0.012175
-0.051719
-0.064338
-0.079811
-0.085541
-0.059439
-0.023670
0.010983
0.065370
0.135268
0.158539
0.209305
0.251444
0.255213
0.240905
0.211381
0.179908
0.133305
0.071603
0.039650
-0.017340
-0.059504
-0.067395
-0.064829
-0.076052
-0.060023
-0.028175
0.020976
0.081330
0.149433
0.183496
0.220580
0.248725
0.255778
0.250021
0.234591
0.220713
0.190445
0.111913
0.049393
-0.000061
-0.033386
-0.058248
-0.078192
-0.084666
-0.069344
-0.043609
-0.026743
0.021054
0.067369
0.133763
0.170057
0.196991
0.220525
0.226569
0.218614
0.180581
0.127005
0.068166
0.030959
-0.020690
-0.062440
-0.081152
-0.100326
-0.083204
-0.059957
-0.027438
-0.004088
0.051250
0.072531
0.101969
0.133829
0.157322
0.153665
0.189031
0.186919
0.136868
0.091239
0.026111
-0.030592
-0.060080
-0.090798
-0.115134
-0.125484
-0.109501
-0.088153
-0.096007
-0.042432
-0.005173
0.059044
0.121440
0.170855
0.194158
0.184997
0.168923
0.136315
0.089387
0.045566
-0.000189
-0.038366
-0.063995
-0.102270
-0.123650
-0.126867
-0.116371
-0.084129
-0.040864
-0.014239
0.025763
0.069712
0.107643
0.128065
0.159308
0.162609
0.140438
0.105254
0.085697
0.057795
0.004031
-0.035929
-0.080409
-0.114224
-0.135663
-0.141802
-0.111748
-0.094549
-0.049406
-0.026339
0.012487
0.053726
0.103486
0.151344
0.168436
0.164761
0.159284
0.185059
0.137043
0.070021
-0.014517
-0.029140
-0.087236
-0.140025
-0.146223
-0.116859
-0.121936
-0.113256
-0.070991
-0.004448
0.062001
0.074218
0.146885
0.193855
0.227567
0.250428
0.265199
0.268487
0.243652
0.200194
0.154461
0.120542
0.088495
0.083381
0.090396
0.114424
0.146952
0.203820
0.268883
0.354164
0.435991
0.513360
0.589827
0.645985
0.663975
0.723727
0.784763
0.792764
0.803511
0.786133
0.772363
0.736502
0.657308
0.636146
0.610127
0.590873
0.574599
0.595756
0.608789
0.611565
0.608424
0.589158
0.572075
0.551476
0.521658
0.501717
0.439718
0.366157
0.288677
0.227236
0.163738
0.107710
0.045951
0.015229
-0.013301
-0.015928
0.009457
0.025831
0.062115
0.084151
0.105258
0.162013
0.198188
0.230318
0.254011
0.259078
0.255584
0.235471
0.188225
0.128772
0.093713
0.038282
-0.017670
-0.056624
-0.040969
-0.079865
-0.074997
-0.052377
-0.020485
0.011857
0.062285
0.113967
0.139764
0.177828
0.203357
0.194546
0.200406
0.187080
0.163883
0.133715
0.080374
0.019309
-0.021165
-0.060277
-0.098354
-0.103107
-0.081850
-0.051840
-0.009142
0.022242
0.059603
0.099312
0.127038
0.160934
0.190510
0.196681
0.215155
0.178892
0.136030
0.104552
0.082462
0.036408
-0.006219
-0.034277
-0.058834
-0.091256
-0.081146
-0.055235
-0.013359
0.028202
0.079773
0.125478
0.156652
0.190772
0.211138
0.230479
0.223266
0.203711
0.169838
0.125029
0.076802
0.039754
0.002783
-0.032523
-0.050500
-0.069252
-0.064978
-0.037023
0.020236
0.052957
0.090419
0.153409
0.188325
0.204159
0.226998
0.233095
0.243800
0.232575
0.201370
0.157104
0.101733
0.058458
0.035550
-0.016982
-0.028130
-0.017520
-0.022111
-0.009198
0.023874
0.077729
0.131536
0.184563
0.218145
0.243887
0.266847
0.266272
0.258705
0.222932
0.179966
0.166262
0.134839
0.100314
0.077588
0.043425
-0.004829
-0.016314
-0.009402
0.023701
0.042217
0.067933
0.131459
0.170251
0.216085
0.302286
0.349131
0.342303
0.330160
0.277060
0.206495
0.149272
0.108193
0.065331
0.025234
0.018995
0.008254
0.017786
0.029339
0.045874
0.070403
0.097062
0.143808
0.193220
0.211440
0.249741
0.282609
0.312805
0.315841
0.281429
0.236303
0.181913
0.123523
0.082477
0.042936
-0.003100
-0.014198
0.006573
0.025604
0.050424
0.066002
0.103731
0.138115
0.176443
0.223900
0.249889
0.264998
0.275618
0.275003
0.263087
0.240707
0.202097
0.149976
0.088575
0.029876
-0.010263
-0.039222
-0.047939
-0.017330
0.033351
0.058863
0.072889
0.108558
0.150775
0.205984
0.223653
0.255183
0.242307
0.240760
0.215177
0.177798
0.149849
0.098744
0.058422
0.019449
-0.020572
-0.046279
-0.047352
-0.048479
-0.056958
-0.024780
0.009231
0.075965
0.132736
0.170749
0.186217
0.201521
0.208696
0.209720
0.183384
0.141991
0.110619
0.056402
0.012721
-0.014253
-0.029855
-0.066712
-0.061976
-0.057833
-0.040983
-0.012517
0.003309
0.042858
0.114437
0.161327
0.192244
0.188097
0.194927
0.190690
0.187789
0.131440
0.063460
0.050003
0.030233
0.005227
-0.038499
-0.064446
-0.090159
-0.106446
-0.076793
-0.049934
-0.012505
0.038796
0.085629
0.145248
0.187942
0.200335
0.196293
0.191678
0.166452
0.133843
0.114531
0.064056
0.018994
-0.017010
-0.042601
-0.078677
-0.097230
-0.102804
-0.077601
-0.050143
-0.007545
0.040639
0.099895
0.142575
0.178917
0.214093
0.230348
0.238735
0.216808
0.167566
0.107248
0.046590
0.006853
-0.032089
-0.054954
-0.074565
-0.075668
-0.077304
-0.067959
-0.017698
0.012370
0.054256
0.119250
0.171763
0.191014
0.197709
0.175900
0.173894
0.173269
0.142806
0.107551
0.088587
0.073005
0.019266
-0.036654
-0.082379
-0.097514
-0.075432
-0.077809
-0.059297
0.014282
0.045755
0.085542
0.174202
0.181675
0.172941
0.212121
0.212517
0.182568
0.114948
0.095663
0.057933
0.020616
-0.016974
-0.053100
-0.081397
-0.089139
-0.065247
-0.036837
-0.011011
0.026584
0.105305
0.156695
0.180756
0.188003
0.211100
0.221932
0.203316
0.182947
0.139943
0.081664
0.023452
-0.006587
-0.030189
-0.045356
-0.031052
-0.052593
-0.068291
-0.039909
-0.012124
0.047495
0.107637
0.122773
0.164171
0.184249
0.186101
0.189365
0.190188
0.200770
0.159574
0.109361
0.045038
0.003309
-0.043740
-0.060335
-0.080114
-0.082306
-0.079421
-0.054797
0.002389
0.035636
0.054965
0.105752
0.141390
0.147462
0.187219
0.203628
0.201298
0.196831
0.161431
0.123059
0.081272
0.020779
-0.025819
-0.044359
-0.059986
-0.056677
-0.035007
-0.029696
-0.017627
0.027769
0.073795
0.133290
0.183080
0.218057
0.247862
0.245035
0.230831
0.218461
0.173756
0.143502
0.111478
0.046598
-0.005568
-0.042258
-0.063267
-0.071525
-0.071085
-0.062226
-0.003181
0.053704
0.108872
0.161003
0.192064
0.231222
0.278296
0.283717
0.271719
0.252756
0.223751
0.173761
0.107428
0.039363
0.005540
-0.035516
-0.074114
-0.071666
-0.060182
-0.033370
0.028491
0.072376
0.095815
0.131067
0.181519
0.190978
0.244421
0.267918
0.237197
0.233799
0.190567
0.143084
0.093240
0.021815
-0.035513
-0.064844
-0.078483
-0.086278
-0.077568
-0.064878
-0.024532
0.015992
0.053473
0.098256
0.149167
0.176718
0.204223
0.206627
0.199417
0.194744
0.156087
0.098795
0.052258
0.009386
-0.036887
-0.080305
-0.117185
-0.125195
-0.118857
-0.083293
-0.054714
-0.018249
0.016014
0.064996
0.094847
0.136101
0.153117
0.182535
0.181684
0.166454
0.133794
0.101597
0.021933
0.001913
-0.056773
-0.090787
-0.109303
-0.124221
-0.125666
-0.101572
-0.062702
-0.033818
0.002689
0.061730
0.103065
0.116568
0.146896
0.167619
0.171528
0.166157
0.132402
0.072916
0.031782
-0.009388
-0.046777
-0.105408
-0.113105
-0.102482
-0.114740
-0.113175
-0.066744
-0.032669
0.010033
0.053792
0.096017
0.145834
0.156811
0.160159
0.164942
0.152648
0.102700
0.056533
-0.019507
-0.060341
-0.101710
-0.123800
-0.145036
-0.157375
-0.134754
-0.113232
-0.075826
-0.024991
0.006019
0.043964
0.086636
0.134090
0.188470
0.197192
0.186043
0.173287
0.116535
0.095747
0.074859
0.062489
0.019529
-0.013021
-0.036766
-0.028301
-0.002487
0.019935
0.079444
0.180570
0.269821
0.352593
0.411598
0.493285
0.545445
0.577833
0.610934
0.640684
0.613405
0.604090
0.601228
0.602272
0.616839
0.612147
0.618365
0.632413
0.676187
0.699822
0.735591
0.794488
0.834600
0.860044
0.859387
0.869102
0.868654
0.819983
0.755399
0.675777
0.575058
0.465568
0.357193
0.258857
0.184413
0.129670
0.104062
0.078191
0.084054
0.078874
0.108784
0.122841
0.156876
0.201407
0.235503
0.253815
0.293774
0.313499
0.312045
0.263379
0.205014
0.143142
0.099840
0.046370
-0.007540
-0.042290
-0.067548
-0.080406
-0.088452
-0.073669
-0.030346
0.025886
0.069928
0.122337
0.156751
0.183023
0.212307
0.232196
0.225741
0.193372
0.163100
0.094043
0.052947
0.014745
-0.031764
-0.054782
-0.103670
-0.135132
-0.142200
-0.112370
-0.047401
0.002197
0.053249
0.086380
0.144849
0.158241
0.182023
0.195768
0.197349
0.185781
0.148097
0.100526
0.055031
0.007088
-0.040858
-0.084986
-0.108399
-0.104221
-0.080456
-0.058937
-0.027093
0.004262
0.046129
0.108943
0.151122
0.187387
0.208226
0.212266
0.193473
0.188120
0.161543
0.108293
0.056541
0.008795
-0.031151
-0.073700
-0.094221
-0.098378
-0.084610
-0.074303
-0.033472
0.016946
0.062916
0.111817
0.136012
0.183315
0.238550
0.242410
0.233821
0.205528
0.171637
0.143609
0.071405
0.022243
-0.017416
-0.047567
-0.071298
-0.069706
-0.058896
-0.038967
-0.011578
0.039998
0.092559
0.153601
0.186390
0.210360
0.245974
0.257135
0.262884
0.248105
0.208724
0.166544
0.125609
0.061479
0.012955
-0.010760
-0.022054
-0.021488
-0.024912
-0.028089
0.012136
0.064805
0.109777
0.144574
0.166182
0.242669
0.246727
0.261754
0.282211
0.301774
0.256042
0.209463
0.159900
0.124760
0.059357
-0.018693
-0.057120
-0.028049
-0.032629
-0.030836
0.041725
0.090620
0.124999
0.179051
0.234883
0.240019
0.250815
0.237352
0.234778
0.237447
0.210492
0.177519
0.142295
0.099122
0.045647
0.008781
-0.001341
0.006950
-0.020076
0.002611
0.049982
0.088771
0.131654
0.150813
0.198631
0.244942
0.263204
0.253601
0.252878
0.227514
0.182976
0.154432
0.113049
0.079534
0.031254
-0.014272
-0.049919
-0.040611
-0.017415
-0.015850
-0.001498
0.037414
0.064246
0.114593
0.171239
0.213999
0.252386
0.254290
0.239759
0.208491
0.162554
0.118049
0.074330
0.032755
-0.007231
-0.035576
-0.071089
-0.076709
-0.078752
-0.071494
-0.031145
0.021607
0.068231
0.132858
0.174755
0.187846
0.209168
0.215784
0.199754
0.176077
0.152245
0.109359
0.051895
-0.008259
-0.052094
-0.094450
-0.124658
-0.134767
-0.120150
-0.100151
-0.067156
0.003750
0.064116
0.107611
0.162497
0.168616
0.214703
0.218958
0.169813
0.132312
0.096690
0.055530
0.038106
0.006934
-0.030873
-0.079606
-0.121490
-0.131179
-0.108238
-0.096387
-0.085555
-0.041310
-0.001973
0.050424
0.092475
0.140282
0.162313
0.186907
0.194812
0.176390
0.129038
0.092605
0.027880
-0.023611
-0.055211
-0.093470
-0.105815
-0.135326
-0.139276
-0.128075
-0.091297
-0.025999
0.024298
0.089362
0.129456
0.150928
0.181470
0.189845
0.178115
0.176794
0.134116
0.086958
0.047642
-0.026309
-0.066657
-0.091146
-0.109034
-0.129573
-0.123669
-0.091623
-0.057572
-0.004895
0.035877
0.082672
0.114827
0.133791
0.144763
0.163678
0.182478
0.155113
0.132344
0.099430
0.038577
-0.019583
-0.044427
-0.076651
-0.096221
-0.113084
-0.098422
-0.072565
-0.054392
0.004174
0.035640
0.071532
0.125565
0.166412
0.200556
0.211233
0.184728
0.165647
0.131301
0.086592
0.031399
-0.017101
-0.075671
-0.098433
-0.114169
-0.120073
-0.094201
-0.081009
-0.038992
-0.003483
0.051691
0.085916
0.123052
0.154564
0.193475
0.195108
0.177811
0.144229
0.093871
0.059204
0.027475
-0.013918
-0.079658
-0.103450
-0.122489
-0.134488
-0.133219
-0.107992
-0.061249
0.007152
0.041409
0.064448
0.100675
0.122013
0.151883
0.179388
0.166895
0.153157
0.111329
0.044325
0.019434
-0.027343
-0.063415
-0.110767
-0.157661
-0.138513
-0.133422
-0.116711
-0.078611
-0.026175
0.028257
0.058998
0.096269
0.142543
0.169743
0.181567
0.169011
0.133995
0.102885
0.074465
0.026373
-0.025921
-0.088268
-0.139337
-0.155559
-0.155425
-0.153515
-0.138775
-0.099921
-0.036541
0.021582
0.084506
0.134481
0.144049
0.166444
0.181275
0.146503
0.156311
0.165710
0.100606
0.014530
-0.037426
-0.073849
-0.095002
-0.121359
-0.123071
-0.100807
-0.081407
-0.034982
0.006753
0.035900
0.075933
0.129037
0.165969
0.184460
0.187338
0.204569
0.189954
0.175922
0.120055
0.036978
-0.035184
-0.057967
-0.081247
-0.126699
-0.130657
-0.123201
-0.105802
-0.076783
-0.043731
-0.004454
0.053152
0.109889
0.183540
0.218160
0.230692
0.227268
0.215639
0.175738
0.121970
0.070928
0.030743
-0.019776
-0.060004
-0.095460
-0.088327
-0.076316
-0.063792
-0.045381
-0.026229
0.013751
0.078328
0.111497
0.165097
0.195330
0.194642
0.188367
0.164651
0.100761
0.042996
0.001194
-0.034712
-0.072448
-0.109263
-0.157209
-0.157203
-0.163778
-0.141777
-0.093226
-0.046617
0.007942
0.051764
0.109492
0.151389
0.157182
0.152100
0.151758
0.115572
0.078647
0.035202
-0.024058
-0.070163
-0.112715
-0.136652
-0.171458
-0.147988
-0.137438
-0.129360
-0.111946
-0.051821
-0.022657
0.026590
0.058563
0.087369
0.109138
0.104819
0.088312
0.099610
0.082547
0.015334
-0.047091
-0.087780
-0.107414
-0.142285
-0.164795
-0.196213
-0.174279
-0.138275
-0.120417
-0.068409
-0.012633
0.030049
0.084382
0.095539
0.126030
0.134236
0.107240
0.079708
0.053524
0.000637
-0.030970
-0.061628
-0.107393
-0.156211
-0.193848
-0.196574
-0.197579
-0.168964
-0.123776
-0.082630
-0.041134
0.006156
0.053018
0.087446
0.114909
0.109010
0.106956
0.091446
0.047663
0.013544
-0.042094
-0.105649
-0.147670
-0.195304
-0.212884
-0.188492
-0.182857
-0.167750
-0.146236
-0.106382
-0.076483
-0.007541
0.068949
0.105232
0.118925
0.156149
0.159291
0.129373
0.082145
0.033503
0.012182
0.009768
-0.023388
-0.079115
-0.084486
-0.047461
-0.020023
0.012422
0.081494
0.154097
0.204022
0.303084
0.393554
0.473559
0.537894
0.570627
0.581375
0.593651
0.608982
0.608614
0.623403
0.601753
0.597920
0.591971
0.602347
0.631936
0.612846
0.610375
0.638170
0.677575
0.715245
0.747141
0.763034
0.766302
0.722568
0.645166
0.580181
0.509778
0.439031
0.354515
0.264763
0.173168
0.101014
0.059986
0.022774
0.003821
0.015642
0.024431
0.025617
0.049402
0.092505
0.115587
0.148462
0.177467
0.203277
0.229481
0.224533
0.194599
0.141062
0.093857
0.051828
-0.010315
-0.061812
-0.108698
-0.124956
-0.119951
-0.120755
-0.131208
-0.085372
-0.042095
0.003351
0.051202
0.101385
0.127229
0.165709
0.162373
0.139900
0.107844
0.055533
0.010870
-0.029831
-0.052995
-0.108283
-0.136592
-0.122744
-0.117310
-0.127632
-0.134479
-0.104866
-0.061013
-0.006857
0.027999
0.055459
0.095885
0.137030
0.134892
0.155763
0.144245
0.094458
0.052902
0.004307
-0.051911
-0.115775
-0.147567
-0.152534
-0.131781
-0.150390
-0.128692
-0.106100
-0.064200
-0.010745
0.044317
0.085648
0.125384
0.156707
0.169450
0.136161
0.121109
0.107525
0.076575
0.011664
-0.049757
-0.098940
-0.133753
-0.138306
-0.135324
-0.118386
-0.102340
-0.082210
-0.041808
0.010788
0.050546
0.112391
0.154420
0.187995
0.188149
0.181774
0.152366
0.110515
0.084123
0.037314
-0.022751
-0.081661
-0.120475
-0.121067
-0.110162
-0.105948
-0.099085
-0.075498
-0.026551
0.035069
0.104960
0.150815
0.165357
0.194033
0.205945
0.189169
0.171472
0.136711
0.102440
0.042084
-0.001580
-0.013222
-0.043334
-0.100356
-0.113568
-0.091010
-0.064511
-0.033975
0.000178
0.051171
0.109283
0.146507
0.173155
0.219728
0.235541
0.227094
0.178632
0.138084
0.125763
0.098923
0.048956
-0.000884
-0.039769
-0.065091
-0.085512
-0.090730
-0.057249
-0.022758
0.002399
0.061370
0.124358
0.182551
0.219267
0.259130
0.249945
0.213350
0.187105
0.158944
0.120564
0.089416
0.021531
-0.031748
-0.052549
-0.079963
-0.091612
-0.085859
-0.085864
-0.041782
0.010368
0.047023
0.102351
0.163133
0.223875
0.250371
0.246082
0.227247
0.190863
0.147051
0.107950
0.071652
0.035641
-0.021686
-0.060553
-0.103659
-0.128732
-0.127560
-0.109520
-0.065165
-0.016142
0.029018
0.096170
0.152010
0.180413
0.206462
0.196981
0.184128
0.157801
0.124014
0.074542
0.029131
-0.018065
-0.072070
-0.117591
-0.137078
-0.129624
-0.111969
-0.103560
-0.066713
-0.025963
0.030545
0.047939
0.085166
0.109213
0.159924
0.166468
0.149255
0.141611
0.113912
0.059293
0.017641
-0.064681
-0.111789
-0.144568
-0.182833
-0.167302
-0.157812
-0.161775
-0.121864
-0.059752
0.006776
0.032280
0.061163
0.104817
0.125159
0.126727
0.106242
0.082635
0.069410
0.026021
-0.016246
-0.062889
-0.097877
-0.137976
-0.175451
-0.169073
-0.158900
-0.126416
-0.108271
-0.084999
-0.055782
-0.010042
0.054465
0.071256
0.096428
0.124147
0.117778
0.083579
0.059438
0.019212
-0.022149
-0.084583
-0.129551
-0.145356
-0.153299
-0.179588
-0.191251
-0.166433
-0.115900
-0.046170
-0.003999
0.034343
0.075503
0.092212
0.135655
0.112088
0.128966
0.121146
0.066065
0.008316
-0.013805
-0.058594
-0.108990
-0.165907
-0.168363
-0.169504
-0.171079
-0.165581
-0.098914
-0.063680
-0.023953
0.042609
0.086027
0.106759
0.109741
0.136068
0.136429
0.114880
0.044047
0.002895
-0.013472
-0.048442
-0.098520
-0.138218
-0.195396
-0.206522
-0.213301
-0.172078
-0.117506
-0.079431
-0.031176
-0.005686
0.043200
0.056080
0.088797
0.116926
0.137672
0.089101
0.057228
0.036637
0.010331
-0.036544
-0.068023
-0.092860
-0.136829
-0.156039
-0.162784
-0.161910
-0.113561
-0.069039
-0.048713
-0.007205
0.057330
0.095965
0.127384
0.131882
0.114214
0.089065
0.071426
0.017132
-0.047039
-0.093349
-0.131613
-0.157356
-0.173885
-0.196142
-0.186494
-0.136548
-0.098712
-0.061696
-0.047980
0.009374
0.060116
0.102449
0.113128
0.128650
0.130158
0.099593
0.055799
0.016253
-0.023940
-0.076630
-0.128015
-0.153826
-0.192526
-0.202169
-0.207205
-0.175237
-0.132091
-0.082955
-0.029358
-0.009536
0.039110
0.093083
0.140504
0.139686
0.112875
0.090614
0.057173
0.011491
-0.027805
-0.083694
-0.135456
-0.179372
-0.209157
-0.212887
-0.208076
-0.188965
-0.152711
-0.101655
-0.052543
-0.015491
0.012121
0.023428
0.073227
0.130049
0.123235
0.108670
0.061518
-0.001352
-0.039743
-0.081433
-0.119389
-0.150337
-0.177479
-0.199213
-0.221781
-0.197145
-0.135282
-0.074457
-0.030377
0.008238
0.070273
0.087109
0.092686
0.128610
0.128965
0.096252
0.055029
0.020863
-0.025109
-0.056645
-0.098963
-0.137145
-0.157472
-0.163112
-0.160466
-0.130494
-0.085801
-0.050814
-0.011678
0.038070
0.080507
0.093858
0.114162
0.101305
0.102058
0.097913
0.068703
0.015631
-0.040150
-0.077025
-0.111336
-0.119963
-0.159403
-0.162254
-0.143740
-0.113775
-0.081807
-0.042534
0.004995
0.045173
0.097934
0.128494
0.150305
0.145565
0.146474
0.103542
0.083665
0.061075
0.011806
-0.052801
-0.116043
-0.132859
-0.149164
-0.165503
-0.164258
-0.150592
-0.111432
-0.067337
-0.009278
0.040685
0.056237
0.093966
0.119492
0.110453
0.102404
0.059493
0.017217
-0.040510
-0.081359
-0.122209
-0.142480
-0.156819
-0.162059
-0.159542
-0.163312
-0.171807
-0.159307
-0.114951
-0.056480
-0.013829
0.038836
0.078840
0.095996
0.076614
0.047741
0.037267
0.013119
-0.012253
-0.053139
-0.114683
-0.184632
-0.220418
-0.239101
-0.226167
-0.224861
-0.202209
-0.173132
-0.132675
-0.085119
-0.016348
0.015051
0.027039
0.040594
0.060080
0.076809
0.063748
-0.002147
-0.054034
-0.090540
-0.141506
-0.186387
-0.209820
-0.226612
-0.236339
-0.218044
-0.200035
-0.162504
-0.105296
-0.081060
-0.044008
-0.014069
-0.008120
0.037668
0.046754
0.030863
0.028354
0.004263
-0.046344
-0.080372
-0.117583
-0.163042
-0.200590
-0.217716
-0.219611
-0.230374
-0.248540
-0.207488
-0.133691
-0.078061
-0.037302
-0.011382
0.056786
0.096404
0.095508
0.095710
0.057391
0.016556
-0.035986
-0.103751
-0.150990
-0.196325
-0.233918
-0.255838
-0.249096
-0.238023
-0.214371
-0.180859
-0.119511
-0.073609
0.006018
0.056313
0.094455
0.126185
0.149233
0.173922
0.171662
0.131581
0.094769
0.064340
0.017725
0.007932
-0.012886
-0.016576
0.007911
0.049758
0.105910
0.188150
0.248378
0.336023
0.417584
0.471600
0.555219
0.591389
0.659660
0.702627
0.706432
0.707410
0.697179
0.683124
0.625231
0.565855
0.531245
0.530684
0.498899
0.470033
0.456802
0.450780
0.470231
0.445842
0.416796
0.398005
0.405191
0.396465
0.358386
0.312694
0.236450
0.189162
0.126669
0.084360
0.030636
-0.039380
-0.094304
-0.134384
-0.116443
-0.134950
-0.117749
-0.091573
-0.043771
-0.001260
0.050199
0.104606
0.136834
0.148269
0.139434
0.099169
0.065252
0.056642
0.014791
-0.052982
-0.075927
-0.108629
-0.133325
-0.164750
-0.197558
-0.186647
-0.192902
-0.143921
-0.099484
-0.072074
-0.019948
0.025577
0.060404
0.081718
0.089544
0.090650
0.075096
0.043363
-0.015426
-0.080932
-0.122966
-0.151476
-0.174362
-0.192132
-0.195186
-0.208684
-0.183592
-0.165625
-0.109651
-0.054993
-0.004442
0.046460
0.070960
0.086866
0.101235
0.107664
0.070806
0.027549
-0.023453
-0.064427
-0.108381
-0.154970
-0.176518
-0.198617
-0.186635
-0.185213
-0.187196
-0.169551
-0.139444
-0.068911
-0.017644
0.040883
0.086065
0.122413
0.124271
0.126516
0.094219
0.055706
0.011440
-0.035138
-0.090946
-0.123106
-0.150822
-0.178961
-0.206666
-0.195899
-0.173538
-0.140613
-0.095567
-0.054844
0.006590
0.073559
0.108372
0.106041
0.138394
0.145030
0.102118
0.078223
0.042430
-0.022726
-0.060933
-0.108689
-0.163725
-0.151131
-0.147424
-0.153125
-0.115860
-0.089279
-0.045138
-0.002348
0.045258
0.098560
0.133361
0.168463
0.179245
0.152847
0.127023
0.102144
0.057220
0.002578
-0.028890
-0.070889
-0.104062
-0.114371
-0.141156
-0.130335
-0.094815
-0.056205
-0.008860
0.038150
0.071171
0.122695
0.172456
0.176788
0.176624
0.168451
0.158503
0.136280
0.107087
0.022909
-0.022540
-0.062851
-0.125953
-0.139712
-0.138830
-0.141940
-0.097790
-0.043034
0.007609
0.060738
0.116532
0.143150
0.166690
0.180796
0.189981
0.196599
0.162014
0.128056
0.077023
0.027385
-0.014649
-0.064300
-0.104363
-0.133984
-0.132927
-0.123178
-0.087454
-0.060868
-0.029478
0.024204
0.057174
0.106465
0.124661
0.141497
0.160984
0.162379
0.134852
0.104345
0.057158
0.009303
-0.029269
-0.086408
-0.121364
-0.147898
-0.146678
-0.158468
-0.118802
-0.087181
-0.033165
0.002042
0.033035
0.085378
0.137228
0.143957
0.163189
0.122858
0.094662
0.088639
0.024763
-0.041155
-0.089339
-0.111028
-0.133876
-0.174598
-0.200365
-0.190227
-0.174253
-0.129185
-0.082272
-0.036948
0.025669
0.046994
0.085346
0.100462
0.121353
0.109763
0.081979
0.026834
-0.012455
-0.047097
-0.095889
-0.162360
-0.202397
-0.214875
-0.227562
-0.218087
-0.179335
-0.138560
-0.092484
-0.063385
-0.036205
0.024951
0.069343
0.086977
0.102424
0.093313
0.064266
0.028164
-0.016064
-0.051016
-0.110210
-0.149318
-0.183536
-0.222853
-0.257211
-0.222719
-0.206276
-0.178130
-0.115774
-0.061389
-0.028667
0.037243
0.067478
0.085713
0.097687
0.081479
0.058374
0.021926
-0.010284
-0.061873
-0.110512
-0.169556
-0.193799
-0.217224
-0.226673
-0.207446
-0.180120
-0.145318
-0.113047
-0.063648
-0.013332
0.011028
0.038356
0.049875
0.087669
0.094805
0.074218
0.051317
-0.004634
-0.063476
-0.110996
-0.133526
-0.197742
-0.223604
-0.219376
-0.223845
-0.191653
-0.154601
-0.090566
-0.057154
-0.032865
0.046537
0.084758
0.097195
0.109481
0.096207
0.047191
0.027583
-0.011167
-0.047632
-0.089374
-0.138890
-0.191583
-0.219012
-0.211021
-0.207091
-0.181399
-0.147666
-0.103233
-0.063849
-0.012655
0.041690
0.054004
0.067111
0.086019
0.091462
0.076223
0.054540
-0.006454
-0.057665
-0.115388
-0.152174
-0.182592
-0.203313
-0.204638
-0.183702
-0.175888
-0.144271
-0.104594
-0.071547
-0.034226
0.020849
0.067743
0.080928
0.096470
0.094129
0.069831
0.035893
-0.010961
-0.078567
-0.137523
-0.170536
-0.165517
-0.207052
-0.231290
-0.213799
-0.190519
-0.150103
-0.088997
-0.040054
0.005141
0.027725
0.073218
0.076451
0.072965
0.073959
0.046638
0.029842
-0.022140
-0.089709
-0.140239
-0.165899
-0.192922
-0.213221
-0.222572
-0.218875
-0.193152
-0.154416
-0.117051
-0.076926
-0.033191
0.005058
0.058236
0.076964
0.081848
0.064858
0.033611
0.008735
-0.008217
-0.063224
-0.110826
-0.165339
-0.200930
-0.234242
-0.246767
-0.227045
-0.215590
-0.161081
-0.123082
-0.085848
-0.026660
-0.004294
0.037338
0.071729
0.080261
0.083480
0.040385
0.000342
-0.039048
-0.088237
-0.132365
-0.187876
-0.232590
-0.246692
-0.250404
-0.239196
-0.208800
-0.179615
-0.126547
-0.060761
-0.019838
0.021824
0.052731
0.074963
0.073643
0.081970
0.037038
-0.008610
-0.043144
-0.072333
-0.118722
-0.167194
-0.220719
-0.241679
-0.245731
-0.240627
-0.215259
-0.181032
-0.124574
-0.053074
-0.003528
0.040968
0.073668
0.091421
0.074169
0.065357
0.052113
0.028717
-0.010600
-0.066537
-0.110539
-0.153307
-0.213073
-0.216511
-0.200409
-0.197035
-0.176556
-0.141195
-0.090009
-0.053298
-0.015027
-0.001604
0.051491
0.076252
0.084632
0.098540
0.066755
0.030428
-0.001313
-0.046696
-0.119801
-0.147332
-0.184906
-0.190796
-0.193919
-0.176487
-0.149282
-0.112027
-0.067724
-0.012880
0.027521
0.065679
0.107182
0.132223
0.134946
0.130013
0.099669
0.069588
0.020716
-0.029602
-0.077833
-0.122167
-0.172105
-0.204500
-0.212945
-0.195734
-0.179021
-0.148584
-0.110989
-0.052801
-0.000439
0.030954
0.048731
0.080639
0.087480
0.073570
0.052894
0.013247
-0.053057
-0.086903
-0.125460
-0.175063
-0.222564
-0.241222
-0.230982
-0.214921
-0.212500
-0.198102
-0.159417
-0.112300
-0.038845
0.009848
0.041881
0.048054
0.047401
0.041840
0.017715
-0.031645
-0.069156
-0.115469
-0.168063
-0.209145
-0.239791
-0.266738
-0.265187
-0.265439
-0.252738
-0.225469
-0.202466
-0.144683
-0.079878
-0.028654
0.030334
0.047428
0.038862
0.018859
-0.005051
-0.029813
-0.079973
-0.117928
-0.149449
-0.182671
-0.240695
-0.258856
-0.276106
-0.276434
-0.247690
-0.212860
-0.161465
-0.108393
-0.090772
-0.047707
-0.003580
0.036601
0.048753
0.038334
0.007687
-0.017505
-0.062754
-0.115509
-0.146748
-0.198442
-0.252989
-0.266387
-0.272009
-0.271416
-0.241189
-0.191261
-0.162143
-0.121187
-0.087718
-0.066075
-0.024032
-0.002069
0.019366
0.029083
0.005730
-0.029487
-0.076144
-0.132026
-0.194342
-0.217608
-0.245740
-0.258637
-0.257224
-0.236018
-0.182293
-0.156298
-0.133596
-0.070188
-0.006710
0.043356
0.093335
0.144373
0.158292
0.154981
0.141149
0.117756
0.109478
0.077398
0.057133
0.051898
0.038713
0.057885
0.097207
0.136865
0.197197
0.285843
0.347420
0.410231
0.487813
0.573422
0.663158
0.719558
0.769841
0.803011
0.802279
0.761576
0.724582
0.681645
0.635875
0.552205
0.496123
0.475908
0.446634
0.411573
0.352647
0.307972
0.270334
0.265373
0.278973
0.289673
0.291672
0.254911
0.241998
0.222508
0.202609
0.160036
0.112864
0.073631
0.003962
-0.047068
-0.107322
-0.140498
-0.156075
-0.163189
-0.150153
-0.126430
-0.083413
-0.026451
0.009961
0.051112
0.095298
0.099192
0.104146
0.097876
0.062549
0.028119
-0.017372
-0.055856
-0.130894
-0.166607
-0.191646
-0.207184
-0.213391
-0.211024
-0.181973
-0.154875
-0.135353
-0.102212
-0.028949
0.013792
0.047746
0.074372
0.070143
0.048444
0.035268
-0.015444
-0.055291
-0.101859
-0.125689
-0.156260
-0.193357
-0.217348
-0.231660
-0.232739
-0.208046
-0.179233
-0.124925
-0.069525
-0.041727
0.002380
0.049850
0.071026
0.073249
0.066079
0.042049
0.012697
-0.040780
-0.083823
-0.119596
-0.146983
-0.194407
-0.230804
-0.241514
-0.228857
-0.202167
-0.162282
-0.119421
-0.077074
-0.054668
-0.017332
0.051158
0.077696
0.083212
0.081921
0.059456
0.056380
0.025107
-0.038245
-0.099035
-0.146646
-0.180796
-0.210192
-0.215873
-0.200454
-0.172131
-0.139216
-0.084218
-0.034342
0.002807
0.037930
0.086700
0.121627
0.137964
0.111798
0.074110
0.043893
0.012019
-0.067881
-0.115256
-0.128880
-0.162913
-0.184519
-0.206854
-0.184830
-0.139056
-0.099166
-0.067311
-0.019881
0.028469
0.080801
0.113057
0.132865
0.152492
0.146221
0.122120
0.096983
0.055453
-0.020698
-0.079042
-0.093324
-0.102293
-0.117310
-0.132506
-0.143679
-0.128851
-0.105084
-0.064071
-0.005113
0.044403
0.089698
0.135976
0.147410
0.161225
0.174667
0.150565
0.104622
0.060112
0.018165
-0.023861
-0.070404
-0.114083
-0.142110
-0.169442
-0.155048
-0.127311
-0.090994
-0.027938
-0.001396
0.041124
0.089979
0.136956
0.161708
0.167925
0.161356
0.144191
0.125752
0.069830
0.000377
-0.058976
-0.091079
-0.132364
-0.156444
-0.150301
-0.162417
-0.136143
-0.104193
-0.056625
-0.020916
0.032231
0.075815
0.103635
0.145672
0.163473
0.153932
0.128738
0.079960
0.034136
-0.022761
-0.067348
-0.102952
-0.153184
-0.176751
-0.172843
-0.179725
-0.152386
-0.108183
-0.085361
-0.022283
0.056347
0.090687
0.108867
0.096628
0.118845
0.088918
0.067637
0.017604
-0.014260
-0.056448
-0.097044
-0.145320
-0.188297
-0.198084
-0.202921
-0.204125
-0.180721
-0.147296
-0.120712
-0.076564
-0.015806
0.016619
0.053954
0.080993
0.098803
0.076368
0.057508
0.028983
-0.026772
-0.072050
-0.124211
-0.178927
-0.209141
-0.216734
-0.235143
-0.231054
-0.206680
-0.175346
-0.113711
-0.071472
-0.053400
-0.001673
0.042794
0.068507
0.067430
0.056944
0.042116
0.008449
-0.029194
-0.082713
-0.145501
-0.197070
-0.231585
-0.245310
-0.253678
-0.252042
-0.223174
-0.187462
-0.139409
-0.078244
-0.041420
0.003172
0.050162
0.073280
0.076729
0.053947
0.017893
-0.006094
-0.036904
-0.083751
-0.147284
-0.180465
-0.221400
-0.229378
-0.219461
-0.210832
-0.185892
-0.159776
-0.127831
-0.085424
-0.036805
0.002287
0.053806
0.061333
0.066316
0.067090
0.046111
0.023933
-0.020617
-0.065439
-0.134365
-0.182047
-0.195388
-0.215264
-0.233537
-0.216579
-0.209409
-0.176626
-0.112109
-0.070751
-0.041201
0.009253
0.069644
0.097646
0.109459
0.095128
0.052057
0.024256
-0.018783
-0.062374
-0.133260
-0.186407
-0.218736
-0.220951
-0.220295
-0.219710
-0.196536
-0.157231
-0.115415
-0.083834
-0.025407
0.038205
0.088936
0.083481
0.079563
0.085504
0.049337
0.006711
-0.026073
-0.066632
-0.136923
-0.179515
-0.218383
-0.234041
-0.236000
-0.232178
-0.219475
-0.169298
-0.115775
-0.071241
-0.030388
0.012446
0.054899
0.077680
0.090857
0.081194
0.048702
0.015058
-0.025189
-0.065655
-0.114105
-0.154340
-0.198711
-0.221846
-0.234653
-0.251925
-0.206566
-0.166815
-0.120184
-0.100945
-0.055782
-0.002295
0.050749
0.081425
0.086024
0.094657
0.059188
0.015468
-0.003722
-0.056520
-0.130675
-0.167565
-0.200619
-0.217226
-0.232096
-0.218944
-0.200433
-0.168232
-0.131084
-0.099773
-0.061795
-0.005774
0.026134
0.047231
0.055597
0.060399
0.043621
0.020334
-0.023338
-0.068926
-0.131234
-0.175110
-0.214332
-0.237240
-0.242298
-0.239200
-0.215434
-0.180794
-0.155507
-0.088300
-0.039844
-0.008138
0.020600
0.046546
0.060503
0.060603
0.016637
-0.009778
-0.054586
-0.095062
-0.136625
-0.174510
-0.215814
-0.256121
-0.260808
-0.245727
-0.219832
-0.192717
-0.149034
-0.087156
-0.045695
-0.005235
0.037862
0.053771
0.054655
0.057492
0.033148
-0.000848
-0.047831
-0.094341
-0.146054
-0.201700
-0.235523
-0.239046
-0.232707
-0.246386
-0.227489
-0.196289
-0.155174
-0.107251
-0.059654
-0.009438
0.035161
0.061118
0.068510
0.061967
0.052718
-0.000387
-0.028832
-0.069166
-0.131256
-0.198565
-0.250847
-0.256279
-0.272949
-0.254039
-0.211994
-0.170129
-0.116252
-0.067922
-0.032432
0.021850
0.056197
0.070916
0.090252
0.090579
0.030641
0.021016
-0.029487
-0.075024
-0.116118
-0.138568
-0.194780
-0.215185
-0.220323
-0.221958
-0.192848
-0.152413
-0.103855
-0.062364
-0.010605
0.017120
0.060761
0.087729
0.089292
0.085207
0.051685
0.027605
-0.004038
-0.050752
-0.117158
-0.159741
-0.187739
-0.197324
-0.208530
-0.187847
-0.151413
-0.107640
-0.083751
-0.039168
0.003692
0.047719
0.101020
0.117740
0.103684
0.095993
0.066715
0.034301
0.001023
-0.050070
-0.085020
-0.143140
-0.182609
-0.216707
-0.237823
-0.240897
-0.204495
-0.168819
-0.119976
-0.073592
-0.043626
-0.008509
0.021929
0.063664
0.094157
0.078724
0.044377
0.004622
-0.025475
-0.064027
-0.124376
-0.183442
-0.235707
-0.253052
-0.256431
-0.250407
-0.228422
-0.207501
-0.165138
-0.120808
-0.082269
-0.040241
-0.005564
0.012513
0.032372
0.013354
-0.000450
-0.055155
-0.099448
-0.141512
-0.183396
-0.215366
-0.234985
-0.266700
-0.278120
-0.278508
-0.256433
-0.208262
-0.159693
-0.114487
-0.058078
-0.014705
0.027781
0.031608
0.045432
0.048281
0.024245
-0.022771
-0.062229
-0.129547
-0.178232
-0.208487
-0.262039
-0.263256
-0.269324
-0.260478
-0.246218
-0.210483
-0.188657
-0.147966
-0.079870
-0.018438
0.023525
0.042274
0.035268
0.020585
0.018125
-0.020966
-0.082735
-0.115438
-0.184728
-0.227733
-0.247748
-0.271831
-0.284067
-0.285890
-0.258346
-0.203220
-0.174277
-0.124546
-0.074933
-0.039448
0.004852
0.021497
0.012332
-0.001960
-0.031059
-0.067820
-0.085660
-0.120616
-0.157919
-0.194554
-0.231702
-0.244836
-0.255242
-0.247932
-0.193469
-0.144603
-0.083996
-0.025970
0.027150
0.076888
0.139006
0.158288
0.184491
0.193808
0.184428
0.178518
0.161822
0.152064
0.144802
0.122906
0.123167
0.152232
0.191587
0.246560
0.305276
0.375364
0.449112
0.542778
0.636583
0.709815
0.782345
0.839318
0.866862
0.857273
0.830078
0.794279
0.752314
0.688374
0.623946
0.557602
0.491212
0.419442
0.329376
0.293872
0.248433
0.208707
0.204727
0.197650
0.201143
0.202365
0.234199
0.258155
0.262317
0.234328
0.197031
0.127125
0.074983
0.036298
-0.041286
-0.101329
-0.144697
-0.168893
-0.150541
-0.153749
-0.160044
-0.139976
-0.097180
-0.032325
0.000312
0.041491
0.081800
0.120977
0.106930
0.091273
0.059049
0.030747
-0.019558
-0.076890
-0.133266
-0.154248
-0.197859
-0.234239
-0.240722
-0.238718
-0.195646
-0.149386
-0.118052
-0.077734
-0.026633
0.008894
0.027722
0.056137
0.053463
0.041617
0.013918
-0.028839
-0.068098
-0.105789
-0.146117
-0.165992
-0.190696
-0.217254
-0.224134
-0.204737
-0.197363
-0.176065
-0.125380
-0.090495
-0.034913
0.029297
0.048691
0.063337
0.093197
0.083704
0.055852
0.011770
-0.036868
-0.073416
-0.115587
-0.161638
-0.200850
-0.223392
-0.219975
-0.203268
-0.183281
-0.159539
-0.111890
-0.062098
0.004770
0.049955
0.070774
0.089189
0.088005
0.097545
0.068996
0.047540
0.003248
-0.054189
-0.112749
-0.145952
-0.180568
-0.185808
-0.195062
-0.192755
-0.184117
-0.142711
-0.084338
-0.036202
0.006885
0.062203
0.096181
0.111426
0.120859
0.118777
0.089081
0.033574
0.015516
-0.026480
-0.083231
-0.121614
-0.153689
-0.175658
-0.175824
-0.157218
-0.140598
-0.096886
-0.054001
-0.010839
0.022564
0.071451
0.109723
0.153602
0.171250
0.163899
0.136779
0.090516
0.064583
0.014045
-0.031559
-0.074843
-0.105389
-0.128864
-0.139673
-0.130554
-0.117653
-0.083757
-0.028505
0.024662
0.074583
0.114170
0.144519
0.157274
0.187424
0.202781
0.163771
0.111499
0.067577
0.015678
-0.038266
-0.083116
-0.110014
-0.105948
-0.123748
-0.113796
-0.091403
-0.053770
-0.013274
0.029906
0.076114
0.119527
0.150572
0.191416
0.188892
0.173550
0.157376
0.109609
0.065088
0.021814
-0.030039
-0.094640
-0.132385
-0.145318
-0.135699
-0.135316
-0.117533
-0.090314
-0.053519
-0.002826
0.047658
0.089141
0.139371
0.143633
0.150454
0.149978
0.130117
0.089407
0.025959
-0.013683
-0.074641
-0.129114
-0.162984
-0.180265
-0.161074
-0.133679
-0.136521
-0.134601
-0.099442
-0.039503
0.021884
0.057060
0.114429
0.135334
0.134394
0.113769
0.075423
0.042119
0.008207
-0.034484
-0.080933
-0.122424
-0.181726
-0.209589
-0.211640
-0.195126
-0.177845
-0.138764
-0.102512
-0.052260
-0.010607
0.036925
0.082920
0.096906
0.112305
0.093275
0.065280
0.039942
0.002687
-0.061652
-0.129578
-0.171211
-0.206863
-0.229654
-0.213517
-0.227466
-0.199702
-0.162112
-0.120249
-0.095982
-0.050345
0.018968
0.057893
0.072301
0.081210
0.070670
0.040634
-0.005920
-0.034816
-0.070857
-0.125456
-0.172078
-0.215621
-0.229983
-0.229789
-0.224733
-0.215482
-0.173147
-0.133608
-0.086601
-0.026518
0.023927
0.068869
0.080930
0.090367
0.084309
0.051831
0.009385
-0.033789
-0.085588
-0.130100
-0.173021
-0.221398
-0.238091
-0.252847
-0.237255
-0.204814
-0.176282
-0.113937
-0.052146
-0.017668
0.019696
0.054113
0.076581
0.077565
0.080334
0.061779
0.023060
-0.023353
-0.057753
-0.100777
-0.149891
-0.179059
-0.207792
-0.228909
-0.208666
-0.197979
-0.163027
-0.111115
-0.056891
-0.017587
0.024131
0.055164
0.095645
0.099924
0.081495
0.057110
0.025075
-0.012537
-0.058107
-0.140114
-0.180046
-0.192928
-0.221202
-0.233136
-0.215518
-0.187347
-0.144108
-0.102497
-0.035365
0.004381
0.030806
0.059867
0.092010
0.095091
0.096500
0.061589
0.033313
-0.015105
-0.059891
-0.115135
-0.150749
-0.198995
-0.224489
-0.230227
-0.224325
-0.175939
-0.133470
-0.098718
-0.077158
-0.040137
0.030134
0.068700
0.090158
0.093248
0.071055
0.046604
0.011998
-0.031350
-0.068054
-0.126544
-0.162597
-0.200770
-0.228522
-0.232301
-0.224789
-0.207122
-0.162413
-0.112911
-0.075769
-0.040184
0.019876
0.052908
0.068824
0.095258
0.082639
0.034292
0.001929
-0.037033
-0.089622
-0.138680
-0.163870
-0.169280
-0.205422
-0.214601
-0.224469
-0.219793
-0.177970
-0.107916
-0.077589
-0.033306
0.018268
0.057503
0.088394
0.095000
0.087118
0.079950
0.033914
-0.024094
-0.073968
-0.122990
-0.170686
-0.216413
-0.244194
-0.235945
-0.208214
-0.185632
-0.181781
-0.159097
-0.093674
-0.021653
0.021839
0.046442
0.052401
0.080278
0.091832
0.055135
0.005537
-0.049495
-0.093583
-0.145963
-0.162671
-0.206885
-0.236763
-0.248353
-0.213939
-0.213513
-0.199089
-0.151262
-0.092916
-0.025755
0.023300
0.043274
0.059436
0.063906
0.051941
0.040685
0.008059
-0.034553
-0.095146
-0.150079
-0.194633
-0.231009
-0.255636
-0.265164
-0.249952
-0.221365
-0.181971
-0.130037
-0.067789
-0.025712
0.011130
0.039631
0.067618
0.062799
0.052743
0.039662
0.007812
-0.031740
-0.083949
-0.123675
-0.209534
-0.232956
-0.242829
-0.255260
-0.260736
-0.229833
-0.203832
-0.147614
-0.094041
-0.048585
0.006832
0.036729
0.052653
0.065013
0.057229
0.027134
0.001568
-0.032710
-0.080891
-0.112285
-0.162661
-0.207946
-0.230239
-0.228419
-0.231644
-0.197571
-0.150377
-0.121419
-0.070052
-0.020819
0.020625
0.059417
0.089824
0.109825
0.079368
0.062844
0.035001
0.005786
-0.049120
-0.114804
-0.135155
-0.162418
-0.191668
-0.200688
-0.195064
-0.171613
-0.133874
-0.097733
-0.064424
-0.016498
0.014041
0.052175
0.076155
0.073773
0.070618
0.060419
0.048424
0.007988
-0.021474
-0.077292
-0.113014
-0.144133
-0.170086
-0.169598
-0.162491
-0.141417
-0.134951
-0.067684
-0.017185
0.030708
0.071102
0.088057
0.100608
0.105934
0.077047
0.065166
0.039965
-0.004002
-0.056212
-0.111032
-0.158305
-0.199413
-0.211928
-0.221327
-0.221544
-0.203941
-0.177994
-0.136377
-0.104639
-0.062656
-0.013245
0.033594
0.069521
0.092336
0.083434
0.040757
0.002631
-0.028879
-0.074546
-0.132302
-0.180319
-0.222638
-0.226460
-0.222357
-0.225357
-0.218089
-0.198171
-0.152080
-0.081362
-0.049404
-0.010828
0.006541
0.022747
0.032368
0.031577
0.012636
-0.028556
-0.071230
-0.110140
-0.164352
-0.203278
-0.252724
-0.272120
-0.258098
-0.241795
-0.226489
-0.183645
-0.145232
-0.101484
-0.069188
-0.019142
0.015793
0.032197
0.042450
0.036461
0.028559
-0.018589
-0.069045
-0.125135
-0.176493
-0.219683
-0.254708
-0.280734
-0.292229
-0.279647
-0.255853
-0.210567
-0.145944
-0.119615
-0.060729
-0.013960
0.013812
0.034260
0.062640
0.054238
0.025376
-0.006475
-0.070094
-0.113893
-0.157480
-0.215905
-0.245157
-0.253547
-0.267735
-0.252584
-0.244785
-0.208073
-0.158529
-0.114523
-0.079972
-0.041180
0.008446
0.030068
0.023187
-0.001217
-0.002996
-0.015840
-0.045629
-0.093027
-0.136782
-0.175691
-0.198702
-0.197370
-0.183289
-0.165082
-0.129631
-0.081043
-0.030703
0.011024
0.080181
0.153401
0.190369
0.206972
0.258522
0.275944
0.304146
0.310879
0.299975
0.287732
0.286871
0.266971
0.269845
0.266340
0.302483
0.357374
0.426046
0.481916
0.580582
0.639762
0.720966
0.770174
0.800563
0.829923
0.834827
0.803714
0.770016
0.728469
0.669790
0.566976
0.471842
0.361173
0.238609
0.161549
0.108906
0.086258
0.051138
0.029112
0.055113
0.101850
0.127427
0.171235
0.204335
0.201168
0.201542
0.174120
0.161387
0.108266
0.025621
-0.009430
-0.065929
-0.112747
-0.141443
-0.180099
-0.192492
-0.183725
-0.187463
-0.144689
-0.084271
-0.033646
0.007840
0.049901
0.069232
0.085817
0.090560
0.081343
0.063121
0.029967
-0.027715
-0.076078
-0.110416
-0.150986
-0.188936
-0.213367
-0.233867
-0.197108
-0.181227
-0.154586
-0.116134
-0.060468
-0.006699
0.027977
0.043586
0.059924
0.063503
0.055446
0.038009
0.018397
-0.024425
-0.078029
-0.118914
-0.173401
-0.225008
-0.233223
-0.229459
-0.198991
-0.183073
-0.163522
-0.114680
-0.059893
-0.018044
0.022818
0.058204
0.088398
0.086614
0.085824
0.055573
0.016845
-0.029690
-0.073245
-0.116050
-0.152676
-0.205707
-0.213317
-0.209635
-0.201709
-0.162873
-0.124259
-0.079395
-0.040899
-0.007369
0.035976
0.068205
0.090989
0.110921
0.104740
0.067972
0.050059
0.011713
-0.038841
-0.100249
-0.140415
-0.166370
-0.189621
-0.203107
-0.186698
-0.174280
-0.138174
-0.066349
-0.002701
0.037013
0.074355
0.113363
0.144532
0.148345
0.142792
0.105800
0.070981
0.033077
-0.008278
-0.066426
-0.112025
-0.154504
-0.178875
-0.187839
-0.156551
-0.126914
-0.084046
-0.026432
0.008712
0.045586
0.102269
0.140925
0.164608
0.185144
0.168300
0.126888
0.106261
0.071239
0.029215
-0.009521
-0.070620
-0.106589
-0.112419
-0.118927
-0.111926
-0.086772
-0.059385
-0.005593
0.040930
0.090266
0.136392
0.148980
0.177106
0.195523
0.181434
0.153895
0.114925
0.081062
0.030867
-0.024973
-0.063586
-0.092272
-0.113114
-0.128392
-0.104878
-0.092973
-0.067458
-0.011902
0.037288
0.074452
0.120743
0.144577
0.161476
0.184533
0.191116
0.172858
0.133225
0.093087
0.014387
-0.029625
-0.068090
-0.094822
-0.104561
-0.124870
-0.130874
-0.108235
-0.085537
-0.049829
0.012597
0.051746
0.092371
0.139015
0.152841
0.165458
0.168709
0.164772
0.107746
0.051081
-0.004399
-0.041113
-0.084064
-0.136615
-0.161597
-0.171144
-0.153182
-0.133083
-0.116245
-0.063611
-0.009040
0.037929
0.078252
0.106130
0.129133
0.132623
0.116732
0.093090
0.051487
0.012320
-0.026257
-0.090124
-0.142616
-0.167060
-0.190333
-0.193106
-0.186175
-0.160988
-0.140581
-0.095699
-0.036548
0.003079
0.042721
0.079384
0.119165
0.123964
0.095645
0.071332
0.045393
-0.033143
-0.069078
-0.100296
-0.161232
-0.205889
-0.220207
-0.219291
-0.209630
-0.186633
-0.155515
-0.111662
-0.076619
-0.042454
0.006479
0.039353
0.081225
0.102883
0.081688
0.051991
0.009875
-0.045078
-0.104703
-0.146808
-0.177774
-0.204543
-0.214722
-0.211077
-0.198906
-0.181465
-0.169186
-0.129122
-0.072984
-0.027226
0.009371
0.033897
0.081751
0.116526
0.107504
0.089492
0.034043
-0.026958
-0.066476
-0.125387
-0.168796
-0.219262
-0.249059
-0.263028
-0.207224
-0.176464
-0.161702
-0.100464
-0.066518
-0.024714
0.019694
0.056491
0.081211
0.087434
0.081908
0.048347
0.025621
-0.015688
-0.063960
-0.116829
-0.166736
-0.185130
-0.210867
-0.229806
-0.211373
-0.190200
-0.150781
-0.096393
-0.050877
-0.006961
0.053706
0.075539
0.078365
0.071499
0.073713
0.055349
0.025001
-0.017929
-0.070226
-0.114095
-0.155617
-0.186574
-0.207146
-0.209333
-0.209012
-0.183201
-0.165028
-0.101628
-0.048592
-0.006759
0.038784
0.085285
0.095193
0.086153
0.076704
0.060943
0.041131
-0.045304
-0.064919
-0.109842
-0.163888
-0.193193
-0.211145
-0.221730
-0.231687
-0.205143
-0.159873
-0.101115
-0.056585
-0.025728
0.013992
0.047558
0.066807
0.089084
0.081683
0.050715
0.015824
-0.005362
-0.037269
-0.084364
-0.155002
-0.191210
-0.215356
-0.243493
-0.226068
-0.180899
-0.145469
-0.119509
-0.092854
-0.064064
-0.002207
0.047538
0.080417
0.082590
0.059924
0.046051
0.002198
-0.021110
-0.077587
-0.137316
-0.181405
-0.213178
-0.228009
-0.236753
-0.219919
-0.200582
-0.178126
-0.136587
-0.097747
-0.034059
0.021418
0.037571
0.062231
0.066315
0.049727
0.019860
0.012716
-0.042623
-0.093691
-0.136346
-0.204089
-0.213366
-0.233016
-0.243240
-0.233813
-0.217161
-0.186374
-0.142636
-0.076113
-0.038917
0.010503
0.040235
0.066880
0.075983
0.058356
0.036034
0.009867
-0.055187
-0.098908
-0.138930
-0.199135
-0.237193
-0.247393
-0.253641
-0.229216
-0.220212
-0.200015
-0.156374
-0.108761
-0.040171
0.014596
0.042465
0.058417
0.064035
0.052602
0.031399
-0.001927
-0.038646
-0.093250
-0.149187
-0.192953
-0.217175
-0.239975
-0.254914
-0.244056
-0.214566
-0.173917
-0.132302
-0.089233
-0.041517
-0.002898
0.029524
0.053366
0.054208
0.050812
0.041982
0.010332
-0.060175
-0.118772
-0.172436
-0.215356
-0.213782
-0.253206
-0.251738
-0.256739
-0.238765
-0.193153
-0.129738
-0.095917
-0.047007
0.015145
0.038564
0.059650
0.079383
0.085178
0.053973
0.003577
-0.037639
-0.102643
-0.139015
-0.205108
-0.231905
-0.237277
-0.234882
-0.231406
-0.201756
-0.164258
-0.102919
-0.052537
-0.013856
0.023485
0.057441
0.076493
0.088773
0.074713
0.056275
0.023735
-0.010014
-0.069359
-0.120633
-0.174498
-0.205573
-0.225733
-0.231853
-0.219961
-0.182376
-0.147977
-0.116094
-0.047942
0.010522
0.072049
0.104692
0.139826
0.124599
0.089556
0.066887
0.059169
0.024058
-0.030362
-0.081348
-0.139624
-0.185113
-0.199463
-0.211769
-0.200869
-0.189844
-0.158991
-0.119655
-0.079104
-0.031755
0.019657
0.048212
0.070783
0.088418
0.070951
0.045465
-0.001141
-0.042291
-0.096786
-0.140577
-0.199619
-0.241503
-0.255742
-0.250340
-0.219657
-0.204602
-0.166902
-0.120195
-0.089658
-0.055203
0.004046
0.010201
0.029515
0.058824
0.053073
0.017588
-0.028153
-0.078458
-0.130765
-0.178706
-0.232456
-0.258194
-0.295765
-0.288427
-0.275281
-0.254051
-0.240339
-0.191486
-0.135221
-0.085078
-0.039998
-0.020066
-0.004255
0.004633
0.013510
-0.003534
-0.033342
-0.081877
-0.148333
-0.185423
-0.234497
-0.249388
-0.285046
-0.289387
-0.267471
-0.253900
-0.206393
-0.169984
-0.122122
-0.071371
-0.032391
-0.004030
0.023011
0.037709
0.019224
-0.008241
-0.042930
-0.099079
-0.142156
-0.198335
-0.254969
-0.266720
-0.269980
-0.288721
-0.278867
-0.242478
-0.215306
-0.171834
-0.113131
-0.062417
-0.027543
0.004566
0.027715
0.017452
0.012507
-0.011601
-0.039548
-0.091135
-0.147938
-0.197262
-0.233928
-0.284504
-0.302419
-0.283155
-0.292408
-0.262067
-0.222792
-0.178534
-0.126172
-0.059218
-0.015357
0.027258
0.059308
0.082053
0.080692
0.077539
0.062702
0.037266
-0.007843
-0.046939
-0.091143
-0.102597
-0.100218
-0.094779
-0.053072
0.000269
0.062550
0.134321
0.226347
0.304520
0.381432
0.443843
0.487761
0.512238
0.532119
0.548784
0.557289
0.572246
0.547146
0.523490
0.499159
0.506837
0.469762
0.451923
0.462377
0.488844
0.502430
0.540335
0.558518
0.573183
0.574712
0.535296
0.479491
0.423377
0.372204
0.300511
0.219925
0.132366
0.043311
-0.019514
-0.086621
-0.128704
-0.159761
-0.186755
-0.167263
-0.152349
-0.134207
-0.091362
-0.040450
0.009481
0.058858
0.075703
0.090100
0.101320
0.105980
0.086176
0.039599
-0.011222
-0.078456
-0.121536
-0.184098
-0.221791
-0.239891
-0.233404
-0.222574
-0.197396
-0.171622
-0.120508
-0.068693
-0.033199
0.011874
0.031273
0.053069
0.058009
0.061274
0.037068
0.009706
-0.046793
-0.098281
-0.142658
-0.201333
-0.231467
-0.247040
-0.256464
-0.241031
-0.213582
-0.177349
-0.138737
-0.077722
-0.029248
0.027909
0.042855
0.064026
0.066470
0.059749
0.042188
-0.001998
-0.038378
-0.085352
-0.141963
-0.190389
-0.210771
-0.236258
-0.249093
-0.241610
-0.222993
-0.185827
-0.146215
-0.094778
-0.028383
0.011386
0.048096
0.061918
0.056456
0.053857
0.049163
0.041857
-0.005097
-0.064908
-0.116671
-0.164534
-0.201389
-0.208965
-0.212584
-0.194795
-0.180719
-0.150743
-0.115938
-0.078644
-0.022593
0.030732
0.062512
0.092106
0.087568
0.072851
0.057216
0.039037
-0.014147
-0.064261
-0.092388
-0.130162
-0.152460
-0.179166
-0.211103
-0.176719
-0.138982
-0.124988
-0.070539
-0.012365
0.029901
0.071717
0.091352
0.096221
0.110856
0.112154
0.101573
0.075068
0.024706
-0.009607
-0.057192
-0.104281
-0.142054
-0.156910
-0.168632
-0.150520
-0.128073
-0.088245
-0.034064
0.004087
0.049196
0.088529
0.122590
0.157171
0.165056
0.157535
0.129862
0.101211
0.066391
0.004743
-0.035657
-0.084693
-0.115523
-0.140504
-0.149178
-0.121420
-0.094878
-0.072673
-0.035861
0.014280
0.056387
0.120261
0.168417
0.181006
0.180826
0.156974
0.116830
0.090568
0.057674
0.009205
-0.027844
-0.071275
-0.101543
-0.128127
-0.136853
-0.128924
-0.114687
-0.076399
-0.023365
0.013097
0.057341
0.089749
0.124169
0.155400
0.181297
0.163472
0.118000
0.082490
0.037578
-0.012160
-0.054465
-0.095126
-0.132833
-0.155463
-0.163984
-0.153852
-0.135603
-0.105272
-0.064788
-0.011254
0.034635
0.070715
0.101076
0.124706
0.142529
0.142185
0.106711
0.072003
0.019905
-0.041909
-0.090832
-0.137903
-0.162180
-0.181712
-0.190992
-0.179743
-0.162649
-0.131093
-0.090787
-0.044467
0.011074
0.052123
0.087560
0.113514
0.106525
0.101324
0.072380
0.043440
-0.018093
-0.091197
-0.113886
-0.164370
-0.208040
-0.244637
-0.253462
-0.221926
-0.186434
-0.143155
-0.090863
-0.035377
0.000680
0.041631
0.050029
0.082931
0.101026
0.077524
0.046512
0.013864
-0.029002
-0.067034
-0.120396
-0.169186
-0.212606
-0.228083
-0.248232
-0.241804
-0.207116
-0.174443
-0.132280
-0.079703
-0.014114
0.027942
0.049846
0.064235
0.071542
0.059819
0.053251
0.012193
-0.031453
-0.078901
-0.122676
-0.172179
-0.210345
-0.226930
-0.251681
-0.247542
-0.202496
-0.167764
-0.116302
-0.067211
-0.017241
0.028042
0.047894
0.058601
0.075251
0.064648
0.042428
0.012987
-0.024842
-0.077150
-0.117434
-0.171615
-0.197341
-0.207827
-0.218500
-0.218009
-0.201029
-0.164099
-0.117507
-0.052473
-0.008942
0.037400
0.062501
0.081722
0.090702
0.071459
0.036512
0.010142
-0.028861
-0.068767
-0.110617
-0.150094
-0.191253
-0.210891
-0.219105
-0.219471
-0.200588
-0.160814
-0.133700
-0.093142
-0.025907
0.037560
0.073838
0.096648
0.101282
0.088539
0.050541
0.007019
-0.022873
-0.074772
-0.124473
-0.165116
-0.203415
-0.206654
-0.204093
-0.199536
-0.182527
-0.160279
-0.122991
-0.064847
-0.028283
0.025277
0.070225
0.086251
0.087558
0.083078
0.056627
0.017716
-0.046894
-0.089242
-0.120772
-0.170144
-0.195267
-0.225486
-0.226427
-0.233731
-0.205604
-0.149304
-0.119425
-0.084875
-0.036673
0.012972
0.059807
0.067711
0.062381
0.055277
0.046238
0.020615
-0.038170
-0.090224
-0.145767
-0.190067
-0.195646
-0.217737
-0.223918
-0.225056
-0.213564
-0.180147
-0.121644
-0.063737
-0.017808
0.020761
0.050342
0.061178
0.070150
0.074811
0.059467
0.008551
-0.048505
-0.102929
-0.145348
-0.188088
-0.211634
-0.219669
-0.236447
-0.224769
-0.207539
-0.177404
-0.133783
-0.095281
-0.041343
0.014872
0.035648
0.058308
0.075356
0.077149
0.048174
0.002084
-0.047664
-0.098922
-0.145163
-0.170920
-0.203084
-0.246030
-0.250698
-0.239865
-0.221865
-0.196480
-0.139563
-0.087167
-0.043933
0.009744
0.043463
0.062550
0.063985
0.053031
0.035530
0.007243
-0.039759
-0.092969
-0.148059
-0.194860
-0.220307
-0.244710
-0.248380
-0.236960
-0.218528
-0.197313
-0.152846
-0.103410
-0.060697
-0.011830
0.033006
0.062027
0.062702
0.039022
0.018234
-0.025799
-0.054261
-0.078798
-0.129057
-0.180612
-0.205964
-0.226130
-0.243581
-0.246306
-0.221087
-0.187458
-0.130893
-0.085857
-0.031603
0.015826
0.051339
0.065573
0.084491
0.062004
0.035536
0.010940
-0.022982
-0.065987
-0.130584
-0.172673
-0.186488
-0.210504
-0.217626
-0.217821
-0.193134
-0.156943
-0.117994
-0.053565
-0.000576
0.039079
0.053450
0.077896
0.069536
0.076098
0.075912
0.025465
-0.024835
-0.089140
-0.131835
-0.164714
-0.185415
-0.211361
-0.207671
-0.202955
-0.161415
-0.128207
-0.078894
-0.024704
0.023450
0.068529
0.079082
0.106942
0.122331
0.121043
0.090501
0.054895
-0.004711
-0.052659
-0.101947
-0.158899
-0.193130
-0.200146
-0.203253
-0.184135
-0.175345
-0.139669
-0.111273
-0.067742
-0.012584
0.024559
0.052347
0.058055
0.069253
0.064598
0.044994
0.007855
-0.027863
-0.070576
-0.121168
-0.160904
-0.203234
-0.249571
-0.255907
-0.237542
-0.222129
-0.199155
-0.139120
-0.084311
-0.046407
-0.010843
0.015316
0.032051
0.029179
0.047759
0.015622
-0.034102
-0.079190
-0.133087
-0.184224
-0.206627
-0.228266
-0.253530
-0.278327
-0.257483
-0.228452
-0.196580
-0.152817
-0.105043
-0.049486
-0.015986
0.010271
0.024889
0.023424
0.036972
0.020495
-0.029988
-0.079549
-0.130756
-0.172174
-0.209949
-0.249977
-0.263859
-0.266927
-0.266716
-0.243842
-0.208652
-0.168019
-0.132766
-0.067613
-0.019286
0.018834
0.050303
0.051652
0.040252
-0.009853
-0.045844
-0.083890
-0.133448
-0.174544
-0.210396
-0.241871
-0.257024
-0.274599
-0.284802
-0.251162
-0.209904
-0.169944
-0.118047
-0.071468
-0.026633
0.009620
0.022809
0.032080
0.040790
0.025043
-0.035944
-0.089998
-0.136979
-0.175852
-0.214073
-0.252940
-0.292580
-0.305249
-0.282312
-0.256596
-0.204863
-0.141903
-0.087568
-0.035094
0.027654
0.068999
0.101459
0.115261
0.124340
0.123594
0.089510
0.051650
0.024451
0.004377
-0.014163
-0.031595
-0.035893
-0.010670
0.026456
0.085877
0.150890
0.227719
0.308903
0.387945
0.477260
0.534771
0.586250
0.622945
0.663713
0.675922
0.679324
0.655435
0.652426
0.627665
0.592563
0.542966
0.524200
0.502501
0.499960
0.508428
0.494834
0.491230
0.505762
0.462070
0.415074
0.404025
0.394362
0.342971
0.293833
0.242782
0.178520
0.117056
0.048361
-0.006409
-0.042917
-0.090920
-0.133723
-0.150352
-0.147154
-0.136979
-0.089015
-0.046295
-0.011307
0.034579
0.069669
0.097696
0.103332
0.122630
0.113185
0.086763
0.042269
0.003325
-0.044378
-0.108666
-0.158230
-0.196774
-0.216948
-0.202691
-0.200694
-0.186787
-0.162798
-0.117025
-0.084591
-0.038083
0.019275
0.053574
0.077353
0.076335
0.070698
0.033456
0.006540
-0.030010
-0.066311
-0.110850
-0.162063
-0.196776
-0.225238
-0.227285
-0.217407
-0.200813
-0.166555
-0.128698
-0.073769
-0.022413
0.008450
0.041834
0.071204
0.059594
0.057254
0.042706
0.014544
-0.014880
-0.065550
-0.114879
-0.171623
-0.201147
-0.223570
-0.218316
-0.216355
-0.187404
-0.142146
-0.105242
-0.061911
-0.010006
0.039652
0.069223
0.088614
0.079235
0.088290
0.073081
0.017627
-0.018469
-0.061204
-0.103009
-0.154219
-0.174411
-0.170648
-0.202711
-0.198351
-0.164681
-0.130535
-0.087157
-0.051096
-0.000569
0.046095
0.088435
0.105830
0.090135
0.109159
0.103643
0.063220
0.023502
-0.027180
-0.075845
-0.129530
-0.156188
-0.178068
-0.172669
-0.162488
-0.147000
-0.117195
-0.063224
-0.019335
0.053640
0.098305
0.124665
0.137492
0.151015
0.139913
0.112173
0.074971
0.048862
0.012214
-0.036428
-0.080450
-0.114451
-0.137654
-0.129048
-0.123472
-0.116812
-0.069901
-0.024695
0.005096
0.061167
0.131301
0.150629
0.182427
0.192963
0.177639
0.143618
0.125995
0.084962
0.045988
0.010790
-0.045167
-0.109948
-0.129743
-0.125659
-0.128883
-0.100448
-0.074327
-0.032714
0.053990
0.128528
0.122044
0.127602
0.146327
0.176970
0.158559
0.157789
0.131383
0.111596
0.059845
-0.002100
-0.060303
-0.101695
-0.111177
-0.123513
-0.104559
-0.098950
-0.073123
-0.036330
0.035684
0.098278
0.123950
0.168724
0.197915
0.189512
0.161412
0.144745
0.125841
0.063356
0.001970
-0.045265
-0.081513
-0.115622
-0.145608
-0.144395
-0.132572
-0.106073
-0.079309
-0.039077
0.017283
0.055222
0.093588
0.135163
0.154958
0.156826
0.149821
0.124778
0.083893
0.044282
-0.005130
-0.070210
-0.113324
-0.146477
-0.179154
-0.190145
-0.206244
-0.172256
-0.121974
-0.075193
-0.043939
0.006932
0.060373
0.103822
0.119143
0.115622
0.117220
0.098191
0.051382
-0.018092
-0.080988
-0.112605
-0.149059
-0.177452
-0.199558
-0.199275
-0.178818
-0.181889
-0.163104
-0.115756
-0.052970
0.006474
0.044502
0.069483
0.081803
0.086452
0.078784
0.042665
0.007374
-0.028926
-0.076967
-0.116866
-0.137972
-0.177649
-0.205503
-0.200836
-0.210049
-0.189567
-0.165262
-0.122754
-0.063511
-0.011154
0.032362
0.062504
0.063969
0.063940
0.062777
0.060622
0.007413
-0.028300
-0.067839
-0.109626
-0.144920
-0.170284
-0.212757
-0.212246
-0.224325
-0.202390
-0.163062
-0.093683
-0.040436
0.000290
0.029152
0.061484
0.089343
0.099044
0.063655
0.050784
0.025272
-0.012884
-0.063918
-0.123189
-0.156607
-0.180958
-0.219403
-0.220319
-0.202449
-0.182929
-0.148243
-0.086096
-0.040117
0.000770
0.040277
0.062762
0.080864
0.096557
0.097865
0.083822
0.034594
-0.013198
-0.072062
-0.104400
-0.126626
-0.165334
-0.194487
-0.212604
-0.233361
-0.177243
-0.104738
-0.079553
-0.047487
0.007667
0.034336
0.071051
0.090096
0.101309
0.120483
0.082939
0.027706
0.004873
-0.049181
-0.100397
-0.146524
-0.200355
-0.195484
-0.189034
-0.201477
-0.197610
-0.152328
-0.124586
-0.055643
0.008444
0.046189
0.087393
0.116178
0.104421
0.066757
0.035843
0.022599
-0.011249
-0.053997
-0.094283
-0.150038
-0.191511
-0.195758
-0.196658
-0.199638
-0.196384
-0.148386
-0.127125
-0.073909
0.008025
0.059646
0.074243
0.083937
0.078799
0.077896
0.066463
0.035981
-0.008126
-0.064624
-0.125771
-0.135644
-0.165546
-0.223174
-0.219650
-0.207213
-0.196392
-0.148817
-0.091493
-0.072403
-0.011173
0.035074
0.049365
0.084309
0.087584
0.057409
0.054931
0.029896
-0.034553
-0.082618
-0.112881
-0.132084
-0.177291
-0.178199
-0.192678
-0.200014
-0.173778
-0.145660
-0.112893
-0.083772
-0.052234
-0.003051
0.066368
0.083060
0.082431
0.067372
0.059795
0.026937
-0.022265
-0.056149
-0.111048
-0.165285
-0.201496
-0.211155
-0.214464
-0.236819
-0.220775
-0.162682
-0.091321
-0.053328
-0.012358
0.033512
0.046570
0.076675
0.099305
0.088607
0.074725
0.030885
-0.028151
-0.093633
-0.152961
-0.130165
-0.160075
-0.207302
-0.233701
-0.238206
-0.212707
-0.163615
-0.112225
-0.045203
0.008441
0.039071
0.065902
0.079796
0.102013
0.114811
0.062851
-0.002810
-0.024009
-0.020773
-0.089192
-0.115871
-0.148683
-0.178637
-0.173508
-0.163293
-0.148835
-0.113913
-0.062437
-0.020517
0.023672
0.042865
0.094612
0.106587
0.105002
0.101934
0.078654
0.040812
-0.031766
-0.073844
-0.170105
-0.154864
-0.161817
-0.183749
-0.155905
-0.148409
-0.143042
-0.105071
-0.075790
0.006281
0.079347
0.113401
0.132728
0.154351
0.148845
0.136066
0.111686
0.080472
0.033636
-0.016459
-0.058621
-0.101734
-0.138111
-0.165017
-0.175754
-0.161277
-0.150176
-0.143862
-0.059289
-0.017887
0.023539
0.068380
0.118126
0.128837
0.093868
0.073687
0.090343
0.043636
-0.017562
-0.077119
-0.124702
-0.134243
-0.163760
-0.204613
-0.244127
-0.245544
-0.198456
-0.168868
-0.113885
-0.052577
-0.016365
0.050101
0.054481
0.089094
0.077386
0.073908
0.051552
0.026123
-0.051579
-0.112487
-0.162943
-0.177727
-0.196482
-0.232908
-0.241652
-0.232276
-0.220083
-0.181676
-0.131917
-0.055363
-0.020616
0.001556
0.045727
0.075934
0.081356
0.065878
0.051977
0.014080
-0.021518
-0.077172
-0.145621
-0.192763
-0.202720
-0.226088
-0.249008
-0.273031
-0.220747
-0.182729
-0.134904
-0.111698
-0.048713
-0.007540
-0.011991
-0.052383
0.063767
0.165589
0.105120
0.047669
-0.025340
-0.074123
-0.142381
-0.208908
-0.242417
-0.245886
-0.236466
-0.228690
-0.211323
-0.170073
-0.133782
-0.071336
-0.018237
0.030923
0.044076
0.057475
0.088987
0.093292
0.077459
0.022106
-0.047693
-0.087723
-0.125527
-0.215145
-0.231546
-0.286865
-0.268510
-0.238598
-0.203174
-0.139428
-0.089337
-0.027358
0.015816
0.077796
0.097821
0.152303
0.148087
0.153228
0.167578
0.114356
0.023422
0.037440
-0.037813
-0.014738
-0.012528
-0.016351
-0.029301
0.026970
0.046744
0.153690
0.236656
0.321783
0.389837
0.474943
0.556528
0.600380
0.572113
0.653941
0.662972
0.645857
0.648165
0.644752
0.649666
0.621927
0.613646
0.578661
0.554894
0.575735
0.568783
0.555906
0.572007
0.617055
0.589716
0.576033
0.536283
0.471426
0.451108
0.425067
0.332251
0.245878
0.162802
0.096625
0.031810
0.009432
-0.022072
-0.067807
-0.083539
-0.093406
-0.094997
-0.058257
-0.026360
0.049514
0.089314
0.118695
0.164551
0.170246
0.116193
0.121828
0.133522
0.099213
0.035266
0.004181
-0.067537
-0.117597
-0.135693
-0.140868
-0.124252
-0.133862
-0.158057
-0.153177
-0.050550
-0.045451
0.040204
0.071378
0.080089
0.107400
0.123273
0.089236
0.069640
0.036273
-0.018209
-0.074529
-0.135376
-0.189046
-0.195494
-0.176895
-0.178898
-0.168102
-0.164791
-0.137504
-0.067232
-0.020383
-0.009753
0.060856
0.095715
0.101969
0.091998
0.109381
0.094517
0.067212
-0.000409
-0.036441
-0.101693
-0.154448
-0.186152
-0.195853
-0.194587
-0.197454
-0.178609
-0.140321
-0.078113
-0.038933
0.030294
0.097137
0.137658
0.140679
0.139520
0.128128
0.097678
0.055555
0.021853
-0.024004
-0.070480
-0.091655
-0.146009
-0.170238
-0.202814
-0.173896
-0.137840
-0.108471
-0.051125
0.006071
0.050941
0.080921
0.140066
0.167449
0.169161
0.161871
0.134226
0.095147
0.054091
-0.004792
-0.043090
-0.051332
-0.089419
-0.120963
-0.126221
-0.124315
-0.115191
-0.055678
-0.021227
0.007765
0.066519
0.106637
0.161807
0.208210
0.209096
0.170465
0.145486
0.130031
0.106235
0.066574
0.012837
-0.032956
-0.076864
-0.101938
-0.102918
-0.091315
-0.069745
-0.040336
0.012831
0.069847
0.130656
0.155486
0.183102
0.224446
0.227447
0.218329
0.196830
0.166938
0.143956
0.079753
0.058271
0.011819
-0.055711
-0.075126
-0.075882
-0.065332
-0.043058
-0.026551
0.012423
0.064687
0.125672
0.176262
0.205736
0.229259
0.229948
0.203729
0.216573
0.179780
0.125367
0.083823
0.033978
-0.005480
-0.034553
-0.062445
-0.081110
-0.072852
-0.050704
-0.022316
0.031112
0.079140
0.126147
0.163748
0.194545
0.203675
0.212059
0.195219
0.169990
0.138341
0.107894
0.071990
0.026207
0.000334
-0.047621
-0.091830
-0.087004
-0.049046
-0.081012
-0.058287
0.006001
0.020195
0.067151
0.127750
0.152254
0.151103
0.161380
0.188034
0.175451
0.112169
0.074187
0.035738
-0.008677
-0.050509
-0.080896
-0.105255
-0.114185
-0.118837
-0.059739
-0.031319
0.016052
0.052995
0.078184
0.111204
0.143493
0.169559
0.150073
0.137582
0.142121
0.113218
0.027447
-0.060165
-0.076800
-0.121997
-0.166719
-0.179465
-0.168738
-0.136078
-0.124119
-0.087768
-0.049266
0.021181
0.034961
0.078752
0.103226
0.128257
0.143130
0.108704
0.086145
0.055224
-0.012313
-0.035142
-0.076509
-0.102155
-0.159021
-0.178598
-0.177389
-0.187370
-0.132675
-0.092661
-0.047459
-0.004445
0.045607
0.086817
0.113732
0.127888
0.110500
0.137286
0.129498
0.064107
-0.035140
-0.058147
-0.089580
-0.135360
-0.170015
-0.194413
-0.172180
-0.139181
-0.144409
-0.096586
-0.045289
0.004960
0.052254
0.125072
0.137780
0.135965
0.136648
0.135857
0.111935
0.066491
0.016860
0.001517
-0.090360
-0.167880
-0.178796
-0.187903
-0.157805
-0.133051
-0.127897
-0.107161
-0.037406
0.009408
0.031503
0.077664
0.147454
0.158919
0.141543
0.145145
0.138051
0.060965
0.030692
-0.026219
-0.093442
-0.130707
-0.126799
-0.162729
-0.166758
-0.155496
-0.121542
-0.109067
-0.061002
-0.003412
0.059042
0.083412
0.126502
0.139287
0.152042
0.138405
0.120149
0.097030
0.056377
-0.013421
-0.072641
-0.100611
-0.149253
-0.167169
-0.170471
-0.161891
-0.131926
-0.088244
-0.052448
-0.029884
0.025497
0.082351
0.118180
0.132076
0.152316
0.155519
0.122589
0.101360
0.073478
0.009327
-0.057118
-0.115806
-0.148735
-0.180220
-0.167773
-0.175866
-0.133043
-0.102752
-0.066440
-0.042561
0.039972
0.080435
0.116785
0.153827
0.176079
0.167376
0.106955
0.079408
0.023788
-0.036535
-0.100577
-0.156987
-0.168085
-0.149243
-0.129703
-0.156970
-0.164507
-0.119157
-0.077432
-0.009856
0.055116
0.100366
0.111065
0.138815
0.126938
0.114589
0.091954
0.059711
0.002051
-0.032511
-0.076669
-0.113726
-0.142252
-0.173125
-0.181130
-0.173231
-0.152652
-0.116788
-0.068616
-0.009615
0.030759
0.055396
0.080634
0.090623
0.104444
0.123761
0.097448
0.062774
0.042515
-0.030025
-0.068988
-0.093900
-0.128938
-0.169522
-0.172917
-0.159511
-0.125751
-0.108951
-0.063017
0.002463
0.025216
0.060293
0.081660
0.098200
0.118201
0.123619
0.123817
0.099465
0.066097
0.018658
-0.031813
-0.076707
-0.131861
-0.138570
-0.127103
-0.129079
-0.119337
-0.096892
-0.028851
0.044241
0.090860
0.108573
0.133943
0.157773
0.136468
0.154661
0.092846
0.066796
0.053013
0.012487
-0.032463
-0.053056
-0.134435
-0.166229
-0.141654
-0.124532
-0.086677
-0.038377
-0.018257
0.031970
0.103515
0.112381
0.135957
0.174520
0.178980
0.190805
0.156288
0.096786
0.054139
0.013721
-0.059076
-0.099775
-0.114772
-0.148552
-0.143136
-0.150341
-0.117565
-0.069447
-0.032185
0.016968
0.060211
0.096546
0.118368
0.133574
0.136484
0.125542
0.118674
0.102563
0.074933
-0.033119
-0.101209
-0.143710
-0.172984
-0.176542
-0.182051
-0.183590
-0.169448
-0.151634
-0.067889
-0.026928
0.016853
0.053204
0.096023
0.104939
0.123050
0.108035
0.067177
-0.011486
-0.039818
-0.082870
-0.146247
-0.179009
-0.201206
-0.208306
-0.201555
-0.191775
-0.183368
-0.150540
-0.083629
-0.025287
0.025423
0.057829
0.111255
0.118302
0.149624
0.125797
0.079627
0.032188
-0.026276
-0.056154
-0.108354
-0.160749
-0.189944
-0.263476
-0.245562
-0.235604
-0.175312
-0.162606
-0.083954
-0.048973
0.000119
0.046388
0.069188
0.085708
0.079828
0.105093
0.097533
0.024001
-0.051128
-0.100583
-0.144317
-0.160230
-0.192271
-0.223405
-0.229202
-0.212129
-0.172333
-0.127053
-0.095157
-0.042498
0.011022
0.067570
0.090538
0.086390
0.096577
0.067819
0.032072
0.008311
-0.046124
-0.070650
-0.115651
-0.130387
-0.158819
-0.190493
-0.208543
-0.197530
-0.155083
-0.115803
-0.063391
-0.004517
0.066621
0.132619
0.163712
0.202452
0.223640
0.221698
0.206164
0.188930
0.160241
0.130786
0.103206
0.083042
0.104809
0.126153
0.150366
0.210696
0.257145
0.303321
0.359778
0.450890
0.541889
0.638611
0.716323
0.769857
0.799535
0.840811
0.859072
0.844963
0.805909
0.750101
0.714704
0.666315
0.611106
0.570190
0.526726
0.512022
0.456831
0.428476
0.420172
0.397042
0.388088
0.388051
0.359888
0.344058
0.325515
0.296933
0.275790
0.211491
0.175089
0.126561
0.052028
-0.006910
-0.054022
-0.074124
-0.086698
-0.079426
-0.062866
-0.036766
-0.021274
0.034374
0.073982
0.125743
0.134190
0.164324
0.176035
0.141804
0.098470
0.064622
0.061804
0.015628
-0.015342
-0.073258
-0.139323
-0.190223
-0.218046
-0.141005
-0.104109
-0.094731
-0.057767
-0.006219
0.051999
0.083379
0.109603
0.131151
0.124016
0.149479
0.101675
0.057033
0.014108
-0.030487
-0.072040
-0.095838
-0.123458
-0.134103
-0.149864
-0.160391
-0.143397
-0.105069
-0.050948
-0.015681
0.032943
0.091595
0.117654
0.119522
0.136408
0.115178
0.081773
0.044426
0.022997
-0.008519
-0.047090
-0.077001
-0.127726
-0.160570
-0.165076
-0.150787
-0.131222
-0.080885
-0.051180
-0.006784
0.051250
0.093695
0.132048
0.147317
0.129967
0.117656
0.099670
0.093602
0.029893
-0.005647
-0.074748
-0.077563
-0.112063
-0.130091
-0.136825
-0.123305
-0.100335
-0.079232
-0.046036
0.011352
0.069049
0.122334
0.150237
0.161772
0.170725
0.167494
0.142738
0.109272
0.073505
0.017933
-0.026829
-0.075029
-0.084748
-0.078809
-0.085587
-0.082258
-0.073544
-0.042266
-0.010731
0.049233
0.092844
0.139489
0.173494
0.204343
0.218576
0.210238
0.179734
0.165111
0.100786
0.058151
0.015361
-0.036514
-0.061347
-0.052514
-0.069880
-0.082467
-0.046435
0.012943
0.056247
0.102591
0.142384
0.174291
0.219760
0.244045
0.226683
0.240153
0.210798
0.181434
0.106628
0.074144
0.040025
-0.000408
-0.038852
-0.060179
-0.044327
-0.043800
-0.024168
0.011105
0.041634
0.059133
0.120121
0.187349
0.214426
0.242585
0.249924
0.236901
0.189279
0.152804
0.119237
0.076130
0.031536
-0.000866
-0.045549
-0.069402
-0.078945
-0.058898
-0.039886
-0.019309
0.041980
0.064565
0.113480
0.156157
0.205054
0.204694
0.209239
0.211276
0.194233
0.165683
0.146968
0.085623
0.023192
-0.039462
-0.090614
-0.098423
-0.104633
-0.103135
-0.086050
-0.053174
0.005685
0.042558
0.085077
0.124968
0.148074
0.183819
0.188695
0.179830
0.155826
0.103293
0.072414
0.010977
-0.024051
-0.055164
-0.089374
-0.119911
-0.145870
-0.134028
-0.118864
-0.088144
-0.032210
0.028995
0.077569
0.104041
0.133797
0.143087
0.149060
0.139239
0.108260
0.076606
0.053442
-0.026776
-0.082056
-0.091294
-0.138270
-0.161960
-0.170411
-0.165089
-0.153969
-0.104149
-0.054096
-0.008817
0.033711
0.068498
0.102744
0.107455
0.127844
0.140261
0.097169
0.063678
0.020185
-0.037487
-0.090948
-0.136782
-0.155265
-0.193749
-0.194837
-0.171262
-0.151269
-0.123575
-0.076713
-0.013751
0.021087
0.069546
0.106938
0.108809
0.087620
0.115730
0.104097
0.068169
0.030765
-0.026312
-0.079042
-0.130843
-0.150076
-0.160545
-0.175216
-0.175670
-0.136658
-0.095393
-0.054497
-0.025008
0.010290
0.065464
0.098350
0.123778
0.125188
0.108598
0.094922
0.062480
0.016389
-0.065228
-0.088931
-0.112522
-0.137373
-0.169563
-0.162658
-0.158103
-0.132471
-0.101417
-0.065229
-0.011189
0.032477
0.076814
0.114843
0.134317
0.127210
0.120342
0.088571
0.050643
0.012025
-0.026401
-0.085842
-0.086706
-0.103781
-0.131751
-0.156439
-0.161915
-0.139477
-0.115034
-0.085238
-0.025671
0.024523
0.099509
0.135948
0.128722
0.147897
0.125349
0.110815
0.091622
0.045215
-0.021973
-0.093291
-0.117679
-0.142381
-0.152609
-0.153624
-0.162485
-0.156015
-0.109518
-0.049788
-0.009501
0.019134
0.064206
0.096076
0.111538
0.117991
0.111119
0.095212
0.070637
0.011886
-0.011178
-0.057151
-0.099925
-0.144702
-0.171843
-0.185986
-0.170631
-0.138373
-0.102107
-0.066455
-0.018921
0.023068
0.069547
0.115332
0.129965
0.140680
0.114186
0.088703
0.059826
0.020992
-0.020533
-0.076934
-0.108002
-0.147575
-0.175182
-0.175967
-0.151382
-0.134511
-0.088582
-0.063175
-0.025571
0.012015
0.032845
0.070302
0.113144
0.130792
0.118596
0.088662
0.056717
0.015318
-0.021353
-0.065270
-0.107667
-0.141149
-0.170776
-0.183500
-0.167730
-0.134480
-0.106156
-0.067722
-0.013825
0.039747
0.090568
0.124741
0.142001
0.154467
0.145805
0.122157
0.083477
0.033042
-0.017495
-0.053143
-0.112003
-0.133197
-0.142328
-0.144008
-0.136664
-0.090820
-0.036520
-0.009276
0.006473
0.072269
0.076988
0.116387
0.166411
0.146095
0.123760
0.099908
0.055494
0.019569
-0.004241
-0.032527
-0.071066
-0.112066
-0.127036
-0.112107
-0.129690
-0.105712
-0.042148
-0.033578
0.024057
0.073201
0.131471
0.172642
0.188767
0.189130
0.159528
0.144549
0.104993
0.076223
0.026657
-0.038302
-0.093449
-0.131196
-0.135467
-0.131223
-0.119250
-0.102054
-0.076593
-0.052686
-0.008038
0.039041
0.089322
0.126735
0.140166
0.144567
0.132362
0.098197
0.057203
0.012631
-0.030663
-0.060476
-0.129318
-0.162612
-0.177311
-0.171945
-0.170944
-0.143262
-0.114405
-0.093266
-0.060238
-0.003887
0.018868
0.077555
0.092600
0.107948
0.106761
0.085365
0.034147
-0.006754
-0.050100
-0.093905
-0.153182
-0.187979
-0.207300
-0.220007
-0.224593
-0.178096
-0.136143
-0.084906
-0.024904
0.025087
0.026015
0.061141
0.104498
0.070750
0.081689
0.075376
0.017103
-0.033453
-0.071096
-0.108227
-0.157971
-0.190079
-0.194154
-0.214687
-0.232473
-0.211049
-0.162527
-0.095174
-0.034674
0.004127
0.032979
0.072521
0.087489
0.096979
0.089390
0.063762
0.015957
-0.027082
-0.072383
-0.098324
-0.125969
-0.189476
-0.219304
-0.223978
-0.224818
-0.211684
-0.153711
-0.095345
-0.046935
0.000282
0.053677
0.050048
0.058289
0.089517
0.104005
0.079125
0.048074
-0.005364
-0.071673
-0.138934
-0.184293
-0.204675
-0.216224
-0.231225
-0.225265
-0.173998
-0.142710
-0.075615
0.000603
0.069050
0.115952
0.141298
0.175939
0.199410
0.212179
0.206419
0.171735
0.153579
0.120116
0.111513
0.089478
0.074585
0.085178
0.113844
0.163669
0.211203
0.271714
0.363137
0.450481
0.538711
0.601916
0.688522
0.755092
0.788793
0.819971
0.830141
0.823726
0.793527
0.741091
0.700369
0.650910
0.608682
0.568977
0.543405
0.548081
0.514827
0.479595
0.448120
0.428611
0.404609
0.393662
0.390877
0.343708
0.300642
0.276352
0.258066
0.244465
0.191152
0.136779
0.066944
0.012976
-0.024108
-0.069123
-0.116697
-0.112919
-0.098730
-0.048203
-0.009092
0.050095
0.092963
0.124318
0.160426
0.149182
0.150954
0.149031
0.119635
0.089231
0.037932
-0.041716
-0.076405
-0.089577
-0.125784
-0.136916
-0.152140
-0.158816
-0.153505
-0.118655
-0.068188
0.013051
0.029588
0.072027
0.101244
0.104991
0.118837
0.119215
0.107566
0.056913
0.016046
-0.043416
-0.087622
-0.126573
-0.151877
-0.160697
-0.175224
-0.163691
-0.142356
-0.101526
-0.054676
-0.001712
0.035290
0.067147
0.117361
0.121869
0.120796
0.113671
0.100519
0.056627
0.030955
-0.025276
-0.070950
-0.117256
-0.140338
-0.164174
-0.158763
-0.144231
-0.120252
-0.104902
-0.059404
-0.007681
0.035715
0.077118
0.110063
0.126490
0.142622
0.141544
0.116116
0.098146
0.049662
-0.005734
-0.051824
-0.093891
-0.118855
-0.140190
-0.132725
-0.117548
-0.101715
-0.071942
-0.045862
-0.000127
0.059090
0.102785
0.143822
0.159976
0.166797
0.159639
0.146572
0.115267
0.075629
0.017579
-0.022678
-0.071690
-0.090697
-0.124771
-0.128709
-0.132550
-0.092944
-0.032838
0.011756
0.058447
0.094388
0.141004
0.172089
0.200677
0.205827
0.194464
0.173250
0.150167
0.103862
0.048398
0.012226
-0.020804
-0.059223
-0.075315
-0.078426
-0.077256
-0.052801
-0.001640
0.049512
0.098822
0.124006
0.168926
0.230584
0.241470
0.239935
0.227098
0.207888
0.179374
0.130116
0.079939
0.034081
-0.013069
-0.053630
-0.058568
-0.059464
-0.059903
-0.033295
0.003110
0.039516
0.094557
0.141877
0.182206
0.210740
0.244570
0.257097
0.242985
0.211388
0.164378
0.123287
0.062387
0.020322
-0.030552
-0.056679
-0.066831
-0.067844
-0.061488
-0.048790
-0.018092
0.023621
0.079826
0.123692
0.159728
0.197243
0.217783
0.238706
0.228799
0.184850
0.142738
0.106207
0.030951
0.000259
-0.053069
-0.088006
-0.108434
-0.108661
-0.102543
-0.073920
-0.042777
-0.000514
0.050699
0.083214
0.134031
0.165384
0.177353
0.175461
0.186505
0.162060
0.121158
0.075890
0.013919
-0.030185
-0.076632
-0.137304
-0.148715
-0.147463
-0.153394
-0.121448
-0.069362
-0.035232
0.016960
0.061441
0.094213
0.129137
0.139372
0.138346
0.127065
0.104552
0.059903
0.038133
-0.017636
-0.064458
-0.112399
-0.153050
-0.156718
-0.164030
-0.162099
-0.139624
-0.104494
-0.067112
-0.021965
0.025556
0.063823
0.112946
0.137377
0.131491
0.107771
0.093453
0.053279
0.012587
-0.040872
-0.085782
-0.119137
-0.152376
-0.172135
-0.172201
-0.170997
-0.137359
-0.108861
-0.067989
-0.017257
0.023825
0.053428
0.088794
0.113533
0.124390
0.132136
0.100402
0.050166
0.001688
-0.050434
-0.102892
-0.128566
-0.167819
-0.171595
-0.171269
-0.165945
-0.148639
-0.119304
-0.069187
-0.014090
0.034963
0.080292
0.109998
0.128976
0.130909
0.119562
0.093365
0.051769
0.010210
-0.042703
-0.083271
-0.109305
-0.138032
-0.162580
-0.167102
-0.156650
-0.136114
-0.112114
-0.060675
0.001054
0.047517
0.080966
0.107713
0.117546
0.116398
0.131400
0.120340
0.073362
0.021461
-0.026677
-0.066321
-0.110751
-0.158785
-0.169017
-0.157305
-0.147108
-0.131638
-0.089399
-0.047593
0.000888
0.029724
0.066022
0.098377
0.142529
0.148143
0.121938
0.109254
0.075976
0.031300
-0.016490
-0.062237
-0.112919
-0.153107
-0.164877
-0.167176
-0.165784
-0.142084
-0.112874
-0.072271
-0.024081
0.017501
0.078677
0.119132
0.133824
0.126262
0.125929
0.103274
0.063609
0.014391
-0.043631
-0.091185
-0.118387
-0.153948
-0.172421
-0.178670
-0.167338
-0.124096
-0.087309
-0.050438
-0.007690
0.025836
0.070140
0.105027
0.123329
0.120674
0.110468
0.088488
0.056715
0.014256
-0.044394
-0.077450
-0.113202
-0.153705
-0.170906
-0.185437
-0.178361
-0.148213
-0.120445
-0.080452
-0.020419
0.023816
0.057978
0.089432
0.114404
0.108309
0.107641
0.104553
0.057574
0.017189
-0.030468
-0.076827
-0.131652
-0.169106
-0.201260
-0.217659
-0.195224
-0.156756
-0.117864
-0.067908
-0.010980
0.022650
0.048638
0.089060
0.109458
0.130970
0.138867
0.114878
0.082068
0.027692
-0.023677
-0.066071
-0.115794
-0.157878
-0.168579
-0.164391
-0.157568
-0.129097
-0.085545
-0.029318
0.008063
0.045312
0.083611
0.117358
0.140018
0.145336
0.153746
0.136132
0.105813
0.066162
0.015205
-0.037324
-0.074351
-0.123549
-0.147787
-0.149377
-0.143394
-0.124093
-0.091322
-0.050306
0.008765
0.056162
0.094968
0.130711
0.165689
0.159059
0.158331
0.148725
0.131004
0.073216
0.020916
-0.001976
-0.043876
-0.097380
-0.146135
-0.137284
-0.135219
-0.094713
-0.054556
-0.037721
0.024002
0.062103
0.093761
0.129634
0.158924
0.153053
0.157625
0.121194
0.077982
0.056360
-0.007707
-0.056634
-0.113886
-0.139961
-0.161236
-0.167357
-0.160828
-0.151383
-0.126726
-0.086009
-0.027894
0.032416
0.078998
0.102130
0.109440
0.108922
0.102403
0.069981
0.039944
-0.009587
-0.049407
-0.094327
-0.134477
-0.173666
-0.198193
-0.194039
-0.194753
-0.180001
-0.144084
-0.095872
-0.055798
-0.019008
0.035913
0.070800
0.078712
0.088011
0.078467
0.049698
0.010707
-0.027485
-0.067491
-0.113135
-0.158901
-0.192028
-0.206511
-0.218684
-0.209090
-0.181866
-0.139117
-0.096835
-0.060134
-0.017866
0.023946
0.066954
0.088283
0.081964
0.073982
0.051742
0.014139
-0.035981
-0.078448
-0.123364
-0.160383
-0.196179
-0.217856
-0.217999
-0.218603
-0.188894
-0.143097
-0.099034
-0.063181
-0.014399
0.029840
0.059269
0.067582
0.089722
0.080740
0.065073
0.026185
-0.024099
-0.085041
-0.124141
-0.155577
-0.188706
-0.214305
-0.208552
-0.203974
-0.182435
-0.147976
-0.107853
-0.053717
-0.013800
0.013433
0.038788
0.062530
0.069494
0.069345
0.050445
0.021778
-0.017051
-0.055747
-0.092238
-0.115955
-0.128618
-0.134850
-0.129632
-0.102085
-0.063615
-0.025558
0.016951
0.080651
0.156193
0.223424
0.278712
0.322747
0.344103
0.373815
0.383498
0.391276
0.392660
0.382508
0.381903
0.355498
0.342803
0.358758
0.415056
0.468127
0.519255
0.589881
0.656944
0.732549
0.774176
0.805176
0.844410
0.866178
0.852426
0.833457
0.778411
0.709126
0.613172
0.494588
0.394554
0.299413
0.211970
0.135099
0.090110
0.061092
0.033107
0.044789
0.086983
0.130767
0.181397
0.211875
0.214336
0.238287
0.226917
0.198439
0.168711
0.130970
0.072242
0.004238
-0.031540
-0.068021
-0.097352
-0.106655
-0.118832
-0.120619
-0.129664
-0.098675
-0.045688
0.003124
0.065523
0.093331
0.113161
0.126501
0.141200
0.148019
0.129347
0.076648
0.015320
-0.035222
-0.085886
-0.130149
-0.153935
-0.158029
-0.170409
-0.170506
-0.143590
-0.108883
-0.064787
-0.019018
0.034300
0.065593
0.099459
0.115303
0.104191
0.104010
0.096786
0.059208
0.023870
-0.019895
-0.072279
-0.125407
-0.155100
-0.174229
-0.178870
-0.169842
-0.155108
-0.114345
-0.069500
-0.019456
0.026158
0.073770
0.108612
0.128681
0.142577
0.129148
0.088645
0.076221
0.025836
-0.025972
-0.072170
-0.110929
-0.138751
-0.161679
-0.166544
-0.153047
-0.130602
-0.096576
-0.043351
-0.007172
0.025633
0.083726
0.128656
0.153157
0.153487
0.143869
0.124920
0.091960
0.042399
0.000114
-0.040196
-0.087648
-0.117123
-0.129321
-0.136447
-0.134402
-0.103935
-0.069782
-0.034835
0.025178
0.073483
0.106846
0.146154
0.161001
0.172458
0.171945
0.158425
0.104392
0.074045
0.040881
-0.010461
-0.048957
-0.077284
-0.109757
-0.115701
-0.103398
