0.319650
0.379193
0.444434
0.501801
0.530699
0.587470
0.637518
0.672228
0.691423
0.661540
0.689790
0.697076
0.639280
0.600273
0.557456
0.578071
0.581826
0.586234
0.585093
0.608703
0.619255
0.619260
0.601658
0.545308
0.485084
0.428989
0.398216
0.324768
0.239889
0.183476
0.117163
0.034111
-0.016790
-0.052642
-0.037935
-0.078269
-0.096036
-0.072360
-0.026287
0.020879
0.062396
0.084125
0.123534
0.164963
0.181981
0.178737
0.158302
0.140224
0.087654
0.031917
0.001921
-0.056764
-0.103560
-0.132866
-0.170937
-0.156349
-0.167515
-0.156562
-0.117221
-0.075325
-0.030304
0.008936
0.068278
0.083651
0.135155
0.153445
0.146781
0.121229
0.075595
0.021875
-0.006328
-0.063693
-0.148103
-0.179745
-0.191329
-0.203202
-0.176696
-0.162494
-0.129131
-0.082273
-0.051332
0.000190
0.048065
0.064079
0.097268
0.102502
0.096642
0.087933
0.058808
0.028757
-0.021427
-0.057744
-0.105843
-0.134974
-0.155435
-0.174451
-0.155502
-0.144763
-0.121323
-0.065185
-0.030837
0.014140
0.053918
0.081072
0.093137
0.101732
0.108871
0.086374
0.068461
0.048037
-0.000548
-0.027684
-0.060034
-0.096934
-0.134401
-0.136498
-0.096178
-0.088531
-0.108734
-0.058853
-0.007338
0.048751
0.084944
0.102196
0.124676
0.129506
0.121338
0.100454
0.068145
0.067546
0.024432
-0.038863
-0.067692
-0.070692
-0.083195
-0.083975
-0.114556
-0.096248
-0.051400
-0.003967
0.037955
0.084343
0.143810
0.176268
0.192831
0.199283
0.174861
0.138021
0.137418
0.112399
0.046774
-0.015646
-0.036324
-0.060647
-0.091922
-0.098800
-0.083891
-0.059771
-0.003065
0.058304
0.090331
0.130828
0.185655
0.206272
0.223930
0.219306
0.195241
0.183441
0.153044
0.116722
0.081395
0.037098
-0.003132
-0.044065
-0.079154
-0.090911
-0.070833
-0.042153
-0.007040
0.040536
0.101077
0.165372
0.190400
0.192569
0.225775
0.248370
0.257584
0.234464
0.196473
0.158673
0.114623
0.074516
0.011456
-0.029681
-0.072111
-0.056903
-0.063739
-0.047695
-0.006797
0.027453
0.063495
0.119294
0.176789
0.203954
0.208018
0.219909
0.211311
0.196173
0.159771
0.136902
0.099933
0.051013
-0.003056
-0.023387
-0.048611
-0.064202
-0.078427
-0.066920
-0.037654
0.004866
0.058468
0.097243
0.122004
0.158244
0.173150
0.161623
0.160111
0.148445
0.129623
0.085177
0.052117
-0.000346
-0.039596
-0.056860
-0.070153
-0.103628
-0.101287
-0.090273
-0.040650
-0.000116
0.076623
0.086435
0.115520
0.137417
0.138457
0.133735
0.126016
0.109051
0.076476
0.046043
0.009974
-0.051443
-0.099851
-0.124257
-0.136103
-0.133129
-0.121253
-0.113520
-0.091721
-0.048721
0.006451
0.056406
0.085696
0.110739
0.148263
0.160547
0.100047
0.076023
0.039925
-0.003208
-0.053915
-0.080514
-0.128339
-0.133535
-0.158348
-0.166996
-0.180675
-0.130775
-0.115083
-0.091154
-0.038247
0.023364
0.059101
0.089515
0.113343
0.119906
0.119943
0.118355
0.070816
0.037338
-0.020930
-0.082870
-0.111586
-0.146139
-0.182417
-0.185137
-0.169848
-0.153346
-0.136866
-0.084845
-0.028565
0.020518
0.061200
0.086689
0.106760
0.126285
0.128021
0.115519
0.061652
0.017919
-0.010523
-0.060282
-0.099164
-0.131532
-0.167852
-0.177133
-0.172493
-0.145479
-0.105386
-0.058416
-0.035031
0.006960
0.045337
0.074502
0.106218
0.113922
0.117670
0.104726
0.068544
0.016830
-0.030712
-0.053448
-0.080715
-0.095943
-0.124322
-0.134582
-0.129393
-0.104054
-0.089746
-0.056249
-0.017630
0.010494
0.056402
0.089924
0.112223
0.116315
0.100767
0.089171
0.066461
0.037580
-0.017166
-0.077872
-0.114368
-0.102203
-0.116282
-0.151128
-0.124730
-0.087946
-0.086004
-0.050113
-0.019534
0.031847
0.092877
0.092734
0.110747
0.140444
0.130020
0.060025
0.048200
0.001772
-0.032532
-0.059464
-0.110545
-0.113280
-0.138476
-0.157368
-0.138346
-0.116263
-0.070673
-0.033902
0.002774
0.057782
0.083652
0.096228
0.109788
0.123105
0.104792
0.096751
0.057740
0.005496
-0.066976
-0.112590
-0.130205
-0.142461
-0.169599
-0.198965
-0.197210
-0.126492
-0.096884
-0.053989
-0.021127
0.019115
0.035349
0.083158
0.135854
0.176000
0.165816
0.137877
0.092191
0.016436
-0.023308
-0.065619
-0.116302
-0.157901
-0.184914
-0.202414
-0.196404
-0.169947
-0.142829
-0.086964
-0.037695
0.016165
0.067263
0.118431
0.135815
0.147066
0.137145
0.122094
0.086703
0.038348
-0.032051
-0.061957
-0.100072
-0.137147
-0.169081
-0.193232
-0.187056
-0.167211
-0.122246
-0.077857
-0.034537
0.005908
0.046962
0.082955
0.097160
0.105377
0.100941
0.084825
0.056793
0.011346
-0.013355
-0.057539
-0.100865
-0.118037
-0.151977
-0.154024
-0.151539
-0.128421
-0.076630
-0.090442
-0.071866
-0.007441
0.017126
0.051880
0.074111
0.087631
0.115557
0.105981
0.042481
-0.015130
-0.050259
-0.082100
-0.101028
-0.123297
-0.148602
-0.170719
-0.178219
-0.139801
-0.095032
-0.056857
-0.017452
0.016074
0.052209
0.077782
0.073102
0.071636
0.074509
0.051660
0.025744
-0.020383
-0.055733
-0.088930
-0.138017
-0.191872
-0.205086
-0.193362
-0.161473
-0.136390
-0.094924
-0.045740
-0.003719
0.039582
0.083763
0.108839
0.116613
0.123055
0.113748
0.068035
0.046730
0.007389
-0.034743
-0.078406
-0.124301
-0.147421
-0.180950
-0.180306
-0.153361
-0.112169
-0.069178
-0.026802
0.023436
0.067329
0.100208
0.116009
0.125782
0.157259
0.137611
0.127472
0.090830
0.031748
-0.012326
-0.040823
-0.099107
-0.118989
-0.124279
-0.156276
-0.165242
-0.128295
-0.101623
-0.067431
-0.026683
0.019139
0.074268
0.141803
0.174984
0.178461
0.189976
0.163257
0.128089
0.084985
0.033776
-0.020543
-0.075991
-0.099544
-0.135267
-0.132248
-0.126112
-0.095984
-0.096189
-0.058777
-0.010208
0.027225
0.064104
0.112284
0.140958
0.145003
0.141503
0.108377
0.098393
0.057482
0.012895
-0.031054
-0.089465
-0.123749
-0.145996
-0.156970
-0.162295
-0.147914
-0.112452
-0.070468
-0.015089
0.010275
0.035827
0.057006
0.089275
0.089701
0.085088
0.067869
0.026697
-0.017992
-0.059186
-0.091424
-0.122934
-0.157697
-0.167877
-0.171387
-0.164064
-0.157720
-0.127616
-0.087912
-0.051486
-0.015143
0.025904
0.043619
0.075631
0.075140
0.072479
0.045820
0.017498
-0.018511
-0.076592
-0.118565
-0.157055
-0.183252
-0.189191
-0.175498
-0.170685
-0.154148
-0.130942
-0.083648
-0.039781
0.011941
0.039236
0.073782
0.082816
0.085248
0.073693
0.041397
0.010941
-0.031368
-0.070690
-0.126380
-0.173119
-0.186287
-0.198476
-0.201043
-0.191065
-0.172887
-0.149664
-0.099232
-0.051094
-0.008614
0.019565
0.066180
0.111203
0.110145
0.080620
0.059849
0.026030
-0.036048
-0.072970
-0.111911
-0.143105
-0.167607
-0.200478
-0.213913
-0.211536
-0.196003
-0.193465
-0.150678
-0.077034
-0.027988
0.028226
0.047635
0.067558
0.098411
0.106377
0.097738
0.064492
0.050258
0.008360
-0.030516
-0.070003
-0.081467
-0.084806
-0.084746
-0.074540
-0.048668
-0.011457
0.042942
0.104154
0.178368
0.264425
0.303178
0.347276
0.380018
0.420534
0.416815
0.428542
0.470306
0.440255
0.421413
0.407139
0.389939
0.418138
0.441150
0.485138
0.586202
0.620982
0.661393
0.707909
0.730890
0.772878
0.797806
0.801394
0.783509
0.743476
0.666331
0.624796
0.520942
0.402838
0.284735
0.192192
0.109283
0.065373
0.032044
0.016170
0.007791
0.029659
0.062009
0.095367
0.128852
0.162070
0.146430
0.153098
0.173969
0.168044
0.142661
0.108739
0.073945
0.024153
-0.052796
-0.100043
-0.128622
-0.155513
-0.137154
-0.128240
-0.118222
-0.082457
-0.046331
-0.009122
0.058324
0.099970
0.114120
0.139522
0.158504
0.149891
0.104762
0.069638
0.016401
-0.042112
-0.086674
-0.108298
-0.143777
-0.172645
-0.188702
-0.186794
-0.156491
-0.116739
-0.078121
-0.040434
0.005041
0.052142
0.106896
0.142651
0.141108
0.129204
0.101990
0.048824
0.046158
0.010903
-0.050274
-0.101592
-0.156712
-0.183509
-0.174928
-0.164318
-0.132611
-0.095384
-0.073206
-0.038947
0.008441
0.083493
0.110827
0.108221
0.128782
0.136641
0.114739
0.097531
0.037179
-0.005802
-0.035318
-0.055893
-0.094899
-0.110936
-0.128199
-0.152738
-0.131829
-0.089830
-0.055055
0.002443
0.072075
0.105304
0.108229
0.136408
0.151573
0.144735
0.125784
0.095598
0.060711
0.031438
-0.008173
-0.045082
-0.084349
-0.124332
-0.135846
-0.130407
-0.081370
-0.060748
-0.022641
0.031574
0.051461
0.103360
0.124214
0.131217
0.164078
0.160849
0.142581
0.108274
0.063943
0.019615
-0.007916
-0.048917
-0.066111
-0.067689
-0.075224
-0.068814
-0.039033
-0.020282
0.018267
0.066593
0.129546
0.164220
0.199920
0.204735
0.209509
0.220081
0.179257
0.143313
0.099792
0.050566
0.011348
0.010225
-0.001627
-0.011173
-0.047179
-0.062918
-0.042300
-0.001267
0.055622
0.107142
0.159226
0.214413
0.249909
0.240206
0.239454
0.240875
0.234083
0.190420
0.143605
0.097572
0.049907
0.013873
-0.019003
-0.037685
-0.062883
-0.043651
-0.028070
-0.016438
0.042686
0.105781
0.153408
0.196766
0.215279
0.238881
0.257345
0.245086
0.213474
0.192288
0.165365
0.120945
0.041577
-0.002239
-0.035773
-0.060177
-0.076400
-0.080785
-0.074958
-0.031671
0.001007
0.055933
0.122401
0.158808
0.189090
0.221959
0.212975
0.205008
0.169279
0.147564
0.115016
0.070460
0.029768
-0.005928
-0.049967
-0.077705
-0.073956
-0.068134
-0.065048
-0.042142
-0.011801
0.023128
0.049563
0.100659
0.140038
0.161548
0.167577
0.162547
0.151957
0.115018
0.065828
0.018948
-0.028880
-0.071836
-0.098655
-0.120500
-0.108838
-0.090930
-0.079578
-0.073800
-0.031265
-0.001455
0.032233
0.059639
0.097521
0.122101
0.127973
0.106901
0.091547
0.059877
0.033720
-0.001581
-0.050056
-0.098554
-0.153660
-0.159939
-0.163885
-0.152556
-0.118393
-0.087497
-0.042876
-0.007703
0.052979
0.098703
0.121201
0.141202
0.126702
0.067942
0.050504
0.039009
-0.002816
-0.049362
-0.090857
-0.144432
-0.153626
-0.172276
-0.178593
-0.181178
-0.149897
-0.106820
-0.048010
0.005548
0.035409
0.082724
0.100002
0.129414
0.136423
0.117171
0.104574
0.077272
0.012957
-0.035682
-0.086990
-0.123717
-0.160908
-0.195237
-0.203143
-0.162703
-0.134423
-0.103314
-0.085093
-0.043348
0.003675
0.053226
0.100694
0.143750
0.151832
0.161888
0.131919
0.114255
0.070111
0.012781
-0.080568
-0.125567
-0.157058
-0.159808
-0.156769
-0.159110
-0.137818
-0.117921
-0.066049
-0.034833
0.016142
0.060995
0.082111
0.100252
0.112878
0.132758
0.121518
0.080313
0.063815
0.000427
-0.048799
-0.089824
-0.103846
-0.126824
-0.127124
-0.131538
-0.119554
-0.099108
-0.081838
-0.056391
0.005027
0.050889
0.078287
0.113434
0.130121
0.093717
0.099159
0.071975
0.025049
-0.021959
-0.057833
-0.089153
-0.129116
-0.152497
-0.146220
-0.139161
-0.114018
-0.070762
-0.041846
0.014207
0.051105
0.087311
0.085223
0.095614
0.104202
0.096237
0.069656
0.031981
0.015202
-0.028555
-0.059568
-0.113204
-0.128403
-0.137626
-0.154674
-0.166682
-0.139814
-0.099141
-0.038933
0.017655
0.064835
0.081740
0.101370
0.111423
0.116033
0.088249
0.093107
0.088700
0.058509
-0.003382
-0.079287
-0.136344
-0.166494
-0.202787
-0.207693
-0.199028
-0.165159
-0.122797
-0.069874
-0.024526
0.036838
0.068606
0.109341
0.133707
0.117767
0.110404
0.088733
0.043220
0.006280
-0.042035
-0.082332
-0.136843
-0.187111
-0.221679
-0.205195
-0.218077
-0.192010
-0.129985
-0.074478
-0.032480
0.010923
0.053960
0.088444
0.107514
0.103233
0.097906
0.086434
0.064471
0.028725
-0.025587
-0.085498
-0.118386
-0.166583
-0.186328
-0.169204
-0.176845
-0.164633
-0.122903
-0.084976
-0.036097
0.017442
0.071493
0.103969
0.104810
0.064856
0.032787
-0.028625
-0.039293
-0.020770
-0.016937
-0.023228
-0.065200
-0.124848
-0.164730
-0.163312
-0.178180
-0.186742
-0.126711
-0.101662
-0.064899
-0.011385
0.031386
0.060717
0.057130
0.090000
0.081679
0.050409
0.035139
-0.002418
-0.051791
-0.094229
-0.135128
-0.150265
-0.152196
-0.160168
-0.158853
-0.141481
-0.115262
-0.059391
-0.025037
0.034045
0.058442
0.078064
0.065662
0.075669
0.085636
0.071502
0.048846
-0.007582
-0.053743
-0.069335
-0.094047
-0.105724
-0.135224
-0.167869
-0.158049
-0.124745
-0.079717
-0.012127
0.020981
0.065476
0.088105
0.095673
0.118318
0.136461
0.141760
0.102378
0.049527
0.009232
-0.036417
-0.085025
-0.120290
-0.158593
-0.165204
-0.177921
-0.157398
-0.139255
-0.084994
-0.035737
0.017037
0.064183
0.109319
0.145952
0.155051
0.156695
0.155536
0.153710
0.150172
0.088577
0.011994
-0.044322
-0.112732
-0.115212
-0.157479
-0.178268
-0.189354
-0.146138
-0.122345
-0.091748
-0.041757
0.009574
0.076977
0.089997
0.126438
0.138316
0.123039
0.109697
0.093267
0.050437
-0.012381
-0.062970
-0.102277
-0.148907
-0.187045
-0.215774
-0.187575
-0.168428
-0.147051
-0.118028
-0.091059
-0.054173
0.038010
0.082112
0.095607
0.096890
0.070021
0.055367
0.033756
0.002467
-0.046854
-0.099510
-0.140764
-0.159495
-0.181493
-0.202468
-0.196743
-0.148738
-0.125846
-0.115495
-0.079368
-0.024999
-0.008394
0.029867
0.050419
0.042620
0.039740
0.042342
0.002455
-0.038622
-0.084385
-0.133138
-0.167388
-0.192488
-0.198299
-0.204232
-0.210600
-0.170775
-0.107793
-0.086345
-0.037876
0.002958
0.042822
0.049171
0.069537
0.066518
0.057225
0.040558
0.002672
-0.046306
-0.096021
-0.140028
-0.176870
-0.221402
-0.242790
-0.229372
-0.195465
-0.172045
-0.135138
-0.093339
-0.050708
-0.017465
0.015940
0.057660
0.072988
0.075342
0.069134
0.044814
-0.001183
-0.043741
-0.096038
-0.127729
-0.169972
-0.194583
-0.213218
-0.204287
-0.211616
-0.209533
-0.199640
-0.144926
-0.083993
-0.021496
0.041871
0.059229
0.109074
0.137987
0.144919
0.114271
0.081071
0.051515
0.036844
0.023961
-0.025832
-0.064246
-0.092261
-0.083824
-0.061645
-0.013401
0.051822
0.126657
0.199864
0.285322
0.361205
0.419158
0.480162
0.518620
0.552194
0.554579
0.556223
0.549728
0.552594
0.542749
0.561290
0.592496
0.559730
0.556448
0.552960
0.567348
0.606677
0.643191
0.667486
0.710123
0.710515
0.687335
0.624217
0.599723
0.547205
0.454336
0.383021
0.304199
0.187323
0.103410
0.040171
-0.013373
-0.030389
-0.057437
-0.030062
-0.020231
0.002162
0.031430
0.042306
0.084901
0.109924
0.146408
0.167261
0.145628
0.141418
0.112166
0.084123
0.036659
0.002162
-0.056896
-0.073869
-0.121980
-0.146216
-0.147062
-0.144311
-0.123626
-0.072101
-0.036153
0.002175
0.043438
0.080488
0.100360
0.104754
0.097153
0.092085
0.086173
0.056912
-0.017392
-0.037325
-0.059124
-0.151330
-0.199946
-0.210922
-0.200276
-0.201848
-0.155813
-0.102058
-0.062964
-0.008967
0.021516
0.066503
0.092983
0.106352
0.098668
0.067448
0.084450
0.072777
0.018448
-0.020646
-0.088136
-0.128188
-0.163824
-0.174759
-0.177869
-0.174844
-0.168165
-0.135462
-0.073777
-0.023989
0.016319
0.060179
0.099008
0.113539
0.128049
0.144341
0.119284
0.084945
0.046988
-0.010927
-0.050739
-0.105785
-0.133578
-0.160822
-0.152145
-0.126975
-0.125148
-0.105583
-0.068767
-0.017244
0.022226
0.070387
0.094789
0.121090
0.145913
0.140843
0.125668
0.094166
0.044312
0.007407
-0.022844
-0.062491
-0.092090
-0.118583
-0.126660
-0.112797
-0.110941
-0.080302
-0.034207
0.011170
0.054777
0.086518
0.112654
0.150803
0.158315
0.162707
0.165087
0.139553
0.079645
0.030651
0.006156
-0.038632
-0.083414
-0.093965
-0.110632
-0.099332
-0.068979
-0.022385
0.015061
0.063874
0.110814
0.179728
0.177227
0.187016
0.178271
0.168978
0.169399
0.144344
0.105376
0.044317
-0.006827
-0.028494
-0.042109
-0.061505
-0.063115
-0.067438
-0.031165
0.016488
0.051432
0.102893
0.159723
0.191420
0.245340
0.240461
0.233036
0.220121
0.187125
0.172575
0.118506
0.059064
0.025922
-0.019087
-0.036887
-0.069805
-0.095294
-0.085527
-0.045921
-0.011199
0.034353
0.092785
0.148341
0.180080
0.216832
0.223895
0.214681
0.210918
0.203748
0.199087
0.141991
0.083080
0.037561
-0.010596
-0.052361
-0.093424
-0.107090
-0.092353
-0.105252
-0.073362
-0.018660
0.033803
0.093084
0.141427
0.160352
0.172459
0.171596
0.170414
0.156223
0.135422
0.099786
0.073754
0.022780
-0.028002
-0.075902
-0.086841
-0.090342
-0.099629
-0.098098
-0.063340
-0.019501
0.006927
0.034347
0.085965
0.109159
0.148647
0.143891
0.116592
0.110786
0.076542
0.029576
-0.008458
-0.037901
-0.078196
-0.115722
-0.139853
-0.155872
-0.128688
-0.124070
-0.094841
-0.054355
-0.014018
0.018915
0.055909
0.076212
0.086069
0.105192
0.095507
0.057319
0.031882
0.006988
-0.032498
-0.088039
-0.127071
-0.154659
-0.150300
-0.156648
-0.165217
-0.140760
-0.097428
-0.062345
-0.021333
0.036477
0.077853
0.106795
0.110022
0.113131
0.093585
0.055285
0.033424
0.007725
-0.047566
-0.081629
-0.137883
-0.162678
-0.185598
-0.190238
-0.175647
-0.133570
-0.115984
-0.095855
-0.024123
0.023305
0.053858
0.091133
0.122982
0.149295
0.140267
0.093408
0.072588
0.005179
-0.067404
-0.139414
-0.147561
-0.169779
-0.191187
-0.189304
-0.171798
-0.143681
-0.111618
-0.085431
-0.029217
0.017044
0.092358
0.119723
0.145956
0.128646
0.115886
0.096102
0.069595
0.005754
-0.041435
-0.074382
-0.102313
-0.120410
-0.165196
-0.202485
-0.195478
-0.159753
-0.124363
-0.078625
-0.031519
0.002990
0.042684
0.072901
0.088437
0.101001
0.102627
0.080261
0.048878
0.026856
-0.016515
-0.045706
-0.078654
-0.125957
-0.149642
-0.160357
-0.160103
-0.142822
-0.096397
-0.074710
-0.030648
0.018192
0.048497
0.072659
0.088131
0.072069
0.090941
0.109272
0.084375
0.024530
-0.062544
-0.113397
-0.113010
-0.124730
-0.151602
-0.157295
-0.152514
-0.120116
-0.073471
-0.041043
-0.022604
0.021397
0.077702
0.090814
0.112739
0.118739
0.098650
0.078763
0.039381
0.004924
-0.039662
-0.096096
-0.128796
-0.155650
-0.166396
-0.181153
-0.173761
-0.152745
-0.121583
-0.082573
-0.031754
0.011916
0.053555
0.089037
0.124663
0.132970
0.118025
0.088498
0.051142
-0.002641
-0.059952
-0.117216
-0.154234
-0.159434
-0.190848
-0.213992
-0.205915
-0.145256
-0.108473
-0.046878
-0.027054
-0.014009
0.011424
0.094245
0.122312
0.137323
0.098831
0.085316
0.070168
0.023748
-0.046698
-0.105849
-0.114371
-0.143452
-0.189764
-0.203973
-0.194887
-0.174680
-0.160850
-0.113799
-0.060019
-0.006860
0.033947
0.065141
0.091094
0.094150
0.091745
0.080374
0.045509
0.001410
-0.050907
-0.066416
-0.101540
-0.154329
-0.183272
-0.192117
-0.180561
-0.175824
-0.136403
-0.089585
-0.037886
0.003281
0.037567
0.072009
0.076190
0.089054
0.100771
0.067705
0.035652
0.003396
-0.049051
-0.087363
-0.136601
-0.156667
-0.193263
-0.189287
-0.187561
-0.172574
-0.134780
-0.104182
-0.073729
-0.018046
0.029101
0.042440
0.057039
0.081802
0.062413
0.033342
-0.017917
-0.002169
-0.029511
-0.104562
-0.141754
-0.198108
-0.203263
-0.198004
-0.170519
-0.125276
-0.075198
-0.037784
0.003551
0.012468
0.041852
0.066138
0.068499
0.052368
0.057447
0.061913
0.028555
-0.016143
-0.086607
-0.115613
-0.102334
-0.142876
-0.155295
-0.175069
-0.189705
-0.167778
-0.119368
-0.080963
0.005406
0.060019
0.092599
0.099295
0.129687
0.147500
0.124858
0.092232
0.062521
0.008116
-0.027642
-0.094584
-0.124993
-0.135983
-0.148021
-0.171019
-0.178284
-0.143406
-0.097439
-0.049957
-0.002334
0.037371
0.081145
0.094437
0.127188
0.125387
0.145582
0.122012
0.078395
0.027487
-0.014626
-0.061173
-0.103828
-0.133240
-0.162525
-0.153532
-0.191281
-0.153431
-0.086408
-0.020062
0.002488
0.049519
0.080808
0.121151
0.151116
0.169087
0.144840
0.119852
0.086554
0.053071
0.011279
-0.032300
-0.069191
-0.112395
-0.141364
-0.145623
-0.156229
-0.158528
-0.127057
-0.084577
-0.017341
0.029093
0.043427
0.067268
0.091192
0.088085
0.082085
0.065388
0.058133
0.021022
-0.050208
-0.098466
-0.123187
-0.146452
-0.151210
-0.156399
-0.150473
-0.143494
-0.112057
-0.078805
-0.052153
-0.011962
0.024261
0.056277
0.071695
0.060342
0.058948
0.047205
0.020679
-0.007390
-0.068400
-0.122517
-0.166320
-0.198765
-0.213424
-0.215063
-0.202275
-0.174093
-0.154869
-0.103950
-0.046402
-0.008795
0.063009
0.071961
0.058633
0.052821
0.052299
0.058786
0.018800
-0.043133
-0.091727
-0.129331
-0.175481
-0.207936
-0.217995
-0.211777
-0.232153
-0.214000
-0.166150
-0.125692
-0.081896
-0.033822
0.007533
0.063457
0.079724
0.072251
0.097939
0.061666
0.024263
-0.013984
-0.077887
-0.135792
-0.167623
-0.183425
-0.224169
-0.229434
-0.204898
-0.191466
-0.177500
-0.128247
-0.083390
-0.034739
0.013590
0.018249
0.032664
0.079320
0.098211
0.079960
0.025471
-0.028266
-0.059563
-0.098499
-0.147029
-0.180273
-0.212416
-0.220344
-0.233089
-0.228537
-0.196941
-0.140028
-0.063889
-0.021039
0.043562
0.103390
0.102035
0.106437
0.122682
0.139302
0.123297
0.088879
0.062946
0.052901
0.046152
0.041958
0.046660
0.059951
0.086947
0.124408
0.188913
0.275649
0.378822
0.448434
0.509439
0.560109
0.616376
0.656654
0.698971
0.724978
0.719161
0.720040
0.698300
0.688690
0.675281
0.643065
0.608627
0.618827
0.603427
0.617887
0.638915
0.639469
0.620201
0.585650
0.546156
0.506588
0.487886
0.435546
0.376428
0.327278
0.254586
0.176400
0.107757
0.043519
0.010495
-0.012551
-0.039218
-0.081045
-0.079183
-0.069288
-0.028284
0.020167
0.055715
0.073735
0.126495
0.167199
0.170726
0.155047
0.126604
0.109731
0.076907
0.028636
-0.014304
-0.068036
-0.112422
-0.147411
-0.161469
-0.166683
-0.147180
-0.135989
-0.123603
-0.080093
-0.017617
0.027195
0.060610
0.108315
0.123130
0.121411
0.108851
0.087393
0.031834
-0.000727
-0.020105
-0.061524
-0.110928
-0.131295
-0.163724
-0.187737
-0.180937
-0.168415
-0.137078
-0.089106
-0.057845
-0.025208
0.050888
0.070295
0.102957
0.146953
0.121530
0.103757
0.054619
0.026547
-0.018463
-0.068192
-0.113531
-0.148449
-0.142119
-0.159132
-0.161916
-0.150224
-0.125207
-0.090232
-0.041485
0.004286
0.048768
0.088459
0.097157
0.103865
0.099872
0.088836
0.063750
0.030580
-0.018696
-0.055906
-0.076777
-0.095781
-0.119635
-0.124172
-0.105773
-0.083970
-0.073314
-0.056086
-0.022112
0.031930
0.092445
0.122083
0.137378
0.124154
0.133718
0.101278
0.067264
0.039201
0.021014
-0.030118
-0.073815
-0.116152
-0.140332
-0.158694
-0.129636
-0.102126
-0.033951
-0.003535
0.059208
0.126611
0.116822
0.141225
0.177552
0.210256
0.177033
0.152009
0.115388
0.047388
-0.006107
-0.023682
-0.029904
-0.063431
-0.092569
-0.094108
-0.086807
-0.081865
-0.032984
0.021369
0.075026
0.113413
0.154447
0.200986
0.220858
0.215409
0.220379
0.211014
0.169059
0.111240
0.077046
0.034042
-0.003671
-0.045548
-0.069219
-0.064178
-0.059460
-0.037378
-0.017333
0.020671
0.080287
0.132771
0.178389
0.207239
0.235574
0.233869
0.221943
0.201371
0.169916
0.134981
0.086294
0.058489
0.018093
-0.025618
-0.060285
-0.066917
-0.073064
-0.047792
-0.001194
0.037507
0.065771
0.107684
0.145979
0.171412
0.205235
0.219639
0.218240
0.197663
0.155940
0.107324
0.077937
0.029814
0.001257
-0.016458
-0.034975
-0.054025
-0.061013
-0.078546
-0.015161
0.019332
0.046842
0.093528
0.109137
0.155115
0.157697
0.176736
0.180539
0.143029
0.098458
0.066313
0.022996
-0.019441
-0.069208
-0.104614
-0.111047
-0.113646
-0.116780
-0.083720
-0.048670
-0.010907
0.027712
0.057447
0.064269
0.101493
0.143680
0.199746
0.173108
0.101478
0.053207
0.025584
-0.010334
-0.076491
-0.131943
-0.145812
-0.156643
-0.157446
-0.127937
-0.115598
-0.067426
-0.032420
0.012309
0.059639
0.095941
0.118142
0.132476
0.145264
0.126655
0.099414
0.062495
0.018591
-0.039787
-0.089949
-0.146533
-0.178964
-0.200636
-0.186919
-0.167838
-0.177939
-0.126129
-0.076497
-0.042301
0.010531
0.041064
0.081691
0.126516
0.138708
0.114706
0.108907
0.053576
0.011502
-0.011892
-0.064203
-0.120842
-0.150701
-0.163658
-0.164506
-0.158979
-0.175528
-0.131564
-0.098968
-0.036271
0.004772
0.033811
0.064434
0.101874
0.125976
0.102612
0.056861
0.034501
0.008428
-0.013768
-0.086719
-0.115951
-0.160815
-0.133415
-0.139756
-0.175438
-0.153858
-0.135475
-0.101551
-0.033798
0.042509
0.088673
0.113707
0.122475
0.141858
0.114610
0.078282
0.051581
0.012373
-0.028514
-0.081337
-0.109109
-0.131362
-0.131512
-0.138026
-0.143308
-0.135147
-0.091429
-0.052862
-0.015828
0.041435
0.099411
0.103106
0.099523
0.108257
0.121788
0.091971
0.067547
0.009848
-0.045887
-0.065001
-0.083370
-0.127321
-0.159581
-0.150710
-0.141215
-0.111681
-0.096348
-0.054958
-0.007415
0.032852
0.082169
0.123343
0.140497
0.136133
0.127447
0.087002
0.070942
0.023655
-0.039517
-0.077557
-0.100961
-0.144931
-0.194944
-0.202022
-0.184456
-0.202043
-0.157359
-0.097022
-0.002340
0.074935
0.047132
0.091097
0.125254
0.136310
0.155683
0.125993
0.077095
0.032305
-0.011722
-0.062817
-0.122641
-0.157979
-0.165598
-0.201460
-0.218090
-0.191635
-0.111074
-0.067472
0.013245
0.021632
0.082743
0.127055
0.115909
0.113304
0.098929
0.098595
0.093118
0.040953
0.020683
-0.036923
-0.083714
-0.109630
-0.116323
-0.165835
-0.176972
-0.132847
-0.088446
-0.057800
-0.055749
-0.023721
0.015306
0.077574
0.104179
0.076535
0.086943
0.078100
0.064992
0.019931
-0.020487
-0.065201
-0.099044
-0.116582
-0.138699
-0.150882
-0.167837
-0.137414
-0.107585
-0.064314
-0.005510
0.022875
0.030644
0.060094
0.066084
0.084226
0.093484
0.091345
0.042796
0.004315
-0.038095
-0.079914
-0.134360
-0.168757
-0.221909
-0.187795
-0.150811
-0.109267
-0.065597
-0.025187
-0.002969
0.006537
0.045606
0.083372
0.129923
0.124565
0.109248
0.048674
0.025586
0.012909
-0.032210
-0.091492
-0.149217
-0.176398
-0.205427
-0.202659
-0.202041
-0.179765
-0.116559
-0.105996
-0.069985
-0.009241
0.047088
0.131779
0.155032
0.162587
0.178281
0.125668
0.055604
-0.016739
-0.039663
-0.098433
-0.088296
-0.125097
-0.160044
-0.178119
-0.222056
-0.194291
-0.132269
-0.128092
-0.080672
0.001182
0.061083
0.112371
0.129018
0.129094
0.123602
0.091109
0.060585
0.000491
-0.027875
-0.056311
-0.117522
-0.146202
-0.155275
-0.139551
-0.140015
-0.134177
-0.129362
-0.085006
-0.023722
0.007464
0.048900
0.078585
0.053916
0.110531
0.109403
0.091768
0.070473
0.039217
-0.048609
-0.123656
-0.140920
-0.095410
-0.096043
-0.157526
-0.180768
-0.122652
-0.086125
-0.049428
-0.007425
0.008809
0.034928
0.063572
0.126805
0.163348
0.172740
0.155333
0.078796
0.026369
-0.039390
-0.069401
-0.104977
-0.130561
-0.094900
-0.109278
-0.119154
-0.101325
-0.064836
-0.040068
0.026480
0.046284
0.100106
0.132478
0.127864
0.139559
0.157122
0.140981
0.100954
0.066604
0.019516
-0.067893
-0.156016
-0.187963
-0.130183
-0.112057
-0.047902
-0.047991
-0.049617
-0.008439
0.049662
0.110386
0.143789
0.175370
0.165405
0.156675
0.166716
0.159065
0.064847
0.053987
0.000020
-0.050530
-0.084090
-0.153956
-0.202441
-0.206442
-0.160903
-0.097420
-0.072971
-0.038548
0.000068
0.065248
0.127025
0.156543
0.103342
0.121744
0.141227
0.106217
0.049355
-0.002527
-0.025891
-0.067569
-0.101375
-0.129020
-0.171465
-0.184271
-0.197818
-0.177033
-0.148031
-0.103778
-0.055985
0.016926
0.049004
0.060397
0.084424
0.070437
0.108648
0.110575
0.093123
0.045566
-0.027283
-0.108856
-0.184996
-0.193545
-0.197240
-0.168884
-0.154145
-0.134946
-0.130131
-0.097867
-0.006491
0.027115
0.045978
0.141644
0.111627
0.070120
0.055188
0.037801
0.032043
-0.030381
-0.073005
-0.101094
-0.145810
-0.175118
-0.184216
-0.148499
-0.155360
-0.150132
-0.114959
-0.058731
-0.015868
0.005059
0.031848
0.070581
0.072023
0.073026
0.080699
0.073109
0.043472
-0.006717
-0.080740
-0.159193
-0.160030
-0.182300
-0.172012
-0.173621
-0.199045
-0.160124
-0.122966
-0.080271
-0.017211
0.027456
0.024637
0.101676
0.137506
0.103241
0.064915
0.028936
-0.011144
-0.050999
-0.089681
-0.134754
-0.184778
-0.200603
-0.191587
-0.175794
-0.186408
-0.174357
-0.089874
-0.053576
0.039840
0.094800
0.128429
0.182603
0.186820
0.213933
0.212503
0.194237
0.193131
0.178594
0.171138
0.163034
0.121688
0.087946
0.098244
0.138330
0.241335
0.287560
0.346319
0.442486
0.508281
0.526005
0.593309
0.714228
0.790360
0.833045
0.873681
0.893300
0.874467
0.855634
0.754746
0.713676
0.639976
0.567204
0.547347
0.535123
0.510117
0.481837
0.450539
0.441055
0.419530
0.396919
0.375986
0.358139
0.332806
0.303433
0.296604
0.255939
0.229042
0.220340
0.132492
0.069358
0.050974
-0.017940
-0.056645
-0.066617
-0.084229
-0.055959
-0.029504
0.019184
0.053024
0.082375
0.112384
0.144785
0.144224
0.102127
0.100426
0.132875
0.151328
0.161617
0.040760
-0.064293
-0.065314
-0.117749
-0.128766
-0.126845
-0.118485
-0.085917
-0.059776
-0.001064
0.022963
0.000743
0.047883
0.096714
0.098624
0.110042
0.115372
0.086791
0.045019
0.037975
0.009496
-0.044684
-0.102100
-0.162030
-0.184005
-0.177259
-0.129298
-0.092295
-0.066606
-0.039509
0.010609
0.057879
0.117177
0.186839
0.157253
0.107510
0.107490
0.073686
0.064238
0.049618
0.024752
-0.033869
-0.111902
-0.141462
-0.146826
-0.166361
-0.149493
-0.088664
-0.064950
-0.022585
0.014745
0.066646
0.114301
0.151240
0.171166
0.188260
0.175883
0.153266
0.117801
0.068450
0.016340
-0.041160
-0.107015
-0.103687
-0.120016
-0.104424
-0.086585
-0.086473
-0.091521
-0.074637
-0.000411
0.095505
0.138094
0.176830
0.173913
0.186666
0.174619
0.158519
0.127005
0.096822
0.059185
0.008425
-0.026777
-0.061889
-0.088444
-0.128512
-0.110859
-0.074998
-0.032901
-0.006251
0.045139
0.078988
0.139161
0.179729
0.202126
0.220011
0.213351
0.179267
0.156103
0.116292
0.086659
0.049624
0.005815
0.001515
-0.023656
-0.051480
-0.104118
-0.070162
-0.006424
0.028620
0.099665
0.149731
0.164784
0.221638
0.277100
0.250935
0.221894
0.210574
0.174594
0.119756
0.065396
0.072130
0.053107
0.003953
-0.032073
-0.049886
-0.040405
-0.015106
0.024318
0.072652
0.146263
0.195540
0.218538
0.220903
0.251646
0.286521
0.257033
0.211778
0.164263
0.122201
0.090835
0.048576
0.033359
0.017247
0.009500
-0.000509
-0.029408
0.010247
0.050967
0.080693
0.108640
0.158227
0.188715
0.230046
0.253343
0.294803
0.262694
0.211828
0.167460
0.142500
0.100754
0.068649
0.004431
-0.075670
-0.129756
-0.107862
-0.046764
-0.024206
-0.007782
0.041560
0.079745
0.135196
0.159858
0.179259
0.224749
0.255379
0.236227
0.218332
0.167933
0.112804
0.070377
0.018063
-0.011913
-0.064245
-0.076121
-0.090677
-0.106046
-0.080632
-0.034676
-0.006455
0.049056
0.091060
0.123206
0.163138
0.175482
0.171298
0.155384
0.119579
0.116183
0.087779
0.046891
-0.003248
-0.051673
-0.105892
-0.122693
-0.102998
-0.100086
-0.087038
-0.076994
-0.052166
-0.009439
0.042052
0.084142
0.114150
0.121858
0.133689
0.141827
0.126327
0.080323
0.036075
-0.012079
-0.077199
-0.095507
-0.094819
-0.105894
-0.124727
-0.121643
-0.111541
-0.076608
-0.047344
0.000764
0.036556
0.093995
0.102859
0.125683
0.131897
0.134890
0.129769
0.087392
0.024112
-0.059938
-0.073161
-0.084589
-0.109123
-0.121683
-0.142004
-0.156876
-0.113209
-0.077139
-0.036791
0.035057
0.053865
0.094008
0.138076
0.147777
0.177132
0.172129
0.115718
0.080561
0.051520
0.001673
-0.020946
-0.080076
-0.098709
-0.140261
-0.148185
-0.139276
-0.122435
-0.074875
-0.030587
0.028334
0.068889
0.096471
0.125654
0.144263
0.157845
0.163211
0.144336
0.099066
0.061021
0.011567
-0.038622
-0.080723
-0.123739
-0.121347
-0.135215
-0.149189
-0.119921
-0.072367
-0.031290
0.040082
0.063990
0.101992
0.136191
0.151834
0.150758
0.152548
0.131118
0.118749
0.069329
0.014257
-0.039205
-0.079866
-0.107692
-0.112804
-0.118598
-0.129657
-0.117194
-0.066031
-0.042187
0.001336
0.049276
0.088678
0.120137
0.136440
0.163383
0.166175
0.120801
0.071175
0.044927
0.014946
-0.023946
-0.082997
-0.116096
-0.130078
-0.142597
-0.138090
-0.102068
-0.055169
-0.030146
0.012442
0.028705
0.054474
0.112792
0.142133
0.151482
0.130854
0.121762
0.085412
0.058501
0.031223
-0.043679
-0.096308
-0.125134
-0.121535
-0.099585
-0.106428
-0.110346
-0.071176
-0.034854
0.012664
0.030061
0.044479
0.094913
0.129888
0.129783
0.140064
0.146516
0.089677
0.047592
-0.005076
-0.044811
-0.083903
-0.113249
-0.128631
-0.149388
-0.148459
-0.130462
-0.070516
-0.030815
0.005232
0.060829
0.093073
0.121270
0.135226
0.140484
0.132005
0.101845
0.048988
0.059667
0.003412
-0.064764
-0.104622
-0.127538
-0.146500
-0.165192
-0.142755
-0.099292
-0.053505
-0.046449
-0.006177
0.009752
0.043923
0.105024
0.128035
0.153236
0.158162
0.121281
0.102231
0.036846
-0.022306
-0.071074
-0.111702
-0.147764
-0.157873
-0.165677
-0.154163
-0.111504
-0.084357
-0.047727
-0.014546
0.026309
0.057990
0.085909
0.111405
0.114631
0.069188
0.072757
0.097898
0.056360
0.010545
-0.038635
-0.103501
-0.127839
-0.135780
-0.141623
-0.137618
-0.114125
-0.094352
-0.063210
-0.005492
0.025712
0.088742
0.112936
0.110251
0.124102
0.120150
0.095296
0.061128
0.033429
0.003352
-0.049919
-0.113008
-0.141036
-0.164196
-0.170020
-0.154216
-0.119412
-0.095191
-0.069440
-0.004682
0.045185
0.084418
0.107354
0.098149
0.106380
0.151469
0.165897
0.105403
0.018303
-0.038547
-0.061253
-0.098039
-0.117113
-0.149899
-0.156830
-0.148488
-0.120750
-0.073727
-0.040355
-0.001505
0.031893
0.074173
0.106500
0.120501
0.131648
0.134535
0.095715
0.054248
0.009612
-0.052713
-0.067237
-0.089002
-0.146535
-0.186008
-0.177077
-0.145331
-0.110530
-0.091525
-0.040236
0.018598
0.067188
0.113847
0.147763
0.155248
0.137335
0.130322
0.115460
0.095603
0.065124
0.007874
-0.036033
-0.077403
-0.104672
-0.130649
-0.147443
-0.156143
-0.100945
-0.061357
-0.022303
0.036535
0.068460
0.126270
0.156141
0.150175
0.169948
0.163816
0.141389
0.094805
0.053954
0.016086
-0.025369
-0.064744
-0.102812
-0.124181
-0.139743
-0.121672
-0.093937
-0.038109
-0.003028
0.048155
0.078777
0.112486
0.150805
0.205557
0.178329
0.166341
0.163585
0.141580
0.106479
0.043603
-0.004004
-0.049167
-0.088802
-0.120849
-0.168507
-0.123437
-0.089318
-0.062304
-0.033304
-0.004949
0.030737
0.045525
0.082612
0.117929
0.133096
0.128092
0.131776
0.124201
0.069457
0.011284
-0.037862
-0.072124
-0.112640
-0.120662
-0.143314
-0.151093
-0.125380
-0.109628
-0.077510
-0.018647
0.026326
0.060332
0.079022
0.089946
0.081964
0.107005
0.110826
0.080633
0.017337
-0.035279
-0.095307
-0.156220
-0.172943
-0.170915
-0.178597
-0.176397
-0.154306
-0.122358
-0.077323
-0.028029
0.025086
0.065261
0.074288
0.100843
0.118111
0.093119
0.064120
0.034158
-0.007419
-0.059773
-0.093734
-0.134394
-0.165774
-0.185045
-0.191347
-0.180518
-0.176030
-0.108252
-0.054488
-0.028367
0.010426
0.059129
0.092654
0.104735
0.106555
0.096686
0.063194
0.001027
-0.020171
-0.052420
-0.093623
-0.132003
-0.152085
-0.173451
-0.181086
-0.173383
-0.183016
-0.133037
-0.079034
-0.018318
0.045202
0.060413
0.080510
0.077178
0.086438
0.109064
0.072590
0.024769
0.000901
-0.059442
-0.104608
-0.140954
-0.144189
-0.137710
-0.168272
-0.163529
-0.174670
-0.121135
-0.070552
-0.012533
0.040265
0.094393
0.154423
0.177565
0.201731
0.192523
0.171165
0.172517
0.127005
0.119145
0.121274
0.092649
0.073520
0.090161
0.118789
0.139433
0.172435
0.244828
0.302314
0.380373
0.465671
0.538154
0.626875
0.674291
0.682255
0.699536
0.722418
0.725005
0.730142
0.724887
0.704753
0.645561
0.612487
0.596687
0.555391
0.537961
0.521350
0.530528
0.524257
0.515709
0.496615
0.466638
0.447371
0.410733
0.367693
0.306195
0.261717
0.213506
0.159566
0.091267
0.054011
0.002538
-0.015400
-0.045013
-0.073474
-0.068592
-0.061324
-0.027386
0.018751
0.072963
0.096049
0.127201
0.160944
0.165943
0.165148
0.168236
0.151817
0.098764
0.057563
-0.000571
-0.042229
-0.081806
-0.103875
-0.110844
-0.128745
-0.137303
-0.107773
-0.067401
-0.030808
0.013208
0.064124
0.114306
0.127059
0.153694
0.161034
0.137217
0.099700
0.088094
0.036978
-0.049027
-0.077494
-0.105900
-0.123692
-0.137749
-0.155270
-0.142988
-0.115076
-0.093933
-0.071515
-0.024355
0.051188
0.086723
0.122167
0.137656
0.156163
0.163238
0.143855
0.118488
0.073427
-0.003702
-0.069236
-0.115205
-0.178079
-0.197430
-0.176146
-0.119933
-0.115389
-0.072881
-0.039473
0.005612
0.063924
0.094351
0.139555
0.156990
0.165613
0.171224
0.122936
0.092797
0.050925
0.030589
-0.014602
-0.055864
-0.092302
-0.102103
-0.101673
-0.104418
-0.090495
-0.108995
-0.051901
0.007813
0.061733
0.111008
0.135731
0.179353
0.205301
0.179603
0.152172
0.132369
0.103165
0.037767
-0.004558
-0.057812
-0.086076
-0.093477
-0.094600
-0.070811
-0.043395
-0.031474
0.026535
0.061624
0.075678
0.112986
0.160036
0.179762
0.195345
0.193775
0.164537
0.151439
0.121324
0.078169
0.030556
-0.005372
-0.022931
-0.044506
-0.058253
-0.057798
-0.027149
-0.008303
0.027142
0.084458
0.130725
0.183613
0.230747
0.250463
0.241044
0.237035
0.232478
0.190357
0.151155
0.088608
0.040505
0.000707
-0.017811
-0.036387
-0.037915
-0.017700
0.005810
0.045121
0.080433
0.124740
0.169181
0.218762
0.256498
0.262500
0.266810
0.261306
0.230950
0.203398
0.162446
0.104067
0.054755
0.021993
-0.009208
-0.023777
-0.027914
-0.031891
0.000996
0.032154
0.073208
0.135594
0.166630
0.170109
0.199739
0.223333
0.242363
0.247484
0.208136
0.184072
0.126020
0.088102
0.048113
0.010091
-0.022415
-0.043816
-0.054388
-0.068088
-0.038940
-0.010070
0.043085
0.108313
0.146300
0.164166
0.183263
0.214550
0.217974
0.203650
0.201781
0.180442
0.116733
0.068975
0.022629
-0.025792
-0.053507
-0.103052
-0.120826
-0.079980
-0.061482
-0.031137
0.021480
0.068719
0.113231
0.130066
0.140404
0.149810
0.159451
0.125072
0.116868
0.132839
0.119890
0.057234
-0.003645
-0.062522
-0.104560
-0.126437
-0.137134
-0.125385
-0.101267
-0.044067
-0.000003
0.019725
0.046144
0.084250
0.087624
0.116750
0.157216
0.163419
0.135486
0.076520
0.027028
-0.028268
-0.057918
-0.100066
-0.120214
-0.133071
-0.142985
-0.154854
-0.123778
-0.094811
-0.051136
0.008343
0.054657
0.069616
0.097071
0.110200
0.120986
0.104207
0.087854
0.053186
0.015270
-0.031853
-0.054738
-0.082990
-0.123807
-0.145770
-0.162426
-0.148404
-0.126709
-0.090015
-0.047320
0.005602
0.046460
0.075222
0.107735
0.141150
0.149428
0.127526
0.096159
0.071282
0.028604
-0.009278
-0.072231
-0.100315
-0.138440
-0.159972
-0.159420
-0.133600
-0.121536
-0.103177
-0.054254
-0.000602
0.041415
0.081131
0.112888
0.148424
0.157535
0.139853
0.117347
0.078965
0.022372
-0.033016
-0.067197
-0.092586
-0.092100
-0.098358
-0.131058
-0.152398
-0.129051
-0.096949
-0.053395
-0.002323
0.025383
0.057241
0.107185
0.133734
0.143456
0.142344
0.142980
0.130915
0.083902
0.019626
-0.037962
-0.067863
-0.108057
-0.135965
-0.135450
-0.147812
-0.133380
-0.103602
-0.046795
-0.014333
0.051328
0.070363
0.112791
0.134339
0.125990
0.106318
0.084896
0.048548
0.027937
-0.007438
-0.023957
-0.068225
-0.114206
-0.150129
-0.158916
-0.136930
-0.106789
-0.084934
-0.058630
-0.017133
0.033511
0.083893
0.114610
0.117645
0.121698
0.106074
0.102998
0.089632
0.041769
-0.001415
-0.064462
-0.097618
-0.130023
-0.157276
-0.157935
-0.141750
-0.133282
-0.094205
-0.057748
-0.005425
0.048700
0.091376
0.114959
0.112926
0.116030
0.109812
0.088900
0.062892
0.004347
-0.042385
-0.077815
-0.110051
-0.146221
-0.168255
-0.167820
-0.153063
-0.132160
-0.102367
-0.044730
0.025592
0.068296
0.095225
0.109196
0.124752
0.132226
0.121929
0.103225
0.047674
-0.010814
-0.051976
-0.101199
-0.123821
-0.135900
-0.167243
-0.179774
-0.151098
-0.119512
-0.107843
-0.059985
-0.009248
0.043133
0.071221
0.091133
0.134629
0.143465
0.132098
0.111796
0.076127
0.013435
-0.029805
-0.102005
-0.122351
-0.153019
-0.190725
-0.184558
-0.167729
-0.139770
-0.124996
-0.082171
-0.025246
0.040277
0.086804
0.097955
0.096398
0.112094
0.100893
0.083827
0.058401
0.030645
-0.009738
-0.060334
-0.114463
-0.164609
-0.178600
-0.174437
-0.166663
-0.139448
-0.117232
-0.072345
-0.020221
0.016551
0.051957
0.073619
0.100404
0.111683
0.101422
0.093228
0.069057
0.019001
-0.024863
-0.060789
-0.096008
-0.123061
-0.143318
-0.149897
-0.146330
-0.114533
-0.088771
-0.054713
-0.002820
0.034062
0.068284
0.100213
0.151471
0.158924
0.154536
0.121504
0.097110
0.047937
0.000551
-0.037563
-0.081885
-0.108318
-0.133019
-0.140178
-0.139833
-0.117494
-0.085173
-0.018838
0.041064
0.078809
0.069496
0.086468
0.110673
0.141342
0.146844
0.133780
0.100004
0.070157
0.026226
-0.026329
-0.060680
-0.089466
-0.112302
-0.119785
-0.104225
-0.084656
-0.044228
0.001284
0.038987
0.066022
0.115431
0.132128
0.147797
0.156907
0.157519
0.125808
0.078659
0.025205
-0.034311
-0.084976
-0.120837
-0.148239
-0.156433
-0.162705
-0.147796
-0.118468
-0.096576
-0.056498
-0.017177
0.034740
0.075819
0.112567
0.122422
0.114440
0.090847
0.066604
0.065927
0.030728
-0.029561
-0.089769
-0.153015
-0.181198
-0.175241
-0.177729
-0.182897
-0.160956
-0.138163
-0.102355
-0.059875
0.001082
0.044557
0.102563
0.116741
0.101623
0.057319
0.057625
0.038229
-0.007650
-0.040992
-0.085389
-0.141273
-0.188338
-0.200375
-0.222798
-0.185816
-0.177551
-0.153304
-0.110071
-0.061840
-0.017681
0.028740
0.066659
0.089048
0.079294
0.076931
0.052934
0.020389
-0.026804
-0.069921
-0.104693
-0.136836
-0.165624
-0.180603
-0.195967
-0.195318
-0.164398
-0.140442
-0.106549
-0.061557
-0.021045
0.013110
0.057712
0.081798
0.083702
0.068000
0.037511
0.019882
-0.012965
-0.056152
-0.108798
-0.129855
-0.174832
-0.201418
-0.209759
-0.199882
-0.195603
-0.150102
-0.119499
-0.068555
-0.018455
0.032291
0.067976
0.072699
0.076955
0.085056
0.069025
0.032754
-0.006819
-0.043884
-0.063734
-0.087891
-0.106224
-0.102618
-0.089944
-0.094677
-0.069275
-0.026212
0.028393
0.111651
0.203207
0.252469
0.310467
0.340304
0.378233
0.395911
0.407265
0.396827
0.375194
0.369642
0.349990
0.311280
0.313252
0.349883
0.391143
0.431887
0.471508
0.571413
0.652296
0.727352
0.772372
0.784087
0.823054
0.849224
0.838550
0.829252
0.752762
0.690767
0.621618
0.499939
0.350105
0.239164
0.172435
0.134251
0.082246
0.034456
0.001408
0.014785
0.029903
0.066028
0.108770
0.145475
0.172840
0.188249
0.189615
0.166383
0.150158
0.127717
0.077345
0.030077
-0.018687
-0.073021
-0.102536
-0.125031
-0.128377
-0.130637
-0.097066
-0.087033
-0.058979
-0.012479
0.033375
0.071620
0.100628
0.136367
0.152626
0.150828
0.111734
0.059105
0.033260
-0.016479
-0.053670
-0.101145
-0.144636
-0.139615
-0.127709
-0.155434
-0.154843
-0.130437
-0.093289
-0.047086
-0.004102
0.038819
0.085430
0.117369
0.115182
0.102698
0.085128
0.057549
0.013818
-0.033535
-0.071710
-0.092924
-0.134592
-0.155003
-0.166709
-0.154644
-0.144020
-0.102218
-0.032041
0.008729
0.030301
0.063114
0.083890
0.101775
0.101517
0.094535
0.086465
0.074017
0.016770
-0.022084
-0.056104
-0.069295
-0.109399
-0.132185
-0.146993
-0.138477
-0.102016
-0.065168
-0.034617
0.002181
0.052934
0.091111
0.104756
0.110243
0.145138
0.142675
0.122261
0.098373
0.053679
-0.000120
-0.041618
-0.082838
-0.109407
-0.137555
-0.151846
-0.149651
-0.116790
-0.069101
-0.020116
0.044613
0.092575
0.124248
0.162356
0.183900
0.181215
0.153529
0.131926
0.107213
0.066730
0.022967
-0.018422
-0.068653
-0.092397
-0.091852
-0.100585
-0.076993
-0.040211
-0.005745
0.018237
0.064901
0.107966
0.152846
0.187453
0.195368
0.204756
0.193425
0.181509
0.166006
0.102328
0.059898
0.009455
-0.031132
-0.055082
-0.060555
-0.081336
-0.057804
-0.016707
0.028372
0.049736
0.082734
0.144966
0.200821
0.237994
0.241481
0.253047
0.246524
0.231428
0.182986
0.104872
0.082982
0.062713
0.018696
-0.024661
-0.059420
-0.074434
-0.071723
-0.048840
-0.006537
0.040382
0.073247
0.151401
0.201633
0.209698
0.227546
0.232639
0.224987
0.191567
0.144659
0.109216
0.085874
0.072436
0.027608
-0.022850
-0.040134
-0.054200
-0.049359
-0.020699
0.008065
0.033506
0.067445
0.101752
0.149863
0.184892
0.201833
0.202064
0.181137
0.165788
0.136741
0.110561
0.063208
0.022963
-0.007940
-0.045896
-0.068534
-0.090090
-0.095093
-0.064750
-0.033518
0.002678
0.037205
0.084294
0.118919
0.160432
0.162769
0.163211
0.151469
0.127613
0.093694
0.057220
0.004902
-0.040205
-0.079528
-0.129935
-0.124616
-0.121394
-0.118342
-0.107882
-0.095018
-0.036828
0.012977
0.055556
0.085396
0.111581
0.129943
0.134670
0.109884
0.091589
0.054652
0.013769
-0.034260
-0.078567
-0.123886
-0.153671
-0.163954
-0.167907
-0.161494
-0.140361
-0.104944
-0.066461
-0.011887
0.021428
0.073056
0.107951
0.139485
0.129685
0.108044
0.082684
0.056174
0.002042
-0.050936
-0.072419
-0.103959
-0.141045
-0.179564
-0.204984
-0.182545
-0.143743
-0.099396
-0.099890
-0.041991
0.007269
0.056049
0.079213
0.118797
0.117244
0.130146
0.112397
0.127306
0.042844
-0.042400
-0.085570
-0.116082
-0.127104
-0.164818
-0.179206
-0.163068
-0.141019
-0.121639
-0.104016
-0.024477
0.043773
0.053915
0.082097
0.115920
0.126096
0.109188
0.106283
0.079544
0.035459
-0.024744
-0.072867
-0.121341
-0.146965
-0.160697
-0.169542
-0.162076
-0.136062
-0.110028
-0.068355
-0.011138
0.019251
0.070019
0.096430
0.111383
0.127474
0.115824
0.099609
0.062098
0.030416
-0.013473
-0.056709
-0.086138
-0.117572
-0.138445
-0.149545
-0.150264
-0.128051
-0.096699
-0.067625
-0.027160
0.024164
0.056717
0.091196
0.097149
0.116107
0.116915
0.097269
0.060757
0.029154
-0.023637
-0.076957
-0.116346
-0.138477
-0.142616
-0.162933
-0.148386
-0.103903
-0.078509
-0.031338
-0.003128
0.037877
0.071885
0.117606
0.150736
0.116636
0.089887
0.073150
0.053478
0.009797
-0.017196
-0.052065
-0.105134
-0.145432
-0.160651
-0.167432
-0.155379
-0.130856
-0.102584
-0.072216
-0.026760
0.041700
0.079625
0.122258
0.143188
0.129388
0.112181
0.095334
0.065631
0.026143
-0.021678
-0.077595
-0.134512
-0.159491
-0.176885
-0.182323
-0.158174
-0.146894
-0.114675
-0.073805
-0.022493
0.026463
0.066330
0.103265
0.115627
0.118347
0.097378
0.076304
0.045401
0.019107
-0.007840
-0.053576
-0.121608
-0.189462
-0.201232
-0.181996
-0.189227
-0.170345
-0.115545
-0.064907
-0.022173
0.000509
0.026461
0.082950
0.105418
0.121201
0.114645
0.083085
0.055543
0.022575
-0.026900
-0.084060
-0.135113
-0.155069
-0.177410
-0.189428
-0.176593
-0.162771
-0.134128
-0.092643
-0.059868
-0.006408
0.040172
0.079031
0.101783
0.117981
0.120637
0.088493
0.050509
0.008913
-0.027394
-0.083830
-0.129586
-0.164757
-0.196010
-0.171750
-0.174056
-0.160438
-0.138053
-0.087045
-0.037986
0.008945
0.066519
0.090355
0.104325
0.105954
0.093604
0.077979
0.040935
0.017742
-0.007121
-0.039402
-0.071762
-0.100083
-0.150604
-0.188999
-0.181300
-0.125544
-0.076723
-0.020433
-0.003695
0.011226
0.057499
0.110727
0.149048
0.151367
0.118908
0.099628
0.080430
0.027751
0.014578
-0.047760
-0.082717
-0.117406
-0.150794
-0.162008
-0.140324
-0.085126
-0.071582
-0.038862
0.006775
0.044048
0.087644
0.119463
0.138212
0.130260
0.129222
0.117501
0.094626
0.052295
0.009216
-0.034230
-0.086591
-0.097283
-0.109459
-0.120025
-0.116224
-0.099651
-0.076899
-0.033045
0.018921
0.063075
0.094558
0.124821
0.133071
0.134881
0.118896
0.094626
0.069863
0.030891
-0.007597
-0.076938
-0.127866
-0.159619
-0.170233
-0.181379
-0.171857
-0.144574
-0.114393
-0.071342
-0.004438
0.066115
0.080432
0.087880
0.104680
0.123457
0.123902
0.093879
0.049945
-0.011624
-0.062897
-0.099395
-0.135582
-0.190645
-0.206144
-0.218639
-0.195651
-0.171069
-0.149503
-0.116466
-0.078262
-0.024608
0.019009
0.051496
0.074955
0.119795
0.109631
0.060444
0.022090
-0.024997
-0.069571
-0.107207
-0.144252
-0.184602
-0.198465
-0.218652
-0.203155
-0.165051
-0.141631
-0.119661
-0.082900
-0.032183
0.012356
0.042525
0.058138
0.080895
0.080468
0.073551
0.032374
-0.015982
-0.064459
-0.104130
-0.153313
-0.204622
-0.208536
-0.213704
-0.192958
-0.177967
-0.151727
-0.099691
-0.057712
-0.030797
0.012383
0.033624
0.061458
0.075608
0.081543
0.058690
0.019964
-0.025566
-0.063394
-0.111381
-0.153174
-0.178291
-0.204574
-0.219219
-0.204554
-0.193851
-0.156156
-0.122647
-0.077969
-0.028352
-0.001884
0.021261
0.050005
0.070137
0.068486
0.058971
0.049545
0.009038
-0.023842
-0.042413
-0.066521
-0.082656
-0.095210
-0.088468
-0.069114
-0.039155
-0.000855
0.068625
0.135121
0.201326
0.270050
0.321446
0.352087
0.394862
0.420463
0.439912
0.431775
0.426696
0.420886
0.394657
0.376242
0.402172
0.416476
0.444012
0.499715
0.579369
0.612385
0.688442
0.745796
0.776934
0.815704
0.842010
0.834971
0.808545
0.762558
0.696922
0.612330
0.515172
0.422491
0.294217
0.222929
0.138103
0.090930
0.015862
-0.030106
-0.013119
0.030411
0.057914
0.092574
0.129815
0.155215
0.176834
0.197314
0.194422
0.196995
0.165817
0.110213
0.048934
0.021844
-0.035296
-0.094551
-0.119936
-0.130792
-0.137997
-0.134112
-0.115912
-0.078784
-0.046401
-0.004523
0.044119
0.079573
0.116831
0.141187
0.138306
0.121151
0.099824
0.075987
0.041918
-0.030396
-0.087484
-0.121145
-0.159536
-0.180898
-0.197542
-0.183435
-0.150650
-0.122585
-0.072098
-0.032796
0.016739
0.061019
0.090660
0.110093
0.129964
0.120093
0.103378
0.058811
0.021854
-0.033919
-0.063996
-0.093443
-0.123049
-0.164059
-0.181631
-0.175243
-0.147585
-0.100312
-0.067176
-0.024228
0.026053
0.049730
0.092348
0.112309
0.111080
0.124135
0.109049
0.063606
0.016346
-0.014299
-0.065056
-0.099174
-0.133997
-0.140256
-0.143517
-0.143355
-0.120167
-0.089474
-0.044556
-0.030725
0.024242
0.079741
0.113531
0.153357
0.139235
0.123763
0.108726
0.083890
0.043031
-0.009921
-0.062927
-0.094147
-0.124384
-0.126302
-0.125014
-0.111538
-0.095212
-0.063863
-0.034409
0.026581
0.072294
0.118650
0.152855
0.146382
0.152983
0.150495
0.133300
0.114552
0.088812
0.051151
0.002448
-0.042711
-0.068026
-0.083040
-0.094948
-0.092162
-0.065134
-0.026522
0.011355
0.065096
0.117110
0.154012
0.193017
0.209167
0.221529
0.212053
0.183401
0.144627
0.098922
0.044329
-0.010915
-0.026921
-0.042898
-0.054546
-0.070257
-0.076042
-0.028235
0.015314
0.063021
0.100908
0.122318
0.169035
0.213883
0.237803
0.240566
0.199271
0.190659
0.177718
0.123314
0.066435
0.020407
-0.007701
-0.014389
-0.030102
-0.059687
-0.054956
-0.031295
-0.006692
0.027875
0.082003
0.139103
0.177832
0.207413
0.225610
0.241698
0.230302
0.208953
0.173000
0.108213
0.065891
0.030837
-0.007980
-0.041661
-0.076893
-0.085010
-0.078599
-0.049993
-0.023616
0.020720
0.070734
0.112281
0.152492
0.180150
0.198995
0.209973
0.196321
0.170830
0.147234
0.093891
0.057324
0.002413
-0.041729
-0.091233
-0.101057
-0.099744
-0.097378
-0.076870
-0.050858
-0.016006
0.031212
0.067324
0.089493
0.115115
0.150572
0.166886
0.164284
0.136139
0.074254
0.052653
0.007164
-0.054430
-0.051960
-0.060452
-0.105563
-0.129931
-0.117836
-0.106512
-0.085709
-0.055577
-0.006151
0.012440
0.076672
0.103477
0.132091
0.124770
0.109188
0.076570
0.047454
0.000861
-0.028595
-0.060612
-0.101438
-0.146871
-0.142609
-0.143271
-0.149125
-0.156250
-0.111931
-0.052420
-0.001244
0.052026
0.079839
0.098962
0.111666
0.125256
0.100944
0.076735
0.042034
-0.004627
-0.058250
-0.102146
-0.133498
-0.160894
-0.173149
-0.192701
-0.156203
-0.135728
-0.099124
-0.058244
-0.010053
0.042589
0.054694
0.081627
0.092147
0.093597
0.082173
0.051718
0.015701
-0.010316
-0.049753
-0.103390
-0.141093
-0.175475
-0.165348
-0.163172
-0.159873
-0.147258
-0.111938
-0.058876
-0.020880
0.016906
0.066977
0.101574
0.117267
0.120936
0.121052
0.080292
0.048580
0.016414
-0.036226
-0.082595
-0.122391
-0.140181
-0.159641
-0.159258
-0.158856
-0.149757
-0.124508
-0.073439
-0.028058
0.028515
0.062806
0.099703
0.124157
0.136469
0.117895
0.091769
0.086293
0.064080
-0.005590
-0.076088
-0.120894
-0.143625
-0.165486
-0.178848
-0.165434
-0.158895
-0.130009
-0.079320
-0.036333
0.017277
0.067804
0.102114
0.125279
0.135398
0.128328
0.111740
0.062780
0.016703
-0.034448
-0.083571
-0.117832
-0.145662
-0.159016
-0.161239
-0.154018
-0.132982
-0.091442
-0.056075
-0.029653
0.024333
0.067695
0.094964
0.108437
0.109450
0.117904
0.071553
0.038989
0.015706
-0.016383
-0.068011
-0.089652
-0.131729
-0.169569
-0.164788
-0.159835
-0.142818
-0.101584
-0.074038
-0.032760
0.013437
0.065294
0.079859
0.096901
0.092828
0.084473
0.076522
0.058801
0.028150
-0.031191
-0.072618
-0.113803
-0.142097
-0.171995
-0.173083
-0.169899
-0.139441
-0.111984
-0.053768
-0.018983
0.031423
0.062678
0.095835
0.110514
0.108530
0.086563
0.075131
0.034047
-0.004492
-0.048267
-0.103471
-0.151800
-0.175350
-0.200975
-0.197210
-0.185104
-0.162578
-0.126776
-0.087309
-0.059231
0.001580
0.061210
0.087626
0.094333
0.112207
0.087787
0.069384
0.035557
0.000920
-0.039196
-0.101083
-0.157560
-0.172918
-0.187883
-0.194022
-0.180302
-0.155170
-0.111665
-0.075724
-0.040489
0.002663
0.038708
0.071742
0.098940
0.098281
0.096137
0.084261
0.062759
0.015301
-0.051205
-0.107146
-0.129902
-0.158003
-0.187417
-0.219105
-0.211686
-0.179558
-0.139959
-0.100387
-0.048791
0.001274
0.055429
0.080892
0.087292
0.069681
0.073135
0.074164
0.075390
0.021275
-0.042298
-0.100150
-0.129743
-0.169632
-0.189140
-0.196217
-0.192222
-0.157545
-0.131349
-0.093181
-0.077866
-0.020412
0.080261
0.116281
0.112710
0.114904
0.101469
0.102353
0.079284
0.017068
-0.011079
-0.047677
-0.096578
-0.135588
-0.163229
-0.157181
-0.152868
-0.134557
-0.109121
-0.063162
-0.024040
0.030517
0.072229
0.094553
0.120244
0.147512
0.100730
0.083218
0.058869
0.020029
-0.019624
-0.066857
-0.108186
-0.127358
-0.150496
-0.166344
-0.151868
-0.125036
-0.103266
-0.044948
0.001412
0.048782
0.084856
0.126018
0.158915
0.156188
0.123729
0.104400
0.095549
0.070246
0.025568
-0.034830
-0.080976
-0.111859
-0.126827
-0.137295
-0.123293
-0.102265
-0.066250
-0.044169
-0.017283
0.017987
0.054444
0.072684
0.110266
0.119092
0.103362
0.079395
0.049258
0.016079
-0.034031
-0.104121
-0.143707
-0.175122
-0.200718
-0.197085
-0.192547
-0.164867
-0.121721
-0.085424
-0.037663
0.016583
0.068530
0.080498
0.079709
0.081230
0.073220
0.053082
0.010212
-0.033076
-0.063462
-0.113459
-0.173059
-0.204852
-0.231475
-0.219606
-0.211157
-0.184770
-0.156559
-0.127731
-0.072574
-0.021184
0.013459
0.060732
0.079672
0.073959
0.080908
0.074284
0.035867
-0.026785
-0.071900
-0.101410
-0.134945
-0.196609
-0.229013
-0.240193
-0.238846
-0.216368
-0.172917
-0.104948
-0.055874
-0.018596
0.003137
0.025393
0.065925
0.072464
0.057882
0.051588
0.026663
-0.020334
-0.076705
-0.124089
-0.163748
-0.215418
-0.230907
-0.243264
-0.213818
-0.187128
-0.147984
-0.109436
-0.051515
-0.010896
0.007444
0.042142
0.071823
0.098617
0.074991
0.033033
0.006039
-0.025176
-0.056903
-0.100596
-0.162019
-0.200203
-0.218293
-0.228435
-0.223378
-0.207822
-0.187048
-0.143154
-0.100360
-0.049875
-0.004878
0.040921
0.063352
0.097148
0.107873
0.095506
0.079064
0.056616
0.010453
-0.011804
-0.041167
-0.050432
-0.080478
-0.061910
-0.039707
0.005203
0.075384
0.143449
0.212812
0.299313
0.371051
0.433404
0.485968
0.523954
0.546331
0.556162
0.548881
0.536969
0.559829
0.572949
0.561228
0.563939
0.602430
0.621402
0.643798
0.651353
0.665896
0.704534
0.741575
0.761739
0.780048
0.784243
0.750197
0.690040
0.623427
0.520579
0.434692
0.341581
0.240553
0.141115
0.073542
0.008664
-0.003569
-0.001107
-0.013814
-0.009907
0.012919
0.061186
0.086470
0.122247
0.141222
0.148417
0.152347
0.164928
0.166651
0.142117
0.086081
0.038951
-0.012637
-0.062058
-0.102786
-0.130763
-0.161776
-0.171475
-0.172172
-0.138147
-0.069954
-0.039113
0.002992
0.034460
0.068080
0.088798
0.101711
0.124902
0.134475
0.088270
0.027269
-0.023429
-0.040745
-0.085397
-0.134034
-0.145805
-0.163807
-0.181676
-0.172545
-0.155152
-0.129334
-0.090517
-0.037075
0.006774
0.067748
0.108449
0.108557
0.095498
0.099971
0.081900
0.041431
0.007071
-0.039174
-0.103331
-0.137398
-0.156979
-0.158601
-0.177899
-0.165205
-0.158241
-0.124962
-0.094490
-0.042196
-0.000227
0.057354
0.105905
0.123581
0.122510
0.125395
0.120825
0.078745
0.026021
-0.023810
-0.061637
-0.109833
-0.149902
-0.177102
-0.168080
-0.159956
-0.142250
-0.100946
-0.065566
-0.020138
0.043158
0.081616
0.118926
0.148652
0.131210
0.117803
0.097066
0.067031
0.025953
0.005348
-0.052531
-0.066655
-0.103737
-0.117672
-0.124207
-0.115085
-0.105337
-0.065209
-0.044770
-0.000094
0.038295
0.107027
0.135492
0.150127
0.143196
0.131024
0.112252
0.106598
0.089493
0.038698
-0.016101
-0.054679
-0.098827
-0.118551
-0.109736
-0.087878
-0.059459
-0.024156
0.046831
0.072062
0.111943
0.154723
0.185899
0.195330
0.204819
0.193107
0.157751
0.149035
0.104150
0.052788
0.014532
-0.039522
-0.068381
-0.072014
-0.068439
-0.062816
-0.031809
0.012975
0.039600
0.078174
0.128213
0.170947
0.190612
0.216934
0.220011
0.216209
0.203928
0.151703
0.114260
0.075065
0.026962
-0.011422
-0.038763
-0.060123
-0.051687
-0.044446
-0.040515
0.018185
0.033877
0.093568
0.137858
0.181317
0.197188
0.211321
0.222939
0.218522
0.197488
0.160986
0.110369
0.051764
0.018560
-0.020660
-0.060736
-0.085679
-0.088072
-0.087352
-0.071860
-0.049452
0.008175
0.050132
0.109648
0.123959
0.173178
0.207370
0.210441
0.194647
0.162442
0.129829
0.087822
0.065280
0.009308
-0.067783
-0.115983
-0.132644
-0.129839
-0.126809
-0.107277
-0.093009
-0.051879
0.018479
0.053395
0.093186
0.119987
0.148690
0.147436
0.122872
0.083270
0.075922
0.027967
-0.006538
-0.024320
-0.079999
-0.120990
-0.144488
-0.165895
-0.170380
-0.137495
-0.101589
-0.074288
-0.023407
0.020825
0.064280
0.086132
0.108547
0.116633
0.086260
0.068832
0.050170
0.002846
-0.039255
-0.074615
-0.098865
-0.121558
-0.174157
-0.178344
-0.159164
-0.148441
-0.114730
-0.084163
-0.049701
0.003875
0.046972
0.086279
0.101235
0.116674
0.094427
0.057546
-0.008131
-0.033452
-0.074284
-0.111288
-0.130179
-0.144945
-0.160196
-0.157609
-0.150310
-0.142863
-0.114497
-0.051708
-0.029476
-0.004643
0.033566
0.061054
0.091491
0.087643
0.080708
0.075202
0.041251
-0.011271
-0.057648
-0.108182
-0.151947
-0.177771
-0.192990
-0.172858
-0.168978
-0.152125
-0.117073
-0.066394
-0.009198
0.034290
0.070967
0.095615
0.118866
0.113964
0.102080
0.073552
0.041535
-0.010801
-0.062769
-0.112409
-0.135739
-0.147688
-0.174343
-0.201291
-0.210132
-0.159467
-0.099366
-0.060454
-0.013411
0.052507
0.073179
0.090687
0.106781
0.117489
0.108855
0.071878
0.040929
0.000868
-0.044004
-0.078904
-0.130053
-0.145290
-0.158003
-0.186266
-0.176496
-0.143316
-0.112618
-0.058713
-0.031531
0.010107
0.048558
0.083960
0.106547
0.106474
0.100168
0.104581
0.064145
0.014146
-0.035160
-0.078893
-0.109051
-0.134776
-0.146232
-0.180686
-0.173388
-0.151800
-0.125950
-0.090894
-0.041840
0.014348
0.055253
0.087502
0.117737
0.107442
0.083412
0.070854
0.040909
0.006358
-0.044397
-0.097612
-0.150304
-0.160120
-0.171488
-0.169227
-0.177343
-0.132874
-0.123604
-0.081940
-0.012610
0.037001
0.062443
0.065980
0.079144
0.088759
0.087794
0.072542
0.053483
0.005460
-0.059607
-0.101971
-0.111461
-0.126740
-0.149209
-0.170998
-0.186653
-0.164655
-0.133357
-0.092738
-0.033804
0.003240
0.043367
0.072990
0.096839
0.101592
0.092982
0.054230
0.010010
-0.033475
-0.076868
-0.118425
-0.154169
-0.180259
-0.204346
-0.191319
-0.163587
-0.132474
-0.103162
-0.070617
-0.039984
-0.010841
0.054452
0.078092
0.091342
0.103530
0.101068
0.064914
0.035240
-0.010427
-0.073191
-0.102627
-0.148702
-0.185647
-0.217619
-0.234762
-0.211112
-0.182093
-0.133400
-0.073183
-0.022052
0.014729
0.052655
0.072380
0.086491
0.087110
0.094511
0.070136
0.033455
-0.025863
-0.056707
-0.105047
-0.153599
-0.185507
-0.209336
-0.201670
-0.179327
-0.190272
-0.159199
-0.112009
-0.056402
-0.007433
0.038116
0.074082
0.102494
0.099689
0.071742
0.070687
0.038517
-0.013964
-0.062913
-0.100939
-0.144534
-0.171373
-0.168931
-0.168640
-0.189616
-0.180411
-0.163636
-0.105109
-0.046170
0.022711
0.071879
0.083993
0.087403
0.096762
0.104872
0.100935
0.066975
0.015079
-0.030010
-0.043353
-0.085253
-0.130686
-0.192819
-0.197480
-0.187331
-0.143608
-0.108942
-0.056338
-0.009807
0.024774
0.060826
0.125989
0.138657
0.123399
0.104086
0.081245
0.037315
0.002436
-0.031004
-0.066366
-0.116524
-0.152341
-0.165452
-0.158547
-0.153809
-0.135116
-0.081639
-0.036598
0.030924
0.092641
0.098073
0.111666
0.140612
0.165723
0.158271
0.115278
0.062764
0.030011
-0.023641
-0.058288
-0.096192
-0.146230
-0.160986
-0.154752
-0.154177
-0.141614
-0.086250
-0.050639
-0.018827
0.004402
0.027900
0.076982
0.105038
0.110876
0.119279
0.081454
0.038814
-0.014187
-0.057261
-0.104456
-0.146856
-0.186304
-0.217104
-0.209453
-0.186243
-0.160382
-0.135956
-0.101682
-0.055937
0.014285
0.048315
0.076627
0.090762
0.049366
0.038896
0.029254
0.032124
-0.000142
-0.057843
-0.142720
-0.191060
-0.195165
-0.216497
-0.211287
-0.220280
-0.199631
-0.170642
-0.142708
-0.076555
-0.038646
0.021144
0.021466
0.033468
0.056382
0.084933
0.067749
0.012796
-0.027730
-0.054027
-0.091665
-0.158693
-0.227272
-0.250742
-0.252273
-0.235023
-0.219003
-0.188007
-0.150943
-0.057976
-0.003618
0.007962
0.023506
0.063902
0.048505
0.044537
0.007151
0.002897
0.001490
-0.044264
-0.107536
-0.165160
-0.191086
-0.207659
-0.195650
-0.169810
-0.138762
-0.103310
-0.083328
-0.047602
-0.000428
0.027691
0.043601
0.062379
0.066746
0.076765
0.044943
-0.008643
-0.031424
-0.075639
-0.131779
-0.165776
-0.194703
-0.209909
-0.214698
-0.201936
-0.178015
-0.153377
-0.113763
-0.058707
-0.023345
0.027768
0.064169
0.090435
0.114357
0.115835
0.106514
0.095947
0.050980
0.038675
-0.004034
-0.030907
-0.056931
-0.035617
0.001287
0.022533
0.098145
0.159888
0.227956
0.293491
0.393166
0.447538
0.495161
0.546182
0.553011
0.603649
0.664161
0.661000
0.654729
0.625826
0.618875
0.612362
0.609424
0.569631
0.561009
0.567642
0.576756
0.584186
0.609753
0.636267
0.669235
0.675851
0.641039
0.602515
0.538851
0.478986
0.406179
0.318181
0.227025
0.143818
0.083998
0.029429
-0.039579
-0.094052
-0.061458
-0.036410
-0.030514
-0.052251
0.014834
0.049264
0.067042
0.118682
0.165401
0.175589
0.174443
0.154004
0.131578
0.110854
0.049085
-0.003652
-0.044774
-0.087469
-0.107625
-0.120009
-0.126616
-0.144925
-0.142296
-0.133324
-0.084670
-0.014007
0.021528
0.056544
0.091292
0.105904
0.105455
0.086400
0.093737
0.081992
0.035335
-0.029010
-0.076479
-0.107991
-0.146621
-0.174402
-0.175714
-0.183958
-0.151537
-0.100897
-0.062251
-0.038574
-0.009932
0.021336
0.073988
0.100153
0.100327
0.080442
0.066882
0.013982
-0.030369
-0.038821
-0.049442
-0.095479
-0.167184
-0.195991
-0.171166
-0.147139
-0.112461
-0.108042
-0.076940
0.016019
0.056994
0.060607
0.099283
0.151388
0.136044
0.125346
0.102594
0.057498
0.015500
-0.020848
-0.070034
-0.123562
-0.151113
-0.162422
-0.166098
-0.159222
-0.122956
-0.082403
-0.010879
-0.001635
0.039139
0.086467
0.120910
0.149565
0.165384
0.156305
0.130939
0.070005
0.036559
-0.006131
-0.042517
-0.082607
-0.133034
-0.156087
-0.140465
-0.126022
-0.111876
-0.069175
-0.007231
0.045047
0.080397
0.115934
0.159473
0.173796
0.198022
0.183043
0.161136
0.112403
0.083091
0.041394
0.012791
-0.040193
-0.065467
-0.091349
-0.096517
-0.086831
-0.078017
-0.034839
-0.007502
0.026599
0.076670
0.117424
0.163907
0.201771
0.201796
0.218945
0.194090
0.126508
0.104210
0.061058
0.029865
-0.003467
-0.034976
-0.065295
-0.046753
-0.043041
-0.036818
-0.018890
0.057955
0.111458
0.148660
0.185017
0.208015
0.231878
0.213908
0.205052
0.186843
0.166673
0.134771
0.092619
0.037637
-0.018266
-0.024236
-0.027584
-0.039135
-0.064449
-0.031809
0.009455
0.025942
0.084191
0.136330
0.183132
0.199763
0.210625
0.219246
0.208006
0.186938
0.149153
0.106439
0.065187
0.020253
-0.042247
-0.075353
-0.103428
-0.097140
-0.082207
-0.055056
-0.020463
0.016178
0.066653
0.120275
0.158738
0.181424
0.201237
0.204478
0.185988
0.145392
0.120907
0.087457
0.032234
-0.036365
-0.083921
-0.143007
-0.128529
-0.129099
-0.145192
-0.107344
-0.051951
-0.011990
0.030778
0.075729
0.120471
0.141238
0.173581
0.175408
0.124752
0.089637
0.075299
0.031598
-0.046739
-0.101360
-0.127088
-0.106480
-0.144528
-0.146410
-0.159939
-0.178478
-0.124598
-0.070382
-0.003257
0.050441
0.086928
0.099838
0.126101
0.136205
0.128872
0.106871
0.078928
0.024524
-0.026604
-0.073000
-0.123507
-0.154023
-0.185362
-0.180572
-0.177063
-0.179422
-0.145174
-0.100958
-0.020826
-0.006230
0.034855
0.092828
0.123229
0.092598
0.094788
0.069786
0.032774
-0.007988
-0.033853
-0.070042
-0.116657
-0.154777
-0.177314
-0.202361
-0.191828
-0.157106
-0.134009
-0.105449
-0.046495
-0.026571
0.019020
0.087057
0.103137
0.101609
0.096132
0.063071
0.031951
-0.003807
-0.038413
-0.074127
-0.120993
-0.157017
-0.144233
-0.169406
-0.163918
-0.138720
-0.106178
-0.061910
-0.011456
0.038181
0.082721
0.087001
0.074453
0.065244
0.065990
0.046376
0.020959
-0.007893
-0.036233
-0.078130
-0.128487
-0.175717
-0.189061
-0.180807
-0.178983
-0.150950
-0.100067
-0.040028
0.002747
0.015877
0.041205
0.077526
0.090850
0.118745
0.114589
0.082974
0.038504
0.009282
-0.036186
-0.068395
-0.134110
-0.170729
-0.179208
-0.175247
-0.169120
-0.154291
-0.121501
-0.073887
-0.034216
0.032808
0.063676
0.080429
0.111402
0.120302
0.109584
0.078253
0.041644
-0.007890
-0.055487
-0.095030
-0.137032
-0.167217
-0.200648
-0.202991
-0.204915
-0.195048
-0.142779
-0.085551
-0.042172
0.015004
0.054719
0.087999
0.097751
0.114470
0.099561
0.099968
0.085167
0.027810
-0.035510
-0.072792
-0.124069
-0.177716
-0.197656
-0.201563
-0.187983
-0.154252
-0.132644
-0.096997
-0.058938
-0.016899
0.003343
0.036896
0.079206
0.106853
0.094070
0.082621
0.039128
-0.005757
-0.069256
-0.116480
-0.149991
-0.174839
-0.197919
-0.208566
-0.196704
-0.158901
-0.129209
-0.099807
-0.051738
0.009628
0.047585
0.073112
0.096467
0.095066
0.069958
0.042001
0.016590
-0.034116
-0.054724
-0.111991
-0.161973
-0.176968
-0.144425
-0.169451
-0.197167
-0.214862
-0.168629
-0.105217
-0.038338
0.008234
0.019236
0.035310
0.050972
0.055803
0.056461
0.030750
0.007036
-0.008404
-0.052438
-0.099860
-0.146534
-0.197959
-0.221307
-0.222094
-0.175688
-0.164340
-0.157110
-0.114587
-0.052843
-0.006171
0.048032
0.068066
0.087879
0.095276
0.079493
0.034255
0.001219
-0.047749
-0.095445
-0.092483
-0.176063
-0.218050
-0.241982
-0.253575
-0.229338
-0.198888
-0.157578
-0.093638
-0.043456
-0.014976
0.005272
0.058011
0.081800
0.087035
0.090043
0.044718
-0.003975
-0.047026
-0.083470
-0.134704
-0.180398
-0.201117
-0.220354
-0.227920
-0.207367
-0.186083
-0.149320
-0.099001
-0.059053
-0.012659
0.047849
0.086018
0.056921
0.077113
0.085280
0.053520
0.012413
-0.030020
-0.047182
-0.121282
-0.166178
-0.200703
-0.224841
-0.220730
-0.198061
-0.167066
-0.126016
-0.095127
-0.050744
-0.012473
0.030946
0.063624
0.099155
0.133553
0.116862
0.066313
0.016029
-0.010875
-0.040733
-0.091392
-0.120068
-0.149448
-0.185291
-0.179257
-0.202600
-0.214548
-0.161581
-0.097454
-0.055643
-0.031212
0.024398
0.066766
0.098312
0.090050
0.100259
0.109303
0.084480
0.027176
-0.017876
-0.063507
-0.110351
-0.131830
-0.149698
-0.145465
-0.145408
-0.135812
-0.112648
-0.080013
-0.042140
-0.001214
0.044659
0.063027
0.077791
0.080408
0.089350
0.064189
0.014366
-0.020476
-0.059187
-0.111469
-0.153980
-0.194467
-0.205390
-0.196197
-0.188523
-0.159423
-0.137731
-0.119808
-0.089454
-0.048580
-0.001528
0.040051
0.052504
0.060129
0.037562
0.023721
-0.008726
-0.058906
-0.126262
-0.155137
-0.193152
-0.222336
-0.224952
-0.249195
-0.249760
-0.236264
-0.195389
-0.155920
-0.109584
-0.061490
-0.021850
0.020962
0.037231
0.034178
0.018746
-0.006616
-0.036207
-0.075763
-0.118902
-0.172175
-0.220909
-0.243424
-0.261275
-0.273245
-0.246853
-0.226542
-0.183143
-0.150322
-0.101433
-0.058986
-0.018996
0.008177
0.015760
0.024831
0.026707
0.006595
-0.024127
-0.074088
-0.109372
-0.177726
-0.230178
-0.264589
-0.290633
-0.291909
-0.267112
-0.234343
-0.195999
-0.157363
-0.102267
-0.053722
-0.016955
0.007926
0.024385
0.027608
0.018031
0.006044
-0.015881
-0.065338
-0.124172
-0.164125
-0.224502
-0.257912
-0.257519
-0.255718
-0.262414
-0.237707
-0.212811
-0.176719
-0.120719
-0.073712
-0.052196
-0.026842
0.003675
0.026388
0.008885
-0.008192
-0.049333
-0.061324
-0.103872
-0.123698
-0.131830
-0.164657
-0.188135
-0.176115
-0.126060
-0.081268
-0.062698
-0.056427
0.014534
0.100013
0.176588
0.215420
0.259860
0.279082
0.302113
0.313026
0.318208
0.307747
0.284126
0.273610
0.264516
0.268164
0.282769
0.314112
0.361175
0.410448
0.491855
0.555879
0.646376
0.691959
0.717481
0.742271
0.755732
0.715100
0.688977
0.672325
0.641276
0.562213
0.445711
0.331370
0.217851
0.125040
0.063209
0.008920
-0.005346
0.000649
0.004352
0.042946
0.062430
0.090474
0.133787
0.149559
0.128277
0.130291
0.135638
0.088827
0.011888
-0.028651
-0.035492
-0.073283
-0.133312
-0.169248
-0.190943
-0.211552
-0.191863
-0.163986
-0.142465
-0.106124
-0.060908
-0.011285
0.027643
0.048955
0.068127
0.098612
0.084786
0.052002
0.009482
-0.025545
-0.090993
-0.139763
-0.193558
-0.214326
-0.239915
-0.254113
-0.239989
-0.210604
-0.187543
-0.142686
-0.072795
-0.026789
0.013119
0.040445
0.052521
0.057603
0.041664
0.014525
-0.008330
-0.045796
-0.077884
-0.127080
-0.185291
-0.219560
-0.231294
-0.239957
-0.232225
-0.210176
-0.176179
-0.130679
-0.079907
-0.036259
-0.008491
0.027904
0.053683
0.066302
0.051012
0.044269
-0.001895
-0.044528
-0.090428
-0.117238
-0.155746
-0.194751
-0.214811
-0.237939
-0.229756
-0.194103
-0.150328
-0.115503
-0.069734
-0.034125
0.017192
0.056507
0.075926
0.073845
0.056373
0.043773
0.006885
-0.013561
-0.076690
-0.110688
-0.153870
-0.187318
-0.215325
-0.203849
-0.186847
-0.175199
-0.124809
-0.088219
-0.045930
0.001811
0.037723
0.074303
0.092727
0.092121
0.074977
0.071904
0.038107
-0.000979
-0.053507
-0.098717
-0.113849
-0.147305
-0.164483
-0.191382
-0.189451
-0.147546
-0.101424
-0.039468
0.029443
0.071816
0.111512
0.134552
0.141317
0.138600
0.129935
0.090814
0.093858
0.062339
-0.028398
-0.059228
-0.078763
-0.122122
-0.151116
-0.150404
-0.132590
-0.104216
-0.072390
-0.036418
0.017330
0.074897
0.123379
0.152069
0.184142
0.188009
0.159911
0.146485
0.113180
0.066246
0.002463
-0.025848
-0.068555
-0.118143
-0.117858
-0.135061
-0.121416
-0.111400
-0.078815
-0.030027
0.010844
0.060073
0.107510
0.155154
0.197269
0.199863
0.157768
0.126870
0.110908
0.074754
0.022555
-0.011271
-0.076444
-0.105001
-0.121914
-0.132588
-0.122414
-0.117732
-0.094253
-0.049255
-0.003601
0.052091
0.111541
0.125519
0.121456
0.138890
0.113959
0.107440
0.075050
0.041058
-0.012840
-0.058041
-0.101635
-0.128314
-0.151970
-0.165831
-0.170921
-0.155082
-0.108876
-0.055134
-0.019006
0.010535
0.065040
0.091966
0.121058
0.116073
0.078774
0.058951
0.022589
-0.011523
-0.050250
-0.086431
-0.142874
-0.178260
-0.198095
-0.191678
-0.169674
-0.158950
-0.143333
-0.082622
-0.038659
-0.018027
0.012080
0.012585
0.042030
0.041337
0.024878
0.045315
0.010271
-0.048114
-0.109224
-0.163057
-0.210056
-0.223100
-0.218579
-0.231359
-0.214918
-0.184050
-0.155978
-0.132493
-0.090932
-0.030441
0.004890
0.028263
0.062545
0.062520
0.045799
0.016905
-0.015070
-0.072370
-0.113172
-0.164017
-0.205826
-0.243691
-0.262074
-0.265806
-0.243556
-0.224111
-0.185021
-0.139246
-0.093214
-0.051996
-0.013529
0.004768
0.026883
0.046843
0.028557
-0.009562
-0.023558
-0.053952
-0.103017
-0.142011
-0.181149
-0.212078
-0.236161
-0.257808
-0.252477
-0.216459
-0.181910
-0.132171
-0.106213
-0.053930
0.003631
0.043284
0.054897
0.050271
0.034284
0.025717
-0.012553
-0.042959
-0.089942
-0.135126
-0.187508
-0.192269
-0.229570
-0.239923
-0.233209
-0.213270
-0.155502
-0.128029
-0.097582
-0.056053
-0.011932
0.030009
0.049870
0.035117
0.020869
0.019793
-0.006653
-0.036941
-0.075852
-0.137999
-0.181302
-0.203203
-0.236183
-0.236460
-0.217785
-0.197210
-0.162068
-0.137301
-0.085628
-0.035735
-0.011548
0.004771
0.035798
0.038361
0.024624
0.012227
-0.020433
-0.046814
-0.095258
-0.165304
-0.162937
-0.177346
-0.206121
-0.227644
-0.215161
-0.200491
-0.176644
-0.121046
-0.086438
-0.050026
-0.013407
0.013241
0.043568
0.058249
0.040633
0.022725
-0.014987
-0.070384
-0.124743
-0.166526
-0.211290
-0.228651
-0.250071
-0.251495
-0.239505
-0.228003
-0.198369
-0.151756
-0.098930
-0.043725
0.007969
0.029761
0.050375
0.045533
0.032966
0.007262
-0.021166
-0.073625
-0.117477
-0.158315
-0.219187
-0.229763
-0.245537
-0.262588
-0.256436
-0.232719
-0.183529
-0.141041
-0.116554
-0.078970
-0.003821
0.040569
0.061562
0.064497
0.031853
0.010331
-0.018652
-0.051961
-0.110682
-0.168410
-0.212212
-0.231058
-0.242843
-0.258443
-0.252944
-0.244271
-0.203959
-0.155062
-0.115635
-0.069426
-0.017879
0.018924
0.040353
0.041522
0.035063
0.010825
-0.023286
-0.063260
-0.107840
-0.149071
-0.195678
-0.231797
-0.249672
-0.255379
-0.252389
-0.243051
-0.198058
-0.154775
-0.105140
-0.078514
-0.035539
-0.002200
0.011789
0.008146
-0.004682
-0.022409
-0.047505
-0.072889
-0.124862
-0.174833
-0.215795
-0.249168
-0.251392
-0.245851
-0.237977
-0.216804
-0.179372
-0.136651
-0.108787
-0.053257
-0.013306
0.003565
0.025563
0.034507
0.016025
-0.002270
-0.040556
-0.083781
-0.134461
-0.170965
-0.195851
-0.216343
-0.241160
-0.252726
-0.234741
-0.203719
-0.159703
-0.114674
-0.078999
-0.018118
0.020043
0.047180
0.077683
0.074725
0.054081
0.028463
-0.000151
-0.026224
-0.080664
-0.147259
-0.192366
-0.206082
-0.226261
-0.228900
-0.220890
-0.188884
-0.149099
-0.109678
-0.070848
-0.037292
0.026257
0.072733
0.067118
0.089794
0.070899
0.042851
0.017915
-0.033228
-0.077529
-0.126386
-0.176535
-0.201023
-0.209006
-0.210165
-0.195880
-0.175990
-0.149829
-0.106009
-0.071637
-0.030986
0.031802
0.066546
0.077426
0.085545
0.078703
0.044875
0.007427
-0.016759
-0.064368
-0.135886
-0.189646
-0.242390
-0.246304
-0.273510
-0.251837
-0.224983
-0.201881
-0.167129
-0.122773
-0.075348
-0.027793
-0.004051
-0.001554
0.028159
0.033056
0.011757
-0.024300
-0.062883
-0.105042
-0.157592
-0.198279
-0.218381
-0.264215
-0.286187
-0.270556
-0.244256
-0.205536
-0.155953
-0.118103
-0.086335
-0.057199
-0.030978
-0.000423
0.012927
-0.009454
-0.031508
-0.046911
-0.083354
-0.140262
-0.185632
-0.233595
-0.269163
-0.266594
-0.269429
-0.260562
-0.257691
-0.234660
-0.190024
-0.129068
-0.081456
-0.044056
-0.040588
-0.016590
0.003871
-0.009360
-0.023398
-0.044241
-0.094417
-0.149140
-0.185086
-0.218963
-0.257313
-0.280310
-0.289252
-0.283287
-0.237835
-0.203006
-0.169610
-0.134521
-0.091570
-0.044021
-0.019404
0.012420
0.025080
0.000269
-0.014642
-0.043098
-0.091736
-0.130012
-0.181643
-0.245087
-0.273859
-0.280341
-0.290019
-0.294992
-0.247907
-0.189989
-0.166006
-0.150036
-0.086372
-0.034346
0.025206
0.028084
0.028035
-0.021407
-0.026246
-0.037611
-0.061673
-0.091422
-0.128285
-0.181882
-0.163319
-0.179235
-0.181070
-0.152873
-0.112630
-0.076000
-0.014083
0.052357
0.103319
0.178650
0.231870
0.271386
0.303637
0.312475
0.322104
0.332605
0.313864
0.290078
0.267356
0.249684
0.251588
0.269672
0.292638
0.337304
0.398945
0.493425
0.565213
0.620098
0.646286
0.709492
0.755160
0.781611
0.766713
0.712354
0.678698
0.605898
0.518483
0.418736
0.311688
0.194628
0.117410
0.053608
-0.002712
-0.038712
-0.055959
-0.063896
-0.041501
-0.016670
0.024270
0.071229
0.096762
0.110039
0.107335
0.072997
0.067039
0.028069
-0.015738
-0.045489
-0.078186
-0.118537
-0.154500
-0.187849
-0.198099
-0.191405
-0.183404
-0.151959
-0.115951
-0.063563
-0.021538
0.012037
0.039023
0.066511
0.060889
0.027667
0.011323
-0.018027
-0.061506
-0.094724
-0.152901
-0.186214
-0.217251
-0.230573
-0.221736
-0.198219
-0.205183
-0.178539
-0.120317
-0.073242
-0.017523
0.003576
0.019319
0.040946
0.052138
0.040652
0.028477
-0.009090
-0.051784
-0.096113
-0.154376
-0.204058
-0.223147
-0.226776
-0.238602
-0.229167
-0.211383
-0.177247
-0.135598
-0.087884
-0.041640
-0.014201
0.044265
0.079873
0.090999
0.074944
0.032619
0.007504
-0.027718
-0.082161
-0.136867
-0.175642
-0.197406
-0.224875
-0.230982
-0.217580
-0.185186
-0.157266
-0.122218
-0.075387
-0.013846
0.050096
0.074465
0.092621
0.083853
0.071196
0.036067
0.009572
-0.018281
-0.043690
-0.102374
-0.157055
-0.176951
-0.190118
-0.198367
-0.192574
-0.166792
-0.129134
-0.104213
-0.050437
-0.004795
0.051475
0.086193
0.105170
0.128990
0.118707
0.093741
0.077967
0.026123
-0.013919
-0.068572
-0.105960
-0.141075
-0.162281
-0.146302
-0.115279
-0.113515
-0.120588
-0.078366
-0.032535
0.021446
0.069351
0.111720
0.139946
0.144903
0.149353
0.124325
0.085395
0.053139
-0.001816
-0.018896
-0.055338
-0.091781
-0.115914
-0.122797
-0.112274
-0.107588
-0.076562
-0.021586
0.036338
0.094313
0.128207
0.156750
0.184136
0.188130
0.168738
0.120541
0.090593
0.063400
0.020530
-0.040843
-0.084217
-0.099473
-0.115071
-0.115184
-0.102847
-0.082539
-0.029938
0.015981
0.050313
0.086977
0.122355
0.156885
0.182228
0.186162
0.169757
0.143611
0.112160
0.059204
0.018257
-0.035537
-0.087310
-0.119336
-0.111607
-0.126820
-0.118196
-0.073038
-0.065122
-0.020810
0.037157
0.075449
0.114519
0.148489
0.163977
0.158858
0.136367
0.124382
0.091618
0.042348
0.016180
-0.042089
-0.096015
-0.129895
-0.161709
-0.180482
-0.180964
-0.153472
-0.101682
-0.056408
-0.015906
0.027142
0.076165
0.116086
0.133610
0.148610
0.144316
0.121008
0.071727
0.034761
-0.019478
-0.098242
-0.144397
-0.160840
-0.165809
-0.179385
-0.180640
-0.178283
-0.148899
-0.100701
-0.059329
-0.021609
0.030671
0.073802
0.083718
0.079189
0.066902
0.060698
0.039704
0.003647
-0.057280
-0.103846
-0.160352
-0.192127
-0.201338
-0.205001
-0.204185
-0.182612
-0.156658
-0.115340
-0.071792
-0.040393
0.014900
0.044132
0.046171
0.032874
0.043381
0.046957
0.005624
-0.035591
-0.058543
-0.084597
-0.116312
-0.181107
-0.222759
-0.224876
-0.206741
-0.195893
-0.175906
-0.100216
-0.068970
-0.035953
0.020591
0.056853
0.064847
0.077024
0.071623
0.051470
0.005312
-0.030867
-0.085497
-0.132430
-0.170939
-0.207049
-0.234696
-0.231595
-0.213525
-0.165960
-0.122174
-0.083887
-0.023088
0.010100
0.041764
0.045927
0.057747
0.071393
0.079523
0.054014
0.008067
-0.044116
-0.072555
-0.112956
-0.169233
-0.186725
-0.211374
-0.202840
-0.185056
-0.164954
-0.119504
-0.091175
-0.059946
-0.012658
0.034113
0.076740
0.100356
0.099701
0.088997
0.049889
0.015463
-0.026861
-0.078810
-0.119545
-0.156989
-0.197008
-0.214079
-0.222053
-0.193800
-0.147329
-0.108469
-0.099007
-0.040551
0.000298
0.036660
0.069424
0.090913
0.099705
0.097560
0.045898
0.028594
0.007920
-0.051975
-0.112293
-0.155246
-0.205113
-0.196739
-0.198327
-0.186627
-0.152390
-0.128540
-0.100168
-0.073252
-0.019926
0.034817
0.077329
0.105279
0.091154
0.077497
0.054264
0.014296
-0.023756
-0.057248
-0.097600
-0.132400
-0.169800
-0.190276
-0.191440
-0.201717
-0.190162
-0.140037
-0.112034
-0.082537
-0.038476
0.005585
0.041772
0.076928
0.065019
0.070700
0.064907
0.021752
-0.026805
-0.067022
-0.088295
-0.116253
-0.152501
-0.192911
-0.222373
-0.216488
-0.167950
-0.119161
-0.090018
-0.076946
-0.033760
0.004554
0.042736
0.065415
0.079444
0.065933
0.073523
0.028574
-0.020121
-0.060247
-0.104041
-0.149460
-0.194345
-0.215296
-0.227855
-0.218165
-0.185589
-0.165690
-0.109564
-0.062320
-0.022166
0.014762
0.055913
0.066087
0.083582
0.067616
0.038324
0.004995
-0.025933
-0.062563
-0.113100
-0.161024
-0.197866
-0.231712
-0.246057
-0.204101
-0.170344
-0.133448
-0.085944
-0.053233
0.001872
0.030259
0.043338
0.075663
0.081044
0.064645
0.029867
-0.000496
-0.037858
-0.094798
-0.149262
-0.183722
-0.209874
-0.218858
-0.209345
-0.192204
-0.182353
-0.136263
-0.091061
-0.052479
0.007558
0.050964
0.077522
0.090642
0.099485
0.082669
0.080541
0.044181
-0.006568
-0.047307
-0.088563
-0.129559
-0.172500
-0.191077
-0.192791
-0.199360
-0.157300
-0.120461
-0.072244
-0.011571
0.026072
0.053609
0.091555
0.129338
0.121244
0.112462
0.081032
0.041480
0.021023
-0.039507
-0.093195
-0.128809
-0.161662
-0.177118
-0.177460
-0.153776
-0.166163
-0.132299
-0.086127
-0.030670
0.023137
0.068048
0.109571
0.129117
0.127520
0.114041
0.093673
0.069915
0.027378
-0.015920
-0.053595
-0.096221
-0.136252
-0.163562
-0.162607
-0.159062
-0.145543
-0.118334
-0.080962
-0.042241
0.013293
0.037614
0.056074
0.085932
0.093414
0.088991
0.074024
0.046863
-0.014799
-0.065815
-0.088362
-0.143373
-0.180620
-0.185191
-0.181352
-0.206822
-0.212029
-0.164690
-0.118511
-0.071560
-0.020713
0.031130
0.065485
0.044083
0.050039
0.066700
0.028338
-0.022422
-0.061726
-0.100358
-0.148195
-0.173396
-0.227343
-0.237655
-0.240052
-0.231464
-0.221760
-0.177890
-0.140065
-0.089577
-0.028526
-0.008057
0.008342
0.028506
0.036731
0.005127
0.007231
-0.024974
-0.080358
-0.112168
-0.156138
-0.188706
-0.225018
-0.263489
-0.255019
-0.236486
-0.213126
-0.180360
-0.166171
-0.119072
-0.053258
-0.011421
0.013208
0.033167
0.038324
0.028310
0.012199
-0.021365
-0.041983
-0.115972
-0.182346
-0.232849
-0.248494
-0.248505
-0.252558
-0.264862
-0.250559
-0.208795
-0.163385
-0.108630
-0.062313
-0.016293
0.013626
0.024424
0.030876
0.014209
-0.015533
-0.055738
-0.096503
-0.126203
-0.182270
-0.235017
-0.280686
-0.289815
-0.296238
-0.265338
-0.223398
-0.181180
-0.153446
-0.115710
-0.042672
0.008535
0.027437
0.064271
0.082290
0.106141
0.112028
0.084008
0.043595
0.006339
-0.024608
-0.074594
-0.106813
-0.083261
-0.084870
-0.095137
-0.046450
0.049595
0.143956
0.229455
0.287748
0.361922
0.419357
0.496432
0.544383
0.562021
0.579792
0.589152
0.565515
0.574857
0.548785
0.531404
0.525964
0.531915
0.530687
0.528851
0.550984
0.559020
0.564868
0.596355
0.614152
0.624227
0.617272
0.574074
0.506729
0.417239
0.351116
0.259647
0.176597
0.098393
0.024704
-0.023540
-0.077509
-0.112746
-0.110751
-0.098265
-0.098171
-0.077721
-0.037080
0.011150
0.046509
0.074716
0.104704
0.109319
0.108798
0.117488
0.127363
0.072497
-0.007247
-0.060293
-0.089423
-0.127242
-0.172381
-0.185661
-0.185507
-0.193104
-0.167235
-0.134613
-0.076935
-0.034825
-0.014662
0.017757
0.031961
0.058466
0.077571
0.071148
0.043856
0.009875
-0.040278
-0.096980
-0.125320
-0.160386
-0.206295
-0.222541
-0.215055
-0.195961
-0.177423
-0.151690
-0.113693
-0.051465
-0.009931
0.022259
0.043277
0.070394
0.091919
0.075130
0.041602
-0.008073
-0.046777
-0.072728
-0.118791
-0.163810
-0.214833
-0.236925
-0.240915
-0.232449
-0.197049
-0.142087
-0.094215
-0.045409
-0.002534
0.027785
0.077997
0.097843
0.113855
0.095680
0.048837
0.025380
-0.018086
-0.049568
-0.077247
-0.137502
-0.194626
-0.201253
-0.206207
-0.193996
-0.175645
-0.136212
-0.092089
-0.020912
0.020221
0.014962
0.084023
0.106662
0.110939
0.102252
0.092053
0.053567
0.023642
-0.020322
-0.076918
-0.111903
-0.150788
-0.172533
-0.176101
-0.185067
-0.164654
-0.117045
-0.086950
-0.024231
0.030812
0.064672
0.129001
0.148767
0.142023
0.141612
0.117787
0.072132
0.039167
0.001872
-0.035660
-0.072518
-0.109159
-0.138515
-0.119124
-0.115658
-0.105089
-0.078603
-0.031437
0.019929
0.081983
0.123271
0.169715
0.200430
0.188435
0.182384
0.160027
0.107533
0.055589
0.012790
-0.025992
-0.064965
-0.067517
-0.078118
-0.091340
-0.093590
-0.070003
-0.023675
0.024788
0.075862
0.111243
0.140571
0.167230
0.182136
0.182343
0.161343
0.129338
0.122863
0.086237
0.042239
-0.000698
-0.023192
-0.058531
-0.084847
-0.111731
-0.106838
-0.059925
-0.041375
-0.016901
0.065377
0.107494
0.143070
0.171877
0.190087
0.192556
0.168815
0.141578
0.104171
0.099571
0.033949
-0.009265
-0.057802
-0.105743
-0.124995
-0.125043
-0.109280
-0.110901
-0.076391
-0.013197
0.054218
0.103120
0.139008
0.153385
0.153975
0.161272
0.137704
0.119242
0.092181
0.042635
0.015643
-0.036910
-0.098769
-0.142725
-0.141956
-0.102056
-0.105103
-0.108077
-0.085504
-0.063916
-0.008436
0.041379
0.107063
0.109787
0.131230
0.137554
0.136349
0.128032
0.089362
0.038070
-0.038747
-0.071173
-0.114484
-0.165151
-0.195161
-0.189537
-0.204253
-0.184279
-0.137306
-0.066592
-0.020131
0.013745
0.062380
0.093709
0.128523
0.139448
0.125069
0.090667
0.062507
0.020541
-0.027272
-0.063680
-0.104378
-0.139079
-0.165229
-0.169436
-0.200931
-0.176391
-0.107055
-0.067410
-0.016593
0.042790
0.041526
0.071703
0.107010
0.080016
0.084025
0.037579
0.029654
0.011958
-0.031822
-0.055368
-0.088961
-0.123064
-0.158073
-0.183620
-0.178913
-0.148590
-0.104139
-0.065374
-0.014664
0.028213
0.061769
0.104025
0.127222
0.112934
0.103059
0.066927
0.038324
-0.005165
-0.051994
-0.094119
-0.119876
-0.162353
-0.193055
-0.201840
-0.162926
-0.109091
-0.062515
-0.028892
0.007495
0.025312
0.071653
0.106702
0.114004
0.149345
0.141761
0.118428
0.084358
0.034647
-0.010902
-0.071453
-0.126498
-0.173769
-0.175604
-0.175765
-0.156373
-0.120630
-0.060273
-0.020917
-0.021098
0.021299
0.081419
0.120103
0.140304
0.159090
0.182379
0.131665
0.067384
0.012739
-0.006028
-0.064628
-0.109418
-0.147776
-0.155547
-0.159033
-0.150842
-0.127397
-0.098946
-0.037016
0.017665
0.066182
0.092256
0.117045
0.131328
0.145255
0.139106
0.106935
0.072291
0.040583
0.007171
-0.028003
-0.081669
-0.126586
-0.142516
-0.179008
-0.166102
-0.139456
-0.087392
-0.057653
-0.022031
0.036767
0.071760
0.109636
0.128740
0.144888
0.134985
0.111811
0.078800
0.060464
0.023801
-0.021779
-0.081938
-0.143721
-0.161691
-0.161319
-0.176564
-0.162774
-0.115865
-0.079160
-0.020223
0.051182
0.079527
0.088716
0.101410
0.116726
0.130416
0.084356
0.053194
-0.003322
-0.025077
-0.058446
-0.094617
-0.140175
-0.153693
-0.151027
-0.140920
-0.113865
-0.075346
-0.039220
-0.024516
0.009019
0.055204
0.093931
0.110899
0.118618
0.113883
0.095743
0.056195
0.019391
-0.029889
-0.081457
-0.096489
-0.152974
-0.137569
-0.146096
-0.139367
-0.115639
-0.083186
-0.049036
0.010969
0.047146
0.064665
0.091307
0.129111
0.143747
0.132732
0.111846
0.062364
0.007348
-0.041691
-0.099276
-0.135827
-0.160445
-0.156614
-0.141343
-0.146280
-0.144660
-0.118525
-0.068913
-0.011019
0.036793
0.075620
0.099072
0.105805
0.126411
0.132437
0.091651
0.048010
-0.004327
-0.052913
-0.092150
-0.112748
-0.138184
-0.172047
-0.179431
-0.178251
-0.134341
-0.107777
-0.070627
-0.006957
0.016916
0.069415
0.121042
0.125005
0.139199
0.137312
0.118869
0.052598
0.013367
-0.050815
-0.093279
-0.127704
-0.149479
-0.138447
-0.143979
-0.149090
-0.119966
-0.087152
-0.041389
0.014159
0.073518
0.094263
0.132871
0.159333
0.168714
0.158055
0.143011
0.096730
0.047235
0.006441
-0.029118
-0.078420
-0.115598
-0.123613
-0.134357
-0.147116
-0.109076
-0.081703
-0.078267
-0.014117
0.039786
0.096683
0.142971
0.159087
0.175340
0.176108
0.155591
0.159882
0.113763
0.058869
-0.001081
-0.038142
-0.076807
-0.100757
-0.104420
-0.092627
-0.101805
-0.057968
-0.011717
0.015201
0.039033
0.080247
0.116372
0.160884
0.178922
0.158803
0.124387
0.094582
0.051487
-0.004485
-0.061354
-0.101181
-0.116915
-0.123446
-0.102360
-0.107711
-0.103141
-0.085333
-0.055099
-0.019794
0.020103
0.067001
0.111808
0.126314
0.111342
0.084832
0.076011
0.067105
0.012231
-0.029315
-0.083816
-0.150530
-0.177739
-0.180695
-0.191485
-0.172582
-0.130481
-0.100946
-0.059898
-0.010686
0.039066
0.077144
0.092341
0.103514
0.091705
0.069601
0.045043
0.013475
-0.023436
-0.060695
-0.108357
-0.176521
-0.168838
-0.187828
-0.211935
-0.194960
-0.193178
-0.157547
-0.091025
-0.042676
0.007877
0.074640
0.112535
0.129381
0.114798
0.101514
0.071826
0.026278
-0.022331
-0.053253
-0.076694
-0.120016
-0.166779
-0.195343
-0.188971
-0.182599
-0.169966
-0.141376
-0.074847
-0.023213
0.006262
0.034697
0.074792
0.099592
0.106095
0.099305
0.076017
0.039907
-0.003761
-0.050099
-0.080129
-0.124280
-0.156868
-0.185745
-0.181996
-0.193685
-0.176025
-0.124819
-0.092780
-0.046956
-0.001412
0.037236
0.061019
0.086708
0.099911
0.087970
0.062955
0.041390
0.006702
-0.043379
-0.090758
-0.124067
-0.128103
-0.136622
-0.120096
-0.096618
-0.063021
-0.004673
0.042499
0.076445
0.123099
0.204614
0.256897
0.316536
0.346109
0.353783
0.353812
0.346531
0.347345
0.360323
0.354262
0.351101
0.361688
0.351298
0.369303
0.425163
0.512616
0.581113
0.649065
0.719730
0.791051
0.851335
0.886320
0.885319
0.884889
0.884271
0.844808
0.778009
0.711973
0.688017
0.596642
0.487989
0.377345
0.289441
0.229924
0.185247
0.167907
0.164289
0.175355
0.198527
0.250835
0.274828
0.304491
0.313780
0.288089
0.260522
0.210817
0.148132
0.099166
0.038976
-0.003769
-0.051096
-0.083722
-0.091668
-0.100030
-0.103099
-0.082792
-0.056658
-0.012777
0.057366
0.112065
0.139063
0.164079
0.167606
0.184317
0.152752
0.131850
0.093230
0.051786
-0.008121
-0.071172
-0.093167
-0.117627
-0.132016
-0.141528
-0.138778
-0.113650
-0.087231
-0.045218
-0.000266
0.051398
0.096421
0.140544
0.161904
0.159388
0.141059
0.115679
0.069187
0.002960
-0.023345
-0.039635
-0.063930
-0.119613
-0.141440
-0.148531
-0.145415
-0.123799
-0.070976
-0.048115
0.005764
0.054001
0.102327
0.143096
0.161750
0.154225
0.156745
0.134579
0.090821
0.066889
0.034880
-0.030280
-0.088425
-0.113976
-0.138211
-0.142582
-0.121995
-0.103129
-0.071049
-0.033100
-0.000272
0.042449
0.097177
0.153023
0.165597
0.167130
0.161808
0.138454
0.117007
0.090580
0.039742
-0.000596
-0.039757
-0.088882
-0.105416
-0.103663
-0.121897
-0.108101
-0.051876
-0.014574
0.035880
0.078416
0.111221
0.132390
0.168721
0.180277
0.176935
0.157980
0.149556
0.093739
0.047900
-0.003714
-0.004212
-0.031632
-0.067758
-0.054011
-0.037116
-0.006505
0.014185
0.044134
0.102645
0.134292
0.171103
0.211991
0.224225
0.251627
0.237277
0.221836
0.183224
0.139163
0.068656
0.044016
0.013105
-0.042116
-0.051935
-0.036339
-0.017533
0.023387
0.049026
0.079607
0.112744
0.154269
0.204395
0.246866
0.256783
0.262640
0.250032
0.233605
0.227015
0.167423
0.117754
0.068501
0.032418
-0.008758
-0.046089
-0.043607
-0.032671
-0.017135
0.032406
0.083390
0.156464
0.195839
0.243026
0.252107
0.270170
0.271407
0.261157
0.236686
0.190424
0.140803
0.100740
0.061129
0.014302
-0.021975
-0.029230
-0.038403
-0.032566
0.001914
0.018045
0.058713
0.113916
0.156161
0.189721
0.228226
0.253813
0.259670
0.244977
0.197961
0.160657
0.123054
0.085529
0.030829
-0.007178
-0.050554
-0.087091
-0.105114
-0.070551
-0.053630
-0.024594
-0.001512
0.045595
0.095408
0.210459
0.236882
0.242452
0.233059
0.221042
0.190808
0.157437
0.106491
0.064341
0.015156
-0.031677
-0.072529
-0.104208
-0.108982
-0.099212
-0.080169
-0.049580
-0.000170
0.044705
0.071898
0.110213
0.161922
0.180050
0.181157
0.177564
0.152164
0.120964
0.063015
0.013000
-0.025995
-0.063942
-0.094885
-0.114419
-0.123529
-0.122348
-0.098645
-0.063165
-0.017287
0.025649
0.073132
0.099628
0.129767
0.168558
0.167492
0.182817
0.119703
0.077048
0.041830
-0.010550
-0.056121
-0.117850
-0.146447
-0.137646
-0.146272
-0.127907
-0.089124
-0.065041
-0.033682
0.013034
0.059829
0.107812
0.132384
0.150766
0.155390
0.151416
0.121780
0.069986
0.007297
-0.025467
-0.042490
-0.075264
-0.126795
-0.160579
-0.160692
-0.128197
-0.078494
-0.062335
-0.035247
0.021700
0.081427
0.137465
0.163622
0.168673
0.155089
0.141946
0.138886
0.112771
0.046658
-0.015596
-0.067802
-0.087359
-0.097580
-0.133169
-0.143050
-0.121646
-0.074119
-0.035824
-0.002769
0.037191
0.070174
0.103092
0.134654
0.146465
0.158138
0.147895
0.147621
0.136068
0.068932
-0.008619
-0.036311
-0.073148
-0.105252
-0.126746
-0.141524
-0.130493
-0.111718
-0.066268
0.003839
0.063293
0.087223
0.122763
0.144389
0.157211
0.174136
0.162657
0.137940
0.101456
0.070641
0.035289
-0.012347
-0.061375
-0.082234
-0.120740
-0.133549
-0.126524
-0.098409
-0.054653
-0.009101
0.034463
0.065597
0.085933
0.119721
0.155138
0.174718
0.165843
0.142682
0.107536
0.063580
0.005299
-0.048026
-0.080629
-0.104393
-0.112897
-0.118394
-0.124092
-0.109000
-0.073706
-0.032646
0.011861
0.056303
0.095848
0.121272
0.145005
0.144391
0.144908
0.118399
0.102115
0.052841
0.018125
-0.013019
-0.067911
-0.102730
-0.123294
-0.137506
-0.143386
-0.111197
-0.091924
-0.035386
0.021997
0.067300
0.110326
0.147921
0.167476
0.149906
0.133865
0.139451
0.104774
0.064499
0.015413
-0.051689
-0.099495
-0.120418
-0.157623
-0.183915
-0.146352
-0.087331
-0.037071
-0.022931
0.003152
0.051834
0.113808
0.136113
0.143163
0.133625
0.139412
0.130543
0.081869
0.018906
-0.048096
-0.081751
-0.106714
-0.116105
-0.143669
-0.133800
-0.127557
-0.112956
-0.073032
-0.040920
0.001874
0.060803
0.100196
0.119954
0.151305
0.160537
0.144422
0.116917
0.090419
0.066630
0.022966
-0.066931
-0.108147
-0.132720
-0.192404
-0.202444
-0.166244
-0.127655
-0.095235
-0.061180
-0.008324
0.035924
0.066048
0.113303
0.158163
0.148885
0.146731
0.132883
0.105398
0.055998
0.011479
-0.053300
-0.092315
-0.114138
-0.146227
-0.165361
-0.155026
-0.119384
-0.090655
-0.062205
-0.019688
0.036023
0.087899
0.128553
0.159618
0.172181
0.159385
0.143148
0.096671
0.048330
0.027498
-0.015109
-0.077486
-0.119069
-0.127404
-0.123913
-0.111815
-0.103014
-0.066497
-0.040743
0.020969
0.084406
0.131918
0.137635
0.152233
0.170867
0.174924
0.128629
0.102028
0.069887
0.022775
-0.022983
-0.051041
-0.092980
-0.107902
-0.090748
-0.087030
-0.065053
-0.044342
-0.016034
0.052154
0.088314
0.110558
0.126251
0.116694
0.147148
0.138970
0.140900
0.112252
0.107771
0.055506
0.005301
-0.045288
-0.066839
-0.088770
-0.098623
-0.084817
-0.055703
-0.021373
0.012173
0.057810
0.119263
0.164356
0.175929
0.199332
0.186466
0.157943
0.123874
0.080519
0.028623
-0.016866
-0.053103
-0.088262
-0.123560
-0.153383
-0.123538
-0.116213
-0.109174
-0.093706
-0.042806
0.009441
0.067714
0.134310
0.156966
0.158688
0.160527
0.145871
0.117264
0.092184
0.056982
-0.012176
-0.071643
-0.106371
-0.141202
-0.157558
-0.182191
-0.175827
-0.163996
-0.117512
-0.077406
-0.036279
0.024774
0.099552
0.129445
0.145249
0.145569
0.132242
0.104967
0.056714
0.000792
-0.040736
-0.099838
-0.133024
-0.149840
-0.165235
-0.166184
-0.182198
-0.165248
-0.113981
-0.067064
-0.012041
0.044759
0.071697
0.109963
0.130092
0.111709
0.079726
0.068914
0.047575
0.025115
-0.016330
-0.061561
-0.105719
-0.143253
-0.182244
-0.188231
-0.183764
-0.163439
-0.143491
-0.097693
-0.033663
0.006471
0.059940
0.089338
0.114958
0.124905
0.122820
0.082384
0.053436
0.002288
-0.024889
-0.047869
-0.098638
-0.141768
-0.172477
-0.166354
-0.167635
-0.155044
-0.134552
-0.116084
-0.045650
0.004979
0.046750
0.087665
0.093926
0.109169
0.084840
0.063020
0.032603
-0.014767
-0.044563
-0.063747
-0.091469
-0.106203
-0.115398
-0.133857
-0.115670
-0.088793
-0.036936
0.032668
0.105065
0.158330
0.207601
0.259016
0.288422
0.302959
0.331555
0.351599
0.355244
0.342607
0.324647
0.283431
0.272878
0.294327
0.316895
0.348737
0.392169
0.439853
0.524805
0.612359
0.681282
0.750379
0.833284
0.905349
0.931036
0.926934
0.911372
0.880952
0.801310
0.741180
0.677673
0.629378
0.548003
0.427738
0.331975
0.264838
0.249636
0.208089
0.186823
0.183282
0.206593
0.236709
0.262682
0.274209
0.281642
0.304291
0.276922
0.236548
0.198190
0.159653
0.076181
0.007083
-0.035290
-0.060441
-0.094533
-0.109689
-0.075267
-0.048939
-0.015329
0.009249
0.055696
0.092817
0.114237
0.147008
0.166472
0.165369
0.177189
0.176309
0.122711
0.065582
0.022353
-0.029644
-0.081535
-0.123917
-0.158943
-0.162563
-0.147485
-0.138167
-0.104872
-0.042372
0.007054
0.082290
0.110531
0.121081
0.134441
0.143587
0.122856
0.122285
0.110494
0.060793
-0.011231
-0.043959
-0.074745
-0.112047
-0.130512
-0.107976
-0.112918
-0.102742
-0.068814
-0.022379
0.017565
0.063001
0.097575
0.112048
0.161922
0.164690
0.142534
0.132174
0.082827
0.061524
0.009759
-0.017083
-0.034890
-0.059017
-0.117556
-0.108503
-0.118306
-0.084480
-0.055413
-0.029762
0.021395
0.068574
0.111704
0.150364
0.161472
0.171861
0.164862
0.142011
0.105099
0.069972
0.036442
-0.010600
-0.054393
-0.084484
-0.099787
-0.123099
-0.102757
-0.087631
-0.052967
-0.020445
0.046403
0.106446
0.154291
0.181527
0.204992
0.211523
0.196065
0.178297
0.174077
0.102615
0.043279
-0.007939
-0.026025
-0.047103
-0.074696
-0.092645
-0.075229
-0.052875
-0.003117
0.036084
0.084079
0.132022
0.192891
0.218654
0.229784
0.235999
0.231755
0.224716
0.169552
0.144601
0.100563
0.055963
0.011668
-0.031476
-0.054969
-0.055707
-0.047906
-0.022565
0.024426
0.076936
0.118317
0.180349
0.217133
0.257764
0.285350
0.270951
0.262653
0.251712
0.187929
0.150949
0.106316
0.076652
0.024776
-0.008785
-0.032566
-0.039012
-0.021849
0.019496
0.051770
0.084138
0.115193
0.169567
0.211756
0.239532
0.253925
0.287071
0.301492
0.289125
0.215091
0.144666
0.105199
0.082052
0.026207
-0.012700
-0.041452
-0.049344
-0.034845
-0.010721
0.045461
0.076161
0.097730
0.150266
0.183808
0.240415
0.258756
0.268311
0.238889
0.209003
0.167655
0.132159
0.099851
0.044546
0.017524
-0.005364
-0.051977
-0.073046
-0.061728
-0.044208
-0.002712
0.038786
0.083913
0.108085
0.174062
0.183787
0.205047
0.228854
0.223479
0.197105
0.150553
0.121126
0.059805
0.006356
-0.034393
-0.066842
-0.089956
-0.083845
-0.091159
-0.100155
-0.045563
-0.007610
0.053576
0.074041
0.098834
0.139620
0.172147
0.167784
0.149900
0.133950
0.090900
0.052026
0.009937
-0.044360
-0.086444
-0.106520
-0.109506
-0.101937
-0.111886
-0.088964
-0.056726
-0.032398
0.016285
0.063453
0.095653
0.130805
0.140389
0.143023
0.134463
0.109214
0.096522
0.036636
-0.008161
-0.043764
-0.087023
-0.124306
-0.154371
-0.154893
-0.134168
-0.097780
-0.072626
-0.033388
0.020102
0.072319
0.091105
0.126548
0.148660
0.157914
0.143297
0.133530
0.115160
0.070906
-0.003680
-0.044372
-0.063517
-0.099305
-0.138932
-0.129005
-0.110879
-0.133520
-0.104448
-0.046749
0.005135
0.045375
0.092787
0.147029
0.157948
0.165568
0.166377
0.125410
0.076486
0.038531
0.007704
-0.038286
-0.078691
-0.120217
-0.146168
-0.154072
-0.127233
-0.104982
-0.078904
-0.022530
0.016830
0.081700
0.126341
0.160102
0.168926
0.158365
0.158350
0.132962
0.083941
0.057968
0.022806
-0.021308
-0.060576
-0.102181
-0.144710
-0.145585
-0.138971
-0.107647
-0.066508
-0.037814
0.010100
0.075253
0.136222
0.169073
0.169226
0.172194
0.165709
0.150580
0.130694
0.095120
0.042826
-0.015546
-0.063061
-0.108708
-0.125837
-0.123963
-0.126870
-0.112856
-0.086679
-0.063898
0.027953
0.065450
0.092001
0.146192
0.149360
0.143718
0.147208
0.144081
0.103910
0.038360
-0.020180
-0.048126
-0.067653
-0.112500
-0.112724
-0.142389
-0.147090
-0.117243
-0.074358
0.015083
0.033852
0.057853
0.100038
0.141265
0.158046
0.179826
0.164448
0.134181
0.081799
0.029294
-0.016226
-0.053298
-0.076435
-0.123610
-0.137371
-0.144942
-0.137673
-0.116963
-0.064109
-0.013967
0.022495
0.060067
0.096470
0.119047
0.149030
0.146176
0.131665
0.126922
0.083524
0.028654
-0.018924
-0.056416
-0.106682
-0.145226
-0.160985
-0.135387
-0.126667
-0.130967
-0.110363
-0.052708
0.004595
0.047432
0.093658
0.127798
0.143022
0.152174
0.132168
0.137881
0.096159
0.034561
-0.030679
-0.063424
-0.101115
-0.120159
-0.155124
-0.163885
-0.157358
-0.115487
-0.079018
-0.049135
0.005916
0.053078
0.100565
0.118168
0.130082
0.162862
0.158770
0.118467
0.083056
0.029431
-0.011205
-0.073569
-0.134330
-0.165131
-0.154311
-0.171400
-0.164644
-0.137376
-0.100193
-0.056043
-0.013071
0.035378
0.080658
0.128405
0.140080
0.142312
0.132469
0.112835
0.080379
0.040003
-0.012962
-0.068915
-0.115475
-0.141057
-0.158438
-0.183915
-0.176866
-0.140950
-0.089806
-0.045062
-0.002511
0.044614
0.093423
0.127092
0.136053
0.138245
0.133887
0.093918
0.064946
0.036057
-0.016534
-0.063918
-0.093125
-0.119774
-0.128716
-0.141608
-0.131293
-0.108285
-0.108611
-0.078159
-0.024419
0.054250
0.128902
0.162276
0.175693
0.174109
0.165712
0.146131
0.097522
0.081291
0.015021
-0.028258
-0.051799
-0.095408
-0.138723
-0.161253
-0.131124
-0.064509
-0.023057
-0.007677
0.017039
0.071110
0.109082
0.125623
0.135142
0.170403
0.171619
0.133133
0.082580
0.067353
0.047916
0.011761
-0.035114
-0.086568
-0.112942
-0.121116
-0.117149
-0.092459
-0.053550
0.006750
0.066270
0.110210
0.140923
0.179289
0.183344
0.176779
0.169852
0.138278
0.081112
0.053670
0.013497
-0.054409
-0.083435
-0.120517
-0.143684
-0.155338
-0.162751
-0.148433
-0.097559
-0.034265
0.023585
0.049299
0.085363
0.113434
0.144989
0.161843
0.150906
0.098039
0.071922
0.044516
-0.011999
-0.060844
-0.104025
-0.161609
-0.167350
-0.171877
-0.145532
-0.133791
-0.131287
-0.118080
-0.058183
0.002532
0.071442
0.102820
0.102679
0.136861
0.122518
0.079047
0.032526
-0.015545
-0.056430
-0.090127
-0.111741
-0.153467
-0.180882
-0.189071
-0.205298
-0.196325
-0.138723
-0.085805
-0.037827
0.014362
0.067071
0.076383
0.111392
0.146147
0.129167
0.099694
0.071497
0.022992
-0.014502
-0.088299
-0.151165
-0.186441
-0.191398
-0.200810
-0.172510
-0.129391
-0.112574
-0.081125
-0.042606
-0.024496
0.020582
0.069733
0.085417
0.097703
0.103291
0.095157
0.063303
0.013007
-0.048743
-0.095908
-0.138864
-0.164567
-0.177233
-0.195191
-0.178879
-0.187739
-0.141179
-0.108480
-0.045506
-0.008487
0.038692
0.058594
0.088757
0.121497
0.113195
0.071313
0.019886
-0.018235
-0.054461
-0.104974
-0.139703
-0.168645
-0.172464
-0.158925
-0.143208
-0.126443
-0.083990
-0.033124
0.031740
0.092343
0.142167
0.186128
0.193774
0.216753
0.230605
0.237434
0.227425
0.189369
0.172061
0.161801
0.145231
0.135837
0.140997
0.181776
0.222831
0.290355
0.351866
0.408434
0.468729
0.556279
0.620886
0.691184
0.758806
0.800512
0.800372
0.807227
0.768265
0.722625
0.669075
0.606647
0.558565
0.521739
0.480024
0.430122
0.392811
0.356198
0.353250
0.354797
0.324464
0.299483
0.292791
0.307053
0.302347
0.266686
0.232019
0.194299
0.140805
0.102986
0.052298
-0.020842
-0.060571
-0.087351
-0.112676
-0.105707
-0.087156
-0.077183
-0.060070
-0.015658
0.049198
0.074668
0.126124
0.132079
0.156958
0.177295
0.154393
0.110533
0.066439
0.007887
-0.052583
-0.053811
-0.102927
-0.134229
-0.140436
-0.139293
-0.133178
-0.112969
-0.096007
-0.076921
-0.013555
0.050422
0.082171
0.117001
0.119110
0.124505
0.138257
0.129758
0.091182
0.031796
-0.017810
-0.066350
-0.112705
-0.150838
-0.169256
-0.164163
-0.176356
-0.166547
-0.128335
-0.070437
-0.021021
0.032105
0.061138
0.078432
0.133061
0.145027
0.137475
0.121397
0.087390
0.047834
0.010936
-0.058424
-0.094708
-0.111630
-0.138759
-0.160246
-0.159797
-0.144199
-0.116052
-0.082358
-0.014323
0.058493
0.098686
0.123846
0.149148
0.146874
0.143222
0.119396
0.077087
0.039863
0.002291
-0.031501
-0.074126
-0.120520
-0.145118
-0.132203
-0.121841
-0.100651
-0.077648
-0.034953
0.010837
0.054634
0.085699
0.141334
0.187630
0.180507
0.185917
0.166384
0.103092
0.054778
0.033053
-0.001953
-0.077936
-0.098554
-0.115428
-0.104709
-0.083458
-0.038424
-0.024679
-0.004285
0.047313
0.099973
0.133717
0.162855
0.188265
0.199578
0.181067
0.160611
0.159179
0.117305
0.049779
0.008245
-0.040447
-0.063580
-0.088034
-0.101758
-0.079331
-0.063098
-0.017583
0.036315
0.078334
0.140026
0.197357
0.230503
0.243314
0.240009
0.219878
0.195595
0.171228
0.132184
0.084844
0.030961
-0.009849
-0.052957
-0.085143
-0.093191
-0.087544
-0.039415
0.004472
0.027171
0.068701
0.125622
0.183597
0.214966
0.230492
0.239658
0.221056
0.198536
0.168111
0.121456
0.082293
0.061041
0.015857
-0.031164
-0.061751
-0.070043
-0.072682
-0.051936
-0.018409
0.025875
0.082751
0.112510
0.154987
0.183868
0.197775
0.212554
0.212377
0.196209
0.157200
0.106612
0.054132
0.017840
-0.030387
-0.060254
-0.086459
-0.103017
-0.092628
-0.071440
-0.050754
0.001602
0.046361
0.078926
0.129040
0.160993
0.171526
0.164398
0.169820
0.140801
0.105693
0.050717
0.009909
-0.031716
-0.052403
-0.076848
-0.121354
-0.145262
-0.126057
-0.085181
-0.049326
-0.024214
0.016737
0.045453
0.073972
0.126290
0.127826
0.153876
0.133012
0.095966
0.065965
0.022502
-0.021987
-0.074008
-0.098815
-0.150635
-0.173990
-0.172860
-0.185949
-0.145026
-0.094349
-0.067448
-0.038063
0.000347
0.052930
0.103461
0.125356
0.132703
0.119707
0.098086
0.047124
0.011972
-0.033434
-0.090445
-0.152880
-0.154604
-0.164519
-0.192514
-0.193353
-0.171410
-0.130015
-0.078791
-0.026895
0.015148
0.044767
0.079313
0.097539
0.104753
0.118412
0.108192
0.057557
-0.001736
-0.053027
-0.098472
-0.131113
-0.165371
-0.202414
-0.232880
-0.208342
-0.164465
-0.122018
-0.078378
-0.019517
0.028460
0.067897
0.091686
0.136095
0.141505
0.107546
0.078696
0.027161
-0.041231
-0.079768
-0.090107
-0.090862
-0.105013
-0.139430
-0.168251
-0.174657
-0.176963
-0.148556
-0.083169
-0.030404
0.006657
0.057726
0.097996
0.104052
0.122066
0.111771
0.111660
0.069748
0.006650
-0.040281
-0.095234
-0.133226
-0.157243
-0.165642
-0.166188
-0.187910
-0.186695
-0.156664
-0.088490
-0.035325
-0.008470
0.040064
0.081455
0.120053
0.117497
0.098346
0.077458
0.046961
0.027070
-0.044417
-0.087521
-0.110669
-0.123678
-0.167671
-0.192773
-0.178083
-0.150558
-0.120610
-0.072061
-0.041483
-0.008472
0.041922
0.082403
0.115761
0.133535
0.109552
0.064739
0.030323
-0.015079
-0.034380
-0.073476
-0.133495
-0.165612
-0.168440
-0.177286
-0.172802
-0.163204
-0.120075
-0.060076
-0.011682
0.034002
0.075465
0.084280
0.092897
0.111205
0.101044
0.044361
0.013442
-0.036495
-0.074893
-0.099865
-0.134336
-0.115915
-0.151348
-0.193048
-0.172127
-0.178419
-0.137252
-0.096620
-0.041244
0.043229
0.085312
0.093176
0.114812
0.122731
0.095767
0.058795
0.047125
0.004690
-0.047956
-0.099087
-0.140271
-0.181148
-0.216913
-0.227505
-0.202391
-0.162401
-0.124716
-0.080554
-0.039479
0.006874
0.058549
0.078070
0.102894
0.116166
0.103510
0.077082
0.049233
-0.005910
-0.054240
-0.111740
-0.165262
-0.191242
-0.203524
-0.209276
-0.212727
-0.198607
-0.158474
-0.113279
-0.068371
-0.008203
0.032389
0.067200
0.092999
0.058695
0.079834
0.099529
0.070991
0.020191
-0.070687
-0.110654
-0.153728
-0.186794
-0.207273
-0.224478
-0.208392
-0.190541
-0.150107
-0.092237
-0.041517
-0.004068
0.020057
0.046590
0.089862
0.090790
0.079673
0.070544
0.036882
-0.001833
-0.066678
-0.109897
-0.141609
-0.188864
-0.231286
-0.244276
-0.214029
-0.191208
-0.152325
-0.088839
-0.040892
0.008610
0.044787
0.078935
0.117495
0.125774
0.114316
0.102878
0.068436
0.016327
-0.037742
-0.085744
-0.141655
-0.147699
-0.132276
-0.159816
-0.164141
-0.129172
-0.102879
-0.064125
-0.052505
0.001207
0.029663
0.076530
0.118637
0.134778
0.118659
0.091384
0.043967
-0.005394
-0.026718
-0.074178
-0.124628
-0.147830
-0.151685
-0.133100
-0.116123
-0.117502
-0.097817
-0.060473
-0.003039
0.069527
0.102319
0.184120
0.176514
0.146495
0.114268
0.083448
0.052172
0.007162
-0.042818
-0.086143
-0.124387
-0.151660
-0.188166
-0.232519
-0.220441
-0.178779
-0.168040
-0.098129
0.001057
0.046753
0.057595
0.089766
0.133955
0.129452
0.084926
0.039686
-0.049082
-0.090834
-0.077101
-0.092503
-0.129164
-0.169843
-0.226054
-0.234465
-0.214564
-0.225871
-0.174308
-0.101441
-0.014582
0.025756
0.026844
0.015160
0.041278
0.067845
0.061239
0.016077
0.024848
-0.018251
-0.089713
-0.124643
-0.170465
-0.188691
-0.215885
-0.225917
-0.233098
-0.211999
-0.182744
-0.136418
-0.103444
-0.064874
-0.020097
0.028649
0.079588
0.065788
0.054435
0.051063
0.032984
-0.019556
-0.069638
-0.124204
-0.173110
-0.232425
-0.251035
-0.255076
-0.240729
-0.201467
-0.145919
-0.126620
-0.099040
-0.031443
0.014679
0.019354
0.049334
0.073428
0.064940
0.039589
-0.003913
-0.041349
-0.083959
-0.133927
-0.182230
-0.210549
-0.235819
-0.222983
-0.234377
-0.201891
-0.174393
-0.142353
-0.084283
-0.037346
-0.001803
0.046439
0.089184
0.075112
0.043799
0.018539
0.005575
-0.046249
-0.128050
-0.164653
-0.188141
-0.248635
-0.286238
-0.294395
-0.233429
-0.176399
-0.128975
-0.059549
-0.020682
0.051446
0.133632
0.163950
0.176271
0.200944
0.200995
0.186414
0.169441
0.133548
0.091294
0.086308
0.075808
0.055301
0.074175
0.097200
0.140468
0.189082
0.250032
0.315159
0.421255
0.496712
0.560061
0.630658
0.700847
0.746385
0.782793
0.769174
0.752808
0.708984
0.659972
0.601106
0.573106
0.536173
0.493026
0.463558
0.425263
0.401095
0.362223
0.345669
0.317714
0.309993
0.295023
0.317184
0.296403
0.264667
0.229123
0.184827
0.151334
0.105311
0.036267
-0.010873
-0.054880
-0.105531
-0.138593
-0.163506
-0.174186
-0.153528
-0.079999
-0.039623
0.004972
0.044213
0.102239
0.129323
0.116623
0.115473
0.082971
0.073004
0.063228
0.008907
-0.043547
-0.091491
-0.135543
-0.172795
-0.191836
-0.211975
-0.202435
-0.180844
-0.085669
-0.039651
-0.045337
-0.062450
-0.028899
0.028135
0.044816
0.113365
0.131627
0.109981
0.049979
-0.017827
-0.071923
-0.146576
-0.165208
-0.172178
-0.204824
-0.201781
-0.183004
-0.154192
-0.124688
-0.102661
-0.044255
0.042726
0.051800
0.061381
0.087953
0.119416
0.092281
0.057550
0.011147
-0.000129
-0.032408
-0.086817
-0.121719
-0.149484
-0.182532
-0.175985
-0.171229
-0.164185
-0.157081
-0.089577
-0.046915
-0.000893
0.056269
0.101532
0.120357
0.099976
0.098481
0.047983
0.014826
0.010509
-0.052725
-0.069975
-0.079256
-0.118785
-0.175548
-0.171612
-0.164535
-0.129512
-0.117622
-0.069379
0.003684
0.034966
0.083665
0.117544
0.137625
0.135274
0.134128
0.110027
0.068018
0.013044
-0.032336
-0.082240
-0.112258
-0.142987
-0.137998
-0.151540
-0.125686
-0.105402
-0.080923
-0.050171
0.009291
0.078720
0.130489
0.183612
0.199906
0.176415
0.155462
0.148061
0.111287
0.093327
0.021903
-0.032631
-0.078476
-0.112617
-0.132604
-0.133454
-0.116249
-0.087845
-0.052668
-0.032316
0.035083
0.129172
0.180813
0.181514
0.206287
0.210719
0.210247
0.198860
0.172684
0.106596
0.057111
-0.000940
-0.052364
-0.065946
-0.078050
-0.098610
-0.076512
-0.068614
-0.029595
0.003015
0.061376
0.110434
0.155220
0.179337
0.202409
0.219014
0.212822
0.206119
0.180894
0.115879
0.060566
0.032945
-0.013327
-0.060007
-0.081227
-0.095742
-0.088724
-0.079548
-0.055661
-0.003992
0.038925
0.106059
0.159571
0.197298
0.206772
0.204831
0.175903
0.154652
0.120389
0.078140
0.091636
0.042444
-0.022411
-0.081516
-0.109418
-0.121456
-0.131677
-0.107585
-0.068987
-0.015543
0.039666
0.080370
0.107731
0.130217
0.152740
0.156815
0.161504
0.126902
0.053355
0.005122
0.002371
-0.032993
-0.087504
-0.122449
-0.149999
-0.172173
-0.160888
-0.123883
-0.092794
-0.042747
0.020259
0.065183
0.091303
0.092059
0.116026
0.133437
0.098715
0.058676
0.025229
0.013113
-0.023704
-0.085087
-0.132189
-0.185764
-0.195021
-0.186599
-0.181742
-0.173015
-0.114098
-0.059640
-0.042820
0.001035
0.060298
0.099130
0.119020
0.112514
0.095083
0.080292
0.052107
0.003760
-0.063123
-0.120650
-0.167441
-0.198402
-0.190627
-0.201084
-0.193650
-0.169151
-0.156749
-0.093551
-0.059611
0.005986
0.030566
0.063982
0.083923
0.100317
0.071801
0.060523
0.054867
0.019798
-0.027682
-0.079314
-0.130227
-0.161992
-0.203373
-0.214818
-0.204538
-0.188231
-0.150104
-0.092707
-0.050845
-0.000233
0.051868
0.085695
0.110111
0.119738
0.110249
0.076713
0.033711
-0.019367
-0.055379
-0.081684
-0.118785
-0.164050
-0.198572
-0.200424
-0.194681
-0.171200
-0.153428
-0.114214
-0.069399
-0.001840
0.054962
0.080687
0.101531
0.109418
0.103022
0.100492
0.047349
0.005232
-0.026707
-0.079522
-0.149271
-0.175465
-0.199612
-0.218098
-0.196683
-0.155422
-0.124474
-0.074600
-0.017977
0.008901
0.028664
0.096209
0.103265
0.105280
0.085001
0.038164
0.019513
-0.039587
-0.062234
-0.073307
-0.113306
-0.145022
-0.167098
-0.193209
-0.180331
-0.155128
-0.131250
-0.082433
-0.013547
0.034325
0.050458
0.076275
0.108020
0.127204
0.141388
0.096190
0.044970
-0.022976
-0.059263
-0.115607
-0.147654
-0.167266
-0.181742
-0.176228
-0.185922
-0.172647
-0.144713
-0.094104
-0.034265
0.020798
0.070465
0.090969
0.104810
0.104490
0.087972
0.092471
0.069620
0.014110
-0.054236
-0.133410
-0.179094
-0.206941
-0.219306
-0.207617
-0.201471
-0.163304
-0.143298
-0.094222
-0.023125
0.014529
0.032319
0.069182
0.090301
0.098318
0.092275
0.072377
0.023509
-0.021373
-0.056280
-0.115332
-0.160031
-0.204176
-0.226984
-0.233107
-0.234217
-0.211357
-0.139836
-0.082761
-0.047509
-0.019780
0.051172
0.119539
0.123413
0.090399
0.076084
0.057690
0.035931
-0.013579
-0.066183
-0.129335
-0.176508
-0.222968
-0.229018
-0.225623
-0.211943
-0.175023
-0.168175
-0.130222
-0.073685
-0.000909
0.060433
0.089474
0.096055
0.093375
0.088401
0.064457
0.045562
-0.001106
-0.082887
-0.125477
-0.173369
-0.169081
-0.222241
-0.205737
-0.206158
-0.185806
-0.160661
-0.110547
-0.081509
-0.056608
0.027756
0.045439
0.064257
0.084581
0.089774
0.056510
0.038025
-0.004404
-0.060061
-0.100881
-0.157411
-0.189074
-0.210372
-0.215958
-0.186457
-0.168704
-0.152404
-0.121382
-0.064245
0.008712
0.011435
0.040405
0.077312
0.073795
0.076896
0.062256
0.024819
-0.025021
-0.074608
-0.099601
-0.140265
-0.165341
-0.178617
-0.191395
-0.176891
-0.128119
-0.082680
-0.070346
-0.021778
0.020609
0.048011
0.090220
0.109186
0.095953
0.092709
0.077718
0.032415
-0.008003
-0.024986
-0.075390
-0.125650
-0.171328
-0.193853
-0.217405
-0.161294
-0.127887
-0.104026
-0.081258
-0.031478
0.027079
0.069332
0.105006
0.131939
0.140596
0.124282
0.089924
0.048509
0.015884
-0.019308
-0.065475
-0.104124
-0.112156
-0.134919
-0.162430
-0.173143
-0.137058
-0.110227
-0.086152
-0.028034
0.044218
0.057760
0.109088
0.119229
0.109661
0.106582
0.086742
0.037822
-0.014520
-0.068636
-0.114120
-0.144345
-0.189763
-0.230297
-0.232260
-0.222476
-0.196946
-0.138476
-0.098874
-0.053491
-0.008772
0.021633
0.071943
0.106414
0.077149
0.069366
0.058916
0.004072
-0.057610
-0.105868
-0.148967
-0.184669
-0.201283
-0.234999
-0.241712
-0.243269
-0.214898
-0.184939
-0.147188
-0.103097
-0.050974
0.007366
0.039399
0.033937
0.052763
0.084505
0.074964
0.015853
-0.046910
-0.095036
-0.124090
-0.172000
-0.212906
-0.241481
-0.252560
-0.253700
-0.223209
-0.205427
-0.162528
-0.109203
-0.049094
-0.014936
0.008669
0.028905
0.083211
0.097261
0.045258
-0.025550
-0.068124
-0.119024
-0.142952
-0.172961
-0.206816
-0.237730
-0.243707
-0.231997
-0.213212
-0.176976
-0.130044
-0.091351
-0.037236
-0.005233
0.030574
0.048336
0.045248
0.033326
0.005514
-0.039788
-0.062176
-0.062491
-0.133452
-0.191453
-0.215211
-0.235926
-0.243473
-0.255113
-0.225041
-0.193040
-0.158979
-0.099886
-0.036606
-0.007650
0.017606
0.039196
0.065627
0.072485
0.041867
0.026658
-0.005900
-0.047918
-0.109952
-0.114056
-0.108411
-0.096738
-0.109306
-0.103851
-0.074260
-0.004019
0.065159
0.132068
0.213530
0.278354
0.333403
0.406083
0.443428
0.467705
0.474859
0.481966
0.449352
0.412191
0.393452
0.417009
0.447741
0.450350
0.476509
0.506787
0.559328
0.605063
0.654996
0.723710
0.777717
0.781751
0.793730
0.791985
0.773250
0.725290
0.624198
0.531254
0.427984
0.312337
0.214829
0.125232
0.025291
-0.039676
-0.064576
-0.063820
-0.051886
-0.009520
0.031027
0.065054
0.126417
0.160666
0.179863
0.170066
0.164006
0.146243
0.103625
0.065437
0.030759
0.006401
-0.018656
-0.094480
-0.141306
-0.165971
-0.181926
-0.186577
-0.185103
-0.175917
-0.139670
-0.047849
0.010961
0.058479
0.087344
0.106702
0.100673
0.086205
0.066441
0.033936
0.028950
-0.041960
-0.091359
-0.131448
-0.177131
-0.206889
-0.215575
-0.219560
-0.191388
-0.149472
-0.101808
-0.037928
0.005212
0.038741
0.057451
0.080644
0.062082
0.069001
0.083551
0.043343
-0.014373
-0.066164
-0.099085
-0.110595
-0.146712
-0.179823
-0.202526
-0.209297
-0.189329
-0.144823
-0.088956
-0.054654
-0.034653
0.017003
0.072755
0.109667
0.124386
0.102320
0.075109
0.038322
-0.016884
-0.065821
-0.131344
-0.162001
-0.177810
-0.183879
-0.184655
-0.184149
-0.177456
-0.137385
-0.086042
-0.025083
0.016140
0.035229
0.070008
0.098517
0.129613
0.129188
0.111171
0.068168
0.007285
-0.054698
-0.095921
-0.125976
-0.173310
-0.162337
-0.170281
-0.176186
-0.125323
-0.093826
-0.081987
-0.006712
0.054287
0.091174
0.120114
0.155531
0.173075
0.161848
0.135956
0.069298
0.025652
-0.013734
-0.056188
-0.096069
-0.122149
-0.138284
-0.142570
-0.139392
-0.113428
-0.080860
-0.042456
0.021216
0.083424
0.131720
0.174974
0.201948
0.222258
0.205387
0.161662
0.132957
0.085801
0.019195
-0.031963
-0.078937
-0.107638
-0.104034
-0.101403
-0.128585
-0.078331
-0.049273
-0.000362
0.063345
0.101325
0.128853
0.168107
0.192677
0.209776
0.201785
0.175101
0.142944
0.114288
0.082934
0.025871
-0.022066
-0.068098
-0.108785
-0.170985
-0.143863
-0.072537
-0.039792
-0.029969
0.033277
0.099481
0.150484
0.182198
0.194261
0.204141
0.198684
0.174553
0.122562
0.067641
0.015915
-0.008231
-0.024349
-0.048489
-0.080096
-0.103066
-0.116685
-0.112865
-0.081375
-0.046444
0.028362
0.080521
0.105219
0.153911
0.199667
0.167262
0.148804
0.108696
0.072258
0.069092
0.025892
-0.032981
-0.088747
-0.113203
-0.124400
-0.124659
-0.133296
-0.146224
-0.148942
-0.111063
-0.031707
0.030647
0.096291
0.149597
0.142108
0.127223
0.105061
0.091286
0.051342
0.019456
-0.008181
-0.059328
-0.132241
-0.154481
-0.182168
-0.190277
-0.173002
-0.141571
-0.117305
-0.058480
-0.026400
0.040128
0.064891
0.084796
0.086967
0.108376
0.114309
0.083536
0.016945
-0.033601
-0.086118
-0.114353
-0.144012
-0.173783
-0.179243
-0.198068
-0.193846
-0.192410
-0.157154
-0.097280
-0.045663
0.004319
0.058210
0.073149
0.091328
0.094111
0.088106
0.064711
0.035428
-0.014581
-0.063748
-0.123589
-0.174356
-0.214027
-0.238786
-0.235267
-0.230147
-0.214351
-0.154497
-0.093118
-0.024593
0.020497
0.053993
0.083446
0.094905
0.072619
0.065618
0.060883
0.037851
-0.005734
-0.062794
-0.108944
-0.155609
-0.188092
-0.220072
-0.221404
-0.205598
-0.175383
-0.146655
-0.098705
-0.063567
-0.020509
0.035264
0.093752
0.110249
0.104074
0.096598
0.090418
0.056752
-0.005227
-0.076224
-0.082984
-0.150778
-0.203956
-0.215639
-0.213223
-0.156502
-0.128529
-0.116406
-0.089093
-0.032740
0.026951
0.053147
0.064657
0.074965
0.103437
0.101907
0.077039
0.053906
0.019060
-0.056073
-0.101035
-0.140936
-0.179577
-0.197405
-0.233974
-0.226364
-0.188089
-0.137628
-0.094254
-0.030433
-0.001677
0.045027
0.097092
0.095141
0.119696
0.107056
0.071077
0.046002
0.020148
-0.036623
-0.095649
-0.120859
-0.121442
-0.171583
-0.204162
-0.212028
-0.174456
-0.134672
-0.087121
-0.022779
0.024280
0.057149
0.085446
0.093578
0.077309
0.079564
0.072455
0.036799
0.017650
-0.028148
-0.123389
-0.145526
-0.160954
-0.180507
-0.179311
-0.170037
-0.132828
-0.101069
-0.073099
-0.064005
-0.010528
0.039530
0.064150
0.088879
0.103874
0.074523
0.050843
0.036467
0.011800
-0.050108
-0.111576
-0.154684
-0.178092
-0.204697
-0.191669
-0.175043
-0.138681
-0.117728
-0.093400
-0.059794
-0.013960
0.038293
0.097432
0.134292
0.102390
0.065020
0.037714
0.016289
-0.019320
-0.056987
-0.114163
-0.161572
-0.209864
-0.190166
-0.181121
-0.193919
-0.175875
-0.144258
-0.097273
-0.039726
-0.008736
0.024645
0.075242
0.102434
0.119307
0.080278
0.050212
0.015379
-0.025912
-0.081796
-0.124556
-0.162302
-0.214236
-0.227260
-0.212117
-0.211899
-0.193587
-0.145287
-0.090120
-0.021276
0.010198
0.029319
0.058495
0.079561
0.097956
0.104797
0.068654
0.028426
-0.010395
-0.051588
-0.100112
-0.160262
-0.189520
-0.237707
-0.239037
-0.218730
-0.192394
-0.154117
-0.103074
-0.059652
-0.010152
0.023083
0.070838
0.078207
0.111300
0.096715
0.080235
0.035925
0.005343
-0.042721
-0.097981
-0.139392
-0.177001
-0.213100
-0.218287
-0.219933
-0.202332
-0.167062
-0.114088
-0.043557
0.013035
0.066351
0.085944
0.112388
0.130832
0.119802
0.103054
0.074202
0.033611
-0.004169
-0.048176
-0.087235
-0.137405
-0.177801
-0.167992
-0.169945
-0.173454
-0.120744
-0.066353
-0.026552
0.030151
0.074351
0.088996
0.107829
0.117553
0.120158
0.102618
0.046129
-0.000885
-0.033980
-0.067483
-0.113837
-0.142288
-0.132083
-0.136244
-0.131086
-0.131984
-0.084481
-0.048220
-0.001023
0.052960
0.100117
0.126026
0.145503
0.131195
0.128628
0.113418
0.070273
0.025461
-0.033163
-0.093915
-0.135344
-0.165101
-0.169756
-0.187707
-0.180532
-0.155057
-0.105740
-0.101668
-0.062807
0.020069
0.062361
0.089771
0.093900
0.103137
0.094470
0.081895
0.046624
-0.030685
-0.103832
-0.117074
-0.151789
-0.181440
-0.189573
-0.200359
-0.194198
-0.194663
-0.130364
-0.103453
-0.050818
-0.009853
0.034428
0.095524
0.087761
0.073271
0.071325
0.039602
0.006390
-0.014796
-0.074478
-0.132807
-0.176305
-0.227975
-0.256681
-0.243505
-0.238770
-0.208181
-0.179751
-0.136610
-0.080464
-0.024983
0.032049
0.074960
0.081958
0.093750
0.077841
0.049139
0.011104
-0.037025
-0.090406
-0.129131
-0.176131
-0.225232
-0.256679
-0.235131
-0.224256
-0.230049
-0.200934
-0.148947
-0.072774
-0.020380
0.015532
0.066464
0.088588
0.102933
0.062485
0.027060
-0.021244
-0.049861
-0.093130
-0.121248
-0.126338
-0.145159
-0.176562
-0.234818
-0.230670
-0.214321
-0.187158
-0.160580
-0.104719
-0.039590
0.023674
0.055914
0.053050
0.063126
0.073974
0.043881
0.013537
-0.043118
-0.109361
-0.178560
-0.173637
-0.205451
-0.245866
-0.232333
-0.211045
-0.193072
-0.126123
-0.082231
-0.046657
0.014387
0.070505
0.116888
0.156455
0.186557
0.195511
0.190693
0.159034
0.121549
0.104044
0.077239
0.076901
0.080739
0.066662
0.107389
0.143116
0.184470
0.256248
0.325788
0.412329
0.496559
0.573705
0.654194
0.707662
0.751321
0.758831
0.764241
0.760602
0.760111
0.727219
0.678837
0.645810
0.584295
0.523021
0.485983
0.483768
0.490190
0.493499
0.467635
0.447184
0.440805
0.422147
0.401732
0.360349
0.316262
0.284895
0.247896
0.195360
0.137347
0.100480
0.041065
-0.007771
-0.062696
-0.098100
-0.107766
-0.103505
-0.083447
-0.055022
-0.020935
0.025285
0.069093
0.109655
0.144368
0.149869
0.123583
0.120523
0.107175
0.059211
0.032077
-0.015198
-0.050029
-0.099068
-0.138867
-0.169473
-0.192968
-0.180335
-0.108719
-0.068310
-0.054605
-0.011318
0.035049
0.071043
0.116521
0.122337
0.107337
0.105111
0.063651
0.056216
0.040259
0.001384
-0.073394
-0.145791
-0.172065
-0.184147
-0.208480
-0.213806
-0.186584
-0.133553
-0.087912
-0.029172
0.010027
0.035733
0.083945
0.123929
0.139944
0.098004
0.059740
0.046007
0.011308
-0.060496
-0.084968
-0.116407
-0.150244
-0.188762
-0.201196
-0.173098
-0.168177
-0.121891
-0.067584
-0.033830
0.020917
0.055548
0.088871
0.115951
0.124694
0.118412
0.107215
0.088239
0.037855
-0.020396
-0.061461
-0.102748
-0.142159
-0.156367
-0.170212
-0.163702
-0.130804
-0.097058
-0.058592
0.002517
0.044940
0.082060
0.136342
0.157887
0.171061
0.144721
0.127235
0.085733
0.053390
0.014460
-0.034734
-0.093094
-0.123405
-0.123489
-0.124076
-0.086675
-0.043850
-0.039586
0.001186
0.047400
0.068889
0.087086
0.144463
0.168538
0.206358
0.192766
0.175674
0.134710
0.084923
0.039261
-0.011980
-0.053502
-0.070501
-0.090606
-0.095810
-0.082394
-0.056075
-0.033196
0.009997
0.059230
0.120695
0.171271
0.213031
0.216951
0.226109
0.224276
0.172902
0.135896
0.104732
0.073440
0.046547
-0.012263
-0.060335
-0.084096
-0.089768
-0.076265
-0.057034
-0.002383
0.044889
0.106728
0.149632
0.180688
0.218092
0.238461
0.240154
0.229683
0.205128
0.164998
0.142456
0.091408
0.027145
-0.013560
-0.053091
-0.074193
-0.083427
-0.096217
-0.059648
-0.028152
0.009093
0.044426
0.092123
0.132301
0.188593
0.226327
0.260609
0.232918
0.201336
0.161207
0.107957
0.065150
-0.006468
-0.034955
-0.055430
-0.073708
-0.090386
-0.114222
-0.101854
-0.034686
0.020407
0.060066
0.080622
0.123478
0.179539
0.193779
0.184126
0.178657
0.166414
0.118992
0.074149
0.012489
-0.051232
-0.077682
-0.111618
-0.145836
-0.159661
-0.144145
-0.088604
-0.045891
-0.030009
0.013305
0.054825
0.087302
0.090124
0.122815
0.160429
0.124388
0.113318
0.092019
0.057156
0.007032
-0.074010
-0.129246
-0.178977
-0.182113
-0.172056
-0.145917
-0.130986
-0.107955
-0.037112
-0.027277
0.039887
0.088579
0.108704
0.137005
0.124832
0.101905
0.089138
0.048090
-0.016264
-0.042322
-0.086248
-0.118370
-0.132403
-0.170217
-0.196848
-0.178161
-0.161518
-0.115319
-0.056928
-0.015345
0.001417
0.056025
0.114630
0.105212
0.103754
0.094497
0.080451
0.050901
0.003488
-0.009414
-0.068010
-0.145636
-0.181309
-0.183618
-0.193201
-0.184146
-0.160390
-0.109070
-0.066981
-0.030759
0.036753
0.060828
0.085973
0.115128
0.142141
0.148524
0.121122
0.071431
0.007431
-0.075585
-0.121802
-0.159984
-0.169751
-0.175975
-0.165841
-0.164019
-0.137021
-0.108372
-0.063883
-0.016494
0.016958
0.050104
0.084799
0.104799
0.133798
0.116568
0.100366
0.078838
0.054411
-0.001024
-0.064953
-0.130140
-0.171354
-0.187920
-0.184135
-0.167984
-0.144451
-0.111309
-0.075634
-0.021752
0.026882
0.074839
0.109946
0.134673
0.150967
0.135394
0.115864
0.081423
0.037334
-0.020241
-0.071380
-0.121474
-0.152468
-0.175061
-0.171004
-0.165418
-0.155722
-0.132918
-0.077287
-0.038722
0.011611
0.068066
0.093751
0.131586
0.134186
0.125638
0.095337
0.079501
0.025833
-0.015913
-0.059339
-0.099846
-0.152893
-0.175341
-0.165795
-0.152453
-0.141926
-0.096922
-0.059886
-0.025053
0.015030
0.063195
0.092652
0.118031
0.136412
0.135266
0.101242
0.068708
0.006226
-0.042420
-0.096902
-0.128029
-0.162498
-0.164959
-0.170919
-0.174532
-0.156848
-0.112093
-0.089255
-0.051767
0.018532
0.070304
0.095118
0.096421
