-0.042030
0.005189
0.048014
0.092900
0.116923
0.116746
0.109897
0.091719
0.056637
0.008668
-0.039279
-0.084506
-0.132052
-0.159348
-0.177729
-0.197702
-0.204167
-0.174952
-0.135503
-0.084912
-0.048452
0.001052
0.062003
0.091103
0.101113
0.122147
0.105090
0.067993
0.048940
0.009614
-0.039306
-0.081573
-0.118270
-0.173129
-0.197148
-0.201648
-0.200031
-0.174859
-0.140304
-0.096061
-0.050716
0.000083
0.052479
0.094609
0.103831
0.108913
0.113695
0.090540
0.037851
-0.001208
-0.043133
-0.090328
-0.134211
-0.155774
-0.184383
-0.206460
-0.197629
-0.181669
-0.150479
-0.101369
-0.058047
-0.012520
0.030479
0.068977
0.094960
0.107618
0.112754
0.090883
0.046792
-0.003064
-0.045824
-0.097168
-0.139503
-0.175363
-0.201071
-0.200147
-0.186781
-0.172150
-0.146638
-0.112100
-0.070412
-0.014551
0.035435
0.074453
0.094379
0.095451
0.098101
0.081928
0.056636
0.022301
-0.051098
-0.092394
-0.121824
-0.151125
-0.173333
-0.194292
-0.191069
-0.162829
-0.134793
-0.094630
-0.042308
0.008896
0.050850
0.091104
0.112243
0.119823
0.113952
0.088819
0.057506
0.030730
-0.006584
-0.062712
-0.103169
-0.134124
-0.154186
-0.162045
-0.159700
-0.142051
-0.099681
-0.047456
0.008908
0.059093
0.097221
0.116557
0.136362
0.140570
0.130560
0.099217
0.076003
0.036630
-0.005877
-0.068310
-0.122327
-0.145001
-0.155027
-0.158161
-0.144394
-0.123035
-0.084186
-0.042987
-0.000189
0.059774
0.104593
0.125890
0.157636
0.170112
0.155944
0.149497
0.129246
0.067989
0.006945
-0.046269
-0.083571
-0.123687
-0.145268
-0.154430
-0.161398
-0.143762
-0.106030
-0.056700
-0.022949
0.025407
0.056491
0.099242
0.119455
0.145373
0.119677
0.082173
0.056384
0.008733
-0.064702
-0.079641
-0.123851
-0.155647
-0.182353
-0.183956
-0.185181
-0.178909
-0.128588
-0.082423
-0.043467
0.001701
0.037694
0.076441
0.090243
0.079537
0.075796
0.077782
0.056107
-0.001841
-0.059170
-0.116283
-0.144330
-0.184515
-0.206951
-0.230597
-0.229858
-0.207518
-0.166135
-0.118910
-0.077730
-0.028671
0.013035
0.040182
0.075882
0.104731
0.095730
0.060306
0.030905
-0.009298
-0.061609
-0.107566
-0.144545
-0.190882
-0.206190
-0.212301
-0.215522
-0.204907
-0.167292
-0.118944
-0.079166
-0.027698
0.009244
0.047716
0.069715
0.079808
0.063264
0.032121
0.014344
-0.016796
-0.064374
-0.109774
-0.161365
-0.195206
-0.214111
-0.229698
-0.240042
-0.186572
-0.142611
-0.117408
-0.077284
-0.009955
0.045705
0.056010
0.080803
0.090595
0.083287
0.060262
0.031422
-0.028279
-0.079451
-0.124767
-0.163095
-0.191743
-0.225357
-0.247021
-0.252700
-0.202394
-0.164280
-0.120755
-0.075540
-0.022047
0.021709
0.073409
0.107027
0.123530
0.131836
0.131296
0.117517
0.083106
0.060209
0.028434
-0.009961
-0.031048
-0.021126
-0.010947
0.017068
0.076725
0.132587
0.208325
0.298795
0.398759
0.465102
0.537220
0.590987
0.641005
0.659193
0.675435
0.696480
0.702508
0.677461
0.658714
0.656384
0.657993
0.651352
0.641481
0.639209
0.668482
0.657105
0.683220
0.708847
0.728758
0.732738
0.703943
0.647610
0.580140
0.518549
0.442216
0.334875
0.256342
0.179755
0.117265
0.061288
0.020666
-0.006575
-0.034045
-0.045431
-0.035174
-0.001951
0.014705
0.056345
0.086784
0.122637
0.164523
0.182717
0.186628
0.164042
0.146264
0.115094
0.057017
-0.000671
-0.034671
-0.077034
-0.120923
-0.154466
-0.157682
-0.138617
-0.108622
-0.075882
-0.031092
0.008189
0.031783
0.065825
0.091788
0.122042
0.143848
0.130604
0.092793
0.068700
0.020252
-0.030578
-0.064211
-0.111850
-0.152550
-0.171228
-0.168926
-0.168484
-0.153781
-0.120293
-0.075920
-0.036014
0.014403
0.066116
0.116676
0.126091
0.130272
0.129027
0.107992
0.073069
0.027257
-0.018992
-0.068976
-0.114717
-0.144424
-0.178697
-0.185647
-0.176921
-0.151505
-0.117006
-0.060868
-0.024365
0.019549
0.081854
0.122496
0.133491
0.150093
0.139090
0.120182
0.086636
0.034979
-0.010832
-0.052849
-0.087500
-0.125558
-0.152564
-0.159562
-0.155862
-0.133781
-0.098935
-0.058247
0.000438
0.058137
0.081957
0.118096
0.151593
0.167021
0.165166
0.143976
0.113567
0.066554
0.009915
-0.031017
-0.075439
-0.106251
-0.119283
-0.126944
-0.125262
-0.109310
-0.081829
-0.032269
0.011256
0.064387
0.121363
0.160905
0.195635
0.213425
0.212608
0.179505
0.148626
0.087334
0.047419
0.004430
-0.036661
-0.057441
-0.096277
-0.094780
-0.083931
-0.066477
-0.036039
0.015182
0.067347
0.111061
0.154225
0.195533
0.226910
0.235338
0.234901
0.204947
0.158353
0.106152
0.065446
0.026418
-0.007257
-0.018467
-0.045420
-0.054906
-0.046273
-0.035929
0.000987
0.056296
0.085331
0.134429
0.167653
0.197167
0.234010
0.248302
0.249903
0.219520
0.178126
0.138570
0.099516
0.037705
-0.013610
-0.030822
-0.051160
-0.061978
-0.049657
-0.029228
-0.013171
0.023587
0.071893
0.128982
0.164171
0.197946
0.230198
0.237509
0.245269
0.236454
0.192019
0.114314
0.058852
0.023474
-0.020962
-0.046506
-0.072437
-0.094306
-0.106231
-0.079910
-0.028128
0.029944
0.072167
0.117348
0.148194
0.187175
0.202724
0.210636
0.205351
0.169958
0.143544
0.096220
0.046682
0.006812
-0.041977
-0.079132
-0.124098
-0.150954
-0.130302
-0.101159
-0.074980
-0.020376
0.008392
0.060582
0.111915
0.150494
0.168327
0.185520
0.171419
0.146263
0.117931
0.065150
0.007286
-0.053226
-0.093501
-0.121238
-0.137106
-0.162082
-0.161675
-0.129268
-0.095957
-0.066451
-0.011141
0.026019
0.062905
0.101416
0.115753
0.120064
0.134462
0.116243
0.080882
0.030811
-0.012416
-0.071058
-0.131085
-0.153235
-0.179773
-0.188671
-0.178124
-0.146916
-0.123358
-0.073869
-0.036252
0.008379
0.058642
0.078511
0.104763
0.118416
0.118716
0.089185
0.051722
0.012320
-0.027059
-0.071211
-0.121059
-0.162362
-0.183955
-0.184090
-0.182689
-0.169160
-0.141827
-0.081986
-0.020314
0.030385
0.058465
0.102466
0.126610
0.133550
0.130332
0.102514
0.069531
0.019808
-0.023892
-0.068048
-0.115993
-0.145091
-0.178529
-0.191012
-0.185363
-0.146751
-0.105166
-0.075010
-0.021095
0.028032
0.069931
0.110877
0.129232
0.133063
0.118745
0.100809
0.067869
0.028376
-0.004731
-0.057466
-0.110732
-0.145447
-0.156442
-0.189116
-0.182840
-0.147085
-0.106108
-0.057802
-0.012870
0.036816
0.075227
0.100836
0.127325
0.135984
0.122797
0.094283
0.069736
0.027850
-0.031053
-0.071783
-0.119468
-0.168261
-0.162990
-0.163374
-0.155372
-0.143563
-0.104404
-0.063197
-0.023547
0.046672
0.095517
0.130750
0.139980
0.133585
0.119203
0.096975
0.077744
0.023040
-0.017353
-0.062311
-0.110665
-0.140554
-0.162402
-0.177430
-0.175678
-0.156442
-0.105126
-0.058316
-0.012215
0.029797
0.071636
0.103425
0.125161
0.134857
0.130517
0.112377
0.068366
0.017398
-0.009526
-0.067477
-0.121886
-0.155627
-0.183133
-0.203244
-0.187583
-0.162011
-0.120171
-0.063872
-0.026170
0.022318
0.065542
0.100783
0.114586
0.130346
0.120245
0.099614
0.069270
0.034209
-0.012256
-0.068249
-0.121350
-0.167692
-0.187983
-0.172960
-0.174764
-0.161767
-0.134867
-0.079953
-0.031648
0.006396
0.055234
0.081980
0.113534
0.134715
0.119630
0.094944
0.063628
0.009884
-0.023024
-0.061858
-0.125133
-0.171157
-0.191524
-0.206311
-0.191944
-0.161824
-0.125301
-0.081737
-0.041997
0.006089
0.048554
0.079920
0.109803
0.113853
0.102925
0.059083
0.051210
0.009557
-0.028384
-0.080857
-0.128046
-0.162995
-0.187177
-0.183447
-0.180052
-0.163612
-0.137365
-0.100910
-0.052932
-0.007849
0.027305
0.088786
0.124469
0.106014
0.084737
0.078867
0.055765
0.004404
-0.038846
-0.078728
-0.123334
-0.157954
-0.172404
-0.182826
-0.187472
-0.166773
-0.130943
-0.097147
-0.071421
-0.021594
0.034777
0.080522
0.088798
0.099501
0.089375
0.072739
0.043492
0.014607
-0.042419
-0.096900
-0.132236
-0.171203
-0.180081
-0.195948
-0.190197
-0.169092
-0.144110
-0.095429
-0.054168
-0.006189
0.039354
0.050148
0.087597
0.119888
0.096968
0.075092
0.036613
-0.021506
-0.051895
-0.091455
-0.125210
-0.176060
-0.187445
-0.194329
-0.191737
-0.182241
-0.141213
-0.109898
-0.037804
0.015692
0.053118
0.073895
0.093678
0.103836
0.099345
0.066173
0.027068
-0.023313
-0.049854
-0.083982
-0.127189
-0.159879
-0.180027
-0.197490
-0.182001
-0.153191
-0.116786
-0.062652
-0.025106
0.019227
0.071177
0.097074
0.120080
0.118370
0.121984
0.088192
0.054901
0.021751
-0.021890
-0.069885
-0.117406
-0.141794
-0.166147
-0.174213
-0.154207
-0.120249
-0.102287
-0.066788
-0.015159
0.022458
0.071897
0.108900
0.133163
0.139739
0.125716
0.104419
0.070125
0.031698
-0.014665
-0.055880
-0.095680
-0.119691
-0.158223
-0.166348
-0.153647
-0.140377
-0.094278
-0.044667
0.000808
0.054571
0.102772
0.143017
0.172261
0.172837
0.162615
0.129263
0.099266
0.054330
-0.014991
-0.055542
-0.095210
-0.132377
-0.166489
-0.183704
-0.181813
-0.152730
-0.138023
-0.079757
-0.010281
0.029960
0.069777
0.084664
0.113572
0.108687
0.105104
0.077859
0.021879
-0.026157
-0.050532
-0.079945
-0.128015
-0.168983
-0.208449
-0.208836
-0.203767
-0.189627
-0.146158
-0.093529
-0.044833
-0.013839
0.031802
0.064640
0.100279
0.117720
0.110290
0.070464
0.027593
-0.024105
-0.069965
-0.121651
-0.161733
-0.187416
-0.199101
-0.218647
-0.223079
-0.201824
-0.182241
-0.122755
-0.088353
-0.037612
0.012702
0.043369
0.056944
0.076051
0.070363
0.052744
0.030531
-0.001615
-0.057551
-0.104266
-0.153387
-0.185623
-0.213932
-0.231729
-0.229383
-0.223907
-0.178036
-0.122211
-0.076783
-0.028262
0.010784
0.054239
0.060319
0.087128
0.075124
0.052861
0.022639
-0.023862
-0.067717
-0.110217
-0.157967
-0.196155
-0.221982
-0.239910
-0.222662
-0.202632
-0.181362
-0.137614
-0.086752
-0.037198
-0.003013
0.033457
0.063464
0.073833
0.063590
0.036407
0.012210
-0.031498
-0.068984
-0.127577
-0.174895
-0.217092
-0.231842
-0.249325
-0.252455
-0.221738
-0.179327
-0.115930
-0.047634
0.007010
0.045350
0.092903
0.134511
0.160579
0.165596
0.170139
0.156992
0.113390
0.064831
0.028856
0.015570
0.010016
0.021547
0.036371
0.079457
0.146034
0.191818
0.271108
0.361376
0.459992
0.542580
0.608082
0.652597
0.702377
0.748405
0.762551
0.776859
0.746697
0.736174
0.726208
0.690230
0.654483
0.611576
0.596888
0.570103
0.575955
0.593365
0.626309
0.616967
0.585932
0.556070
0.530077
0.498665
0.443839
0.380451
0.307408
0.250363
0.193710
0.130667
0.076893
0.036433
-0.007775
-0.039484
-0.080281
-0.081042
-0.050765
-0.029103
0.002941
0.030216
0.071110
0.119042
0.157045
0.164972
0.168840
0.135316
0.108552
0.097634
0.046530
0.005203
-0.041314
-0.079817
-0.121693
-0.167903
-0.178330
-0.176440
-0.142010
-0.117288
-0.084362
-0.031516
0.022269
0.056710
0.078976
0.089445
0.114544
0.115531
0.093204
0.070773
0.021898
-0.025910
-0.080104
-0.121879
-0.164079
-0.176203
-0.195685
-0.182419
-0.174312
-0.126885
-0.076046
-0.025017
0.016209
0.064058
0.097314
0.116847
0.125739
0.111618
0.098504
0.065655
0.019571
-0.034771
-0.083370
-0.126542
-0.151315
-0.161559
-0.176175
-0.168979
-0.145316
-0.106067
-0.057613
-0.027179
0.014771
0.047020
0.076792
0.128884
0.158619
0.156735
0.117582
0.075651
0.025737
-0.017208
-0.061146
-0.095635
-0.121981
-0.150263
-0.166181
-0.157964
-0.149947
-0.107803
-0.061500
0.001914
0.037970
0.075279
0.121001
0.141710
0.151525
0.157783
0.145082
0.104203
0.057771
0.004270
-0.021532
-0.069385
-0.110998
-0.133276
-0.147639
-0.137660
-0.113185
-0.067421
-0.011072
0.039915
0.082653
0.130461
0.166386
0.183759
0.187601
0.190911
0.171052
0.127680
0.077591
0.039841
-0.001156
-0.045237
-0.065669
-0.086288
-0.102314
-0.082419
-0.054268
-0.036127
0.005981
0.052895
0.106576
0.147377
0.207844
0.222696
0.222658
0.221218
0.207687
0.181101
0.126544
0.070290
0.025090
-0.017211
-0.053917
-0.068462
-0.073187
-0.066257
-0.048490
-0.028906
0.023812
0.075886
0.124610
0.170384
0.200293
0.227012
0.243213
0.233483
0.219513
0.179498
0.141322
0.080656
0.031924
-0.007465
-0.028287
-0.050062
-0.072307
-0.058756
-0.044434
-0.024844
0.024389
0.066574
0.125717
0.181904
0.198199
0.210039
0.231871
0.219102
0.197025
0.168443
0.126361
0.073040
0.015339
-0.028448
-0.060791
-0.080954
-0.092969
-0.070371
-0.059727
-0.048204
0.002668
0.049978
0.100505
0.142400
0.172900
0.183030
0.202174
0.191460
0.161477
0.142355
0.094600
0.047812
-0.008315
-0.053211
-0.085650
-0.130241
-0.139647
-0.134029
-0.122633
-0.081035
-0.032235
0.010935
0.050513
0.095997
0.145496
0.165617
0.160311
0.147652
0.130545
0.092449
0.050757
-0.007305
-0.049135
-0.097881
-0.120532
-0.146154
-0.172341
-0.162301
-0.140253
-0.108936
-0.069195
-0.015447
0.025117
0.061627
0.097811
0.122725
0.137589
0.131649
0.106745
0.065857
-0.002761
-0.035463
-0.073796
-0.119996
-0.171473
-0.180938
-0.181036
-0.168853
-0.142201
-0.112227
-0.077780
-0.023022
0.030771
0.056101
0.082940
0.106077
0.121793
0.109372
0.086259
0.054280
0.010736
-0.036076
-0.083420
-0.129926
-0.155732
-0.166824
-0.191381
-0.184313
-0.159198
-0.123557
-0.079658
-0.024778
0.020982
0.056850
0.103248
0.126429
0.124629
0.113320
0.078533
0.046610
0.026053
-0.028442
-0.073690
-0.120892
-0.162233
-0.177004
-0.191065
-0.188142
-0.166615
-0.118971
-0.055774
-0.006360
0.025918
0.066344
0.090621
0.105516
0.131274
0.128574
0.115866
0.075743
0.020913
-0.024009
-0.072607
-0.123358
-0.136247
-0.160082
-0.185238
-0.170888
-0.152142
-0.114565
-0.062073
-0.020310
0.030576
0.063134
0.099365
0.122158
0.138842
0.128346
0.100756
0.060263
0.020408
-0.020277
-0.074721
-0.129197
-0.150089
-0.153350
-0.168302
-0.165815
-0.139073
-0.103395
-0.071717
-0.015201
0.038993
0.069998
0.104560
0.131107
0.151939
0.124922
0.103413
0.067989
0.032997
-0.013762
-0.062923
-0.117281
-0.153368
-0.168863
-0.187150
-0.168410
-0.142242
-0.114433
-0.072399
-0.022904
0.022986
0.053857
0.092946
0.126472
0.145355
0.133183
0.104046
0.052015
0.007232
-0.022334
-0.066148
-0.119364
-0.159585
-0.187091
-0.196230
-0.185631
-0.157518
-0.126797
-0.078440
-0.024928
0.021246
0.064964
0.097630
0.114223
0.117062
0.108586
0.081167
0.057226
0.014338
-0.040536
-0.089317
-0.125359
-0.167800
-0.173673
-0.173486
-0.164514
-0.149675
-0.146031
-0.097291
-0.041006
-0.003250
0.038924
0.065918
0.106109
0.128914
0.105328
0.084892
0.069914
0.023518
-0.033957
-0.073732
-0.112852
-0.144240
-0.165006
-0.209737
-0.184573
-0.166818
-0.146989
-0.091880
-0.029906
0.015686
0.048934
0.073420
0.104783
0.122277
0.115678
0.097771
0.062006
0.005860
-0.036564
-0.089781
-0.135047
-0.171113
-0.195868
-0.207094
-0.202219
-0.175018
-0.139296
-0.090929
-0.051035
0.003128
0.033006
0.080139
0.105176
0.120908
0.110089
0.090279
0.052626
0.006050
-0.048425
-0.085820
-0.146972
-0.178690
-0.194152
-0.199824
-0.197482
-0.171379
-0.150963
-0.111112
-0.046101
-0.002448
0.042774
0.083505
0.098308
0.127979
0.116595
0.097776
0.066637
0.008714
-0.057258
-0.110582
-0.136982
-0.162414
-0.189641
-0.212577
-0.203738
-0.185073
-0.147982
-0.100566
-0.043404
0.000557
0.037371
0.068761
0.101955
0.105873
0.101514
0.084838
0.041974
0.002447
-0.030391
-0.096452
-0.137868
-0.168115
-0.168440
-0.200388
-0.220851
-0.198718
-0.160578
-0.109670
-0.058850
-0.024920
0.023252
0.059625
0.100214
0.109720
0.105137
0.094151
0.061401
0.009562
-0.060618
-0.098310
-0.142091
-0.162561
-0.183701
-0.199339
-0.189119
-0.167868
-0.134535
-0.089737
-0.044386
0.007499
0.040928
0.079881
0.117664
0.150174
0.133260
0.111763
0.072256
0.028265
-0.009716
-0.054840
-0.107922
-0.134484
-0.153294
-0.171104
-0.170983
-0.129358
-0.110228
-0.077562
-0.023884
0.033215
0.059856
0.103471
0.131298
0.149290
0.140408
0.117949
0.095453
0.045060
0.004782
-0.033258
-0.077581
-0.110572
-0.129450
-0.163292
-0.140439
-0.118591
-0.075703
-0.019792
0.005755
0.044686
0.084077
0.128874
0.159585
0.167310
0.147207
0.115527
0.088349
0.046931
0.004966
-0.042224
-0.088373
-0.135143
-0.171042
-0.196281
-0.181376
-0.147405
-0.110604
-0.077457
-0.039150
-0.007152
0.058833
0.097313
0.122527
0.132168
0.123900
0.093377
0.059209
0.006908
-0.041794
-0.085524
-0.128148
-0.158827
-0.176429
-0.205036
-0.209291
-0.179398
-0.155090
-0.105029
-0.070749
-0.037163
0.017049
0.061296
0.096991
0.113333
0.081199
0.053309
0.036528
-0.007216
-0.060563
-0.105652
-0.152078
-0.187371
-0.213425
-0.227342
-0.218377
-0.195582
-0.162929
-0.125245
-0.084711
-0.042238
-0.003670
0.042572
0.076050
0.101169
0.073798
0.065458
0.038414
-0.006590
-0.061426
-0.102363
-0.155436
-0.202538
-0.215533
-0.224050
-0.217381
-0.195709
-0.168658
-0.120737
-0.082768
-0.037468
0.015912
0.049667
0.069581
0.089309
0.079817
0.055368
0.027861
-0.002875
-0.045795
-0.099925
-0.168418
-0.206956
-0.220629
-0.229077
-0.225402
-0.215672
-0.178538
-0.121589
-0.090408
-0.033220
0.016048
0.066757
0.089305
0.086101
0.066450
0.035757
-0.011649
-0.059101
-0.092719
-0.115092
-0.150663
-0.196679
-0.216127
-0.236373
-0.220568
-0.198220
-0.143881
-0.093914
-0.035103
0.020386
0.098628
0.136392
0.163349
0.196889
0.195321
0.187641
0.180559
0.163079
0.133197
0.096360
0.084027
0.086724
0.077645
0.090231
0.170161
0.215257
0.306315
0.391616
0.460880
0.522322
0.594310
0.672018
0.730818
0.781266
0.799748
0.806385
0.831058
0.796471
0.734883
0.691303
0.651549
0.598813
0.565930
0.543202
0.529100
0.507144
0.475349
0.433411
0.433005
0.421598
0.415146
0.385503
0.353456
0.322679
0.289133
0.263775
0.210252
0.159404
0.112790
0.042539
-0.013859
-0.037070
-0.069427
-0.089586
-0.101415
-0.095980
-0.069757
-0.015758
0.035552
0.063195
0.092840
0.130376
0.150502
0.166650
0.158258
0.133845
0.085216
0.045946
0.000447
-0.053246
-0.092919
-0.129678
-0.161356
-0.178469
-0.170539
-0.139493
-0.103531
-0.069281
-0.016137
0.022188
0.061130
0.100751
0.123466
0.132685
0.109694
0.072211
0.047725
0.014328
-0.057808
-0.101457
-0.118602
-0.150819
-0.186691
-0.203318
-0.194060
-0.174994
-0.137315
-0.098122
-0.033063
0.015210
0.052250
0.102396
0.125209
0.140944
0.130081
0.105308
0.073361
0.039480
-0.023827
-0.078571
-0.116284
-0.150222
-0.171528
-0.186763
-0.187106
-0.166535
-0.130713
-0.082183
-0.017829
0.033681
0.064597
0.110545
0.133104
0.138435
0.131500
0.109958
0.079275
0.055369
-0.001779
-0.059720
-0.104122
-0.115268
-0.154956
-0.156519
-0.160714
-0.130072
-0.088737
-0.037935
0.001617
0.043617
0.092837
0.124584
0.147394
0.170340
0.160357
0.134947
0.103787
0.054846
0.016979
-0.018330
-0.053893
-0.087823
-0.109410
-0.134860
-0.140880
-0.114037
-0.063077
-0.032533
0.016347
0.075511
0.125447
0.121529
0.181655
0.194425
0.198215
0.183004
0.161687
0.107388
0.053196
0.002725
-0.042667
-0.072868
-0.087660
-0.095919
-0.089783
-0.064720
-0.031632
0.023694
0.073249
0.105040
0.143914
0.182942
0.213414
0.230706
0.212037
0.193260
0.157670
0.124817
0.078112
0.039021
0.008797
-0.031167
-0.060070
-0.070231
-0.056465
-0.035070
-0.016688
0.019185
0.089521
0.122645
0.169384
0.206971
0.218091
0.228528
0.222133
0.212355
0.187220
0.139626
0.083053
0.031878
-0.005810
-0.034231
-0.061829
-0.102380
-0.081729
-0.053413
-0.021415
0.025203
0.073543
0.133845
0.172260
0.197338
0.216135
0.217683
0.215871
0.191886
0.155367
0.108542
0.062753
0.029112
-0.018411
-0.058307
-0.082370
-0.098750
-0.090685
-0.064218
-0.032538
-0.001281
0.035430
0.091539
0.144682
0.182282
0.195511
0.196068
0.189067
0.167942
0.121004
0.074351
0.037644
-0.003986
-0.053779
-0.086885
-0.120945
-0.150042
-0.141285
-0.120773
-0.094874
-0.048149
0.014494
0.058938
0.098066
0.126753
0.158388
0.170642
0.155237
0.131162
0.096412
0.045732
-0.007026
-0.060394
-0.110056
-0.141448
-0.155483
-0.164068
-0.161489
-0.151538
-0.109897
-0.063321
-0.025940
0.031407
0.079102
0.101304
0.115922
0.131288
0.121049
0.091364
0.057106
0.022748
-0.034544
-0.087785
-0.125650
-0.158055
-0.185386
-0.193996
-0.193481
-0.169616
-0.137622
-0.092671
-0.047308
0.002142
0.058357
0.087858
0.108546
0.121122
0.114975
0.098561
0.079562
0.035817
-0.027633
-0.086313
-0.124140
-0.165578
-0.173999
-0.163782
-0.155466
-0.165376
-0.140719
-0.127658
-0.043126
0.030726
0.041613
0.086954
0.114486
0.132793
0.113495
0.107402
0.075113
0.032915
-0.026006
-0.084829
-0.113526
-0.143008
-0.182956
-0.191635
-0.185727
-0.167292
-0.120072
-0.069846
-0.023640
0.027992
0.067337
0.101880
0.116004
0.123180
0.120342
0.098754
0.062878
0.017912
-0.033342
-0.067773
-0.115905
-0.143800
-0.169640
-0.176745
-0.189657
-0.162696
-0.114249
-0.060330
-0.021816
0.029578
0.049953
0.094166
0.133501
0.149332
0.096483
0.099917
0.070084
0.023126
-0.029862
-0.061364
-0.100372
-0.132774
-0.153641
-0.171632
-0.178491
-0.146202
-0.095486
-0.058777
-0.023906
0.016439
0.062139
0.092622
0.127674
0.142118
0.121985
0.109086
0.071594
0.015354
-0.029637
-0.075087
-0.122357
-0.152388
-0.167412
-0.185932
-0.184118
-0.154916
-0.117822
-0.076192
-0.019166
0.028759
0.065031
0.090839
0.117195
0.137352
0.119149
0.093417
0.060621
0.022237
-0.027260
-0.077852
-0.122159
-0.153702
-0.173213
-0.185621
-0.181449
-0.153696
-0.121303
-0.083013
-0.034087
0.016636
0.068972
0.088508
0.111515
0.127091
0.112456
0.094821
0.050307
0.000307
-0.040430
-0.089713
-0.118606
-0.145976
-0.174258
-0.174688
-0.163245
-0.147595
-0.133279
-0.080663
-0.027665
0.013260
0.045550
0.082246
0.115860
0.114786
0.079426
0.072948
0.052690
0.020773
-0.042879
-0.100014
-0.135755
-0.162939
-0.208711
-0.212732
-0.178842
-0.142960
-0.101843
-0.070503
-0.027960
0.023287
0.056060
0.093601
0.109195
0.099713
0.079626
0.065673
0.030418
0.008902
-0.038557
-0.075255
-0.122487
-0.158044
-0.191826
-0.195272
-0.201604
-0.175901
-0.139299
-0.088474
-0.048172
-0.005417
0.042696
0.070961
0.107728
0.122854
0.117729
0.086880
0.047611
-0.005073
-0.051528
-0.111425
-0.136789
-0.165225
-0.199681
-0.208902
-0.202346
-0.176922
-0.138266
-0.098865
-0.041260
-0.005721
0.040854
0.077011
0.102831
0.116794
0.101362
0.078020
0.032186
-0.013882
-0.056553
-0.098590
-0.146760
-0.173697
-0.191396
-0.194537
-0.175632
-0.158059
-0.145656
-0.103974
-0.044793
0.003193
0.049101
0.078485
0.098205
0.110113
0.098392
0.080367
0.049039
0.017290
-0.051027
-0.105050
-0.149828
-0.169206
-0.180428
-0.199005
-0.190891
-0.180560
-0.136963
-0.082044
-0.059599
0.015978
0.070065
0.103711
0.124204
0.130278
0.119774
0.121944
0.085923
0.031357
-0.017443
-0.050233
-0.102259
-0.136303
-0.154629
-0.164419
-0.163713
-0.138322
-0.099639
-0.056354
-0.023961
0.025318
0.075446
0.116457
0.129740
0.142539
0.130661
0.109487
0.066715
0.025626
-0.025653
-0.063766
-0.091874
-0.139334
-0.136983
-0.136508
-0.127667
-0.119854
-0.082083
-0.041571
0.008850
0.052681
0.100849
0.134974
0.156482
0.172958
0.161130
0.121932
0.095093
0.054069
0.001093
-0.051669
-0.107089
-0.155376
-0.171029
-0.171312
-0.156321
-0.138015
-0.116477
-0.068469
-0.013663
0.042635
0.072542
0.089367
0.110745
0.118313
0.118781
0.086201
0.043300
0.001768
-0.045666
-0.092765
-0.134422
-0.172874
-0.189016
-0.195837
-0.191031
-0.172111
-0.138458
-0.098965
-0.059718
-0.021602
0.002893
0.063619
0.097659
0.086215
0.048091
0.049892
0.043962
-0.001446
-0.064445
-0.109648
-0.142444
-0.193676
-0.225756
-0.240753
-0.213080
-0.188743
-0.156613
-0.123625
-0.083586
-0.025290
0.010109
0.058768
0.083517
0.081345
0.077824
0.053513
0.019955
-0.014735
-0.070792
-0.132330
-0.167908
-0.192080
-0.212338
-0.217397
-0.214625
-0.202454
-0.171995
-0.131638
-0.074274
-0.036693
0.002295
0.032022
0.071495
0.095977
0.101144
0.068928
0.022470
-0.032011
-0.074205
-0.121663
-0.160063
-0.198782
-0.231412
-0.239376
-0.238109
-0.212161
-0.166615
-0.124587
-0.076442
-0.018100
0.031364
0.054718
0.080552
0.082185
0.068161
0.053975
0.006385
-0.043313
-0.086694
-0.130797
-0.172192
-0.185070
-0.213725
-0.238257
-0.229255
-0.187397
-0.144053
-0.112096
-0.051880
0.016748
0.066520
0.119352
0.164278
0.182211
0.202084
0.183825
0.144609
0.123585
0.093125
0.065919
0.058728
0.049526
0.045628
0.076457
0.117607
0.150373
0.216907
0.274373
0.339485
0.412204
0.509274
0.604646
0.666150
0.708734
0.740994
0.739148
0.741578
0.738044
0.708068
0.669743
0.616167
0.575574
0.552678
0.521695
0.513058
0.517048
0.519577
0.506633
0.471325
0.473482
0.460941
0.441703
0.420217
0.377625
0.333795
0.267809
0.212032
0.150491
0.075364
0.007847
-0.039274
-0.087564
-0.119311
-0.135319
-0.137598
-0.117778
-0.072782
-0.041316
0.008457
0.062658
0.111870
0.152670
0.167344
0.171822
0.149260
0.129711
0.083463
0.053994
-0.009392
-0.059849
-0.101141
-0.128537
-0.167348
-0.167137
-0.150623
-0.142062
-0.117738
-0.079507
-0.022490
0.043555
0.063477
0.095492
0.121713
0.110803
0.089064
0.069748
0.034446
0.007357
-0.021012
-0.070686
-0.127798
-0.165570
-0.174228
-0.170989
-0.166091
-0.157434
-0.115846
-0.077095
-0.036668
0.009275
0.046958
0.083406
0.105766
0.124016
0.112183
0.082735
0.050638
0.015786
-0.026595
-0.086770
-0.110021
-0.146590
-0.165067
-0.169732
-0.172135
-0.158457
-0.106834
-0.067576
-0.018181
0.027463
0.074695
0.113844
0.136744
0.124377
0.124926
0.109676
0.082868
0.054801
-0.014876
-0.048327
-0.095727
-0.141199
-0.155758
-0.155864
-0.158449
-0.131502
-0.073620
-0.041709
0.005004
0.063030
0.108968
0.141218
0.154277
0.140498
0.136067
0.120877
0.094402
0.049765
0.014516
-0.038369
-0.081890
-0.114250
-0.129042
-0.135863
-0.137809
-0.111462
-0.050512
-0.010425
0.040028
0.073378
0.108725
0.155812
0.182661
0.184850
0.188374
0.166388
0.135764
0.093103
0.032112
-0.005543
-0.047417
-0.076318
-0.103306
-0.098624
-0.082340
-0.058308
-0.028024
0.016742
0.062569
0.100364
0.145659
0.190728
0.217415
0.224861
0.214072
0.200849
0.170350
0.111509
0.072413
0.029955
-0.015079
-0.042205
-0.069947
-0.073038
-0.076356
-0.043741
-0.015406
0.008225
0.070699
0.127171
0.172803
0.215278
0.236350
0.235393
0.229487
0.205616
0.176270
0.132137
0.084923
0.032426
-0.005061
-0.037374
-0.067841
-0.085569
-0.073411
-0.055143
-0.013675
0.027827
0.074851
0.120124
0.155909
0.184953
0.211843
0.215246
0.213601
0.219720
0.168617
0.111913
0.083560
0.025096
-0.032777
-0.071615
-0.090393
-0.099878
-0.097599
-0.075635
-0.044783
-0.010156
0.040598
0.090678
0.143216
0.174610
0.198407
0.192064
0.180114
0.164419
0.141839
0.096929
0.034136
-0.014145
-0.055104
-0.101690
-0.123882
-0.137743
-0.134688
-0.127721
-0.081736
-0.040881
0.006191
0.056519
0.085924
0.118660
0.151921
0.147419
0.140602
0.118014
0.077333
0.032584
-0.012065
-0.071704
-0.116514
-0.144143
-0.156574
-0.151053
-0.159223
-0.153852
-0.118997
-0.073175
-0.019982
0.025452
0.057755
0.106315
0.134655
0.139129
0.131260
0.122384
0.074643
0.022660
-0.022141
-0.073982
-0.117971
-0.150985
-0.181289
-0.202726
-0.193049
-0.168785
-0.135230
-0.081873
-0.039021
0.014023
0.050826
0.073537
0.103203
0.110752
0.100767
0.083009
0.045340
0.000895
-0.065581
-0.100465
-0.127721
-0.170690
-0.185439
-0.186006
-0.193752
-0.174719
-0.141033
-0.098113
-0.064986
0.030796
0.062046
0.075076
0.111043
0.121525
0.120048
0.095543
0.057372
0.012688
-0.031603
-0.076600
-0.119269
-0.161331
-0.196997
-0.206893
-0.182199
-0.155678
-0.117033
-0.065780
-0.029174
0.008269
0.050850
0.079707
0.108686
0.110318
0.108508
0.099548
0.060827
0.003020
-0.042083
-0.074983
-0.106409
-0.128147
-0.160415
-0.170352
-0.158627
-0.135597
-0.108186
-0.079661
-0.029268
0.029660
0.066801
0.080113
0.116699
0.134486
0.115217
0.098185
0.065504
0.014113
-0.041453
-0.072538
-0.128924
-0.160748
-0.178688
-0.192230
-0.185063
-0.167743
-0.158725
-0.092812
-0.038769
0.016411
0.066331
0.100705
0.121462
0.127492
0.121829
0.108367
0.079695
0.034319
-0.027402
-0.078183
-0.131692
-0.172879
-0.192054
-0.187709
-0.161914
-0.140882
-0.105439
-0.084684
-0.030553
0.019972
0.055888
0.079204
0.104495
0.108807
0.109217
0.091309
0.047012
0.000475
-0.035071
-0.098650
-0.141018
-0.157128
-0.180935
-0.194383
-0.188046
-0.169997
-0.140177
-0.099665
-0.045961
0.011732
0.060613
0.094558
0.110303
0.110152
0.098135
0.085304
0.038871
0.003758
-0.053138
-0.107040
-0.138976
-0.162897
-0.200383
-0.218262
-0.205185
-0.183937
-0.135662
-0.090422
-0.069891
-0.042744
0.034070
0.083724
0.111688
0.118269
0.108138
0.073215
0.024497
-0.015148
-0.057444
-0.116055
-0.154234
-0.195765
-0.224213
-0.236301
-0.219112
-0.193741
-0.131401
-0.078494
-0.035950
0.006422
0.034719
0.071505
0.113015
0.112323
0.099654
0.086127
0.045714
0.009801
-0.046128
-0.100736
-0.145769
-0.183010
-0.211180
-0.217229
-0.202537
-0.183352
-0.151574
-0.104565
-0.060373
-0.019538
0.030130
0.058908
0.067638
0.071198
0.092050
0.082769
0.056810
0.008297
-0.044035
-0.095695
-0.154827
-0.175769
-0.196248
-0.209418
-0.207929
-0.177421
-0.138834
-0.096962
-0.049354
-0.011852
0.037770
0.078891
0.095133
0.098662
0.098146
0.087253
0.055417
0.013867
-0.035932
-0.091596
-0.128375
-0.155007
-0.180242
-0.182202
-0.177716
-0.165522
-0.128913
-0.080271
-0.031297
0.024462
0.072381
0.117430
0.137777
0.130849
0.112487
0.102289
0.059090
0.028500
-0.016903
-0.076112
-0.134534
-0.176066
-0.208223
-0.185814
-0.177176
-0.163273
-0.118285
-0.086580
-0.040653
0.035369
0.082225
0.098188
0.118479
0.140899
0.133171
0.115301
0.085205
0.037049
-0.002644
-0.056054
-0.101290
-0.127043
-0.132851
-0.123041
-0.136137
-0.145586
-0.107413
-0.034205
0.009133
0.045253
0.077945
0.109288
0.136753
0.125411
0.112115
0.095557
0.057742
0.020961
-0.027784
-0.094269
-0.131493
-0.169294
-0.202277
-0.211420
-0.191756
-0.180865
-0.140371
-0.096996
-0.053238
0.003476
0.040295
0.073424
0.091768
0.094826
0.091599
0.048301
0.007907
-0.020919
-0.077013
-0.125384
-0.163575
-0.196950
-0.230253
-0.239344
-0.229274
-0.211691
-0.175827
-0.134976
-0.092761
-0.041721
0.002841
0.032509
0.060937
0.066326
0.058031
0.043135
-0.001676
-0.048224
-0.094590
-0.143534
-0.175706
-0.203768
-0.232269
-0.240067
-0.238205
-0.220580
-0.172966
-0.133319
-0.097538
-0.055950
0.000419
0.044943
0.045619
0.061513
0.069078
0.045153
-0.005321
-0.057054
-0.098335
-0.134671
-0.181604
-0.208866
-0.247665
-0.252539
-0.234285
-0.209543
-0.176135
-0.133294
-0.084152
-0.030580
0.011936
0.042326
0.064779
0.079063
0.060585
0.037263
0.013826
-0.033300
-0.074988
-0.117505
-0.170273
-0.210177
-0.243045
-0.247411
-0.229882
-0.228731
-0.185931
-0.125432
-0.102228
-0.066690
-0.014851
0.021873
0.046416
0.058459
0.087215
0.077012
0.039170
0.004647
-0.026161
-0.063827
-0.095206
-0.102382
-0.110679
-0.100543
-0.081733
-0.044180
0.003057
0.071423
0.123742
0.205993
0.285056
0.344287
0.395447
0.426588
0.450318
0.456883
0.443496
0.440861
0.416987
0.384969
0.392706
0.405933
0.412423
0.435937
0.487004
0.535236
0.598018
0.643581
0.704643
0.759663
0.793454
0.799660
0.815284
0.792544
0.736673
0.663267
0.556049
0.451275
0.327127
0.234309
0.169969
0.076913
-0.011465
-0.046825
-0.069130
-0.078799
-0.055202
-0.003248
0.039585
0.090223
0.125498
0.146086
0.169336
0.176374
0.170131
0.133655
0.080632
0.057845
-0.001514
-0.058667
-0.097391
-0.134906
-0.174226
-0.176434
-0.153936
-0.138985
-0.095391
-0.065331
-0.024762
0.010964
0.058256
0.093916
0.123976
0.094389
0.090110
0.079635
0.051678
0.005268
-0.038035
-0.089442
-0.144614
-0.168929
-0.192541
-0.203317
-0.182429
-0.166310
-0.154214
-0.102978
-0.057733
-0.002996
0.045401
0.085276
0.118227
0.106020
0.100653
0.070740
0.032169
-0.008131
-0.056450
-0.105359
-0.145673
-0.178935
-0.212195
-0.218472
-0.196886
-0.171674
-0.137836
-0.082285
-0.031638
0.012956
0.051483
0.077145
0.104992
0.105146
0.079987
0.068373
0.032497
0.010835
-0.045548
-0.085576
-0.130303
-0.141779
-0.175800
-0.185598
-0.186850
-0.174240
-0.130770
-0.077303
-0.038654
0.016385
0.073352
0.109035
0.144080
0.133751
0.124954
0.116263
0.087636
0.027795
-0.034802
-0.072014
-0.115570
-0.140858
-0.162432
-0.174208
-0.162865
-0.152425
-0.107214
-0.054030
-0.009174
0.034695
0.074843
0.110997
0.141152
0.154490
0.149162
0.121092
0.101122
0.065164
0.021591
-0.024166
-0.064550
-0.108084
-0.126832
-0.127294
-0.133098
-0.108125
-0.068968
-0.027138
0.038511
0.087818
0.116526
0.165487
0.192169
0.190875
0.185715
0.175940
0.148065
0.090980
0.049726
0.004989
-0.045892
-0.086273
-0.113722
-0.106444
-0.113432
-0.093190
-0.046304
-0.002362
0.043459
0.092121
0.132619
0.171263
0.207554
0.228215
0.204868
0.177827
0.148637
0.106623
0.049428
0.003336
-0.041780
-0.066351
-0.094336
-0.094694
-0.100761
-0.072379
-0.028296
0.009168
0.044054
0.087357
0.133469
0.187231
0.214309
0.216663
0.209970
0.195527
0.142813
0.087898
0.044311
-0.005350
-0.052749
-0.080688
-0.109421
-0.122409
-0.117951
-0.091520
-0.057743
-0.012130
0.035589
0.083184
0.126677
0.157979
0.176565
0.175949
0.168345
0.143076
0.116582
0.062178
0.019835
-0.027514
-0.075666
-0.118055
-0.148479
-0.153048
-0.141578
-0.127308
-0.090005
-0.045832
-0.012439
0.042901
0.088373
0.119921
0.137023
0.149321
0.135790
0.114246
0.073725
0.038178
-0.001571
-0.048530
-0.102156
-0.147193
-0.169610
-0.174689
-0.174908
-0.157094
-0.124511
-0.080531
-0.053688
0.012006
0.052727
0.079768
0.110202
0.099545
0.094754
0.076565
0.030317
-0.009103
-0.046776
-0.087547
-0.118482
-0.140626
-0.176806
-0.197677
-0.195807
-0.169824
-0.153307
-0.113403
-0.062406
0.001569
0.046701
0.079059
0.103220
0.097944
0.091107
0.068229
0.038224
-0.010110
-0.072657
-0.121180
-0.159284
-0.187632
-0.193066
-0.215379
-0.220549
-0.190417
-0.146779
-0.105931
-0.057580
-0.024186
0.014644
0.066977
0.092966
0.110667
0.110031
0.076918
0.039148
-0.003618
-0.045859
-0.089223
-0.134400
-0.171039
-0.203871
-0.206976
-0.204469
-0.171326
-0.149158
-0.102341
-0.045299
-0.006353
0.035966
0.072996
0.098523
0.106691
0.097384
0.087539
0.056145
-0.004121
-0.043852
-0.095750
-0.152912
-0.172113
-0.201678
-0.209516
-0.189039
-0.176097
-0.142321
-0.096211
-0.043768
-0.012597
0.028475
0.076535
0.111282
0.115263
0.105273
0.069033
0.048455
-0.012941
-0.065456
-0.106470
-0.152688
-0.199044
-0.203565
-0.161486
-0.158238
-0.178386
-0.161833
-0.108705
-0.068399
-0.009894
0.030448
0.069311
0.118251
0.145026
0.116622
0.083018
0.041253
-0.013045
-0.060327
-0.086398
-0.136657
-0.153957
-0.192060
-0.203225
-0.192304
-0.166147
-0.138397
-0.095243
-0.063999
0.036693
0.052646
0.062200
0.088652
0.101260
0.108133
0.092797
0.055549
0.004935
-0.041776
-0.061988
-0.124098
-0.175623
-0.193717
-0.198006
-0.194689
-0.166952
-0.137230
-0.097577
-0.079534
-0.037061
0.008312
0.068262
0.100825
0.105499
0.094669
0.063566
0.030628
-0.008278
-0.043889
-0.088760
-0.142260
-0.183747
-0.206356
-0.213451
-0.216466
-0.188974
-0.135241
-0.099358
-0.050475
-0.000619
0.037094
0.055144
0.088170
0.100930
0.094375
0.053486
0.010028
-0.029382
-0.061957
-0.112055
-0.153024
-0.191818
-0.218495
-0.217785
-0.213841
-0.181744
-0.134555
-0.094975
-0.059393
-0.014841
0.027634
0.049281
0.071462
0.082636
0.084525
0.066872
0.020980
-0.018825
-0.064009
-0.106968
-0.144358
-0.178662
-0.211636
-0.216365
-0.217180
-0.202198
-0.160674
-0.115873
-0.068860
-0.029524
-0.001816
0.028789
0.055298
0.073292
0.085060
0.076453
0.037614
0.004345
-0.056735
-0.114748
-0.170230
-0.206469
-0.236812
-0.244313
-0.234880
-0.220379
-0.163174
-0.111852
-0.078338
-0.030064
0.021488
0.046061
0.069972
0.079263
0.080206
0.054731
0.012261
-0.029009
-0.061762
-0.110346
-0.160843
-0.201924
-0.227884
-0.246062
-0.211414
-0.166938
-0.133965
-0.102587
-0.064335
-0.019102
0.037898
0.071847
0.094738
0.106610
0.098620
0.071310
0.046263
0.001952
-0.040390
-0.068129
-0.128917
-0.169021
-0.202226
-0.197214
-0.182224
-0.158534
-0.138586
-0.078583
-0.023234
0.019693
0.052295
0.091748
0.107835
0.109591
0.123041
0.105397
0.066994
0.018770
-0.029699
-0.087652
-0.133673
-0.169977
-0.189140
-0.192330
-0.183111
-0.147572
-0.115468
-0.067746
-0.025608
0.022216
0.064293
0.102850
0.113745
0.107496
0.125167
0.114801
0.074065
0.047495
0.006650
-0.051691
-0.098840
-0.144893
-0.175580
-0.178489
-0.170866
-0.168366
-0.141951
-0.089420
-0.034712
0.010574
0.049021
0.074340
0.102862
0.104331
0.094884
0.082945
0.033190
-0.010558
-0.065416
-0.114653
-0.162698
-0.213297
-0.236226
-0.229657
-0.216769
-0.176220
-0.141254
-0.110221
-0.077443
-0.048637
-0.007750
0.028754
0.035809
0.059795
0.086049
0.068206
0.047585
-0.027591
-0.078208
-0.125166
-0.176455
-0.219525
-0.241008
-0.255740
-0.243858
-0.213477
-0.179353
-0.141942
-0.106930
-0.069181
-0.013578
0.023158
0.051399
0.062971
0.044560
0.022672
-0.016057
-0.057554
-0.104767
-0.155447
-0.201358
-0.204751
-0.236598
-0.241548
-0.248021
-0.239220
-0.194992
-0.156956
-0.102160
-0.044335
-0.003323
0.047612
0.055598
0.052327
0.043209
0.020419
-0.004010
-0.056760
-0.099457
-0.133357
-0.183165
-0.226003
-0.254168
-0.269615
-0.257422
-0.214535
-0.181413
-0.161042
-0.110285
-0.043199
0.005316
0.036927
0.049052
0.056327
0.042548
0.017940
-0.014502
-0.056269
-0.086673
-0.135732
-0.200365
-0.253294
-0.264058
-0.263149
-0.260477
-0.246922
-0.216909
-0.161045
-0.104533
-0.054919
-0.002798
0.052727
0.083539
0.089622
0.100813
0.100365
0.074962
0.044539
0.016840
-0.001787
-0.004042
-0.028310
-0.059999
-0.042716
-0.003157
0.049704
0.115133
0.195516
0.272453
0.362915
0.435327
0.492770
0.553171
0.598341
0.623150
0.632939
0.636100
0.638619
0.644630
0.624430
0.605346
0.611764
0.603111
0.594286
0.597263
0.633963
0.626098
0.644225
0.671579
0.703342
0.707468
0.674900
0.619376
0.570168
0.496239
0.420723
0.326278
0.222359
0.141978
0.070658
-0.005477
-0.009501
-0.041661
-0.053912
-0.066606
-0.045516
-0.020046
0.010269
0.047066
0.085915
0.110236
0.125452
0.143270
0.154517
0.150277
0.134636
0.088894
0.033632
-0.015208
-0.062537
-0.106434
-0.154622
-0.180455
-0.188882
-0.178790
-0.152473
-0.130583
-0.088738
-0.040040
0.007329
0.047009
0.085869
0.098003
0.101417
0.099819
0.071580
0.032978
-0.015508
-0.055135
-0.094368
-0.147388
-0.171625
-0.202566
-0.217374
-0.200380
-0.162871
-0.124066
-0.092074
-0.054721
-0.020193
0.030405
0.076633
0.100886
0.108089
0.095401
0.066362
0.035671
-0.006277
-0.049725
-0.107739
-0.154687
-0.190020
-0.200860
-0.193605
-0.187737
-0.156924
-0.133600
-0.102402
-0.059831
-0.006850
0.047812
0.087090
0.098369
0.101095
0.094948
0.076936
0.055025
0.013749
-0.030458
-0.081279
-0.125151
-0.157127
-0.182285
-0.185673
-0.176283
-0.160433
-0.145357
-0.087427
-0.021025
0.015023
0.065013
0.116104
0.129284
0.134234
0.145180
0.118547
0.077891
0.034851
-0.003935
-0.047360
-0.109350
-0.142516
-0.155544
-0.162847
-0.174650
-0.114675
-0.078368
-0.039688
-0.014475
0.036950
0.103236
0.139595
0.154372
0.171693
0.172901
0.152711
0.103103
0.056937
0.025492
-0.015861
-0.069826
-0.103306
-0.118541
-0.134040
-0.131280
-0.108904
-0.070233
-0.022269
0.033188
0.080428
0.141405
0.176405
0.182120
0.185916
0.172774
0.163394
0.141070
0.097964
0.052130
0.003518
-0.036236
-0.074930
-0.100440
-0.110191
-0.086873
-0.058034
-0.026450
0.013105
0.057526
0.107337
0.150753
0.180468
0.199269
0.202108
0.216227
0.189542
0.150322
0.111710
0.065883
0.014676
-0.037088
-0.056748
-0.085411
-0.095463
-0.080575
-0.063898
-0.033958
0.014237
0.060255
0.083705
0.135315
0.186488
0.212172
0.212910
0.196131
0.176228
0.134698
0.111680
0.052729
-0.015636
-0.061136
-0.091827
-0.106597
-0.106500
-0.114009
-0.087481
-0.062348
-0.005034
0.050587
0.087583
0.124435
0.164030
0.178091
0.178388
0.169060
0.140091
0.109864
0.061589
0.018315
-0.039266
-0.087328
-0.109501
-0.142876
-0.158921
-0.156926
-0.148461
-0.106394
-0.053848
-0.000837
0.049057
0.099854
0.125319
0.141123
0.135537
0.124058
0.104132
0.072901
0.026353
-0.024089
-0.066298
-0.111027
-0.146744
-0.178875
-0.186253
-0.185223
-0.161952
-0.125252
-0.074496
-0.035357
0.012216
0.059531
0.090403
0.102179
0.109746
0.102683
0.069807
0.043177
0.006784
-0.048297
-0.105921
-0.163913
-0.194897
-0.196994
-0.198004
-0.198262
-0.171782
-0.126929
-0.083300
-0.032355
0.006564
0.042566
0.074759
0.095523
0.102982
0.096371
0.078268
0.035086
-0.007886
-0.069339
-0.111833
-0.150599
-0.193997
-0.222503
-0.218662
-0.207839
-0.177108
-0.152382
-0.099479
-0.047034
-0.004764
0.041339
0.082733
0.097733
0.118308
0.115693
0.084282
0.031308
-0.009834
-0.049323
-0.093433
-0.133826
-0.157670
-0.184434
-0.206665
-0.203651
-0.182126
-0.150509
-0.101567
-0.047465
0.004190
0.055505
0.077754
0.103098
0.107663
0.109939
0.085148
0.046997
0.009899
-0.043436
-0.090926
-0.137060
-0.175197
-0.194831
-0.198477
-0.183224
-0.151486
-0.120410
-0.084572
-0.047184
0.006484
0.050068
0.088536
0.114795
0.119886
0.112851
0.089409
0.051177
0.000092
-0.050469
-0.093559
-0.144621
-0.182161
-0.218093
-0.190122
-0.188936
-0.174645
-0.146991
-0.090686
-0.042363
0.036663
0.079028
0.089772
0.089754
0.106996
0.100982
0.072909
0.040125
-0.005878
-0.030867
-0.045908
-0.124264
-0.169274
-0.190734
-0.196658
-0.182418
-0.151829
-0.112578
-0.078361
-0.040523
0.001798
0.040557
0.084243
0.091688
0.101265
0.097263
0.073932
0.049161
-0.001423
-0.049401
-0.093205
-0.142466
-0.177530
-0.200064
-0.206220
-0.196760
-0.162271
-0.105613
-0.084913
-0.051601
-0.011852
0.034491
0.068320
0.094353
0.112008
0.101979
0.067135
0.039239
0.001031
-0.053995
-0.119726
-0.144974
-0.193057
-0.204972
-0.210604
-0.177491
-0.145217
-0.116152
-0.089098
-0.039991
0.005132
0.032062
0.065631
0.097596
0.093607
0.085208
0.065161
0.028936
-0.024344
-0.081228
-0.115916
-0.153154
-0.188335
-0.205384
-0.212415
-0.205942
-0.173006
-0.152218
-0.096134
-0.049517
-0.010694
0.035235
0.072720
0.097853
0.088927
0.078041
0.049895
0.017338
-0.028650
-0.068558
-0.120297
-0.169991
-0.193881
-0.196713
-0.208264
-0.220715
-0.199624
-0.153751
-0.098348
-0.070609
-0.022321
0.020288
0.055887
0.083979
0.081738
0.071444
0.064920
0.028340
-0.021304
-0.075228
-0.117425
-0.141077
-0.189357
-0.206855
-0.220708
-0.222795
-0.188469
-0.145583
-0.094536
-0.050419
-0.015575
0.027423
0.065955
0.091520
0.093615
0.092493
0.073170
0.045065
-0.011859
-0.051277
-0.100676
-0.148510
-0.184072
-0.204635
-0.210930
-0.200813
-0.174250
-0.138914
-0.087646
-0.041385
0.007581
0.050580
0.083156
0.108054
0.120286
0.095719
0.080454
0.075074
0.040607
-0.016423
-0.073147
-0.116184
-0.156950
-0.172414
-0.186672
-0.183554
-0.170734
-0.136070
-0.086959
-0.041784
0.001817
0.052393
0.095724
0.136174
0.155279
0.154197
0.111011
0.069604
0.029250
-0.005502
-0.046125
-0.098835
-0.142632
-0.161249
-0.164571
-0.170804
-0.147487
-0.103936
-0.057775
-0.018608
0.024608
0.078477
0.095941
0.109408
0.105795
0.081605
0.063751
0.045153
0.000147
-0.042097
-0.088370
-0.121416
-0.163855
-0.190678
-0.207585
-0.196261
-0.170959
-0.143218
-0.105205
-0.050493
-0.002446
0.036688
0.066806
0.091870
0.084524
0.073165
0.054073
0.022290
-0.035517
-0.086293
-0.125914
-0.168430
-0.204914
-0.219817
-0.223493
-0.227101
-0.217434
-0.178332
-0.121738
-0.114846
-0.070136
-0.025006
0.004685
0.045526
0.057710
0.069995
0.047960
0.007562
-0.056479
-0.108179
-0.144210
-0.181343
-0.216828
-0.246955
-0.243113
-0.239400
-0.222707
-0.189882
-0.160938
-0.110760
-0.049297
0.001184
0.035965
0.046548
0.056408
0.045054
0.019558
-0.021390
-0.047577
-0.079638
-0.144387
-0.192095
-0.223438
-0.237769
-0.244526
-0.231839
-0.203652
-0.184868
-0.158380
-0.108096
-0.054303
-0.020883
0.028186
0.053102
0.054595
0.045001
0.010240
-0.011930
-0.036216
-0.091521
-0.151920
-0.182701
-0.223034
-0.249234
-0.259348
-0.256460
-0.220733
-0.182087
-0.161993
-0.102106
-0.057795
-0.005981
0.031339
0.032741
0.032121
0.023628
0.005716
-0.013469
-0.056171
-0.093852
-0.134878
-0.158173
-0.175010
-0.190281
-0.184157
-0.141263
-0.102166
-0.064317
-0.022122
0.020910
0.088119
0.158495
0.216885
0.269032
0.315151
0.345413
0.347317
0.347721
0.340537
0.337519
0.317164
0.298339
0.293153
0.304242
0.317998
0.363997
0.445114
0.523526
0.594522
0.698881
0.788228
0.855542
0.885510
0.894699
0.911387
0.879189
0.819981
0.765108
0.710198
0.628512
0.532222
0.403368
0.283045
0.212468
0.146316
0.101463
0.088381
0.065440
0.079966
0.118202
0.166974
0.199198
0.228142
0.236903
0.243280
0.216666
0.175320
0.120593
0.072258
0.013996
-0.038996
-0.084019
-0.123503
-0.146528
-0.144035
-0.143822
-0.122633
-0.123452
-0.079044
-0.027517
0.015299
0.060169
0.125566
0.130602
0.129507
0.123201
0.088337
0.033715
-0.003752
-0.037356
-0.090976
-0.141173
-0.173732
-0.197895
-0.207692
-0.198396
-0.181250
-0.150175
-0.101923
-0.053521
-0.021525
0.022866
0.054010
0.089290
0.104677
0.096274
0.065252
0.032614
-0.011557
-0.066651
-0.104842
-0.143688
-0.181838
-0.205501
-0.216512
-0.205290
-0.186633
-0.156415
-0.120443
-0.078611
0.003804
0.048827
0.086923
0.104961
0.107328
0.108066
0.083338
0.044657
-0.003300
-0.064532
-0.124122
-0.149620
-0.179122
-0.184776
-0.212361
-0.196455
-0.161218
-0.122776
-0.082078
-0.026700
0.030221
0.063083
0.087711
0.115277
0.120454
0.120119
0.094374
0.049134
0.020738
-0.022262
-0.073962
-0.125883
-0.157045
-0.169008
-0.169145
-0.163555
-0.146528
-0.113836
-0.061714
-0.013723
0.043988
0.074614
0.107265
0.123687
0.142285
0.146659
0.115855
0.082920
0.043754
0.007677
-0.061365
-0.098747
-0.132073
-0.148138
-0.143774
-0.129727
-0.082930
-0.054178
-0.020511
0.017340
0.064107
0.105192
0.156179
0.162708
0.178761
0.170343
0.155463
0.118112
0.100730
0.058738
0.003667
-0.037663
-0.082223
-0.105742
-0.113893
-0.100172
-0.072122
-0.037185
0.010850
0.058244
0.108378
0.162404
0.193568
0.199744
0.195604
0.181394
0.177210
0.138404
0.105224
0.070653
0.017451
-0.033135
-0.067778
-0.090607
-0.100592
-0.094272
-0.069202
-0.040675
0.007290
0.071647
0.127180
0.147821
0.169694
0.195106
0.200862
0.157092
0.133072
0.119877
0.097592
0.062947
0.019665
-0.036475
-0.078664
-0.107505
-0.106722
-0.103433
-0.075568
-0.032863
0.013331
0.046462
0.101379
0.139223
0.167701
0.185356
0.189689
0.179286
0.156311
0.121524
0.072318
0.016867
-0.021546
-0.071019
-0.115221
-0.134977
-0.137367
-0.132693
-0.102742
-0.078867
-0.044280
0.011432
0.045302
0.075715
0.129137
0.153198
0.165679
0.150703
0.118647
0.075928
0.031303
-0.030952
-0.075443
-0.117108
-0.145478
-0.168733
-0.176571
-0.171025
-0.153114
-0.118734
-0.078571
-0.035188
0.013451
0.052345
0.092055
0.113616
0.104993
0.103913
0.088506
0.059325
-0.001668
-0.054898
-0.095372
-0.132782
-0.176882
-0.194768
-0.212421
-0.203355
-0.169183
-0.144565
-0.095923
-0.054191
-0.016623
0.031775
0.080799
0.098697
0.095308
0.078741
0.059383
0.039974
0.002237
-0.041826
-0.120510
-0.182561
-0.204303
-0.220542
-0.237174
-0.229879
-0.178226
-0.136363
-0.119703
-0.075241
-0.020457
0.019929
0.061279
0.081898
0.100515
0.101540
0.062151
0.024401
-0.006446
-0.051897
-0.107441
-0.149929
-0.185175
-0.208491
-0.220766
-0.215562
-0.190031
-0.157330
-0.110260
-0.065064
-0.014589
0.030237
0.071178
0.088616
0.103444
0.110923
0.086635
0.038532
-0.001521
-0.053838
-0.103497
-0.151034
-0.200729
-0.220799
-0.221787
-0.205568
-0.170890
-0.136649
-0.106276
-0.061073
-0.006185
0.047249
0.089628
0.100611
0.115470
0.107503
0.080532
0.052425
0.016512
-0.028815
-0.092273
-0.130520
-0.196317
-0.215820
-0.229560
-0.187237
-0.163100
-0.137703
-0.084933
-0.044372
-0.012097
0.036639
0.073457
0.089161
0.106526
0.100525
0.070798
0.033129
-0.001632
-0.034356
-0.079233
-0.128205
-0.172535
-0.195698
-0.215848
-0.196411
-0.176433
-0.144937
-0.097223
-0.068060
-0.016229
0.026997
0.081911
0.107618
0.113789
0.102814
0.075320
0.035566
-0.010353
-0.076834
-0.109252
-0.143513
-0.183770
-0.200904
-0.208505
-0.200669
-0.175410
-0.142406
-0.097287
-0.051986
-0.009452
0.025767
0.059620
0.088742
0.101820
0.100314
0.085113
0.031109
-0.023604
-0.058706
-0.103355
-0.148143
-0.183353
-0.205181
-0.218293
-0.215881
-0.191745
-0.153954
-0.108855
-0.063256
-0.015785
0.026657
0.069302
0.086845
0.086953
0.094416
0.066104
0.019625
-0.003910
-0.062920
-0.112399
-0.159926
-0.198110
-0.208759
-0.212252
-0.207669
-0.194371
-0.166162
-0.115003
-0.063101
-0.029874
0.009946
0.044012
0.067775
0.083127
0.079058
0.041736
0.008168
-0.022902
-0.076982
-0.129888
-0.177353
-0.199147
-0.225449
-0.229520
-0.234492
-0.171826
-0.132769
-0.109277
-0.074109
-0.034775
-0.002597
0.043940
0.087536
0.086990
0.064796
0.052025
0.020045
-0.034896
-0.067485
-0.117377
-0.164426
-0.194925
-0.213028
-0.219393
-0.216801
-0.188428
-0.157851
-0.120602
-0.066829
-0.005398
0.022490
0.056711
0.072085
0.077038
0.056153
0.047101
0.019643
-0.021043
-0.062120
-0.102768
-0.155341
-0.205718
-0.224150
-0.219325
-0.218321
-0.176197
-0.139982
-0.106492
-0.051622
0.000156
0.051272
0.079342
0.097269
0.105241
0.106726
0.091271
0.048513
-0.000198
-0.050345
-0.106878
-0.131828
-0.163558
-0.180887
-0.191727
-0.184703
-0.154824
-0.116436
-0.080631
-0.037271
0.015072
0.057569
0.092349
0.106773
0.097167
0.099575
0.078174
0.041578
0.012474
-0.034388
-0.074859
-0.115361
-0.142625
-0.149193
-0.172021
-0.180197
-0.153678
-0.102295
-0.077303
-0.011231
0.048126
0.078474
0.106484
0.114846
0.117452
0.131388
0.100588
0.037778
0.003271
-0.051770
-0.102241
-0.143724
-0.185230
-0.202929
-0.213199
-0.204400
-0.183584
-0.152023
-0.113622
-0.063451
-0.014999
0.016797
0.077251
0.098033
0.095440
0.087131
0.067112
0.019107
-0.019482
-0.074355
-0.127562
-0.182979
-0.214276
-0.237955
-0.241317
-0.238588
-0.215750
-0.184616
-0.137776
-0.095327
-0.045744
-0.009439
0.029432
0.056412
0.055339
0.044281
0.039454
-0.010908
-0.056393
-0.102434
-0.159523
-0.205841
-0.240066
-0.246140
-0.241367
-0.264800
-0.236086
-0.197466
-0.155824
-0.118925
-0.066236
-0.002306
0.031127
0.054695
0.053896
0.038145
0.018555
-0.010605
-0.053656
-0.102503
-0.155907
-0.198170
-0.222919
-0.252631
-0.261322
-0.256212
-0.230838
-0.192804
-0.158457
-0.095706
-0.061948
-0.025670
0.024765
0.050533
0.080471
0.058970
0.025864
-0.005711
-0.040373
-0.084612
-0.141350
-0.182400
-0.214298
-0.249143
-0.271188
-0.268852
-0.246542
-0.195721
-0.145391
-0.112095
-0.070396
-0.023566
0.026700
0.029955
0.035275
0.031170
0.017137
-0.019211
-0.066619
-0.116900
-0.162496
-0.215332
-0.248205
-0.247310
-0.254248
-0.233207
-0.194980
-0.156878
-0.104087
-0.028168
0.041833
0.096516
0.145064
0.157079
0.178375
0.190480
0.205530
0.199075
0.174773
0.155244
0.150765
0.129882
0.125868
0.128067
0.155167
0.207296
0.275185
0.323733
0.390257
0.466057
0.566498
0.665971
0.727098
0.790800
0.818018
0.849014
0.846159
0.812640
0.764782
0.723889
0.642588
0.576328
0.519782
0.476644
0.429847
0.372923
0.325085
0.284001
0.266456
0.264224
0.264052
0.262041
0.270248
0.269647
0.267844
0.254672
0.233437
0.185603
0.123014
0.058476
0.001277
-0.037340
-0.096217
-0.130263
-0.159710
-0.148877
-0.124896
-0.078146
-0.043975
-0.011436
0.024866
0.073336
0.107681
0.123422
0.131923
0.131439
0.087849
0.051910
0.005054
-0.060955
-0.101231
-0.148096
-0.198176
-0.199048
-0.206398
-0.212577
-0.195762
-0.156458
-0.101605
-0.050646
0.001755
0.033574
0.043868
0.091705
0.098127
0.090605
0.077590
0.031290
-0.018434
-0.063407
-0.113500
-0.152129
-0.198724
-0.205005
-0.214043
-0.209632
-0.189561
-0.157561
-0.112501
-0.065510
-0.001535
0.034202
0.073724
0.090583
0.094292
0.079984
0.055524
0.019988
-0.024268
-0.071027
-0.100445
-0.141887
-0.181738
-0.205876
-0.213874
-0.201047
-0.172482
-0.147057
-0.087998
-0.029862
0.020440
0.055974
0.090180
0.109560
0.119553
0.114738
0.084167
0.043117
0.006092
-0.047055
-0.087978
-0.126390
-0.156734
-0.170795
-0.189212
-0.184573
-0.157272
-0.120232
-0.082344
-0.028915
0.033865
0.075991
0.103905
0.122285
0.124367
0.120315
0.093111
0.066384
0.026904
0.001544
-0.049105
-0.103541
-0.132292
-0.145142
-0.153153
-0.146466
-0.126559
-0.097626
-0.043514
0.005374
0.051809
0.089820
0.130640
0.158376
0.170787
0.157842
0.144986
0.115578
0.079486
0.032791
-0.012992
-0.054113
-0.117581
-0.135426
-0.127661
-0.111939
-0.113142
-0.052865
-0.002957
0.049766
0.089724
0.126196
0.156124
0.180322
0.203803
0.179435
0.133773
0.103158
0.085425
0.057098
0.011568
-0.018451
-0.057416
-0.085411
-0.107747
-0.088863
-0.071326
-0.038193
0.003498
0.062484
0.111986
0.150967
0.180125
0.197074
0.195343
0.192915
0.174417
0.139028
0.095738
0.058159
0.004969
-0.041830
-0.079521
-0.104444
-0.110476
-0.110073
-0.090067
-0.043232
-0.008980
0.026625
0.088794
0.139210
0.183936
0.182219
0.189818
0.181489
0.154568
0.115371
0.071872
0.029353
-0.021603
-0.058377
-0.085515
-0.106026
-0.130345
-0.135134
-0.100113
-0.074402
-0.034774
0.012739
0.064454
0.102660
0.138972
0.157902
0.158795
0.144396
0.115153
0.077309
0.040238
-0.013981
-0.056763
-0.107747
-0.145722
-0.164751
-0.154968
-0.156610
-0.146525
-0.124356
-0.075788
-0.030209
0.017180
0.076023
0.107766
0.126472
0.121535
0.095739
0.061229
0.039370
-0.000376
-0.066829
-0.101685
-0.135479
-0.155075
-0.182203
-0.205807
-0.200521
-0.177023
-0.137028
-0.102736
-0.056243
-0.017548
0.028226
0.069453
0.097740
0.108971
0.102056
0.083102
0.037311
-0.002611
-0.051704
-0.102742
-0.167506
-0.187483
-0.217230
-0.229073
-0.228826
-0.204105
-0.163469
-0.119806
-0.070325
-0.018989
0.037576
0.072551
0.076593
0.088241
0.100086
0.063731
0.013878
-0.024031
-0.067910
-0.123191
-0.157027
-0.184537
-0.203617
-0.214180
-0.210364
-0.188197
-0.144440
-0.109279
-0.063726
-0.018679
0.027161
0.060093
0.083061
0.085178
0.094609
0.080596
0.032536
-0.006678
-0.057588
-0.106261
-0.149758
-0.186086
-0.212297
-0.209747
-0.185375
-0.152308
-0.134254
-0.108721
-0.065768
-0.014186
0.047318
0.102452
0.119982
0.119190
0.090039
0.064326
0.031736
0.002395
-0.045314
-0.097721
-0.142136
-0.179384
-0.199082
-0.198408
-0.195275
-0.178167
-0.139677
-0.085466
-0.042933
0.001117
0.041547
0.078884
0.110482
0.113085
0.111900
0.088977
0.043803
-0.004126
-0.051187
-0.102418
-0.159517
-0.204304
-0.205992
-0.218308
-0.201730
-0.172836
-0.142593
-0.096796
-0.045295
-0.003258
0.038780
0.088945
0.105468
0.100153
0.094804
0.071452
0.040873
0.000524
-0.037331
-0.076696
-0.141619
-0.182493
-0.209030
-0.218212
-0.199767
-0.176532
-0.134559
-0.099794
-0.060865
0.001039
0.043043
0.071536
0.096467
0.085341
0.080420
0.071815
0.047532
-0.008206
-0.063334
-0.099888
-0.141505
-0.174276
-0.200933
-0.206716
-0.204077
-0.172128
-0.147559
-0.106440
-0.056521
-0.001883
0.039940
0.075981
0.081378
0.101590
0.089597
0.050676
0.035081
-0.019432
-0.075937
-0.123305
-0.155080
-0.187319
-0.204002
-0.207870
-0.225952
-0.203984
-0.155762
-0.112451
-0.073473
-0.018478
0.025708
0.069641
0.084920
0.093146
0.079932
0.055033
0.025834
-0.014434
-0.059413
-0.100538
-0.152158
-0.187900
-0.201711
-0.220689
-0.208734
-0.181133
-0.154802
-0.110603
-0.063657
-0.015904
0.033432
0.059390
0.075021
0.086205
0.086572
0.078439
0.035511
-0.028909
-0.076955
-0.109738
-0.149223
-0.185673
-0.222913
-0.222546
-0.205628
-0.196929
-0.151890
-0.105246
-0.071148
-0.019209
0.030878
0.058430
0.067741
0.086132
0.075945
0.045827
0.016346
-0.030072
-0.069397
-0.114236
-0.157072
-0.197737
-0.215780
-0.234375
-0.235109
-0.201256
-0.160911
-0.112278
-0.071779
-0.019283
0.039904
0.065978
0.082708
0.093353
0.077921
0.059707
0.017055
-0.023167
-0.077325
-0.119757
-0.149743
-0.188283
-0.197444
-0.215392
-0.206179
-0.178773
-0.144449
-0.100198
-0.055986
-0.001410
0.052968
0.093987
0.109771
0.115600
0.101230
0.083974
0.038951
-0.003637
-0.043382
-0.087583
-0.131510
-0.154869
-0.175547
-0.190218
-0.177351
-0.165310
-0.113289
-0.069979
-0.035918
-0.003954
0.041473
0.080491
0.102828
0.116445
0.118180
0.101057
0.071630
0.036716
-0.006986
-0.073014
-0.117509
-0.156817
-0.178988
-0.192347
-0.170802
-0.149889
-0.099881
-0.070443
-0.003408
0.055990
0.097042
0.131548
0.127208
0.127816
0.122461
0.106853
0.051618
-0.011016
-0.050152
-0.100404
-0.133962
-0.169945
-0.198901
-0.203139
-0.187923
-0.171236
-0.137183
-0.092076
-0.047842
-0.015313
0.033212
0.066099
0.088069
0.081217
0.060769
0.050082
0.028980
0.004232
-0.049415
-0.117263
-0.171832
-0.208561
-0.220131
-0.216596
-0.225117
-0.232764
-0.187673
-0.155120
-0.092592
-0.030638
0.022875
0.053247
0.070799
0.067979
0.053221
0.031340
-0.000495
-0.046994
-0.095985
-0.142753
-0.186110
-0.221729
-0.240737
-0.250544
-0.240112
-0.206806
-0.167305
-0.127375
-0.084063
-0.042238
0.004784
0.036382
0.058177
0.073836
0.052565
0.030916
-0.002322
-0.032113
-0.080480
-0.143289
-0.192571
-0.221329
-0.263720
-0.252659
-0.217489
-0.195791
-0.171353
-0.132354
-0.097922
-0.045742
-0.000349
0.033184
0.052755
0.074521
0.063427
0.041132
0.000834
-0.038530
-0.082829
-0.137317
-0.177910
-0.214985
-0.237208
-0.260729
-0.237422
-0.211698
-0.176170
-0.147623
-0.102478
-0.047110
-0.002560
0.031647
0.046453
0.036201
0.017773
-0.009665
-0.030581
-0.086410
-0.114591
-0.127958
-0.143519
-0.167074
-0.199222
-0.197061
-0.167110
-0.129563
-0.088569
-0.035845
0.040963
0.091232
0.139035
0.191266
0.233549
0.245374
0.255336
0.257351
0.247947
0.233137
0.224896
0.201897
0.184303
0.183393
0.199984
0.205850
0.247092
0.300249
0.361394
0.442576
0.538411
0.631787
0.694070
0.747702
0.808954
0.845212
0.835095
0.809700
0.777036
0.717561
0.656840
0.581962
0.511143
0.445378
0.355530
0.263218
0.234349
0.198408
0.182271
0.174410
0.172462
0.180405
0.203197
0.209898
0.211585
0.197068
0.182832
0.162326
0.120200
0.067644
0.012615
-0.034810
-0.079722
-0.120890
-0.129649
-0.136186
-0.136101
-0.118756
-0.085913
-0.043514
-0.004404
0.036837
0.081334
0.106241
0.131631
0.136077
0.119236
0.095531
0.058192
0.019044
-0.028241
-0.075121
-0.135720
-0.179603
-0.195104
-0.194576
-0.185348
-0.164662
-0.130713
-0.097083
-0.046091
0.005485
0.047902
0.087217
0.110004
0.105010
0.090601
0.069548
0.029747
-0.017679
-0.059300
-0.099832
-0.142343
-0.173422
-0.193549
-0.203950
-0.201591
-0.174252
-0.139941
-0.100074
-0.049419
0.001184
0.038070
0.069691
0.081894
0.107863
0.102113
0.080338
0.048795
0.021192
-0.029436
-0.071873
-0.118236
-0.146930
-0.181766
-0.203092
-0.180089
-0.165498
-0.117639
-0.062793
-0.016547
0.032071
0.069049
0.101716
0.125272
0.135573
0.122291
0.091952
0.057620
0.015722
-0.029344
-0.074125
-0.119212
-0.140980
-0.163264
-0.174366
-0.159921
-0.135427
-0.114712
-0.077980
-0.005088
0.047476
0.098793
0.122590
0.146978
0.161421
0.148125
0.131343
0.097315
0.055018
0.008012
-0.048297
-0.088342
-0.126555
-0.144403
-0.153085
-0.136148
-0.117729
-0.082422
-0.013898
0.048100
0.086030
0.115919
0.149309
0.176613
0.194859
0.184549
0.163005
0.133716
0.085636
0.042333
-0.007204
-0.053110
-0.082593
-0.099922
-0.098925
-0.081353
-0.053074
-0.036643
-0.010568
0.043591
0.083760
0.125588
0.167751
0.206370
0.229172
0.205218
0.184602
0.146120
0.093728
0.064128
0.017027
-0.030964
-0.065360
-0.085998
-0.095542
-0.080269
-0.062576
-0.027180
0.008834
0.049245
0.099897
0.156620
0.191105
0.212369
0.220679
0.220262
0.200061
0.162026
0.116539
0.062158
0.011400
-0.061687
-0.088817
-0.082447
-0.084924
-0.071251
-0.067703
-0.039350
-0.011578
0.038311
0.097415
0.149151
0.175251
0.196444
0.203988
0.190915
0.171541
0.134425
0.088294
0.050949
-0.010518
-0.045082
-0.075735
-0.111414
-0.129581
-0.097164
-0.085496
-0.051275
-0.020026
0.023648
0.064994
0.114447
0.148437
0.162553
0.173128
0.156368
0.131053
0.091009
0.049264
-0.000105
-0.049040
-0.087018
-0.123397
-0.154090
-0.155307
-0.142689
-0.126219
-0.095353
-0.048625
-0.003211
0.034527
0.076149
0.108724
0.127875
0.126098
0.114212
0.091461
0.059952
0.016649
-0.032154
-0.090185
-0.129265
-0.160679
-0.184944
-0.189426
-0.174465
-0.167046
-0.135412
-0.100235
-0.065066
-0.010133
0.046605
0.081997
0.098949
0.114176
0.095469
0.071677
0.042125
0.001929
-0.043775
-0.110113
-0.151256
-0.172177
-0.184689
-0.185005
-0.195242
-0.180925
-0.136737
-0.097307
-0.051658
-0.004763
0.043097
0.072662
0.092593
0.107606
0.094062
0.070532
0.039166
-0.016767
-0.062792
-0.080638
-0.135514
-0.182228
-0.192683
-0.214592
-0.202907
-0.162855
-0.129032
-0.084714
-0.033915
0.012839
0.056981
0.087513
0.117036
0.137545
0.108759
0.059463
0.028385
-0.007796
-0.048417
-0.092226
-0.134268
-0.166672
-0.197280
-0.216211
-0.218718
-0.155229
-0.119745
-0.092294
-0.050688
0.001310
0.055126
0.092063
0.112139
0.112035
0.100532
0.084513
0.060738
0.017988
-0.046124
-0.084778
-0.129251
-0.163294
-0.179869
-0.190647
-0.175614
-0.154541
-0.128611
-0.101275
-0.051267
0.013613
0.064950
0.089376
0.113327
0.112328
0.097329
0.091024
0.065362
0.005960
-0.045967
-0.095813
-0.135662
-0.171202
-0.190719
-0.188703
-0.169922
-0.145972
-0.120924
-0.086872
-0.055043
-0.004557
0.057028
0.086247
0.108160
0.119852
0.103062
0.082730
0.044276
-0.009407
-0.062141
-0.107777
-0.153730
-0.169713
-0.187140
-0.204242
-0.189517
-0.162733
-0.138321
-0.095336
-0.040988
0.017762
0.055881
0.087363
0.111623
0.121147
0.111181
0.086235
0.045014
0.002482
-0.050414
-0.102652
-0.142879
-0.182607
-0.194873
-0.199331
-0.189177
-0.177262
-0.157460
-0.114739
-0.054107
0.011220
0.039982
0.079335
0.104877
0.086910
0.071207
0.069445
0.046174
-0.002877
-0.061030
-0.104639
-0.141822
-0.181576
-0.223804
-0.229461
-0.203013
-0.161289
-0.131778
-0.098455
-0.053689
-0.002784
0.043181
0.069728
0.088286
0.100016
0.087642
0.062088
0.021542
-0.013594
-0.049548
-0.106137
-0.164870
-0.187769
-0.203852
-0.209461
-0.187222
-0.167272
-0.160026
-0.123814
-0.066487
-0.013555
0.028984
0.063882
0.084110
0.095006
0.072042
0.052967
0.015787
-0.024657
-0.081065
-0.114634
-0.157250
-0.198143
-0.219546
-0.218844
-0.206482
-0.164918
-0.130018
-0.110409
-0.082482
-0.033002
0.014895
0.058312
0.085155
0.098825
0.077185
0.056581
0.017176
-0.034567
-0.086343
-0.139742
-0.190653
-0.214894
-0.224860
-0.229597
-0.209888
-0.167361
-0.131618
-0.100976
-0.064991
-0.011859
0.040960
0.064763
0.089547
0.115043
0.096517
0.051634
0.021927
-0.021653
-0.074415
-0.110975
-0.148490
-0.188877
-0.193501
-0.197743
-0.190192
-0.155437
-0.119016
-0.073903
-0.028500
0.011260
0.065615
0.097208
0.122140
0.129894
0.114317
0.094994
0.052621
0.016666
-0.035256
-0.089446
-0.142992
-0.182258
-0.190893
-0.202462
-0.187404
-0.166216
-0.133526
-0.092732
-0.042341
0.014579
0.063953
0.097835
0.129077
0.141720
0.110575
0.109646
0.085753
0.032009
-0.018782
-0.067276
-0.098724
-0.107670
-0.129316
-0.148210
-0.145035
-0.118133
-0.108008
-0.082012
-0.022438
0.017331
0.050988
0.079740
0.097492
0.101520
0.095176
0.080859
0.051201
-0.000693
-0.042313
-0.086464
-0.137981
-0.181687
-0.216206
-0.219446
-0.232497
-0.195898
-0.145465
-0.096124
-0.043889
-0.008433
0.043296
0.074536
0.082578
0.087804
0.072048
0.049777
-0.005449
-0.041818
-0.092381
-0.136648
-0.177927
-0.209501
-0.248180
-0.251228
-0.228417
-0.204629
-0.174077
-0.134014
-0.088545
-0.049861
-0.000015
0.035812
0.061147
0.067548
0.046848
0.019460
-0.018729
-0.070053
-0.087993
-0.137133
-0.215327
-0.220699
-0.231649
-0.239153
-0.235756
-0.216600
-0.172107
-0.129085
-0.080026
-0.033092
0.017396
0.038200
0.053645
0.056205
0.051650
0.028173
-0.004886
-0.053470
-0.093941
-0.130368
-0.175005
-0.223230
-0.254208
-0.261740
-0.240286
-0.216185
-0.186461
-0.135698
-0.083201
-0.050016
-0.007062
0.037523
0.061692
0.073711
0.057918
0.028595
-0.004895
-0.042652
-0.100314
-0.144000
-0.196301
-0.230982
-0.256458
-0.281800
-0.267061
-0.231165
-0.173735
-0.140273
-0.092802
-0.050650
-0.004120
0.028885
0.064450
0.072055
0.076585
0.056377
0.035139
0.014812
-0.040681
-0.086869
-0.112766
-0.137522
-0.139666
-0.128326
-0.113173
-0.075656
-0.013733
0.062453
0.129635
0.190119
0.266852
0.344069
0.377926
0.412579
0.442467
0.448537
0.426652
0.415182
0.383457
0.369520
0.370674
0.376264
0.387922
0.427269
0.469118
0.520480
0.594352
0.649842
0.695694
0.739884
0.786795
0.814449
0.803303
0.798538
0.761034
0.692391
0.589381
0.479062
0.369591
0.268380
0.179151
0.092825
0.022569
-0.021209
-0.040140
-0.033542
-0.023927
0.006997
0.041251
0.088792
0.132809
0.159871
0.164531
0.174024
0.174592
0.152729
0.115912
0.067934
0.006670
-0.041176
-0.103398
-0.149814
-0.176698
-0.174579
-0.163338
-0.156101
-0.107411
-0.055950
-0.014161
0.031735
0.080006
0.106511
0.120681
0.110972
0.099393
0.081526
0.050765
0.003986
-0.047477
-0.096272
-0.153442
-0.181277
-0.190394
-0.193595
-0.192578
-0.168455
-0.132454
-0.090609
-0.047535
-0.004421
0.044625
0.090714
0.110137
0.104477
0.079675
0.051281
0.033138
-0.002923
-0.049550
-0.096916
-0.140010
-0.167926
-0.185887
-0.190694
-0.194902
-0.169430
-0.135329
-0.089129
-0.033193
0.002944
0.051588
0.088575
0.105756
0.114023
0.107441
0.090519
0.062958
0.035710
-0.047962
-0.098003
-0.120297
-0.150198
-0.174371
-0.185571
-0.178901
-0.158461
-0.121892
-0.073510
-0.016893
0.023179
0.077531
0.116586
0.136932
0.145117
0.128094
0.119908
0.066391
0.008598
-0.021301
-0.051830
-0.109098
-0.147146
-0.162019
-0.152023
-0.160020
-0.130777
-0.102791
-0.054754
-0.006900
0.028279
0.082633
0.128313
0.158387
0.160015
0.165940
0.132573
0.099421
0.046458
0.013225
-0.036360
-0.093365
-0.133471
-0.131264
-0.124618
-0.117380
-0.084238
-0.045320
-0.006311
0.033326
0.080593
0.128842
0.159418
0.179702
0.181440
0.173301
0.153428
0.124714
0.075103
0.033325
-0.004555
-0.043040
-0.079902
-0.093504
-0.102173
-0.091061
-0.068554
-0.029916
0.015547
0.063577
0.114546
0.160883
0.178994
0.200707
0.210352
0.207660
0.189949
0.158000
0.102716
0.053493
0.003039
-0.044428
-0.079291
-0.094783
-0.096422
-0.083793
-0.062982
-0.044346
0.001265
0.054892
0.099567
0.148254
0.186840
0.207077
0.205111
0.197288
0.171249
0.134938
0.097454
0.046427
0.002140
-0.051091
-0.086532
-0.107133
-0.124900
-0.116907
-0.088771
-0.050047
-0.000822
0.040945
0.076405
0.119224
0.149917
0.186925
0.197409
0.176560
0.152847
0.121222
0.074846
0.031211
-0.028819
-0.081958
-0.111111
-0.141599
-0.156602
-0.149260
-0.117415
-0.086052
-0.038302
0.014386
0.055739
0.111895
0.108584
0.122639
0.144360
0.151753
0.116631
0.089659
0.043459
-0.000802
-0.053318
-0.119830
-0.142912
-0.155845
-0.170129
-0.169332
-0.140136
-0.102938
-0.076684
-0.027312
0.028173
0.086719
0.105926
0.115237
0.119553
0.116130
0.094836
0.063187
0.004632
-0.045689
-0.095950
-0.135619
-0.168895
-0.192223
-0.214179
-0.195597
-0.172191
-0.142771
-0.104348
-0.051224
0.003879
0.051542
0.083788
0.099761
0.106575
0.090357
0.051051
0.026782
0.006598
-0.039786
-0.090014
-0.144417
-0.158036
-0.181995
-0.203890
-0.205302
-0.189048
-0.154673
-0.099751
-0.040807
0.006451
0.044575
0.082624
0.096666
0.109263
0.106778
0.073305
0.046609
-0.004467
-0.047400
-0.088937
-0.128790
-0.172817
-0.193938
-0.210240
-0.200314
-0.198934
-0.167256
-0.104878
-0.050240
0.011392
0.079811
0.077769
0.084512
0.108403
0.111067
0.087565
0.050059
-0.007637
-0.048684
-0.083362
-0.126709
-0.156865
-0.186609
-0.172749
-0.188541
-0.171824
-0.130950
-0.088373
-0.035074
0.004827
0.057274
0.097710
0.120781
0.118533
0.104651
0.085645
0.059849
0.011565
-0.045969
-0.095280
-0.138352
-0.159789
-0.184626
-0.209134
-0.198369
-0.168005
-0.128034
-0.082034
-0.025746
0.014457
0.055823
0.089631
0.108040
0.115535
0.119983
0.093622
0.040961
0.001776
-0.041810
-0.073818
-0.125161
-0.153301
-0.185436
-0.195764
-0.180480
-0.159606
-0.135364
-0.092792
-0.049285
-0.000128
0.051684
0.103362
0.110447
0.104529
0.096559
0.075122
0.046615
0.012350
-0.044988
-0.091123
-0.125284
-0.151516
-0.188420
-0.214826
-0.193875
-0.166721
-0.145383
-0.113221
-0.037365
0.016508
0.059359
0.083915
0.094970
0.106753
0.096992
0.067601
0.049410
0.010556
-0.047627
-0.102729
-0.145393
-0.186930
-0.207817
-0.219100
-0.218204
-0.194302
-0.152956
-0.096637
-0.049751
0.001494
0.042611
0.077820
0.090540
0.111193
0.112682
0.076241
0.032678
-0.003716
-0.041732
-0.093247
-0.158156
-0.188943
-0.208048
-0.203391
-0.216579
-0.200844
-0.136955
-0.088992
-0.058639
-0.016883
0.039531
0.078353
0.106736
0.091542
0.083806
0.067679
0.032948
-0.004142
-0.059899
-0.120452
-0.162035
-0.176114
-0.201189
-0.220445
-0.202272
-0.185368
-0.141104
-0.090860
-0.053244
-0.011813
0.029184
0.062547
0.082879
0.098484
0.098765
0.063913
0.021586
-0.014597
-0.067369
-0.118959
-0.153302
-0.175482
-0.204531
-0.215308
-0.209069
-0.182983
-0.160339
-0.117444
-0.064030
-0.015576
0.026776
0.065303
0.086784
0.093129
0.084731
0.076838
0.031589
-0.016464
-0.064190
-0.127797
-0.156168
-0.187077
-0.197759
-0.204344
-0.194530
-0.170249
-0.139013
-0.115510
-0.054727
0.012375
0.077211
0.102522
0.107374
0.106947
0.094198
0.068078
0.041878
0.005174
-0.045996
-0.079161
-0.106079
-0.142683
-0.160938
-0.167713
-0.145178
-0.124296
-0.100960
-0.068125
-0.035845
0.020781
0.073043
0.107807
0.123487
0.144485
0.139001
0.105821
0.061730
0.028966
-0.007224
-0.064765
-0.108497
-0.148239
-0.163763
-0.165198
-0.148304
-0.128916
-0.098240
-0.050300
-0.004583
0.044880
0.083487
0.123679
0.156787
0.165435
0.150187
0.132693
0.086552
0.035519
-0.016126
-0.068318
-0.127411
-0.166767
-0.185572
-0.197543
-0.187375
-0.160193
-0.125490
-0.080211
-0.035384
0.021484
0.053167
0.087592
0.097769
0.101582
0.100429
0.071765
0.034941
0.001443
-0.042637
-0.099538
-0.146977
-0.178888
-0.201067
-0.222141
-0.207431
-0.178296
-0.151864
-0.101898
-0.066318
-0.034172
0.018788
0.052598
0.068262
0.068714
0.058870
0.038193
0.000398
-0.060597
-0.102579
-0.146535
-0.195509
-0.236191
-0.249837
-0.245431
-0.224384
-0.205122
-0.165787
-0.134959
-0.088760
-0.034263
0.005784
0.040262
0.059711
0.068993
0.047910
0.013635
0.014029
-0.030056
-0.069591
-0.136252
-0.201326
-0.222381
-0.222724
-0.218693
-0.232980
-0.202522
-0.169439
-0.122523
-0.076343
-0.034765
-0.001352
0.037657
0.062626
0.076762
0.064068
0.024565
-0.014055
-0.048099
-0.088453
-0.137902
-0.185274
-0.224418
-0.239633
-0.241482
-0.246591
-0.218874
-0.185309
-0.157503
-0.092295
-0.035387
0.014782
0.058888
0.075805
0.073202
0.056360
0.040917
0.001074
-0.048677
-0.100519
-0.156253
-0.203086
-0.229853
-0.247699
-0.255352
-0.255792
-0.221549
-0.190269
-0.132920
-0.074805
-0.001048
0.053622
0.098406
0.137321
0.160605
0.156724
0.144199
0.142281
0.120818
0.096101
0.054872
0.019651
-0.011303
-0.008406
0.019442
0.074239
0.123062
0.203778
0.291916
0.363874
0.455314
0.540588
0.597729
0.665186
0.714019
0.756276
0.775422
0.770902
0.760090
0.745818
0.723194
0.694026
0.637197
0.613218
0.594048
0.587499
0.595946
0.602255
0.615264
0.625488
0.594134
0.561330
0.524888
0.472725
0.428326
0.373873
0.297706
0.229549
0.166550
0.103144
0.050421
0.011062
-0.030339
-0.057089
-0.072064
-0.083162
-0.050198
-0.028259
-0.002140
0.029428
0.082653
0.119858
0.149117
0.172375
0.166200
0.149921
0.128918
0.086761
0.045266
-0.012249
-0.066571
-0.116427
-0.154613
-0.173524
-0.172947
-0.177648
-0.154761
-0.118182
-0.070185
-0.032921
0.009700
0.044768
0.075842
0.102445
0.118149
0.111208
0.086956
0.045536
-0.007012
-0.051065
-0.092353
-0.137673
-0.167253
-0.195809
-0.205600
-0.205943
-0.176625
-0.138338
-0.096664
-0.052361
-0.003987
0.042063
0.081679
0.096379
0.104949
0.103341
0.074816
0.051350
0.014289
-0.029327
-0.086757
-0.135831
-0.174631
-0.200283
-0.204034
-0.196564
-0.149845
-0.120057
-0.087952
-0.036762
0.017156
0.061129
0.097280
0.115460
0.117552
0.106230
0.082638
0.054927
0.016179
-0.029047
-0.077355
-0.104387
-0.139257
-0.168647
-0.187258
-0.176638
-0.146711
-0.101377
-0.061640
-0.009145
0.043274
0.083748
0.115335
0.133010
0.142974
0.132267
0.110523
0.068743
0.026046
-0.013344
-0.051060
-0.100069
-0.108632
-0.130654
-0.132712
-0.129641
-0.113231
-0.093757
-0.042323
0.018863
0.062051
0.107281
0.138157
0.158102
0.172725
0.172408
0.146552
0.102872
0.060292
0.024200
-0.017283
-0.053440
-0.086778
-0.122293
-0.134061
-0.116003
-0.090416
-0.039246
-0.006090
0.050837
0.103113
0.142736
0.173536
0.190633
0.208604
0.209504
0.182462
0.144595
0.095867
0.054998
0.008913
-0.029858
-0.068269
-0.085469
-0.103475
-0.092210
-0.083265
-0.040479
0.009134
0.068125
0.102878
0.171667
0.217646
0.240360
0.231651
0.214975
0.186323
0.157618
0.100623
0.045524
-0.001589
-0.043143
-0.079274
-0.088726
-0.082863
-0.072219
-0.042886
-0.007501
0.023760
0.067172
0.102875
0.147487
0.185877
0.205081
0.195600
0.192189
0.178284
0.153011
0.096480
0.038670
-0.012957
-0.059486
-0.092180
-0.117025
-0.121534
-0.114859
-0.089761
-0.046061
-0.018443
0.021000
0.071415
0.121716
0.150599
0.177836
0.173493
0.160534
0.141528
0.104626
0.065083
0.019082
-0.036977
-0.082128
-0.124386
-0.140525
-0.151169
-0.156514
-0.137786
-0.104269
-0.067466
-0.007728
0.038690
0.069917
0.117266
0.151252
0.142644
0.121846
0.116155
0.079199
0.020539
-0.035352
-0.080805
-0.126437
-0.152376
-0.174163
-0.190643
-0.181833
-0.154114
-0.119694
-0.088807
-0.046597
-0.009461
0.050913
0.088619
0.103501
0.100911
0.101019
0.075289
0.045401
0.000220
-0.035719
-0.086833
-0.139382
-0.180882
-0.200538
-0.196866
-0.197687
-0.184091
-0.156865
-0.113147
-0.046458
-0.016746
0.042522
0.085207
0.107972
0.108635
0.083646
0.072025
0.049671
-0.006933
-0.048614
-0.101777
-0.148834
-0.190299
-0.212414
-0.213289
-0.191718
-0.166863
-0.135137
-0.087157
-0.053380
0.008713
0.051308
0.089763
0.099217
0.099863
0.097821
0.068065
0.044815
0.007386
-0.048513
-0.105730
-0.141762
-0.175565
-0.196886
-0.202937
-0.191172
-0.167461
-0.117417
-0.085176
-0.038179
0.016140
0.053932
0.084626
0.104298
0.109502
0.111942
0.076924
0.050199
-0.004432
-0.053889
-0.102499
-0.143798
-0.177300
-0.215661
-0.215043
-0.198120
-0.170382
-0.128031
-0.095785
-0.046827
0.005453
0.058074
0.104279
0.114240
0.113802
0.100854
0.078823
0.053071
0.008239
-0.039930
-0.083118
-0.138857
-0.179445
-0.184823
-0.185778
-0.180964
-0.157920
-0.129470
-0.088719
-0.029593
0.020491
0.070188
0.095908
0.103225
0.098866
0.091043
0.072794
0.048313
-0.000101
-0.043787
-0.107913
-0.132759
-0.165341
-0.201721
-0.181812
-0.172340
-0.157743
-0.126182
-0.083226
-0.047851
0.011403
0.054829
0.083476
0.097893
0.105604
0.098604
0.102131
0.066070
0.007817
-0.045045
-0.094873
-0.142151
-0.170564
-0.197478
-0.196887
-0.184830
-0.158481
-0.130178
-0.094174
-0.054327
-0.003160
0.040767
0.079534
0.094762
0.092764
0.091421
0.081677
0.045640
-0.005250
-0.055253
-0.103876
-0.152430
-0.185689
-0.201873
-0.207451
-0.207415
-0.186392
-0.156689
-0.101685
-0.044396
-0.002030
0.048380
0.069374
0.090958
0.083235
0.068329
0.043587
0.021066
-0.022383
-0.045946
-0.093704
-0.139019
-0.179707
-0.207994
-0.214308
-0.217007
-0.184905
-0.153901
-0.110738
-0.069054
-0.018202
0.024283
0.071567
0.104826
0.099989
0.091229
0.067007
0.020039
-0.014976
-0.050546
-0.102904
-0.152218
-0.205513
-0.217250
-0.221377
-0.216646
-0.184400
-0.159175
-0.117961
-0.086972
-0.006075
0.042598
0.088072
0.096680
0.088897
0.079811
0.061502
0.022264
-0.017134
-0.070926
-0.124077
-0.147381
-0.167783
-0.198132
-0.214490
-0.217678
-0.199326
-0.172163
-0.108861
-0.055131
-0.010388
0.023281
0.061055
0.095592
0.089566
0.064896
0.029073
0.021753
-0.018629
-0.075156
-0.123459
-0.168721
-0.181820
-0.197359
-0.235180
-0.221112
-0.177730
-0.123364
-0.100864
-0.054956
-0.004160
0.035426
0.062699
0.085152
0.096002
0.079598
0.066186
0.038340
0.015456
-0.026115
-0.083525
-0.130755
-0.173947
-0.201417
-0.186787
-0.170806
-0.150993
-0.109055
-0.070340
-0.021009
0.019190
0.062789
0.100039
0.128375
0.134650
0.118926
0.101831
0.059897
0.013054
-0.039831
-0.094146
-0.155966
-0.186466
-0.194126
-0.199457
-0.189281
-0.136455
-0.092207
-0.049135
-0.009093
0.035228
0.061797
0.096500
0.120101
0.141752
0.134639
0.110090
0.078182
0.053947
-0.002512
-0.065550
-0.101659
-0.134522
-0.159454
-0.175986
-0.190015
-0.168829
-0.119211
-0.074970
-0.035559
0.014950
0.046969
0.073351
0.097323
0.098421
0.085221
0.067141
0.029126
-0.019132
-0.082946
-0.123418
-0.163422
-0.185559
-0.198640
-0.197150
-0.202875
-0.194610
-0.174610
-0.139383
-0.055418
-0.006122
0.007344
0.044201
0.065423
0.046745
0.038035
0.037857
0.016576
-0.023174
-0.075864
-0.131390
-0.183698
-0.232691
-0.272390
-0.253543
-0.237533
-0.210072
-0.178751
-0.136535
-0.090138
-0.046374
0.000238
0.042371
0.066920
0.073219
0.068852
0.036687
-0.003999
-0.051135
-0.103080
-0.147341
-0.183785
-0.231430
-0.255609
-0.248310
-0.245260
-0.224663
-0.189141
-0.154726
-0.099584
-0.042595
-0.008603
0.023618
0.054912
0.046395
0.033842
0.014822
-0.021888
-0.060553
-0.097009
-0.144645
-0.184835
-0.211375
-0.252316
-0.249755
-0.241832
-0.220162
-0.184345
-0.132368
-0.095090
-0.035905
0.018610
0.048856
0.047355
0.041634
0.034814
0.023012
-0.018641
-0.058982
-0.107275
-0.163220
-0.208527
-0.242393
-0.264124
-0.261162
-0.244749
-0.227943
-0.184412
-0.151240
-0.105378
-0.081891
-0.025230
0.034769
0.075630
0.084446
0.094968
0.094527
0.082106
0.045528
0.019708
-0.013617
-0.041124
-0.066294
-0.083475
-0.057398
-0.024464
0.023005
0.096582
0.162653
0.235171
0.328568
0.410721
0.487937
0.533349
0.575387
0.605319
0.620274
0.616563
0.605963
0.590021
0.601391
0.600584
0.588889
0.583705
0.596133
0.620131
0.635666
0.657965
0.673810
0.710513
0.728855
0.741608
0.724548
0.671149
0.596114
0.526242
0.451356
0.364214
0.258604
0.144522
0.064830
0.028101
-0.019453
-0.030278
-0.035576
-0.048057
-0.034623
-0.016669
0.011424
0.028527
0.081954
0.116752
0.147967
0.165149
0.172682
0.149141
0.124654
0.078481
0.026538
-0.017115
-0.067171
-0.115578
-0.145983
-0.168138
-0.180413
-0.184747
-0.145347
-0.110836
-0.076423
-0.031135
0.018608
0.050607
0.082478
0.104963
0.101235
0.081006
0.060989
0.029959
0.002295
-0.033435
-0.105405
-0.146195
-0.184605
-0.207625
-0.213596
-0.208546
-0.171951
-0.130504
-0.080768
-0.034587
0.017385
0.036341
0.072597
0.102250
0.097540
0.099205
0.082446
0.044015
-0.001598
-0.055091
-0.113424
-0.160458
-0.181930
-0.196678
-0.205788
-0.209067
-0.181666
-0.149973
-0.106534
-0.056394
0.004068
0.071207
0.104649
0.097183
0.098875
0.091463
0.068778
0.044326
0.013449
-0.020903
-0.079435
-0.118380
-0.161073
-0.180895
-0.195763
-0.183758
-0.157803
-0.108243
-0.066938
-0.018170
0.034496
0.077745
0.108396
0.127399
0.127249
0.121614
0.103981
0.071394
0.034386
-0.016891
-0.059114
-0.102088
-0.139588
-0.167106
-0.156106
-0.151491
-0.151593
-0.110894
-0.058602
0.008270
0.072009
0.110328
0.142721
0.171833
0.170687
0.159488
0.125337
0.094727
0.051092
0.014199
-0.031981
-0.072684
-0.112483
-0.110838
-0.111166
-0.118211
-0.093896
-0.052169
-0.011207
0.015350
0.072081
0.134032
0.163800
0.202846
0.192302
0.181470
0.173076
0.128392
0.076489
0.037501
-0.012000
-0.044762
-0.061098
-0.073556
-0.096192
-0.090661
-0.061879
-0.030349
0.016924
0.073559
0.125783
0.148049
0.175282
0.196760
0.204676
0.191451
0.164791
0.134142
0.097474
0.054967
-0.001135
-0.045192
-0.083983
-0.100125
-0.101538
-0.104677
-0.076202
-0.035921
0.007978
0.053289
0.110726
0.149216
0.173629
0.184313
0.210370
0.191116
0.155321
0.109346
0.066621
0.022475
-0.002186
-0.033552
-0.090116
-0.118490
-0.104329
-0.091573
-0.074510
-0.041248
-0.000579
0.019305
0.081801
0.123403
0.164461
0.182519
0.174966
0.149560
0.135746
0.099435
0.048870
0.006376
-0.038134
-0.083217
-0.117728
-0.144519
-0.145426
-0.147361
-0.131897
-0.080751
-0.052691
-0.014933
0.033921
0.073159
0.106213
0.124918
0.123789
0.109007
0.096653
0.068209
0.020139
-0.030768
-0.083930
-0.113540
-0.141563
-0.182286
-0.175553
-0.169673
-0.167866
-0.131766
-0.096149
-0.040207
0.018104
0.054132
0.092532
0.105566
0.104057
0.089153
0.071917
0.035688
-0.018269
-0.056775
-0.108661
-0.155600
-0.179841
-0.207847
-0.222674
-0.219096
-0.172405
-0.144195
-0.109311
-0.058682
-0.002643
0.028418
0.046443
0.079080
0.108085
0.096493
0.044737
0.022968
-0.016496
-0.061276
-0.137614
-0.187923
-0.214509
-0.224942
-0.229279
-0.220177
-0.180853
-0.137937
-0.076781
-0.024529
0.014019
0.033416
0.079359
0.106718
0.100322
0.085097
0.065170
0.031306
-0.019073
-0.071688
-0.125004
-0.139327
-0.169231
-0.202058
-0.203299
-0.203253
-0.175273
-0.137304
-0.098423
-0.062577
-0.002823
0.039933
0.069755
0.094201
0.102939
0.095922
0.076628
0.038288
-0.010302
-0.058495
-0.094935
-0.149715
-0.184869
-0.202063
-0.188125
-0.176691
-0.170568
-0.141250
-0.092538
-0.040670
0.008004
0.052899
0.080550
0.103918
0.103787
0.103913
0.075323
0.040404
0.003379
-0.049802
-0.110685
-0.149219
-0.181922
-0.196231
-0.204331
-0.199245
-0.175936
-0.131696
-0.082704
-0.039237
-0.001003
0.052490
0.099544
0.106105
0.100421
0.088959
0.075988
0.039377
-0.001718
-0.057239
-0.113893
-0.148068
-0.177548
-0.210090
-0.193117
-0.163427
-0.152146
-0.124463
-0.079338
-0.031171
0.009834
0.038221
0.061724
0.086315
0.097361
0.088767
0.075127
0.049141
0.016897
-0.035751
-0.097923
-0.153566
-0.190991
-0.208222
-0.201806
-0.199265
-0.184969
-0.149577
-0.117686
-0.060542
0.006730
0.055496
0.091997
0.099959
0.107228
0.098947
0.081086
0.046851
-0.010181
-0.069962
-0.121592
-0.165811
-0.193838
-0.201215
-0.212680
-0.203014
-0.181567
-0.146566
-0.102193
-0.053043
-0.008808
0.045947
0.083081
0.103152
0.102273
0.083538
0.061335
0.049427
0.000452
-0.057060
-0.107048
-0.159774
-0.191151
-0.218894
-0.231174
-0.213180
-0.188365
-0.151132
-0.102718
-0.050114
0.002252
0.024662
0.058577
0.071717
0.068646
0.052679
0.055666
0.024326
-0.040728
-0.076014
-0.118342
-0.159933
-0.197659
-0.218718
-0.215076
-0.211548
-0.201661
-0.157669
-0.111400
-0.060593
-0.006493
0.029477
0.057731
0.077222
0.078836
0.073192
0.054256
0.018133
-0.028931
-0.075421
-0.125131
-0.155498
-0.188873
-0.227211
-0.235622
-0.217728
-0.188890
-0.153912
-0.109651
-0.074844
-0.016883
0.030361
0.054294
0.079242
0.089380
0.077651
0.046645
0.007480
-0.040524
-0.067757
-0.113681
-0.167309
-0.191722
-0.216766
-0.242031
-0.235475
-0.196278
-0.155864
-0.113398
-0.054241
-0.005461
0.031456
0.053655
0.082512
0.077039
0.071485
0.045371
0.012522
-0.021413
-0.066328
-0.128971
-0.181147
-0.227972
-0.231382
-0.210789
-0.202889
-0.186016
-0.142234
-0.105184
-0.053921
-0.015891
0.023394
0.049965
0.080723
0.097725
0.079442
0.033448
0.014863
0.015141
-0.032927
-0.092710
-0.141621
-0.173135
-0.184483
-0.198475
-0.184746
-0.152782
-0.109652
-0.059454
-0.008602
0.036645
0.074831
0.088623
0.098747
0.102917
0.100667
0.065916
0.033678
0.003154
-0.051413
-0.108253
-0.142803
-0.179142
-0.192874
-0.177727
-0.157766
-0.135249
-0.104738
-0.060095
-0.008112
0.031942
0.083508
0.120694
0.138403
0.145475
0.117426
0.108399
0.080273
0.039397
-0.007295
-0.053353
-0.107095
-0.147164
-0.174872
-0.188561
-0.185318
-0.178758
-0.139483
-0.093548
-0.058578
-0.017212
0.027070
0.078643
0.108940
0.103993
0.085327
0.070903
0.019709
-0.022753
-0.049453
-0.110202
-0.156906
-0.189343
-0.211055
-0.224421
-0.213682
-0.203748
-0.158970
-0.108969
-0.068291
-0.020980
0.014094
0.047540
0.066165
0.065929
0.051506
0.034310
-0.009631
-0.053038
-0.097875
-0.144213
-0.181377
-0.209921
-0.242785
-0.258310
-0.245279
-0.223884
-0.188843
-0.135466
-0.101427
-0.034232
0.013447
0.034340
0.055453
0.051344
0.043127
0.013089
-0.008627
-0.057183
-0.107272
-0.158765
-0.220086
-0.240161
-0.245776
-0.258694
-0.250939
-0.220919
-0.166235
-0.122511
-0.076437
-0.021171
0.013187
0.031649
0.048241
0.049844
0.039990
0.022147
-0.013120
-0.060088
-0.110924
-0.149601
-0.181392
-0.216663
-0.240571
-0.237490
-0.226902
-0.205250
-0.188119
-0.147194
-0.096413
-0.042514
-0.007656
0.031494
0.059725
0.063246
0.036084
0.012383
-0.015190
-0.059289
-0.091435
-0.132503
-0.183838
-0.240104
-0.269967
-0.264519
-0.265338
-0.238404
-0.189665
-0.146169
-0.098285
-0.050110
0.007424
0.045734
0.083607
0.101638
0.104519
0.102802
0.080386
0.046621
0.018388
-0.013440
-0.049769
-0.087526
-0.079824
-0.087008
-0.049188
0.009405
0.086838
0.160860
0.224631
0.295710
0.378672
0.451023
0.503281
0.546221
0.562512
0.571590
0.571468
0.572011
0.575063
0.550068
0.549923
0.550320
0.559690
0.557733
0.560167
0.574858
0.601855
0.623369
0.642009
0.670944
0.688374
0.701602
0.666599
0.605782
0.535521
0.452860
0.357242
0.257820
0.160931
0.076418
-0.008492
-0.036949
-0.075138
-0.096235
-0.079438
-0.064606
-0.050129
-0.005148
0.034674
0.088601
0.115302
0.128847
0.147954
0.157584
0.138982
0.109102
0.083038
0.031202
-0.023831
-0.080927
-0.137147
-0.169720
-0.189692
-0.176443
-0.174262
-0.149473
-0.116624
-0.082251
-0.030957
0.020297
0.062800
0.088783
0.098999
0.103078
0.088783
0.066739
0.031592
-0.017242
-0.070815
-0.096434
-0.135835
-0.159663
-0.185630
-0.191709
-0.187200
-0.167715
-0.136997
-0.102486
-0.065416
-0.024469
0.026565
0.063369
0.092586
0.099243
0.094072
0.071285
0.030665
-0.018654
-0.059258
-0.105990
-0.151344
-0.179243
-0.201281
-0.204688
-0.193755
-0.170767
-0.137452
-0.094360
-0.045777
0.002984
0.036879
0.079361
0.093002
0.109104
0.095802
0.080801
0.044522
-0.001262
-0.059787
-0.092706
-0.129588
-0.152579
-0.175316
-0.180224
-0.174765
-0.152769
-0.142415
-0.098703
-0.024808
0.024958
0.054707
0.097480
0.121348
0.132300
0.114704
0.088512
0.058402
0.015400
-0.027399
-0.066908
-0.109266
-0.140124
-0.161421
-0.163117
-0.150856
-0.123130
-0.088627
-0.044087
0.013282
0.060262
0.092665
0.124674
0.152679
0.169030
0.143506
0.121931
0.096935
0.055055
0.009936
-0.039865
-0.084292
-0.120994
-0.128983
-0.126807
-0.117128
-0.107361
-0.057400
-0.008321
0.035905
0.079417
0.113321
0.148248
0.175581
0.197688
0.192064
0.169495
0.113566
0.081961
0.043896
0.007197
-0.041483
-0.075957
-0.088762
-0.093341
-0.089919
-0.087571
-0.047467
0.006350
0.064539
0.115794
0.160141
0.175027
0.194950
0.200414
0.193397
0.158033
0.123389
0.079075
0.032509
-0.014367
-0.044718
-0.066726
-0.080172
-0.089791
-0.080116
-0.066284
-0.040003
0.006950
0.040961
0.104660
0.127413
0.171972
0.194166
0.196038
0.186656
0.171877
0.139638
0.093487
0.033976
-0.018998
-0.071478
-0.090757
-0.111241
-0.119656
-0.113033
-0.092630
-0.053359
-0.019778
0.032426
0.082405
0.114969
0.146599
0.168443
0.181514
0.160337
0.129189
0.101489
0.064711
0.012612
-0.037076
-0.097461
-0.119148
-0.131243
-0.144991
-0.146586
-0.122333
-0.090950
-0.055767
-0.009154
0.042883
0.080316
0.123551
0.130774
0.136996
0.121399
0.097035
0.059719
0.015281
-0.027109
-0.072650
-0.109396
-0.145718
-0.189504
-0.200687
-0.191645
-0.167243
-0.135590
-0.101506
-0.043380
0.008919
0.047552
0.081462
0.096800
0.108802
0.101386
0.073368
0.041884
-0.016836
-0.049776
-0.093075
-0.145520
-0.177695
-0.197914
-0.203221
-0.205054
-0.180218
-0.145314
-0.109922
-0.061554
-0.016299
0.024778
0.056365
0.083650
0.085256
0.088819
0.060787
0.026407
-0.022210
-0.054503
-0.115393
-0.172020
-0.194919
-0.216322
-0.224340
-0.223237
-0.193977
-0.149980
-0.100013
-0.070932
-0.017115
0.030854
0.069633
0.074209
0.081758
0.072810
0.083691
0.053096
-0.020381
-0.088378
-0.127514
-0.156364
-0.205353
-0.208200
-0.197383
-0.183506
-0.149527
-0.135332
-0.093945
-0.050720
-0.010419
0.040012
0.060369
0.101903
0.092347
0.070096
0.057503
0.036474
-0.021518
-0.075004
-0.110482
-0.145529
-0.173342
-0.203692
-0.208832
-0.192996
-0.166810
-0.130418
-0.092612
-0.052521
-0.001691
0.042457
0.077250
0.102003
0.097790
0.107571
0.083662
0.045484
0.011728
-0.033558
-0.088272
-0.124474
-0.152340
-0.185662
-0.197483
-0.185119
-0.165631
-0.150733
-0.101000
-0.055140
-0.009303
0.046337
0.089984
0.088507
0.104054
0.100455
0.069028
0.014931
-0.007591
-0.046938
-0.085702
-0.141783
-0.173269
-0.188078
-0.197927
-0.205928
-0.179085
-0.140036
-0.091217
-0.041592
0.005304
0.043127
0.072068
0.088748
0.092678
0.086644
0.063086
0.038437
-0.012389
-0.068761
-0.109717
-0.138234
-0.170385
-0.193442
-0.203113
-0.198082
-0.174292
-0.134897
-0.095678
-0.036947
0.000991
0.042300
0.076693
0.082832
0.088574
0.088928
0.075129
0.019306
-0.017766
-0.073127
-0.118868
-0.161738
-0.197382
-0.207072
-0.219261
-0.220284
-0.182162
-0.149655
-0.110132
-0.049906
-0.004952
0.044241
0.082697
0.083144
0.087186
0.066810
0.054405
0.021556
-0.026467
-0.071018
-0.121803
-0.157633
-0.204099
-0.219069
-0.219197
-0.217438
-0.192811
-0.162140
-0.111735
-0.056314
-0.018746
0.008774
0.050062
0.080742
0.077379
0.087461
0.060012
0.017573
-0.035658
-0.098194
-0.143677
-0.179388
-0.216313
-0.230662
-0.229800
-0.226098
-0.198369
-0.160193
-0.118322
-0.069799
-0.029056
0.012560
0.053744
0.071667
0.079755
0.068259
0.040729
0.011998
-0.036862
-0.081313
-0.118583
-0.171838
-0.205581
-0.216667
-0.229924
-0.216888
-0.202250
-0.169766
-0.119549
-0.079170
-0.032681
0.006700
0.045643
0.076442
0.082012
0.064286
0.042455
0.010590
-0.023152
-0.081044
-0.125190
-0.172352
-0.198054
-0.209946
-0.226213
-0.209970
-0.200845
-0.173302
-0.130340
-0.074337
-0.022225
0.028380
0.064486
0.064773
0.062798
0.064195
0.045033
0.008732
-0.039176
-0.089912
-0.132742
-0.171231
-0.189389
-0.200923
-0.213470
-0.208186
-0.186354
-0.151523
-0.107060
-0.079309
-0.026296
0.022292
0.052126
0.075218
0.085429
0.090107
0.075816
0.028666
-0.012805
-0.071386
-0.107276
-0.153406
-0.190925
-0.201043
-0.203482
-0.202356
-0.172550
-0.119067
-0.076591
-0.022643
0.012249
0.053845
0.085801
0.106906
0.106314
0.090561
0.069195
0.030612
-0.013970
-0.072653
-0.137533
-0.157169
-0.165235
-0.191391
-0.198150
-0.172432
-0.161079
-0.131498
-0.073052
-0.015948
0.028336
0.068148
0.098012
0.111695
0.125442
0.131863
0.105127
0.077874
0.036497
-0.020637
-0.070001
-0.119060
-0.168235
-0.183302
-0.204062
-0.189826
-0.193059
-0.146372
-0.094044
-0.047947
-0.006674
0.043244
0.084034
0.087209
0.081258
0.080144
0.054836
0.031468
-0.017276
-0.067339
-0.114391
-0.166306
-0.201279
-0.218432
-0.237080
-0.236485
-0.207243
-0.176372
-0.131860
-0.062260
-0.024113
-0.000275
0.036825
0.044573
0.050232
0.041721
0.016456
-0.023653
-0.054436
-0.085185
-0.135064
-0.184851
-0.223855
-0.238858
-0.251318
-0.246423
-0.223211
-0.184214
-0.146443
-0.095926
-0.044830
0.000677
0.021458
0.030800
0.053598
0.041801
0.007789
-0.026744
-0.057763
-0.107552
-0.161378
-0.211892
-0.246167
-0.255578
-0.255418
-0.242026
-0.214978
-0.183564
-0.146161
-0.099158
-0.063255
-0.020460
0.019549
0.036494
0.038941
0.026450
0.001557
-0.034966
-0.071683
-0.117779
-0.175845
-0.216601
-0.240834
-0.256815
-0.260952
-0.243072
-0.220816
-0.192207
-0.138070
-0.101375
-0.063504
-0.020491
0.010530
0.031821
0.037762
0.034357
0.009488
-0.020697
-0.069029
-0.121281
-0.171238
-0.214667
-0.253305
-0.271525
-0.275008
-0.264853
-0.242568
-0.205408
-0.156775
-0.084889
-0.040952
0.014358
0.047985
0.060869
0.093684
0.105318
0.099084
0.069038
0.054424
0.020589
-0.004227
-0.030533
-0.061026
-0.064437
-0.052350
-0.020601
0.048379
0.112737
0.185249
0.264099
0.330821
0.403515
0.468675
0.510155
0.533217
0.561414
0.577187
0.582671
0.573714
0.559680
0.561346
0.554531
0.547358
0.541780
0.531899
0.531015
0.555707
0.575967
0.604006
0.621787
0.642447
0.632843
0.595664
0.541619
0.497972
0.429251
0.350716
0.275690
0.191539
0.098244
0.041414
-0.030393
-0.092058
-0.110093
-0.130487
-0.118805
-0.094017
-0.075458
-0.041579
0.022815
0.074607
0.103745
0.130092
0.134704
0.133645
0.118909
0.095602
0.061568
0.004514
-0.042106
-0.085683
-0.131304
-0.175898
-0.205356
-0.212986
-0.202253
-0.169352
-0.135038
-0.100183
-0.043463
-0.006702
0.038797
0.082844
0.100102
0.095422
0.089846
0.049600
0.011201
-0.026376
-0.070989
-0.125285
-0.171030
-0.200131
-0.209354
-0.208180
-0.211762
-0.180177
-0.143280
-0.110002
-0.071426
-0.019952
0.026405
0.065127
0.073420
0.073215
0.071237
0.048337
0.021291
-0.023641
-0.086863
-0.126372
-0.165680
-0.198303
-0.218982
-0.218827
-0.206988
-0.169821
-0.144073
-0.113053
-0.055647
-0.010113
0.024209
0.057905
0.070157
0.088467
0.095303
0.075450
0.032120
-0.005281
-0.056779
-0.098724
-0.146960
-0.196087
-0.216905
-0.213800
-0.193793
-0.184812
-0.131435
-0.101567
-0.054253
0.011638
0.069208
0.092265
0.106316
0.111296
0.120047
0.086040
0.044644
0.007714
-0.049259
-0.085915
-0.117542
-0.151573
-0.172677
-0.187552
-0.165509
-0.140846
-0.102971
-0.054507
-0.005270
0.040538
0.072523
0.114181
0.139028
0.149807
0.153160
0.119629
0.081751
0.038323
-0.018046
-0.075812
-0.134686
-0.118931
-0.127594
-0.131578
-0.114314
-0.093821
-0.059147
-0.029332
0.009011
0.057000
0.106896
0.142856
0.162920
0.182050
0.180995
0.157679
0.109484
0.065617
0.019556
-0.017398
-0.072261
-0.102369
-0.114226
-0.117463
-0.121057
-0.089235
-0.047571
-0.008614
0.042884
0.077264
0.113111
0.151449
0.173174
0.191560
0.170010
0.157656
0.109318
0.058202
0.036462
-0.015552
-0.063061
-0.095283
-0.122836
-0.141703
-0.111995
-0.085263
-0.057669
-0.011851
0.045999
0.090737
0.132146
0.156028
0.171107
0.180718
0.177865
0.145298
0.102495
0.062186
0.003082
-0.041118
-0.074946
-0.121655
-0.133896
-0.137164
-0.140457
-0.124526
-0.081814
-0.043921
0.012662
0.051937
0.076040
0.102383
0.137154
0.153064
0.128784
0.104041
0.070361
0.042872
-0.008819
-0.052500
-0.082061
-0.126613
-0.146518
-0.161313
-0.156849
-0.149107
-0.118823
-0.070978
-0.011124
0.026733
0.058710
0.081314
0.097415
0.103076
0.100355
0.083028
0.036974
-0.012190
-0.058897
-0.102237
-0.148539
-0.173362
-0.191442
-0.190999
-0.192275
-0.172196
-0.133730
-0.088576
-0.048393
0.003833
0.043026
0.064995
0.076932
0.087509
0.074895
0.058020
0.013546
-0.031343
-0.075697
-0.127318
-0.172928
-0.199311
-0.219251
-0.223266
-0.218723
-0.196674
-0.157853
-0.121007
-0.068478
-0.020821
0.018895
0.046366
0.063462
0.070116
0.049606
0.011498
-0.000100
-0.042857
-0.090623
-0.126255
-0.169395
-0.197136
-0.214547
-0.217549
-0.212568
-0.188009
-0.151493
-0.117447
-0.068700
-0.028466
0.020992
0.056421
0.071190
0.080643
0.070273
0.039189
0.013505
-0.029336
-0.080299
-0.133198
-0.164695
-0.195411
-0.218145
-0.225951
-0.208600
-0.193989
-0.145984
-0.121405
-0.073322
-0.001902
0.031109
0.052525
0.078677
0.085869
0.077904
0.052136
0.024026
-0.022931
-0.077949
-0.127321
-0.173749
-0.188516
-0.209078
-0.218747
-0.222817
-0.191635
-0.135627
-0.096993
-0.035508
-0.003379
0.022965
0.058776
0.080377
0.082517
0.075680
0.059255
0.024145
-0.015548
-0.067521
-0.110251
-0.152495
-0.180709
-0.206570
-0.212929
-0.220413
-0.199630
-0.168106
-0.115221
-0.064509
-0.016953
0.021227
0.050769
0.092394
0.092569
0.082654
0.054210
0.011900
-0.035807
-0.091637
-0.146022
-0.166225
-0.195942
-0.209146
-0.212207
-0.211141
-0.191109
-0.137230
-0.095810
-0.045289
-0.001102
0.037162
0.061730
0.095967
0.092700
0.084562
0.052679
0.015937
-0.030239
-0.085608
-0.130411
-0.179754
-0.208033
-0.231604
-0.222273
-0.225710
-0.205744
-0.168576
-0.123627
-0.068957
-0.030472
0.029386
0.064887
0.089308
0.093809
0.074868
0.049829
0.018697
-0.039181
-0.080160
-0.125204
-0.188130
-0.212336
-0.229418
-0.236008
-0.234530
-0.206215
-0.169655
-0.120053
-0.071628
-0.025699
0.011212
0.055681
0.082167
0.080373
0.073752
0.042541
0.000689
-0.062353
-0.085835
-0.129028
-0.172841
-0.210304
-0.223038
-0.232037
-0.240992
-0.215584
-0.176923
-0.133287
-0.087841
-0.046591
0.001196
0.038797
0.061142
0.070433
0.061231
0.023109
-0.013589
-0.040864
-0.090727
-0.139278
-0.167656
-0.221086
-0.241541
-0.231227
-0.228361
-0.205647
-0.175325
-0.130038
-0.096748
-0.051205
0.001340
0.045865
0.075867
0.079157
0.073331
0.046928
0.023894
-0.013019
-0.068242
-0.130595
-0.164110
-0.217369
-0.208627
-0.194774
-0.187833
-0.167944
-0.132106
-0.095003
-0.055031
-0.028052
0.020102
0.069574
0.088253
0.096758
0.090034
0.073198
0.042354
-0.009008
-0.069176
-0.111470
-0.160606
-0.194101
-0.192358
-0.206236
-0.204718
-0.191169
-0.162360
-0.100353
-0.052684
0.003981
0.042217
0.089478
0.094109
0.093266
0.089135
0.068979
0.034110
0.003603
-0.042893
-0.085304
-0.120478
-0.147546
-0.179202
-0.193793
-0.188796
-0.162167
-0.130596
-0.085042
-0.035664
-0.000952
0.030804
0.066206
0.083908
0.087353
0.074580
0.045843
0.008053
-0.026552
-0.087623
-0.138602
-0.178492
-0.202572
-0.211159
-0.218312
-0.222617
-0.198791
-0.158355
-0.117505
-0.080448
-0.032389
0.015391
0.043703
0.058266
0.064655
0.042897
0.023751
-0.009362
-0.045665
-0.103564
-0.181559
-0.221274
-0.239070
-0.259633
-0.276784
-0.282306
-0.240853
-0.204678
-0.173411
-0.125777
-0.056020
-0.011168
0.018369
0.034752
0.025570
0.024327
0.005373
-0.025904
-0.075688
-0.117689
-0.171675
-0.215745
-0.249982
-0.277671
-0.286533
-0.270061
-0.242661
-0.202214
-0.160789
-0.121592
-0.063868
-0.018107
0.017787
0.027120
0.034636
0.019569
-0.007694
-0.041008
-0.086033
-0.141802
-0.180448
-0.218811
-0.236488
-0.268566
-0.278437
-0.278648
-0.245076
-0.202368
-0.158410
-0.114255
-0.073998
-0.032156
0.002651
0.010636
0.014054
-0.000877
-0.009000
-0.042550
-0.075303
-0.140457
-0.187528
-0.218656
-0.260306
-0.272257
-0.273338
-0.281808
-0.251220
-0.205797
-0.152493
-0.112740
-0.080480
-0.032628
-0.003363
0.015144
0.028447
0.036889
0.025321
0.001064
-0.022099
-0.065974
-0.090162
-0.119677
-0.137468
-0.131611
-0.118735
-0.098403
-0.081083
-0.029161
0.033323
0.104364
0.186096
0.254071
0.316471
0.348978
0.389746
0.421270
0.409472
0.403795
0.392762
0.369365
0.360927
0.361160
0.357987
0.380222
0.403277
0.443615
0.498943
0.569821
0.618042
0.680297
0.729158
0.770753
0.793547
0.808063
0.809968
0.743596
0.664571
0.557905
0.439818
0.340606
0.237840
0.138987
0.065147
0.010941
-0.041609
-0.055924
-0.058675
-0.055593
-0.019210
0.022185
0.047552
0.090469
0.096751
0.123501
0.144283
0.118773
0.090219
0.062617
0.031278
-0.017071
-0.068821
-0.121619
-0.156427
-0.176504
-0.186418
-0.178838
-0.158719
-0.132101
-0.096110
-0.040464
-0.001569
0.022070
0.058280
0.092984
0.094476
0.088143
0.060620
0.025895
-0.022526
-0.073690
-0.118014
-0.160736
-0.201205
-0.221858
-0.236422
-0.231727
-0.206052
-0.167952
-0.123221
-0.076513
-0.030477
0.018650
0.043856
0.064577
0.073547
0.067866
0.042557
0.001878
-0.039436
-0.091634
-0.133497
-0.167583
-0.202862
-0.230515
-0.236356
-0.233470
-0.205405
-0.163086
-0.125549
-0.072807
-0.031461
0.001873
0.038967
0.080270
0.089603
0.076276
0.057110
0.018694
-0.015438
-0.063146
-0.115169
-0.151991
-0.191566
-0.217906
-0.212517
-0.186879
-0.196573
-0.147900
-0.098326
-0.056518
-0.007925
0.046357
0.079944
0.076146
0.089471
0.088790
0.077049
0.043371
-0.006463
-0.070326
-0.104368
-0.144761
-0.169313
-0.190427
-0.196559
-0.185646
-0.160393
-0.125396
-0.078841
-0.016879
0.024766
0.070074
0.103842
0.121405
0.138383
0.125557
0.093712
0.061984
0.023353
-0.021659
-0.060209
-0.103925
-0.141568
-0.170166
-0.189124
-0.178093
-0.145122
-0.092076
-0.051316
0.005614
0.047863
0.088311
0.127374
0.151597
0.154697
0.161222
0.131514
0.098449
0.047799
-0.002922
-0.037480
-0.082470
-0.123352
-0.112692
-0.122320
-0.129537
-0.112628
-0.076277
-0.038386
0.026953
0.078911
0.105736
0.140135
0.155252
0.157439
0.152663
0.134014
0.102066
0.060005
0.019569
-0.043952
-0.086872
-0.101938
-0.121831
-0.131537
-0.134876
-0.135486
-0.076058
-0.025239
0.040068
0.075587
0.102333
0.138072
0.156846
0.160310
0.155891
0.134592
0.097499
0.047286
-0.003240
-0.039052
-0.077722
-0.108941
-0.143220
-0.144338
-0.137938
-0.108022
-0.074687
-0.034680
0.004774
0.056882
0.100809
0.132993
0.149329
0.136092
0.118742
0.105691
0.074313
0.032125
-0.011617
-0.070158
-0.112833
-0.148466
-0.157106
-0.177632
-0.180103
-0.164485
-0.127928
-0.072842
-0.021802
0.025170
0.054281
0.090085
0.113012
0.117666
0.106309
0.081325
0.040657
-0.006527
-0.054717
-0.105598
-0.149829
-0.185581
-0.193741
-0.194040
-0.190165
-0.175328
-0.147728
-0.094092
-0.028569
0.009618
0.016306
0.051984
0.052632
0.069093
0.082884
0.049689
0.009769
-0.038258
-0.085129
-0.136634
-0.165005
-0.200142
-0.225173
-0.236343
-0.234038
-0.212488
-0.168352
-0.145106
-0.070017
-0.010387
0.040308
0.061865
0.068999
0.076793
0.061941
0.053231
0.014231
-0.034756
-0.086588
-0.128617
-0.176167
-0.203382
-0.231487
-0.239657
-0.224919
-0.204860
-0.172386
-0.124284
-0.079865
-0.036069
0.011870
0.050232
0.076232
0.092673
0.081037
0.053600
0.014546
-0.031781
-0.079447
-0.121848
-0.154170
-0.185247
-0.214609
-0.230715
-0.218912
-0.194164
-0.144888
-0.109132
-0.057141
-0.019760
0.036146
0.086743
0.084075
0.071198
0.069387
0.040337
0.003131
-0.021889
-0.070514
-0.119791
-0.159599
-0.193358
-0.203431
-0.219446
-0.212163
-0.191450
-0.147422
-0.101338
-0.069214
-0.015783
0.033759
0.064052
0.094971
0.095552
0.066799
0.045920
0.023621
-0.021958
-0.065744
-0.114385
-0.158025
-0.172241
-0.203480
-0.206803
-0.202830
-0.183221
-0.151758
-0.118583
-0.050248
-0.012276
0.031724
0.075991
0.105809
0.102019
0.092562
0.083270
0.039061
-0.021264
-0.067361
-0.106333
-0.146537
-0.188650
-0.205403
-0.206088
-0.195644
-0.173319
-0.127875
-0.084770
-0.042919
-0.008531
0.024597
0.065007
0.085558
0.083275
0.068778
0.061189
0.034844
-0.009400
-0.068837
-0.116347
-0.159290
-0.178035
-0.197074
-0.218131
-0.210588
-0.180357
-0.152374
-0.093837
-0.056082
-0.010038
0.035821
0.075466
0.074564
0.087015
0.079951
0.069226
0.037370
-0.015772
-0.069624
-0.130172
-0.181189
-0.195471
-0.218046
-0.219091
-0.202463
-0.180902
-0.155620
-0.115618
-0.073403
-0.033592
0.012237
0.053430
0.071438
0.080492
0.071166
0.045185
0.007860
-0.047320
-0.077113
-0.122534
-0.170743
-0.196297
-0.221669
-0.221163
-0.215837
-0.203475
-0.159902
-0.103354
-0.062636
-0.024295
0.034488
0.056252
0.077421
0.076516
0.052674
0.043481
0.013524
-0.040562
-0.096691
-0.144790
-0.176376
-0.186403
-0.207244
-0.218376
-0.213635
-0.199880
-0.153328
-0.101293
-0.063625
-0.019025
0.031212
0.055279
0.080120
0.092190
0.077423
0.074391
0.050746
-0.007278
-0.067867
-0.093398
-0.143714
-0.149045
-0.183230
-0.192293
-0.177336
-0.158035
-0.140606
-0.104606
-0.055425
0.003301
0.055748
0.090442
0.108791
0.123095
0.102497
0.076796
0.037621
-0.006185
-0.048064
-0.077016
-0.111254
-0.148142
-0.167924
-0.181534
-0.185664
-0.170318
-0.120227
-0.060020
-0.025611
0.018811
0.077972
0.098973
0.115612
0.135424
0.114305
0.091372
0.055894
0.005034
-0.049332
-0.094843
-0.129335
-0.152376
-0.172063
-0.171397
-0.150136
-0.124341
-0.101886
-0.076319
-0.031028
0.001736
0.051539
0.082052
0.110131
0.097781
0.083937
0.070507
0.032101
-0.025956
-0.069266
-0.119833
-0.162009
-0.194025
-0.216669
-0.220887
-0.214380
-0.195247
-0.173756
-0.115628
-0.063413
-0.027625
0.014681
0.039690
0.057056
0.052230
0.040197
0.034275
-0.011840
-0.058319
-0.089444
-0.121080
-0.178283
-0.208245
-0.234592
-0.247037
-0.246585
-0.223043
-0.189057
-0.142836
-0.099348
-0.048626
-0.001179
0.022974
0.035820
0.037526
0.021794
-0.000947
-0.018711
-0.058130
-0.107890
-0.154707
-0.202912
-0.228208
-0.247635
-0.257987
-0.248272
-0.229435
-0.191144
-0.141747
-0.102305
-0.044614
-0.000684
0.032526
0.040755
0.041938
0.035163
0.007283
-0.019692
-0.063713
-0.115260
-0.166484
-0.203809
-0.228928
-0.247946
-0.260794
-0.241841
-0.228062
-0.196200
-0.154810
-0.097985
-0.041340
0.002676
0.026709
0.052179
0.051505
0.039977
0.013499
-0.008799
-0.059579
-0.102176
-0.151404
-0.200087
-0.224711
-0.240358
-0.255112
-0.253796
-0.233828
-0.208277
-0.159781
-0.112640
-0.071608
-0.025055
0.001451
0.035394
0.054207
0.076856
0.062472
0.042547
0.009269
-0.024188
-0.052481
-0.077398
-0.097320
-0.111059
-0.090217
-0.062234
-0.015714
0.033532
0.112764
0.187615
0.282058
0.360738
0.416497
0.477139
0.514960
0.546632
0.561958
0.546348
0.539988
0.528655
0.531371
0.529357
0.544651
0.540507
0.562075
0.609330
0.640257
0.683551
0.727778
0.768006
0.787249
0.807430
0.814573
0.805326
0.756360
0.692483
0.600434
0.482919
0.365506
0.261866
0.170820
0.070425
0.006965
-0.032700
-0.048012
-0.035326
-0.020058
0.010343
0.034910
0.069150
0.094462
0.133499
0.144267
0.166371
0.174957
0.167011
0.126620
0.087925
0.045498
-0.003376
-0.053186
-0.098693
-0.139106
-0.169070
-0.180002
-0.176053
-0.158741
-0.130236
-0.089730
-0.038934
0.023531
0.080464
0.102608
0.106153
0.108898
0.097735
0.062393
0.029382
-0.015695
-0.071454
-0.115779
-0.158889
-0.188402
-0.214080
-0.213962
-0.211116
-0.192186
-0.159345
-0.109825
-0.057988
-0.007651
0.034342
0.057286
0.080805
0.092886
0.080702
0.058259
0.022083
-0.020152
-0.066710
-0.103583
-0.143079
-0.180618
-0.203491
-0.211937
-0.185991
-0.172290
-0.133063
-0.080637
-0.039173
-0.004507
0.042958
0.080494
0.089424
0.101415
0.094078
0.071328
0.045362
-0.002159
-0.046030
-0.095257
-0.136685
-0.153540
-0.181936
-0.182554
-0.185643
-0.164425
-0.120735
-0.075653
-0.029759
0.012958
0.065870
0.086660
0.109297
0.120145
0.112113
0.088643
0.067723
0.017785
-0.022244
-0.073051
-0.115590
-0.146079
-0.165636
-0.166457
-0.157652
-0.132848
-0.095335
-0.049864
-0.002326
0.025810
0.080111
0.113722
0.146185
0.143306
0.124579
0.102356
0.074581
0.028803
-0.012482
-0.049192
-0.084764
-0.099963
-0.128924
-0.139996
-0.139132
-0.101548
-0.063962
-0.014639
0.038209
0.081936
0.122061
0.153593
0.172154
0.172815
0.172170
0.149994
0.122651
0.071656
0.026728
-0.015364
-0.064848
-0.089305
-0.106138
-0.104145
-0.088712
-0.066749
-0.043108
-0.022436
0.039526
0.096505
0.155193
0.174859
0.184297
0.187622
0.176648
0.165487
0.136831
0.084131
0.033798
-0.005351
-0.055662
-0.098531
-0.105884
-0.113163
-0.091521
-0.072396
-0.048757
-0.008063
0.045218
0.087400
0.122372
0.152441
0.171460
0.181502
0.163782
0.137724
0.095247
0.061179
0.004558
-0.033612
-0.064362
-0.089857
-0.112094
-0.121412
-0.117941
-0.090902
-0.064201
-0.012389
0.035770
0.075636
0.123063
0.142743
0.151744
0.153720
0.146626
0.123615
0.086110
0.041653
-0.000118
-0.054750
-0.112990
-0.146152
-0.148514
-0.151692
-0.148233
-0.132884
-0.103751
-0.057063
-0.015577
0.027517
0.077417
0.104927
0.130759
0.126046
0.110735
0.095980
0.061048
0.012407
-0.052035
-0.093859
-0.134087
-0.159020
-0.169058
-0.178343
-0.176740
-0.160416
-0.133419
-0.087122
-0.036785
0.018595
0.053423
0.080798
0.094337
0.099097
0.090278
0.068956
0.026656
-0.028647
-0.070285
-0.116433
-0.154692
-0.177382
-0.190861
-0.203914
-0.180321
-0.171861
-0.147624
-0.081986
-0.042819
0.006324
0.042328
0.079967
0.096289
0.097637
0.084089
0.062640
0.029775
-0.019287
-0.061079
-0.119229
-0.170985
-0.187614
-0.198960
-0.206072
-0.197720
-0.182553
-0.147261
-0.103896
-0.054464
-0.004181
0.035784
0.061930
0.085494
0.099665
0.090507
0.068143
0.034831
-0.023175
-0.064861
-0.107934
-0.152916
-0.178828
-0.199203
-0.208754
-0.189742
-0.171044
-0.142486
-0.096462
-0.042070
0.008222
0.048723
0.072542
0.102178
0.101855
0.093403
0.074407
0.046408
-0.005724
-0.065333
-0.120307
-0.153761
-0.188356
-0.212059
-0.236738
-0.229922
-0.161180
-0.113588
-0.064689
-0.036787
-0.011936
0.045007
0.073055
0.102786
0.117621
0.098088
0.084364
0.054705
0.003626
-0.057823
-0.105927
-0.147931
-0.169525
-0.186726
-0.197988
-0.181916
-0.159607
-0.122957
-0.077312
-0.043485
-0.006125
0.037630
0.077529
0.098551
0.110280
0.095371
0.068983
0.037025
-0.008858
-0.051124
-0.139369
-0.166701
-0.172928
-0.179584
-0.195987
-0.187704
-0.172250
-0.153113
-0.099077
-0.024875
0.008775
0.040692
0.081212
0.104146
0.104812
0.091562
0.070190
0.034961
-0.008852
-0.049983
-0.103666
-0.136022
-0.164336
-0.176330
-0.194088
-0.182654
-0.166667
-0.128650
-0.080909
-0.040175
-0.007377
0.021702
0.072319
0.091170
0.098742
0.089714
0.070280
0.024848
-0.033290
-0.077076
-0.127585
-0.162274
-0.181799
-0.202974
-0.207008
-0.204584
-0.176696
-0.147251
-0.106976
-0.058801
-0.016135
0.022335
0.062435
0.072259
0.084182
0.076059
0.049617
0.014324
-0.035835
-0.085555
-0.133083
-0.167484
-0.198463
-0.215274
-0.212891
-0.214421
-0.199495
-0.166333
-0.103449
-0.052749
-0.015345
0.025783
0.054877
0.071212
0.089302
0.064741
0.037850
0.015290
-0.040343
-0.083025
-0.140365
-0.181585
-0.205529
-0.220561
-0.224861
-0.217463
-0.192902
-0.169642
-0.124583
-0.058827
-0.014692
0.018627
0.047035
0.064473
0.069161
0.065948
0.040214
-0.001499
-0.055546
-0.092897
-0.135906
-0.183746
-0.219919
-0.229332
-0.232519
-0.224537
-0.196658
-0.155063
-0.108512
-0.061330
-0.029573
0.023253
0.063084
0.072183
0.083188
0.088296
0.066975
0.041217
-0.021531
-0.072091
-0.116843
-0.153990
-0.181415
-0.193019
-0.200851
-0.192071
-0.168552
-0.121885
-0.076431
-0.036718
0.015262
0.060187
0.086814
0.100017
0.114295
0.111016
0.078861
0.046012
0.000612
-0.063380
-0.104236
-0.141834
-0.181786
-0.196365
-0.210493
-0.190612
-0.148769
-0.115983
-0.061648
-0.015149
0.027294
0.082463
0.126851
0.119546
0.124944
0.109347
0.091557
0.057735
0.018337
-0.020973
-0.087542
-0.134409
-0.151236
-0.167356
-0.175199
-0.187021
-0.165950
-0.147683
-0.104598
-0.055798
-0.012759
0.023761
0.057514
0.073135
0.085307
0.071249
0.051657
-0.001191
-0.058450
-0.097481
-0.129045
-0.172003
-0.212147
-0.233824
-0.224021
-0.225767
-0.198693
-0.167965
-0.117251
-0.064486
-0.022521
0.003553
0.020945
0.037808
0.055868
0.045176
0.016295
-0.017060
-0.064892
-0.116453
-0.172270
-0.227555
-0.250284
-0.254953
-0.285642
-0.255636
-0.223733
-0.198117
-0.153379
-0.102105
-0.055876
-0.021238
0.002363
0.025364
0.034955
0.030728
0.003680
-0.045656
-0.087800
-0.118607
-0.169998
-0.198613
-0.230316
-0.269681
-0.283169
-0.270881
-0.240874
-0.207522
-0.165696
-0.120229
-0.079628
-0.032587
0.012621
0.030981
0.043576
0.034554
-0.012018
-0.043110
-0.089911
-0.122994
-0.170339
-0.221274
-0.263029
-0.265960
-0.272381
-0.259878
-0.243965
-0.217790
-0.163277
-0.126059
-0.083161
-0.042772
-0.009699
0.013360
0.013235
-0.009963
-0.038496
-0.066974
-0.082788
-0.121018
-0.167554
-0.216565
-0.247168
-0.273073
-0.294716
-0.277387
-0.253721
-0.223800
-0.172388
-0.135170
-0.091612
-0.036472
-0.002133
0.025330
0.050739
0.050101
0.042641
0.026240
-0.002419
-0.042161
-0.060678
-0.087143
-0.100243
-0.108119
-0.093094
-0.062917
-0.026860
0.045370
0.118723
0.197828
0.295628
0.362874
0.415604
0.476314
0.522766
0.565577
0.588814
0.592402
0.568391
0.570261
0.567716
0.574403
0.565031
0.581510
0.601326
0.612860
0.622355
0.657723
0.685437
0.687652
0.723275
0.745135
0.752348
0.719822
0.664221
0.584171
0.485562
0.381784
0.267092
0.164774
0.085693
0.012918
-0.028085
-0.047007
-0.057621
-0.071427
-0.055669
-0.035199
0.000318
0.026193
0.059612
0.077721
0.104205
0.097208
0.117497
0.114948
0.079935
0.035308
-0.023251
-0.059204
-0.093132
-0.137207
-0.193038
-0.216557
-0.221970
-0.208607
-0.200609
-0.170120
-0.114943
-0.067748
-0.037488
0.008674
0.048491
0.061169
0.064412
0.051250
0.017168
-0.009274
-0.056690
-0.099559
-0.151458
-0.193554
-0.225649
-0.242383
-0.249825
-0.238370
-0.228578
-0.190027
-0.143442
-0.094978
-0.045961
-0.005305
0.026284
0.044277
0.049193
0.045750
0.013539
-0.023797
-0.074211
-0.116237
-0.157074
-0.202271
-0.228357
-0.248037
-0.249971
-0.238663
-0.230438
-0.215671
-0.132591
-0.083182
-0.040549
0.006196
0.033445
0.051379
0.063509
0.051901
0.027200
-0.004494
-0.060394
-0.107713
-0.155481
-0.203103
-0.244159
-0.251190
-0.238089
-0.224457
-0.206777
-0.183399
-0.134135
-0.087544
-0.035368
-0.003154
0.034003
0.056083
0.061631
0.059051
0.009720
0.003971
-0.019035
-0.060616
-0.111729
-0.158244
-0.198592
-0.219971
-0.222723
-0.219928
-0.199199
-0.159918
-0.120774
-0.074881
-0.019645
0.017858
0.058600
0.089939
0.100142
0.086892
0.063830
0.026634
-0.017063
-0.053482
-0.104235
-0.139962
-0.166304
-0.181485
-0.208244
-0.202367
-0.169430
-0.127531
-0.085063
-0.036233
0.018486
0.055607
0.088327
0.107268
0.121856
0.123450
0.093405
0.064907
0.015396
-0.027995
-0.057151
-0.109186
-0.135482
-0.165532
-0.188277
-0.170289
-0.149719
-0.108587
-0.058054
-0.003468
0.034755
0.063950
0.093986
0.119856
0.132018
0.122708
0.099013
0.062567
0.022397
-0.027008
-0.086710
-0.135351
-0.179259
-0.185907
-0.176054
-0.173012
-0.155260
-0.117741
-0.077886
-0.024927
0.026475
0.070390
0.097190
0.104748
0.109501
0.091224
0.073958
0.044719
0.001778
-0.041293
-0.092859
-0.143920
-0.168424
-0.215628
-0.225632
-0.199215
-0.164640
-0.135707
-0.092977
-0.053710
-0.007640
0.027504
0.060690
0.076492
0.084638
0.070561
0.054113
0.016304
-0.027653
-0.082547
-0.126265
-0.173185
-0.209835
-0.211175
-0.228686
-0.219288
-0.210833
-0.191203
-0.141757
-0.085787
-0.039726
-0.011258
0.006099
0.030587
0.050872
0.033184
0.008992
-0.044592
-0.097484
-0.122864
-0.166714
-0.201004
-0.219516
-0.251146
-0.273279
-0.254549
-0.238375
-0.222584
-0.179425
-0.132565
-0.080888
-0.046548
-0.017802
0.013332
0.014592
0.015105
-0.023171
-0.057114
-0.108077
-0.150233
-0.191612
-0.241797
-0.280360
-0.294223
-0.295451
-0.288362
-0.266416
-0.233061
-0.192544
-0.149176
-0.102034
-0.053592
-0.021111
-0.004333
0.011646
-0.001248
-0.027949
-0.065667
-0.117311
-0.164175
-0.206413
-0.247816
-0.289774
-0.304900
-0.305788
-0.300821
-0.281334
-0.250466
-0.202599
-0.163756
-0.129946
-0.054750
-0.024629
-0.000682
0.005804
-0.015427
-0.044841
-0.064919
-0.106771
-0.163492
-0.202040
-0.238986
-0.288579
-0.297343
-0.311885
-0.324720
-0.299837
-0.241505
-0.195446
-0.143656
-0.093466
-0.080973
-0.043114
-0.010856
0.000492
-0.003062
-0.022507
-0.055607
-0.106865
-0.155378
-0.199380
-0.235936
-0.275321
-0.303789
-0.308283
-0.291562
-0.270698
-0.237156
-0.181710
-0.139713
-0.090315
-0.038129
0.000601
0.008420
-0.000473
-0.007337
-0.035272
-0.068296
-0.118443
-0.165717
-0.210774
-0.253580
-0.277973
-0.305500
-0.308522
-0.283730
-0.263962
-0.231252
-0.198024
-0.153467
-0.096732
-0.051320
-0.019103
-0.013485
-0.005315
-0.007402
-0.044879
-0.071691
-0.115779
-0.173883
-0.214116
-0.258354
-0.283438
-0.311576
-0.325024
-0.317429
-0.284226
-0.242410
-0.195797
-0.158772
-0.117170
-0.075772
-0.037891
-0.022814
-0.023121
-0.013118
-0.031153
-0.074205
-0.115925
-0.168340
-0.222645
-0.263952
-0.283627
-0.305117
-0.311639
-0.310768
-0.292004
-0.260599
-0.209287
-0.168263
-0.118013
-0.078991
-0.037556
-0.019838
-0.016066
-0.030859
-0.061506
-0.082417
-0.128644
-0.173135
-0.219103
-0.268031
-0.309328
-0.320408
-0.334791
-0.316888
-0.297902
-0.257211
-0.224337
-0.162445
-0.115138
-0.098507
-0.071378
-0.053706
-0.032269
-0.037635
-0.069926
-0.118964
-0.144885
-0.187221
-0.231902
-0.260457
-0.295951
-0.324898
-0.332822
-0.322017
-0.299586
-0.269924
-0.227366
-0.177013
-0.137946
-0.097026
-0.059543
-0.039216
-0.027217
-0.046296
-0.059662
-0.092890
-0.147139
-0.195156
-0.248753
-0.281665
-0.305166
-0.319612
-0.328070
-0.332423
-0.306237
-0.274552
-0.243015
-0.200041
-0.144872
-0.105264
-0.079208
-0.058564
-0.048735
-0.044097
-0.065785
-0.105815
-0.152571
-0.207562
-0.257789
-0.293792
-0.314002
-0.328258
-0.339348
-0.335673
-0.316514
-0.281107
-0.231558
-0.194962
-0.156428
-0.110647
-0.080502
-0.058485
-0.052466
-0.056273
-0.075856
-0.106605
-0.165519
-0.215783
-0.252233
-0.292477
-0.327808
-0.347513
-0.358819
-0.328086
-0.287336
-0.256234
-0.229581
-0.181803
-0.133797
-0.098890
-0.064790
-0.039972
-0.028211
-0.040855
-0.060508
-0.104924
-0.147736
-0.179594
-0.225618
-0.260801
-0.293432
-0.308969
-0.315005
-0.313780
-0.284005
-0.252834
-0.202064
-0.151678
-0.090774
-0.064403
-0.025163
-0.015532
-0.012175
-0.017532
-0.036062
-0.079785
-0.120409
-0.158778
-0.218381
-0.263051
-0.289556
-0.309354
-0.324654
-0.302710
-0.266825
-0.230721
-0.182979
-0.139817
-0.085046
-0.039709
-0.005271
0.010235
0.028828
0.007862
-0.024971
-0.057216
-0.103855
-0.158413
-0.195463
-0.232860
-0.261782
-0.290810
-0.298243
-0.295823
-0.274839
-0.243641
-0.202217
-0.160315
-0.120466
-0.089548
-0.058640
-0.032265
-0.023895
-0.047762
-0.073623
-0.093812
-0.133891
-0.185009
-0.238831
-0.291353
-0.301394
-0.330296
-0.342852
-0.334442
-0.318942
-0.288091
-0.253999
-0.217590
-0.147168
-0.104181
-0.091023
-0.064423
-0.061350
-0.070115
-0.094366
-0.119667
-0.175963
-0.230834
-0.288946
-0.319886
-0.358082
-0.366702
-0.373821
-0.382918
-0.353647
-0.307786
-0.264409
-0.218502
-0.172286
-0.135437
-0.092313
-0.069572
-0.065786
-0.079675
-0.100658
-0.138120
-0.181098
-0.223590
-0.267607
-0.326081
-0.356600
-0.376632
-0.383063
-0.363963
-0.349101
-0.316948
-0.274440
-0.234618
-0.180758
-0.142879
-0.096947
-0.095457
-0.087788
-0.086402
-0.097478
-0.137522
-0.175166
-0.218823
-0.264307
-0.310327
-0.341031
-0.356069
-0.380329
-0.376235
-0.342903
-0.298428
-0.261645
-0.223399
-0.178197
-0.143025
-0.118971
-0.078358
-0.068922
-0.086754
-0.113685
-0.148217
-0.182416
-0.236854
-0.295868
-0.320641
-0.354262
-0.378549
-0.382167
-0.376256
-0.355866
-0.315814
-0.277741
-0.220916
-0.192110
-0.147728
-0.094780
-0.071716
-0.050516
-0.049830
-0.079577
-0.099240
-0.120971
-0.146183
-0.184202
-0.193816
-0.218537
-0.216025
-0.209068
-0.179777
-0.135392
-0.085698
-0.020476
0.064716
0.142088
0.218679
0.291112
0.355510
0.400769
0.417730
0.433927
0.424910
0.414897
0.408594
0.401190
0.401964
0.401334
0.420344
0.452714
0.512284
0.541118
0.559101
0.603381
0.628224
0.637919
0.650888
0.660881
0.664002
0.616287
0.528595
0.430375
0.335372
0.241737
0.142542
0.035409
-0.042477
-0.095453
-0.132499
-0.151449
-0.154835
-0.139619
-0.108346
-0.085930
-0.052268
-0.031086
-0.005076
0.037978
0.039861
0.049183
0.030611
-0.005552
-0.050318
-0.099617
-0.137167
-0.179326
-0.216158
-0.256373
-0.287091
-0.298973
-0.287575
-0.271926
-0.233564
-0.199302
-0.160083
-0.112241
-0.073432
-0.038630
-0.014743
-0.017756
-0.024452
-0.054030
-0.101631
-0.139171
-0.177475
-0.225297
-0.265668
-0.302928
-0.315027
-0.319250
-0.323330
-0.294382
-0.255887
-0.202702
-0.173543
-0.116649
-0.084586
-0.051635
-0.022894
-0.029658
-0.056909
-0.068470
-0.099756
-0.136443
-0.181376
-0.226577
-0.262300
-0.292126
-0.317019
-0.315172
-0.312915
-0.283024
-0.243360
-0.206063
-0.166271
-0.119193
-0.074925
-0.038830
-0.027623
-0.013598
-0.024744
-0.051056
-0.085875
-0.125514
-0.163992
-0.204028
-0.243130
-0.281692
-0.301299
-0.299746
-0.287152
-0.255498
-0.232700
-0.192314
-0.139439
-0.086148
-0.049266
-0.018190
0.004980
0.004164
-0.039034
-0.037766
-0.065159
-0.100686
-0.138198
-0.192333
-0.224848
-0.256917
-0.286589
-0.284234
-0.275989
-0.269423
-0.235566
-0.170125
-0.107884
-0.063057
-0.019257
0.008127
0.023853
0.036420
0.029991
0.015850
-0.009246
-0.051497
-0.113993
-0.160663
-0.187340
-0.214233
-0.242166
-0.246328
-0.238651
-0.218658
-0.176772
-0.139290
-0.080629
-0.034083
-0.002178
0.036752
0.049226
0.078242
0.072732
0.038734
-0.000828
-0.034283
-0.077267
-0.125676
-0.158894
-0.187624
-0.215250
-0.215859
-0.208390
-0.183865
-0.146692
-0.110619
-0.059640
-0.018821
0.022408
0.055885
0.083305
0.091691
0.076715
0.056475
0.024181
-0.021908
-0.077201
-0.124460
-0.147330
-0.178521
-0.196794
-0.206621
-0.189361
-0.174666
-0.136528
-0.096975
-0.049752
0.003461
0.043107
0.068677
0.082299
0.079884
0.062533
0.034947
0.013126
-0.018376
-0.079015
-0.111359
-0.159456
-0.195897
-0.231474
-0.233690
-0.219182
-0.207439
-0.162778
-0.111938
-0.067599
-0.022481
0.009493
0.027813
0.061676
0.065678
0.062258
0.030845
0.003910
-0.049313
-0.094387
-0.138411
-0.184500
-0.222114
-0.236139
-0.238965
-0.231534
-0.218007
-0.183703
-0.140842
-0.108210
-0.064092
-0.028869
-0.000905
0.014629
0.021446
0.016146
-0.013883
-0.052498
-0.084408
-0.121436
-0.175444
-0.217262
-0.245851
-0.255550
-0.271277
-0.262653
-0.251267
-0.214997
-0.175093
-0.126144
-0.061580
-0.030506
-0.014396
-0.012588
-0.003384
-0.008830
-0.028113
-0.052556
-0.099532
-0.156620
-0.208232
-0.249011
-0.271457
-0.295034
-0.289608
-0.291707
-0.264964
-0.224242
-0.169393
-0.132401
-0.094660
-0.056734
-0.022822
-0.012546
-0.016961
-0.018919
-0.036952
-0.079795
-0.128652
-0.161980
-0.210222
-0.246455
-0.275388
-0.293432
-0.297374
-0.296273
-0.271362
-0.227953
-0.200827
-0.149433
-0.088011
-0.046423
-0.012937
0.004304
0.001450
0.003589
-0.016722
-0.060575
-0.108158
-0.163809
-0.204580
-0.240907
-0.278850
-0.298778
-0.297940
-0.282684
-0.263744
-0.214460
-0.166888
-0.124527
-0.086972
-0.052696
-0.017474
0.009025
0.016172
0.000584
-0.008983
-0.051085
-0.088357
-0.129606
-0.182894
-0.237310
-0.262276
-0.259325
-0.275019
-0.264329
-0.239170
-0.214918
-0.175033
-0.118474
-0.055048
-0.036035
-0.009805
0.016894
0.032196
0.030275
-0.000195
-0.035157
-0.085711
-0.145382
-0.210310
-0.253497
-0.260687
-0.267842
-0.280120
-0.277836
-0.248324
-0.194554
-0.160451
-0.117643
-0.063169
-0.035412
-0.006804
0.037163
0.033788
0.022848
0.004323
-0.034017
-0.077680
-0.127505
-0.173472
-0.213716
-0.235662
-0.272320
-0.274375
-0.270138
-0.249647
-0.215720
-0.159568
-0.114610
-0.077946
-0.039142
-0.008829
0.027232
0.043277
0.024704
-0.007509
-0.046734
-0.087418
-0.140160
-0.191174
-0.220716
-0.248352
-0.259142
-0.271049
-0.260064
-0.236874
-0.203992
-0.161897
-0.126092
-0.090659
-0.047521
-0.018192
0.021967
0.033562
0.014695
-0.002771
-0.038648
-0.078448
-0.132589
-0.186500
-0.213929
-0.247703
-0.270608
-0.262820
-0.260469
-0.234892
-0.212942
-0.171887
-0.116717
-0.077957
-0.031892
0.001730
0.031103
0.011889
0.010297
-0.010643
-0.040467
-0.080434
-0.133972
-0.177225
-0.221313
-0.247840
-0.268752
-0.279048
-0.279966
-0.256833
-0.215281
-0.169167
-0.130963
-0.072995
-0.055368
-0.018436
-0.001967
0.012601
-0.011928
-0.016031
-0.056736
-0.085421
-0.127213
-0.188076
-0.214106
-0.244754
-0.271102
-0.277629
-0.265654
-0.234149
-0.217446
-0.182011
-0.107533
-0.057133
-0.028850
-0.001655
0.015372
0.018723
0.006290
-0.005158
-0.047037
-0.089703
-0.147374
-0.196795
-0.225132
-0.253631
-0.264569
-0.274183
-0.274933
-0.248679
-0.210321
-0.181143
-0.137275
-0.079887
-0.029002
0.005926
0.023522
0.035171
0.018047
-0.002899
-0.050211
-0.091335
-0.130249
-0.170407
-0.207237
-0.244318
-0.290574
-0.328798
-0.281364
-0.239152
-0.196279
-0.157616
-0.112114
-0.072821
-0.027446
0.002443
0.029333
0.034456
0.015778
-0.017203
-0.053194
-0.089904
-0.125373
-0.182675
-0.225751
-0.260465
-0.272795
-0.266139
-0.260822
-0.241816
-0.197326
-0.150704
-0.111889
-0.077376
-0.039660
-0.000402
0.019403
0.023568
0.020927
-0.001621
-0.039774
-0.081803
-0.131659
-0.169618
-0.202528
-0.226638
-0.248729
-0.256409
-0.249847
-0.225489
-0.191755
-0.158150
-0.097828
-0.027474
0.026986
0.041467
0.044282
0.061855
0.058486
0.045144
0.000071
-0.039233
-0.074006
-0.122450
-0.153300
-0.200009
-0.231605
-0.230667
-0.216822
-0.199170
-0.161259
-0.126525
-0.079213
-0.025831
0.005539
0.029684
0.043573
0.063201
0.074913
0.052010
0.025159
-0.020601
-0.080182
-0.110609
-0.123759
-0.168033
-0.201080
-0.191802
-0.183123
-0.169280
-0.121171
-0.086370
-0.060188
0.010489
0.063088
0.085873
0.107070
0.100249
0.079836
0.049837
0.005504
-0.038589
-0.082134
-0.127666
-0.173694
-0.218769
-0.232493
-0.234241
-0.212885
-0.193823
-0.166061
-0.119529
-0.077160
-0.033354
-0.003047
0.023570
0.056637
0.068462
0.050173
0.033254
-0.023264
-0.067139
-0.112894
-0.152842
-0.185574
-0.231454
-0.252440
-0.258155
-0.254235
-0.229188
-0.190382
-0.147676
-0.111981
-0.064464
-0.022330
0.009889
0.028080
0.042503
0.017873
-0.015344
-0.058272
-0.090583
-0.130392
-0.182790
-0.218897
-0.243784
-0.257552
-0.253349
-0.249768
-0.232045
-0.200468
-0.163472
-0.120758
-0.058808
-0.012823
0.010722
0.031663
0.020111
0.009886
-0.009525
-0.050548
-0.092134
-0.135435
-0.172893
-0.202261
-0.233399
-0.260303
-0.262337
-0.251453
-0.235677
-0.196646
-0.150135
-0.103972
-0.059121
-0.019427
0.006830
0.029909
0.032967
0.020666
-0.008357
-0.057541
-0.092231
-0.127133
-0.180830
-0.212148
-0.228603
-0.248864
-0.252924
-0.240287
-0.228052
-0.188500
-0.133860
-0.096433
-0.058829
-0.019084
0.005761
0.027423
0.036388
0.020328
-0.013433
-0.044691
-0.079641
-0.138248
-0.193167
-0.231014
-0.252873
-0.269754
-0.258191
-0.217104
-0.181135
-0.144243
-0.105082
-0.035926
0.026537
0.071810
0.125826
0.167985
0.184409
0.182170
0.177532
0.160437
0.142135
0.126045
0.119738
0.107946
