-0.049879
-0.008163
0.033906
0.069926
0.091254
0.111526
0.100224
0.078715
0.035179
-0.007016
-0.041996
-0.085921
-0.130025
-0.165708
-0.190397
-0.194994
-0.183409
-0.163513
-0.124402
-0.086643
-0.041315
0.003266
0.045719
0.077201
0.100195
0.105649
0.094459
0.074735
0.036785
-0.007761
-0.042534
-0.083217
-0.133815
-0.173139
-0.189504
-0.190607
-0.183956
-0.162256
-0.146269
-0.105059
-0.075328
-0.026222
0.038726
0.086178
0.093873
0.091142
0.085951
0.066170
0.049223
-0.003135
-0.057492
-0.092521
-0.128853
-0.153859
-0.170473
-0.158046
-0.149448
-0.115689
-0.066884
-0.004911
0.056312
0.117049
0.168731
0.210668
0.240590
0.268232
0.282426
0.292017
0.277583
0.251096
0.218861
0.191914
0.175322
0.172495
0.185159
0.205467
0.242361
0.303350
0.345984
0.409006
0.487530
0.581877
0.661189
0.734878
0.794368
0.832550
0.838464
0.805651
0.767853
0.716193
0.660105
0.596908
0.558537
0.495682
0.430059
0.371311
0.322043
0.302486
0.274633
0.274443
0.267726
0.275075
0.282900
0.275536
0.271855
0.253668
0.219265
0.190244
0.147782
0.089646
0.041486
-0.008153
-0.048752
-0.090527
-0.118318
-0.115400
-0.100399
-0.093790
-0.069083
-0.013468
0.031225
0.077139
0.126244
0.153257
0.171081
0.171623
0.174084
0.138588
0.111048
0.062551
0.029028
-0.039076
-0.076502
-0.113365
-0.131591
-0.148093
-0.151219
-0.131049
-0.105414
-0.055705
-0.004064
0.048810
0.088316
0.125716
0.144362
0.153881
0.155339
0.120163
0.085607
0.048223
-0.014648
-0.051733
-0.099396
-0.134057
-0.147078
-0.162239
-0.158191
-0.131763
-0.105881
-0.058074
-0.016319
0.026563
0.068181
0.114979
0.131075
0.139767
0.130497
0.127701
0.098603
0.054593
0.003330
-0.047526
-0.076770
-0.113228
-0.134329
-0.144499
-0.131728
-0.124193
-0.106422
-0.060366
-0.001956
0.040718
0.085217
0.116949
0.144264
0.178328
0.165553
0.144253
0.128188
0.068986
0.028438
-0.026168
-0.061270
-0.106042
-0.122842
-0.136408
-0.139179
-0.105233
-0.068747
-0.031160
0.024869
0.068672
0.106976
0.151253
0.181686
0.185945
0.173364
0.157485
0.133708
0.089150
0.038751
-0.001031
-0.045952
-0.074678
-0.092511
-0.094065
-0.073200
-0.054578
-0.035048
0.024683
0.065260
0.106712
0.140506
0.176829
0.201161
0.206428
0.189046
0.171880
0.163342
0.124426
0.074613
0.028308
-0.015310
-0.042560
-0.073024
-0.076855
-0.061326
-0.035106
-0.010132
0.042097
0.082543
0.137566
0.171791
0.198446
0.217461
0.224261
0.216911
0.194027
0.156364
0.109719
0.064696
0.029065
-0.006765
-0.036260
-0.056496
-0.065742
-0.055870
-0.037204
0.000729
0.045655
0.089280
0.141556
0.180893
0.217898
0.229489
0.233987
0.225356
0.195967
0.173183
0.135149
0.091847
0.031366
-0.006193
-0.035432
-0.059064
-0.066852
-0.064480
-0.035151
-0.004557
0.043633
0.079106
0.119440
0.156750
0.190416
0.221042
0.225344
0.217618
0.188269
0.171619
0.120737
0.070601
0.026045
-0.012522
-0.054210
-0.079481
-0.082561
-0.076638
-0.072092
-0.046345
0.003024
0.036783
0.084568
0.122887
0.160893
0.182068
0.196528
0.177863
0.155045
0.136636
0.107119
0.047836
-0.006505
-0.052258
-0.099095
-0.125816
-0.135817
-0.115152
-0.081111
-0.064338
-0.022088
0.024663
0.074410
0.114565
0.146448
0.155006
0.159736
0.144965
0.128229
0.100696
0.047032
0.002177
-0.061772
-0.107056
-0.134524
-0.148779
-0.154606
-0.148328
-0.120705
-0.103625
-0.054966
-0.021297
0.029261
0.071891
0.101327
0.114008
0.124471
0.131630
0.103204
0.077902
0.014007
-0.032812
-0.082158
-0.116481
-0.166284
-0.190685
-0.197014
-0.173211
-0.145231
-0.109391
-0.068631
-0.014479
0.034205
0.074667
0.100240
0.114965
0.111944
0.112648
0.077909
0.059437
0.014356
-0.025458
-0.073531
-0.108821
-0.138178
-0.159923
-0.168443
-0.149949
-0.134907
-0.118692
-0.079369
-0.025735
0.024652
0.062772
0.102726
0.131131
0.145708
0.131013
0.109427
0.062804
0.015988
-0.034316
-0.070208
-0.113600
-0.149276
-0.178980
-0.186786
-0.171898
-0.156962
-0.113307
-0.059885
-0.010092
0.025590
0.063984
0.112449
0.136874
0.143968
0.136092
0.115491
0.092309
0.047363
-0.015041
-0.068256
-0.104363
-0.140649
-0.156155
-0.164597
-0.155663
-0.145885
-0.123125
-0.078670
-0.030320
0.035064
0.076553
0.107591
0.124249
0.130976
0.117097
0.106521
0.094046
0.049862
-0.006527
-0.058074
-0.108463
-0.142772
-0.171575
-0.177136
-0.170525
-0.152519
-0.127576
-0.073559
-0.035737
0.005941
0.048191
0.095013
0.121130
0.129500
0.122770
0.102661
0.071502
0.019537
-0.023889
-0.067654
-0.108980
-0.151137
-0.156479
-0.173482
-0.170370
-0.157036
-0.126226
-0.084491
-0.030867
0.002915
0.062733
0.111790
0.125810
0.123250
0.116591
0.098126
0.061219
0.010205
-0.032625
-0.069329
-0.105807
-0.136246
-0.150799
-0.174484
-0.180688
-0.158486
-0.130162
-0.080199
-0.029582
0.011670
0.047176
0.084482
0.110462
0.118521
0.109226
0.088594
0.051310
0.020048
-0.030064
-0.075364
-0.122177
-0.165454
-0.190219
-0.189276
-0.177741
-0.157421
-0.135038
-0.099194
-0.043965
-0.001518
0.036472
0.077865
0.101784
0.110102
0.102822
0.079029
0.059239
-0.005884
-0.051243
-0.087536
-0.135277
-0.166246
-0.188745
-0.199925
-0.186106
-0.166443
-0.134278
-0.104103
-0.070121
-0.028563
0.025861
0.080452
0.101517
0.100341
0.087386
0.078062
0.046960
0.006387
-0.042738
-0.090550
-0.137616
-0.170157
-0.189165
-0.188641
-0.177872
-0.151919
-0.125541
-0.080191
-0.023351
0.021565
0.071439
0.092326
0.114722
0.130117
0.130514
0.099436
0.070244
0.044560
0.005294
-0.038379
-0.077256
-0.126239
-0.154205
-0.159200
-0.152216
-0.139146
-0.116967
-0.065248
-0.020138
0.028269
0.061599
0.093081
0.113316
0.141236
0.134515
0.112489
0.084804
0.034412
-0.008852
-0.045142
-0.091309
-0.117525
-0.134328
-0.145072
-0.141774
-0.112019
-0.084617
-0.046305
0.007200
0.054586
0.088511
0.114717
0.140438
0.145567
0.146227
0.111540
0.080769
0.040181
-0.019007
-0.053149
-0.101788
-0.139448
-0.166452
-0.177532
-0.166444
-0.147716
-0.123095
-0.075801
-0.029548
0.015816
0.049603
0.074845
0.091036
0.100572
0.094225
0.066428
0.034445
-0.014020
-0.055457
-0.107002
-0.155199
-0.186143
-0.211547
-0.230870
-0.223934
-0.203178
-0.167141
-0.128435
-0.078106
-0.035134
0.010327
0.038371
0.062595
0.083250
0.068820
0.039777
0.016851
-0.027194
-0.080813
-0.111286
-0.149862
-0.179903
-0.187913
-0.216529
-0.210100
-0.178563
-0.154219
-0.119743
-0.076389
-0.033715
0.009247
0.037412
0.069320
0.097078
0.083058
0.055554
-0.001812
-0.019194
-0.076298
-0.122588
-0.175300
-0.209074
-0.233676
-0.235297
-0.221440
-0.185622
-0.156293
-0.121822
-0.062716
-0.026971
0.007850
0.047457
0.069330
0.083151
0.071757
0.043510
0.015498
-0.034653
-0.091508
-0.129745
-0.175464
-0.210239
-0.231528
-0.228365
-0.214307
-0.201897
-0.168302
-0.122466
-0.093477
-0.037481
0.015296
0.035144
0.053108
0.068287
0.057888
0.036790
0.009985
-0.032799
-0.090898
-0.149785
-0.188094
-0.201990
-0.204697
-0.184126
-0.176848
-0.149594
-0.112889
-0.070768
-0.002442
0.051213
0.122882
0.183061
0.215162
0.212919
0.223495
0.222783
0.209357
0.178556
0.169557
0.149493
0.133381
0.132533
0.150915
0.169855
0.202172
0.244236
0.296862
0.366079
0.440206
0.528807
0.608507
0.678463
0.726573
0.774669
0.796653
0.797238
0.761799
0.703551
0.652839
0.606470
0.558889
0.519019
0.474158
0.435997
0.385064
0.338764
0.304124
0.280328
0.287506
0.285454
0.287309
0.286677
0.268683
0.250032
0.212900
0.168073
0.125604
0.080682
0.026271
-0.041797
-0.091824
-0.123433
-0.153741
-0.146357
-0.137759
-0.114531
-0.074204
-0.046855
-0.009304
0.044562
0.089373
0.118003
0.125725
0.137301
0.123490
0.105577
0.077665
0.038249
-0.012670
-0.066063
-0.107458
-0.145939
-0.186618
-0.204927
-0.188526
-0.168397
-0.139978
-0.100605
-0.039488
-0.003986
0.052589
0.084909
0.094776
0.111397
0.111650
0.088735
0.071888
0.026130
-0.026597
-0.077214
-0.119901
-0.156256
-0.174994
-0.180062
-0.175299
-0.159001
-0.120242
-0.076041
-0.020109
0.017668
0.051658
0.083742
0.101007
0.119588
0.106186
0.097424
0.064174
0.024983
-0.029672
-0.067504
-0.109561
-0.148630
-0.174001
-0.182176
-0.183283
-0.164243
-0.128907
-0.069075
-0.015568
0.022961
0.062374
0.101610
0.121822
0.129506
0.122917
0.112178
0.087999
0.037805
-0.014244
-0.043683
-0.081679
-0.127773
-0.160669
-0.164306
-0.151590
-0.125699
-0.090419
-0.061195
-0.005607
0.034234
0.077880
0.117175
0.145153
0.153339
0.145256
0.125891
0.106752
0.060641
0.015455
-0.036937
-0.079707
-0.099356
-0.127794
-0.138770
-0.121216
-0.095977
-0.064541
-0.018293
0.041921
0.075670
0.118086
0.149394
0.164553
0.178575
0.170129
0.158356
0.120410
0.097181
0.052063
-0.002432
-0.045172
-0.075579
-0.105133
-0.108863
-0.099856
-0.089211
-0.055861
-0.007372
0.050195
0.095562
0.131137
0.149207
0.174548
0.196492
0.190902
0.171621
0.139467
0.100985
0.058190
0.009447
-0.022482
-0.046459
-0.072002
-0.078465
-0.073262
-0.060329
-0.024609
0.012101
0.055159
0.089703
0.145239
0.179111
0.196737
0.214198
0.204226
0.169380
0.139356
0.106466
0.045717
0.001893
-0.049449
-0.062000
-0.089904
-0.092522
-0.096176
-0.077254
-0.049440
-0.016178
0.031038
0.088447
0.130819
0.172894
0.196376
0.199448
0.191102
0.171716
0.138323
0.080563
0.030622
-0.024885
-0.065218
-0.097555
-0.111753
-0.129465
-0.122394
-0.095950
-0.051497
-0.015572
0.023945
0.071235
0.112307
0.134111
0.151024
0.156340
0.146693
0.138631
0.108648
0.053727
0.005031
-0.045090
-0.095198
-0.135303
-0.157009
-0.165292
-0.161980
-0.135352
-0.092723
-0.050852
-0.017785
0.013132
0.061832
0.090902
0.111021
0.138753
0.127862
0.099384
0.076985
0.041247
-0.014344
-0.066596
-0.105086
-0.145221
-0.173723
-0.171797
-0.160584
-0.137686
-0.118521
-0.093945
-0.042292
0.002437
0.042408
0.068387
0.092235
0.107814
0.113826
0.084502
0.050884
0.008393
-0.049354
-0.104460
-0.139758
-0.187424
-0.200598
-0.204598
-0.195299
-0.181281
-0.146080
-0.104150
-0.047990
-0.002280
0.043157
0.070637
0.098225
0.098361
0.102936
0.078661
0.035247
0.021693
-0.033212
-0.088094
-0.128813
-0.165690
-0.192815
-0.196978
-0.195814
-0.181827
-0.143606
-0.072677
-0.035212
-0.002446
0.042662
0.082124
0.103814
0.107757
0.098342
0.077435
0.054762
0.018612
-0.019428
-0.074752
-0.127664
-0.157808
-0.177098
-0.188377
-0.190030
-0.175029
-0.149903
-0.104038
-0.032731
0.017705
0.052443
0.073216
0.104257
0.107097
0.122115
0.097727
0.061259
0.018758
-0.050205
-0.094490
-0.134536
-0.178397
-0.165436
-0.176590
-0.173501
-0.165539
-0.120802
-0.087199
-0.042488
0.021293
0.058419
0.090310
0.117262
0.133205
0.124132
0.104301
0.065558
0.015422
-0.031637
-0.082866
-0.125490
-0.165023
-0.199837
-0.200901
-0.189361
-0.179243
-0.143397
-0.100181
-0.040980
0.005138
0.034479
0.068500
0.098193
0.118828
0.113059
0.100399
0.068208
0.032167
-0.020589
-0.070725
-0.123572
-0.154854
-0.175431
-0.191870
-0.197127
-0.164295
-0.139123
-0.099763
-0.058401
-0.013871
0.034421
0.063744
0.108833
0.113464
0.102195
0.071118
0.045991
-0.001857
-0.042759
-0.070991
-0.119783
-0.164376
-0.195631
-0.199097
-0.192476
-0.160669
-0.144440
-0.104470
-0.051956
-0.005213
0.044362
0.085301
0.113135
0.111683
0.085425
0.071083
0.027860
-0.008725
-0.052975
-0.105488
-0.156331
-0.167757
-0.189397
-0.198146
-0.191628
-0.170342
-0.134882
-0.099616
-0.053856
-0.020543
0.023112
0.046368
0.094016
0.098861
0.078190
0.063418
0.029815
-0.005178
-0.050809
-0.099828
-0.144587
-0.176852
-0.214268
-0.232263
-0.215075
-0.183228
-0.142470
-0.089492
-0.049369
-0.013945
0.029964
0.064827
0.078207
0.092840
0.081052
0.063234
0.041753
0.012695
-0.041232
-0.081299
-0.115315
-0.149074
-0.170463
-0.180785
-0.185387
-0.165212
-0.123262
-0.067650
-0.033304
0.011685
0.053141
0.087679
0.099880
0.107818
0.105231
0.088432
0.047255
0.013581
-0.023798
-0.070569
-0.122179
-0.157486
-0.176307
-0.184530
-0.168292
-0.144069
-0.111297
-0.082446
-0.030379
0.014281
0.057858
0.094340
0.128086
0.131285
0.135249
0.115144
0.084275
0.054637
-0.011088
-0.060592
-0.108929
-0.124241
-0.138974
-0.135824
-0.159252
-0.155921
-0.129034
-0.086316
-0.040309
0.014256
0.069592
0.104485
0.120441
0.125048
0.101735
0.085793
0.052675
0.009217
-0.042184
-0.087956
-0.128839
-0.173253
-0.199072
-0.205967
-0.195693
-0.163860
-0.139143
-0.128168
-0.076668
-0.030088
0.010589
0.045049
0.063156
0.063917
0.056380
0.034292
0.000238
-0.043069
-0.105940
-0.143031
-0.178876
-0.204747
-0.220319
-0.229467
-0.202140
-0.192157
-0.168279
-0.148325
-0.101924
-0.054023
-0.006926
0.016535
0.043381
0.065882
0.060442
0.035530
-0.003960
-0.041415
-0.084382
-0.129989
-0.184467
-0.221640
-0.246898
-0.248417
-0.247309
-0.227857
-0.199843
-0.127117
-0.092459
-0.042055
0.002464
0.038011
0.068352
0.062860
0.058898
0.032130
-0.001118
-0.037606
-0.091819
-0.135339
-0.181824
-0.223516
-0.248476
-0.250807
-0.230773
-0.211514
-0.179995
-0.139871
-0.092311
-0.034246
-0.000888
0.030947
0.049214
0.053742
0.043140
0.025274
-0.009454
-0.043694
-0.093440
-0.140993
-0.190260
-0.222155
-0.248187
-0.253746
-0.252595
-0.230724
-0.190742
-0.155818
-0.106170
-0.051989
-0.015388
0.032416
0.067523
0.080054
0.091078
0.084778
0.053511
0.018753
-0.021184
-0.054459
-0.083029
-0.087386
-0.098436
-0.091220
-0.072590
-0.050924
0.014859
0.070802
0.140887
0.214337
0.281775
0.339779
0.389009
0.426404
0.456646
0.471110
0.467814
0.467154
0.438209
0.427691
0.412466
0.413517
0.409342
0.444509
0.487117
0.545737
0.597366
0.638470
0.680958
0.716173
0.751907
0.761908
0.784236
0.762527
0.716896
0.656957
0.549899
0.444959
0.326977
0.235557
0.151361
0.061477
-0.015474
-0.069367
-0.079931
-0.069541
-0.049194
-0.011192
0.050537
0.080550
0.103386
0.131948
0.150763
0.168973
0.169428
0.144807
0.102094
0.063062
0.011767
-0.035105
-0.091022
-0.138083
-0.154746
-0.167773
-0.171334
-0.153331
-0.124103
-0.094993
-0.038827
0.005701
0.062550
0.093844
0.111780
0.102058
0.109303
0.107473
0.063222
0.022599
-0.040306
-0.085194
-0.126695
-0.169503
-0.197296
-0.204157
-0.191428
-0.170119
-0.126673
-0.102103
-0.049263
-0.011433
0.035041
0.065222
0.085946
0.100629
0.095774
0.071162
0.050406
0.016992
-0.034994
-0.087743
-0.127821
-0.173660
-0.202343
-0.213775
-0.204175
-0.175725
-0.125580
-0.094409
-0.053529
-0.004964
0.044563
0.075588
0.096762
0.105026
0.109569
0.089134
0.043040
-0.004627
-0.026362
-0.066738
-0.106508
-0.145390
-0.168827
-0.157365
-0.152744
-0.147128
-0.122541
-0.081775
-0.032587
0.022215
0.066633
0.102754
0.127065
0.122998
0.125031
0.110099
0.072068
0.041068
0.000667
-0.056972
-0.098322
-0.138772
-0.160330
-0.157471
-0.151847
-0.136016
-0.091667
-0.042278
0.010311
0.053281
0.094757
0.121899
0.143445
0.145150
0.151012
0.143070
0.110887
0.068927
0.016325
-0.024927
-0.061536
-0.089669
-0.121245
-0.129765
-0.121337
-0.105917
-0.064060
-0.012513
0.028036
0.069195
0.121180
0.170145
0.175690
0.182652
0.171839
0.141607
0.116513
0.088842
0.046818
0.003780
-0.040956
-0.088452
-0.103373
-0.104283
-0.099984
-0.086801
-0.036624
0.011164
0.051223
0.097566
0.135812
0.164137
0.183912
0.185862
0.185843
0.177480
0.153971
0.112818
0.062698
0.020833
-0.017237
-0.063369
-0.086647
-0.100220
-0.098297
-0.088561
-0.047073
-0.019598
0.017852
0.082202
0.120849
0.155118
0.178994
0.195408
0.198368
0.171526
0.136150
0.096180
0.037659
-0.011580
-0.061963
-0.097601
-0.099315
-0.109470
-0.109778
-0.094449
-0.063782
-0.018762
0.025300
0.077101
0.108906
0.140228
0.157649
0.178057
0.161635
0.136230
0.112820
0.075588
0.023901
-0.025059
-0.066551
-0.114506
-0.136140
-0.144590
-0.136885
-0.126759
-0.103969
-0.068140
-0.020145
0.027276
0.078298
0.133430
0.146000
0.146630
0.140003
0.118272
0.083740
0.042495
-0.014880
-0.066956
-0.108339
-0.150099
-0.180952
-0.191066
-0.187139
-0.159062
-0.134039
-0.091788
-0.038415
0.007442
0.053093
0.078692
0.083568
0.074084
0.094429
0.070722
0.024899
-0.002773
-0.039423
-0.077793
-0.118021
-0.168901
-0.192313
-0.187455
-0.161553
-0.153388
-0.131032
-0.110782
-0.053346
-0.003121
0.030783
0.063325
0.077086
0.078101
0.083540
0.067698
0.032014
-0.003612
-0.048351
-0.094448
-0.142611
-0.192022
-0.228347
-0.216680
-0.206689
-0.181280
-0.151517
-0.110697
-0.054344
-0.005018
0.037699
0.074915
0.087487
0.093975
0.085806
0.065149
0.033801
0.018800
-0.027590
-0.075066
-0.117143
-0.163346
-0.188980
-0.200316
-0.193361
-0.171179
-0.134584
-0.089204
-0.041829
-0.010918
0.019299
0.067374
0.090531
0.103547
0.105597
0.070161
0.037278
-0.011730
-0.051000
-0.097253
-0.141802
-0.176088
-0.186106
-0.194556
-0.191094
-0.168430
-0.139961
-0.103241
-0.044879
-0.002873
0.045297
0.076872
0.094284
0.094701
0.082350
0.057739
0.035028
0.008509
-0.031727
-0.062299
-0.104704
-0.159331
-0.186581
-0.192744
-0.188953
-0.168653
-0.138931
-0.087618
-0.038113
0.006390
0.043369
0.085622
0.104259
0.106683
0.087972
0.081818
0.045574
0.011578
-0.038800
-0.095069
-0.128828
-0.166767
-0.188865
-0.191207
-0.194400
-0.179523
-0.137618
-0.089648
-0.049358
0.000404
0.038756
0.087308
0.103386
0.092083
0.085908
0.067023
0.036131
0.006530
-0.039754
-0.093127
-0.134806
-0.175155
-0.199021
-0.194989
-0.190654
-0.166244
-0.130075
-0.093342
-0.047898
-0.013741
0.032224
0.073405
0.095707
0.103081
0.102421
0.089656
0.047909
0.016500
-0.048690
-0.102419
-0.151920
-0.181918
-0.196803
-0.198884
-0.194086
-0.177212
-0.156454
-0.108852
-0.068228
-0.013661
0.021807
0.044905
0.086008
0.085006
0.079753
0.054972
0.011652
-0.009164
-0.049482
-0.093796
-0.143744
-0.190028
-0.206202
-0.211907
-0.206741
-0.195424
-0.161721
-0.131450
-0.078683
-0.038670
-0.002552
0.039531
0.075038
0.082023
0.081928
0.054457
0.016437
-0.018299
-0.072276
-0.113751
-0.144934
-0.167458
-0.196029
-0.205335
-0.219331
-0.211769
-0.162490
-0.097821
-0.057823
0.003986
0.047821
0.070151
0.089970
0.104548
0.099028
0.077752
0.044969
0.000621
-0.048195
-0.094218
-0.140368
-0.178077
-0.196509
-0.205569
-0.183559
-0.155905
-0.120385
-0.086966
-0.045647
0.002537
0.054370
0.082136
0.114791
0.129948
0.120337
0.090985
0.057736
0.010975
-0.039886
-0.097131
-0.118898
-0.151214
-0.165591
-0.174650
-0.185080
-0.169339
-0.139587
-0.100005
-0.052366
-0.002688
0.040485
0.086766
0.119165
0.137663
0.134878
0.107311
0.088230
0.042901
-0.004608
-0.060499
-0.106349
-0.144999
-0.157768
-0.165265
-0.167321
-0.147576
-0.110016
-0.068624
-0.033326
0.008051
0.046854
0.078060
0.101541
0.116836
0.095438
0.069961
0.028865
-0.009870
-0.058998
-0.110512
-0.151962
-0.181746
-0.190344
-0.187419
-0.182015
-0.176534
-0.154452
-0.104832
-0.061547
-0.025963
0.008804
0.039022
0.061564
0.083358
0.070437
0.056130
0.020952
-0.013438
-0.057890
-0.119538
-0.172295
-0.203912
-0.229806
-0.235162
-0.233550
-0.201778
-0.154598
-0.132438
-0.091779
-0.041917
-0.006054
0.031592
0.042302
0.058052
0.063541
0.037814
-0.005095
-0.045940
-0.094501
-0.136574
-0.154323
-0.204495
-0.229428
-0.242250
-0.248704
-0.220830
-0.191798
-0.150185
-0.109281
-0.051988
-0.011915
0.021721
0.042074
0.052421
0.043739
0.026553
-0.014812
-0.054723
-0.114582
-0.155125
-0.175362
-0.199925
-0.224438
-0.248518
-0.231957
-0.200735
-0.175150
-0.136057
-0.095130
-0.055658
-0.007018
0.031819
0.046639
0.062797
0.047376
0.012152
-0.008173
-0.056277
-0.095921
-0.146160
-0.184098
-0.215746
-0.235522
-0.248448
-0.245213
-0.232235
-0.194024
-0.151470
-0.107668
-0.053562
-0.006613
0.025796
0.036764
0.053595
0.057533
0.037151
0.005631
-0.031497
-0.067622
-0.106264
-0.130714
-0.171834
-0.169115
-0.149302
-0.134376
-0.097415
-0.045084
0.004685
0.054257
0.100344
0.168952
0.222497
0.260145
0.288214
0.299010
0.311572
0.309132
0.308276
0.314311
0.296229
0.287106
0.285584
0.285714
0.296164
0.345141
0.415639
0.491815
0.562089
0.635463
0.709075
0.785482
0.813941
0.846431
0.849618
0.838788
0.791354
0.737487
0.664123
0.613319
0.526145
0.424417
0.326523
0.245377
0.177738
0.137450
0.114524
0.097722
0.091586
0.099096
0.138263
0.179996
0.209758
0.222164
0.224570
0.207194
0.172828
0.129958
0.082933
0.028372
-0.021232
-0.063589
-0.106505
-0.127862
-0.143557
-0.140806
-0.121277
-0.082797
-0.055457
-0.020680
0.027976
0.086260
0.102731
0.111790
0.120014
0.122742
0.089776
0.043774
-0.000355
-0.030922
-0.081033
-0.128677
-0.162001
-0.175566
-0.189862
-0.186439
-0.161343
-0.135646
-0.088519
-0.055436
-0.005873
0.039073
0.093436
0.107091
0.112306
0.094629
0.073056
0.049115
0.009531
-0.035489
-0.084862
-0.126475
-0.158041
-0.182595
-0.216867
-0.178517
-0.151820
-0.134467
-0.097863
-0.050763
0.002174
0.047162
0.089924
0.107868
0.114383
0.108380
0.090264
0.062072
0.022816
-0.012050
-0.062285
-0.111583
-0.145892
-0.166443
-0.176154
-0.172492
-0.152287
-0.127576
-0.091473
-0.043256
0.012199
0.053025
0.094894
0.120007
0.134024
0.130866
0.121583
0.093061
0.048418
0.000942
-0.056061
-0.094849
-0.130860
-0.149926
-0.164039
-0.153283
-0.137302
-0.102564
-0.060565
-0.001043
0.041127
0.077404
0.107764
0.142794
0.152982
0.138338
0.126133
0.097978
0.071902
0.030009
-0.011293
-0.065997
-0.107650
-0.128734
-0.132300
-0.106714
-0.075324
-0.043883
-0.004973
0.028980
0.084005
0.125428
0.161940
0.181654
0.199058
0.191862
0.161179
0.124094
0.094309
0.061602
0.016925
-0.024877
-0.065253
-0.086790
-0.103486
-0.093371
-0.076363
-0.044857
-0.011267
0.033447
0.088195
0.132619
0.176349
0.203058
0.214992
0.210605
0.193701
0.154007
0.109367
0.076205
0.015952
-0.027283
-0.054909
-0.084783
-0.099698
-0.089648
-0.064629
-0.025665
0.011703
0.048996
0.097824
0.133655
0.162864
0.175138
0.189138
0.176605
0.161855
0.135681
0.102180
0.050155
-0.003890
-0.051158
-0.077914
-0.096664
-0.099650
-0.083895
-0.053512
-0.021090
0.018022
0.061182
0.096519
0.132439
0.161678
0.184441
0.188184
0.179975
0.146252
0.110547
0.076748
0.052620
-0.001502
-0.043054
-0.068527
-0.104002
-0.121659
-0.119174
-0.080733
-0.064945
-0.030613
0.013225
0.051399
0.086184
0.121541
0.141980
0.146471
0.131456
0.119522
0.091693
0.049588
0.009505
-0.041005
-0.083026
-0.124477
-0.151362
-0.158626
-0.151137
-0.129680
-0.108751
-0.076891
-0.046436
0.004908
0.038873
0.080036
0.119359
0.121158
0.115770
0.098213
0.072725
0.020787
-0.023924
-0.081791
-0.118081
-0.140443
-0.176891
-0.184812
-0.173139
-0.159725
-0.121709
-0.076679
-0.035464
0.018803
0.057599
0.067538
0.095768
0.099651
0.087980
0.073720
0.039713
0.001317
-0.048057
-0.091773
-0.143134
-0.171720
-0.172023
-0.186890
-0.173074
-0.156036
-0.126972
-0.089964
-0.061347
-0.013157
0.030147
0.078144
0.109263
0.116275
0.103516
0.093430
0.057202
0.010073
-0.035493
-0.094114
-0.135232
-0.162986
-0.165963
-0.183503
-0.176086
-0.166622
-0.136890
-0.097273
-0.050078
0.013066
0.042648
0.087035
0.115373
0.119915
0.117610
0.087865
0.052533
0.002471
-0.034581
-0.084664
-0.123210
-0.151028
-0.176901
-0.173063
-0.151612
-0.150826
-0.125880
-0.077483
-0.037705
0.020095
0.061626
0.085305
0.112359
0.127056
0.115373
0.085023
0.043366
0.019945
-0.024406
-0.067283
-0.105908
-0.134946
-0.158239
-0.176906
-0.177632
-0.153561
-0.123853
-0.079015
-0.041848
0.004406
0.045535
0.087171
0.118519
0.120676
0.111802
0.091209
0.054110
0.014197
-0.021089
-0.071473
-0.110622
-0.139386
-0.147787
-0.164289
-0.152097
-0.134115
-0.104227
-0.067694
-0.028016
0.012936
0.050547
0.079247
0.110240
0.111070
0.107491
0.080720
0.066056
0.038714
-0.008095
-0.061398
-0.108454
-0.138545
-0.170598
-0.166350
-0.161047
-0.145373
-0.119778
-0.083904
-0.053416
-0.003740
0.045878
0.081754
0.120088
0.124427
0.115472
0.093049
0.051937
0.007238
-0.028326
-0.069038
-0.114686
-0.148569
-0.171035
-0.182205
-0.172499
-0.165652
-0.142968
-0.083417
-0.044330
0.005913
0.049899
0.087097
0.115452
0.125083
0.105500
0.083329
0.049554
0.015819
-0.037352
-0.090260
-0.137919
-0.154564
-0.169549
-0.181236
-0.185272
-0.165204
-0.130932
-0.084594
-0.041076
-0.007135
0.029872
0.075669
0.105625
0.113838
0.110149
0.093303
0.059478
0.007579
-0.038874
-0.092829
-0.127487
-0.153736
-0.176945
-0.186913
-0.177743
-0.166486
-0.127954
-0.081815
-0.050836
-0.003378
0.042221
0.071856
0.091892
0.109777
0.094339
0.071401
0.041604
0.016245
-0.021841
-0.077836
-0.121481
-0.166173
-0.191120
-0.188436
-0.178086
-0.171767
-0.137655
-0.096070
-0.050484
-0.013792
0.042657
0.079876
0.108715
0.119861
0.111827
0.085120
0.041507
0.000838
-0.036169
-0.091728
-0.131614
-0.165488
-0.189772
-0.196988
-0.186488
-0.164210
-0.135743
-0.099345
-0.038691
0.018276
0.055961
0.083581
0.105445
0.115389
0.118156
0.102782
0.083675
0.040300
-0.002603
-0.043622
-0.094229
-0.142205
-0.144179
-0.152039
-0.144990
-0.113778
-0.081896
-0.053777
-0.008428
0.044228
0.078554
0.095421
0.115868
0.127836
0.123849
0.113656
0.077444
0.027237
-0.013894
-0.060783
-0.097734
-0.133145
-0.160178
-0.156746
-0.146439
-0.119911
-0.077185
-0.040805
0.006382
0.044165
0.089710
0.131399
0.162039
0.180867
0.170208
0.141078
0.097642
0.049658
-0.000538
-0.056237
-0.104001
-0.127700
-0.149273
-0.161303
-0.154553
-0.141410
-0.111371
-0.081844
-0.044700
-0.000695
0.064688
0.099067
0.124350
0.123905
0.107756
0.095314
0.058173
0.022542
-0.033652
-0.083028
-0.135971
-0.177334
-0.202614
-0.205005
-0.197822
-0.172261
-0.136780
-0.089243
-0.042929
-0.029737
0.007282
0.041088
0.096093
0.111417
0.112118
0.083889
0.050548
0.014583
-0.040920
-0.102408
-0.144160
-0.176372
-0.201846
-0.221476
-0.202401
-0.178415
-0.157063
-0.118427
-0.066740
-0.015460
0.024501
0.053271
0.074383
0.085202
0.074162
0.054780
0.023481
-0.035739
-0.079727
-0.125726
-0.162778
-0.183397
-0.208136
-0.219469
-0.212822
-0.191809
-0.152857
-0.105845
-0.064090
-0.024767
0.016018
0.046894
0.072021
0.095427
0.088616
0.063806
0.025538
-0.005939
-0.042322
-0.103071
-0.156434
-0.206864
-0.222840
-0.220571
-0.210894
-0.186961
-0.159453
-0.111949
-0.064976
-0.020981
0.010134
0.040588
0.060863
0.061920
0.074447
0.071740
0.033263
-0.015609
-0.055339
-0.109110
-0.148276
-0.185361
-0.218444
-0.228693
-0.222651
-0.197103
-0.150839
-0.104931
-0.066158
-0.013156
0.033036
0.076862
0.110291
0.140258
0.152439
0.154227
0.133516
0.103404
0.061733
0.029372
-0.017970
-0.055728
-0.047981
-0.026805
0.014072
0.066020
0.125348
0.191755
0.258849
0.337685
0.431597
0.489460
0.558474
0.618889
0.633360
0.630882
0.629571
0.638279
0.638449
0.618150
0.602918
0.597333
0.593173
0.603448
0.594008
0.595085
0.619236
0.637382
0.665556
0.693760
0.706848
0.698931
0.661660
0.606073
0.544623
0.472509
0.393598
0.297773
0.197345
0.126988
0.073939
0.018197
-0.012788
-0.032142
-0.038864
-0.023544
0.004437
0.029409
0.071583
0.104671
0.125691
0.149963
0.172633
0.190542
0.182633
0.147949
0.111874
0.069722
0.031447
-0.016125
-0.065093
-0.098562
-0.120333
-0.125712
-0.123506
-0.116102
-0.088189
-0.049838
-0.005497
0.046971
0.073672
0.107405
0.134596
0.131036
0.116385
0.102015
0.073204
0.036648
-0.006273
-0.064482
-0.100321
-0.130998
-0.142742
-0.157742
-0.149716
-0.128882
-0.092166
-0.064989
-0.012992
0.018713
0.055800
0.087131
0.102935
0.110189
0.106760
0.075807
0.052597
0.023711
-0.010424
-0.039767
-0.081579
-0.121973
-0.145408
-0.159580
-0.148874
-0.137659
-0.098843
-0.061766
-0.016064
0.040562
0.082626
0.118667
0.137647
0.139762
0.131641
0.116348
0.080051
0.042143
-0.001939
-0.034205
-0.079440
-0.122099
-0.151094
-0.132767
-0.131778
-0.106911
-0.054176
-0.030273
0.014706
0.060696
0.106653
0.130360
0.152399
0.165199
0.157523
0.137317
0.104025
0.073722
0.029181
-0.021507
-0.063775
-0.096023
-0.118763
-0.123990
-0.110440
-0.090233
-0.059461
-0.020254
0.032197
0.072382
0.127348
0.158864
0.185220
0.194798
0.187255
0.168229
0.135133
0.095597
0.053699
0.032135
-0.020481
-0.054614
-0.079304
-0.090917
-0.086152
-0.054222
-0.023035
0.020201
0.058908
0.092296
0.139780
0.174418
0.208638
0.223877
0.222734
0.213817
0.159197
0.130516
0.090729
0.040844
0.001753
-0.041683
-0.064911
-0.073394
-0.076269
-0.044480
-0.004003
0.030860
0.071744
0.121605
0.172325
0.216462
0.239853
0.250385
0.239965
0.211221
0.178258
0.140413
0.107550
0.063592
0.005188
-0.050778
-0.067212
-0.071089
-0.066102
-0.036456
-0.004849
0.038254
0.080781
0.128689
0.160926
0.195253
0.211090
0.226997
0.227371
0.208327
0.157593
0.109769
0.056128
0.011592
-0.037299
-0.069576
-0.079965
-0.083338
-0.079746
-0.052157
-0.027724
0.003947
0.048727
0.084544
0.137544
0.169822
0.194265
0.190547
0.188836
0.164718
0.126236
0.087409
0.020914
-0.017194
-0.070812
-0.100818
-0.097779
-0.117373
-0.134471
-0.111073
-0.072238
-0.024177
0.027592
0.068302
0.105302
0.139007
0.151824
0.149240
0.162421
0.139556
0.103271
0.050035
-0.004812
-0.045017
-0.096004
-0.130769
-0.151430
-0.162227
-0.155768
-0.147403
-0.115707
-0.072918
-0.029567
0.012258
0.065134
0.094194
0.118587
0.128552
0.120340
0.108664
0.077117
0.035612
-0.011743
-0.052697
-0.115078
-0.154261
-0.172300
-0.187317
-0.183535
-0.166233
-0.146477
-0.099406
-0.050140
-0.000018
0.043558
0.089777
0.113989
0.120242
0.121926
0.088706
0.051137
0.009003
-0.042395
-0.079368
-0.125685
-0.171431
-0.173391
-0.159377
-0.153360
-0.145860
-0.119884
-0.087030
-0.047162
-0.002098
0.056047
0.085026
0.107279
0.106767
0.109252
0.084529
0.055243
0.016176
-0.033784
-0.077906
-0.116201
-0.148039
-0.183948
-0.163815
-0.153942
-0.148396
-0.126339
-0.092036
-0.048548
0.009768
0.058470
0.091243
0.127472
0.131077
0.117792
0.094928
0.063951
0.025651
-0.019986
-0.069304
-0.112976
-0.142835
-0.161528
-0.171173
-0.156723
-0.139347
-0.106144
-0.072038
-0.023237
0.023147
0.067614
0.109076
0.128789
0.130497
0.120129
0.094993
0.064289
0.016684
-0.023213
-0.058193
-0.109977
-0.140774
-0.159270
-0.168918
-0.160422
-0.129194
-0.105278
-0.074183
-0.038504
0.000013
0.030845
0.084815
0.103004
0.120425
0.125435
0.102585
0.065331
0.014700
-0.022967
-0.060313
-0.098440
-0.142194
-0.146099
-0.146284
-0.151643
-0.126522
-0.104975
-0.066516
-0.015643
0.016677
0.054408
0.094545
0.107980
0.118810
0.126217
0.102041
0.059320
0.016886
-0.027149
-0.064568
-0.096871
-0.139770
-0.166030
-0.175231
-0.166594
-0.147722
-0.098024
-0.062457
-0.021650
0.007873
0.048236
0.085785
0.107520
0.117151
0.109602
0.079845
0.052549
0.011217
-0.037444
-0.077219
-0.110264
-0.156249
-0.184297
-0.194315
-0.181460
-0.162925
-0.137080
-0.096485
-0.053850
-0.002819
0.048591
0.090433
0.122524
0.127000
0.117448
0.092483
0.051671
0.011358
-0.043329
-0.090262
-0.127112
-0.159002
-0.175055
-0.179805
-0.179658
-0.162035
-0.139753
-0.107183
-0.039042
0.012921
0.054459
0.074244
0.100077
0.098715
0.094516
0.070615
0.029311
-0.010201
-0.052203
-0.092355
-0.131869
-0.152792
-0.175710
-0.200177
-0.196199
-0.171517
-0.133606
-0.092562
-0.044040
-0.006164
0.036322
0.064391
0.084767
0.103759
0.086823
0.054790
0.026002
-0.011889
-0.039825
-0.070700
-0.115575
-0.140260
-0.171847
-0.179453
-0.193077
-0.177917
-0.130278
-0.093060
-0.059971
-0.018754
0.024795
0.060219
0.079229
0.098190
0.091225
0.064308
0.037612
-0.006504
-0.059271
-0.093899
-0.145774
-0.172593
-0.201220
-0.199856
-0.180961
-0.162208
-0.129687
-0.099722
-0.051814
-0.014902
0.030560
0.058390
0.084391
0.086706
0.088831
0.067007
0.050700
0.010827
-0.037933
-0.084896
-0.135674
-0.166725
-0.189387
-0.197804
-0.182556
-0.176665
-0.151915
-0.098529
-0.050261
-0.013266
0.028012
0.057140
0.069097
0.081349
0.079064
0.061031
0.038839
0.003758
-0.055468
-0.088090
-0.122830
-0.162430
-0.184717
-0.202176
-0.203833
-0.167873
-0.126866
-0.087397
-0.051205
-0.014833
0.015506
0.057955
0.083030
0.090421
0.092323
0.072040
0.042072
0.007875
-0.023955
-0.058606
-0.107107
-0.151885
-0.177079
-0.186332
-0.174080
-0.154422
-0.120641
-0.077429
-0.026802
0.024348
0.062778
0.091953
0.109510
0.118120
0.112852
0.099897
0.073023
0.026418
-0.018467
-0.065047
-0.101276
-0.137965
-0.170647
-0.176911
-0.159305
-0.141365
-0.118723
-0.076501
-0.023299
0.015519
0.050326
0.087117
0.116595
0.130422
0.127607
0.110593
0.081601
0.053144
0.002154
-0.041083
-0.092169
-0.110808
-0.130580
-0.139245
-0.134867
-0.113092
-0.081382
-0.046494
-0.000122
0.024756
0.052598
0.112643
0.121054
0.122053
0.125970
0.103172
0.062770
0.009976
-0.029014
-0.058243
-0.113260
-0.149716
-0.178161
-0.187991
-0.185700
-0.157705
-0.137829
-0.096469
-0.048412
0.001018
0.038070
0.071885
0.086114
0.093567
0.096184
0.077347
0.042623
-0.003186
-0.058688
-0.105164
-0.153736
-0.181595
-0.201569
-0.218753
-0.209229
-0.186556
-0.162695
-0.114137
-0.062306
-0.014502
0.017382
0.044606
0.060844
0.079914
0.079772
0.057430
0.018899
-0.035948
-0.077501
-0.113251
-0.164438
-0.201437
-0.223506
-0.230819
-0.218765
-0.194037
-0.155805
-0.122487
-0.083004
-0.030546
0.012793
0.044657
0.063915
0.075576
0.074160
0.051332
0.025375
-0.025021
-0.074864
-0.108411
-0.161178
-0.199647
-0.214574
-0.233350
-0.245131
-0.205198
-0.172569
-0.123410
-0.064341
-0.018615
0.020998
0.062385
0.079539
0.094871
0.078955
0.041077
0.007637
-0.034194
-0.078176
-0.110613
-0.147004
-0.181048
-0.213881
-0.240214
-0.240577
-0.192552
-0.160402
-0.124991
-0.077030
-0.034593
-0.000085
0.034436
0.062907
0.066138
0.066269
0.040601
0.008992
-0.040160
-0.088225
-0.123479
-0.152649
-0.157209
-0.158036
-0.171966
-0.137655
-0.115149
-0.095247
-0.026907
0.034001
0.102236
0.159173
0.217583
0.259126
0.292345
0.308193
0.311698
0.307872
0.295492
0.275557
0.277011
0.260394
0.262312
0.274392
0.286338
0.326456
0.384958
0.447489
0.531036
0.616608
0.688071
0.756842
0.818826
0.854452
0.872772
0.847174
0.814989
0.763114
0.713522
0.648748
0.589080
0.521369
0.430935
0.340643
0.258976
0.198400
0.181707
0.173186
0.164021
0.165883
0.165662
0.201676
0.235065
0.234237
0.242447
0.215663
0.175435
0.132610
0.102635
0.052648
0.002459
-0.046899
-0.090935
-0.100323
-0.118141
-0.112316
-0.098115
-0.073805
-0.041218
0.006835
0.054303
0.098285
0.125860
0.145109
0.144906
0.140021
0.112281
0.068634
0.023106
-0.023669
-0.061598
-0.100324
-0.136856
-0.153608
-0.168648
-0.162803
-0.141706
-0.110439
-0.072681
-0.014562
0.032355
0.069278
0.101110
0.106188
0.113046
0.095760
0.084425
0.060673
0.005327
-0.038450
-0.078372
-0.113947
-0.146399
-0.152364
-0.172652
-0.174691
-0.147374
-0.115881
-0.074681
-0.027733
0.014573
0.064898
0.099828
0.119067
0.134790
0.117536
0.098219
0.072424
0.025521
-0.016508
-0.063241
-0.104998
-0.135755
-0.156302
-0.165947
-0.157457
-0.140040
-0.112286
-0.064074
-0.020851
0.032627
0.075760
0.109389
0.128009
0.135600
0.128530
0.117107
0.101531
0.052951
0.001987
-0.054821
-0.065612
-0.116256
-0.153998
-0.166424
-0.164080
-0.137722
-0.093951
-0.049177
0.014516
0.058720
0.113370
0.154284
0.166611
0.193218
0.188184
0.155344
0.113076
0.079351
0.044391
-0.006330
-0.055390
-0.095309
-0.112172
-0.122509
-0.108932
-0.086502
-0.049552
-0.004230
0.040642
0.087308
0.111506
0.142129
0.164406
0.191850
0.188889
0.175544
0.141536
0.104112
0.055817
0.006465
-0.027394
-0.054092
-0.074732
-0.086346
-0.077423
-0.049197
-0.007994
0.035836
0.072838
0.115350
0.151235
0.175438
0.193576
0.214144
0.214689
0.204105
0.177743
0.137129
0.078790
0.039731
-0.012673
-0.040347
-0.061123
-0.078575
-0.082242
-0.066326
-0.046960
0.020965
0.095436
0.131288
0.166100
0.207546
0.221827
0.225105
0.214312
0.192199
0.155956
0.117254
0.077018
0.027608
-0.017970
-0.066390
-0.067849
-0.083623
-0.080731
-0.046829
-0.013986
0.022650
0.058669
0.095354
0.141797
0.175752
0.187167
0.209341
0.197790
0.165643
0.132211
0.095456
0.053765
0.022195
-0.022003
-0.055050
-0.078814
-0.095516
-0.098043
-0.081583
-0.059407
-0.025565
0.024274
0.073055
0.114258
0.146576
0.166714
0.191606
0.174369
0.146400
0.112574
0.071854
0.030991
-0.019489
-0.075871
-0.101652
-0.119944
-0.134127
-0.130477
-0.101366
-0.076166
-0.034945
0.010621
0.044985
0.086315
0.104512
0.116577
0.123930
0.128429
0.116873
0.076204
0.035498
-0.012030
-0.056394
-0.099848
-0.136748
-0.152299
-0.166967
-0.168373
-0.151226
-0.113751
-0.071260
-0.030466
0.002654
0.028845
0.078708
0.128793
0.128216
0.110202
0.089554
0.048430
0.014574
-0.031626
-0.070243
-0.107793
-0.150710
-0.173548
-0.183912
-0.189700
-0.176458
-0.144884
-0.106574
-0.048685
0.001862
0.040269
0.074491
0.102575
0.112974
0.120679
0.103826
0.069123
0.031828
-0.031040
-0.077559
-0.117008
-0.159238
-0.173847
-0.189793
-0.172379
-0.151384
-0.128142
-0.085317
-0.033433
0.025762
0.063642
0.090559
0.116907
0.127479
0.116970
0.092248
0.064987
0.026870
-0.026021
-0.080776
-0.114674
-0.151136
-0.171423
-0.182798
-0.176303
-0.154547
-0.111477
-0.061703
-0.023369
0.029364
0.063368
0.098128
0.108565
0.117474
0.111639
0.083000
0.056837
0.016760
-0.032412
-0.072619
-0.106442
-0.138799
-0.159895
-0.159311
-0.152224
-0.145503
-0.120055
-0.056207
-0.010683
0.032910
0.074038
0.099625
0.119752
0.122432
0.116704
0.104270
0.065470
0.012343
-0.030334
-0.086083
-0.116803
-0.152424
-0.171557
-0.161103
-0.152435
-0.131088
-0.096487
-0.059538
-0.021577
0.030826
0.054786
0.096002
0.123327
0.134376
0.122184
0.105157
0.071641
0.016294
-0.029380
-0.070249
-0.114673
-0.153514
-0.185560
-0.189616
-0.178632
-0.161930
-0.129505
-0.073028
-0.023543
0.024214
0.056447
0.091108
0.105239
0.114181
0.112101
0.093241
0.056538
0.006810
-0.033448
-0.079410
-0.118198
-0.151075
-0.178952
-0.181922
-0.174064
-0.168647
-0.123331
-0.082004
-0.034892
0.021973
0.068603
0.097065
0.108371
0.111652
0.106833
0.081978
0.054350
0.014680
-0.029606
-0.078861
-0.126063
-0.165276
-0.196500
-0.201705
-0.184091
-0.161996
-0.116960
-0.066092
-0.035056
0.007783
0.033440
0.066083
0.087637
0.106917
0.111164
0.100901
0.062300
0.016873
-0.033772
-0.090184
-0.133418
-0.168521
-0.190370
-0.193543
-0.193827
-0.170202
-0.136023
-0.079508
-0.046452
-0.005198
0.023681
0.059793
0.077685
0.091664
0.090154
0.076865
0.051337
0.009627
-0.032034
-0.071848
-0.115886
-0.160258
-0.189470
-0.196887
-0.198285
-0.182161
-0.147031
-0.106360
-0.053406
-0.004258
0.037574
0.065386
0.091191
0.088356
0.076551
0.061694
0.033322
-0.009096
-0.047278
-0.088799
-0.138649
-0.168213
-0.195862
-0.199775
-0.204205
-0.174472
-0.151955
-0.105226
-0.064168
-0.021405
0.024290
0.072397
0.092205
0.087493
0.081810
0.064663
0.031785
-0.017832
-0.043318
-0.079281
-0.116050
-0.165557
-0.190329
-0.201740
-0.182971
-0.163729
-0.125062
-0.086775
-0.050371
-0.010288
0.026803
0.059076
0.086976
0.091253
0.067006
0.043608
0.023856
-0.005880
-0.050073
-0.098200
-0.128832
-0.168994
-0.198212
-0.209396
-0.185419
-0.154298
-0.116647
-0.084617
-0.043641
-0.000403
0.025124
0.063267
0.085908
0.111047
0.098632
0.079344
0.039947
-0.011425
-0.064450
-0.108112
-0.143515
-0.176469
-0.196341
-0.201739
-0.183733
-0.167811
-0.133004
-0.090367
-0.054207
-0.011345
0.022921
0.057642
0.074835
0.085697
0.086189
0.082807
0.038152
0.001197
-0.043104
-0.105065
-0.139218
-0.186055
-0.218127
-0.220688
-0.204083
-0.188592
-0.147165
-0.095671
-0.047254
-0.009847
0.038625
0.064589
0.078610
0.086663
0.080735
0.079384
0.052160
-0.005299
-0.054187
-0.092537
-0.127974
-0.169070
-0.180730
-0.188834
-0.185212
-0.162145
-0.123199
-0.075715
-0.031476
0.019825
0.060404
0.098317
0.121665
0.125053
0.127288
0.110080
0.072898
0.031318
-0.022583
-0.059087
-0.108824
-0.149002
-0.173299
-0.180099
-0.178761
-0.144352
-0.104086
-0.052547
-0.020512
0.027492
0.059097
0.098986
0.124753
0.128880
0.121113
0.106811
0.069874
0.040169
-0.004242
-0.053809
-0.077745
-0.124028
-0.146416
-0.158053
-0.145848
-0.134842
-0.063356
-0.032509
0.011381
0.059646
0.087387
0.132266
0.142672
0.141373
0.128927
0.112506
0.079032
0.033553
-0.018740
-0.073312
-0.100965
-0.147015
-0.172077
-0.182488
-0.171101
-0.155789
-0.116168
-0.067462
-0.031997
0.001172
0.039150
0.062778
0.077992
0.091585
0.084694
0.080430
0.043290
0.000725
-0.050443
-0.101081
-0.141083
-0.176722
-0.198283
-0.201348
-0.199918
-0.185163
-0.150492
-0.109176
-0.066192
-0.008452
0.036288
0.069212
0.085267
0.089811
0.087146
0.058266
0.023358
-0.017401
-0.069760
-0.126546
-0.162717
-0.201836
-0.208464
-0.212183
-0.221536
-0.209439
-0.178760
-0.129754
-0.091596
-0.043568
0.013854
0.045574
0.071888
0.084994
0.081846
0.060438
0.029799
-0.011433
-0.052611
-0.112789
-0.146087
-0.178428
-0.207462
-0.206156
-0.210875
-0.183576
-0.167543
-0.124757
-0.078971
-0.027463
0.006990
0.042769
0.055884
0.077677
0.077610
0.061752
0.021313
-0.032979
-0.072354
-0.122727
-0.150443
-0.188519
-0.209496
-0.222695
-0.215208
-0.190694
-0.161252
-0.122853
-0.069025
-0.033916
0.011038
0.048910
0.075470
0.083308
0.070402
0.045940
0.012422
-0.024008
-0.066241
-0.115900
-0.148958
-0.190373
-0.223306
-0.214091
-0.216431
-0.187692
-0.140475
-0.093424
-0.029962
0.027651
0.074082
0.125218
0.169517
0.210066
0.221271
0.194424
0.180432
0.171532
0.140269
0.115957
0.104930
0.087905
0.101944
0.119045
0.163061
0.208603
0.275506
0.332934
0.413993
0.492276
0.558172
0.637468
0.694465
0.733789
0.778108
0.792858
0.774903
0.735050
0.696133
0.667269
0.632905
0.590431
0.572055
0.537382
0.508620
0.500220
0.481792
0.439366
0.420444
0.408531
0.393880
0.388768
0.350104
0.313804
0.283366
0.246191
0.201933
0.150743
0.098262
0.051952
0.001240
-0.035611
-0.061088
-0.080253
-0.090294
-0.081683
-0.056869
-0.022196
0.022488
0.065986
0.096637
0.134231
0.136980
0.153192
0.153069
0.128988
0.087003
0.050858
0.004664
-0.041125
-0.083945
-0.118956
-0.134374
-0.147414
-0.150241
-0.132923
-0.094981
-0.055725
-0.019166
0.030971
0.070258
0.095829
0.117772
0.132572
0.119089
0.105808
0.061882
0.016144
-0.031349
-0.078136
-0.118273
-0.162261
-0.153714
-0.149542
-0.149761
-0.122793
-0.098293
-0.065663
-0.023172
0.031219
0.049338
0.093456
0.110867
0.106240
0.107608
0.096872
0.077868
0.043388
0.004847
-0.056718
-0.100398
-0.135147
-0.153947
-0.163832
-0.164581
-0.138932
-0.096242
-0.052518
-0.006506
0.047770
0.075953
0.113110
0.137891
0.144027
0.140851
0.118877
0.088277
0.048372
0.006037
-0.038512
-0.072358
-0.112861
-0.132500
-0.146426
-0.142476
-0.113702
-0.077959
-0.035686
0.027670
0.070955
0.105126
0.137126
0.162371
0.167155
0.165132
0.148945
0.110543
0.064689
0.037335
-0.006384
-0.044241
-0.089956
-0.105026
-0.112620
-0.115677
-0.078303
-0.052511
-0.025044
0.019015
0.083794
0.124800
0.153791
0.182499
0.187228
0.192218
0.179533
0.147473
0.109088
0.057668
0.006307
-0.028861
-0.067268
-0.076131
-0.088227
-0.089268
-0.055973
-0.021400
0.032494
0.054271
0.116326
0.148897
0.186461
0.200881
0.217336
0.230140
0.192736
0.148916
0.106418
0.068919
0.040044
0.012698
-0.019472
-0.035476
-0.043394
-0.047362
-0.033911
0.002049
0.049356
0.085491
0.122457
0.156224
0.187543
0.223977
0.235072
0.239692
0.214103
0.174428
0.135084
0.081627
0.033362
-0.004140
-0.026669
-0.053992
-0.068536
-0.055508
-0.043114
-0.003867
0.047231
0.088164
0.141125
0.170145
0.197178
0.222355
0.224468
0.210466
0.201272
0.166535
0.126694
0.077243
0.029338
-0.022465
-0.052676
-0.080089
-0.089389
-0.088502
-0.065409
-0.028631
0.008678
0.056334
0.101237
0.140284
0.171103
0.183040
0.202685
0.190497
0.165166
0.125945
0.090342
0.042128
-0.014357
-0.051147
-0.091789
-0.110855
-0.119768
-0.116277
-0.094290
-0.070629
-0.044022
0.013309
0.047941
0.096703
0.138771
0.161775
0.171797
0.160735
0.134597
0.090383
0.047234
-0.000606
-0.036676
-0.078439
-0.119603
-0.138353
-0.153026
-0.154226
-0.133987
-0.108811
-0.064983
-0.008831
0.020325
0.050488
0.094227
0.129238
0.133002
0.123611
0.100165
0.065553
0.037001
-0.011348
-0.053703
-0.099998
-0.138744
-0.160400
-0.174527
-0.175625
-0.155523
-0.130763
-0.097738
-0.021089
0.022081
0.047343
0.077583
0.113119
0.124752
0.114889
0.099323
0.059111
0.027792
-0.014175
-0.061437
-0.093491
-0.129295
-0.153350
-0.157799
-0.155679
-0.144466
-0.115796
-0.076804
-0.035237
0.013091
0.055754
0.091409
0.121239
0.134174
0.128184
0.103270
0.064122
0.024800
-0.012990
-0.048208
-0.096560
-0.132818
-0.162015
-0.158481
-0.146317
-0.120270
-0.092043
-0.063056
-0.022896
0.021511
0.067708
0.097515
0.125575
0.127359
0.135861
0.099910
0.069763
0.032172
-0.011675
-0.062251
-0.098769
-0.123284
-0.148734
-0.154866
-0.150918
-0.145707
-0.105737
-0.059751
-0.015873
0.018536
0.064696
0.096855
0.114075
0.126156
0.125683
0.091482
0.062639
0.031056
-0.016278
-0.060626
-0.100487
-0.132243
-0.138841
-0.139373
-0.134211
-0.116268
-0.081114
-0.056163
-0.024596
0.024890
0.065355
0.100032
0.123849
0.136202
0.130970
0.110800
0.075052
0.028440
-0.022639
-0.070580
-0.100777
-0.126898
-0.148999
-0.157418
-0.142673
-0.136400
-0.097642
-0.054460
-0.011654
0.034686
0.078063
0.098870
0.122662
0.150642
0.130272
0.108069
0.069622
0.033327
-0.007091
-0.064274
-0.101871
-0.135806
-0.160388
-0.166379
-0.161628
-0.141047
-0.109439
-0.063863
-0.012908
0.027058
0.063559
0.093566
0.117435
0.131319
0.136722
0.096806
0.066196
0.023789
-0.026328
-0.083103
-0.121514
-0.147041
-0.156560
-0.160437
-0.171260
-0.154063
-0.129476
-0.082868
-0.031721
0.011284
0.050354
0.084919
0.114542
0.117212
0.120183
0.106447
0.078278
0.031262
-0.016195
-0.065565
-0.115951
-0.146395
-0.169095
-0.174859
-0.175852
-0.155064
-0.127842
-0.095360
-0.036558
0.017072
0.066716
0.104293
0.136129
0.138477
0.115058
0.086336
0.060190
0.015719
-0.034696
-0.083021
-0.124260
-0.146823
-0.180519
-0.193979
-0.178370
-0.168364
-0.132593
-0.078262
-0.045340
0.004560
0.043714
0.074119
0.096579
0.118645
0.115848
0.089349
0.058059
0.018618
-0.032671
-0.072040
-0.124953
-0.158484
-0.181287
-0.190793
-0.184324
-0.167310
-0.134515
-0.092525
-0.036090
0.012347
0.052124
0.090263
0.105650
0.107708
0.115296
0.084451
0.040559
0.003793
-0.038922
-0.084048
-0.117106
-0.144638
-0.168953
-0.171993
-0.171321
-0.156552
-0.116389
-0.070541
-0.019137
0.027072
0.052611
0.066711
0.086916
0.103999
0.089784
0.079654
0.041354
0.005617
-0.029896
-0.083062
-0.132470
-0.155254
-0.171253
-0.191205
-0.180837
-0.163430
-0.142271
-0.090410
-0.047308
-0.001905
0.046803
0.069619
0.096365
0.103601
0.114497
0.094597
0.044512
0.005435
-0.040721
-0.082667
-0.121726
-0.145141
-0.167079
-0.175410
-0.178305
-0.163996
-0.135425
-0.081301
-0.028537
0.008835
0.046877
0.080940
0.107422
0.106510
0.099915
0.073490
0.039500
0.001680
-0.036796
-0.088049
-0.124838
-0.148399
-0.170849
-0.179930
-0.177085
-0.158867
-0.134850
-0.090755
-0.037555
0.009048
0.057650
0.075065
0.101323
0.117721
0.113935
0.100281
0.049938
0.015718
-0.033928
-0.085644
-0.115764
-0.147901
-0.182533
-0.185329
-0.182446
-0.157385
-0.121233
-0.079217
-0.036490
0.011486
0.047961
0.074067
0.094854
0.101985
0.101804
0.101273
0.062818
0.006220
-0.029672
-0.082443
-0.122798
-0.137921
-0.159350
-0.169861
-0.164318
-0.147366
-0.106495
-0.059010
-0.022955
0.025387
0.068591
0.092041
0.106037
0.103082
0.096941
0.088421
0.068580
0.023668
-0.015189
-0.052538
-0.093676
-0.119690
-0.140633
-0.160023
-0.153442
-0.126471
-0.080327
-0.023879
0.017332
0.065342
0.083692
0.111112
0.128662
0.136099
0.135921
0.116722
0.074090
0.026570
-0.016804
-0.054090
-0.080512
-0.110101
-0.124712
-0.125246
-0.136167
-0.110255
-0.072937
-0.030753
0.013693
0.064379
0.108366
0.133676
0.153194
0.158033
0.156766
0.141029
0.110949
0.064320
0.015993
-0.032363
-0.075293
-0.114716
-0.132236
-0.154972
-0.142727
-0.128962
-0.079892
-0.032888
0.001958
0.028315
0.070928
0.101566
0.119179
0.121575
0.121270
0.092234
0.064492
0.021265
-0.028150
-0.061650
-0.114533
-0.150216
-0.165914
-0.181215
-0.172334
-0.172232
-0.139965
-0.092809
-0.035029
0.005806
0.057438
0.079160
0.097060
0.094325
0.078520
0.071685
0.046303
0.008668
-0.035950
-0.094846
-0.138951
-0.158320
-0.196612
-0.202648
-0.194153
-0.178570
-0.133840
-0.097474
-0.059994
-0.012952
0.043961
0.068527
0.092956
0.092238
0.088615
0.067905
0.041202
0.000132
-0.049461
-0.102743
-0.151862
-0.185127
-0.208522
-0.208880
-0.183580
-0.168460
-0.134110
-0.105465
-0.057060
-0.014813
0.026126
0.058812
0.088865
0.100495
0.083177
0.065138
0.032832
-0.006608
-0.051952
-0.106075
-0.166344
-0.193315
-0.215794
-0.213925
-0.192821
-0.163505
-0.130942
-0.097019
-0.052848
-0.011691
0.031275
0.065116
0.088853
0.095158
0.086576
0.060214
0.036836
-0.010109
-0.049519
-0.105578
-0.145278
-0.168910
-0.192411
-0.204573
-0.201228
-0.178263
-0.145439
-0.110681
-0.067393
-0.018007
0.033366
0.068388
0.106382
0.115228
0.117789
0.105789
0.090625
0.069143
0.041452
0.017361
-0.006092
-0.040480
-0.063669
-0.043931
-0.014357
0.029818
0.089441
0.167589
0.232238
0.304223
0.378027
0.453883
0.503659
0.540038
0.558648
0.569025
0.562189
0.559442
0.544756
0.553093
0.542284
0.553268
0.545610
0.558481
0.583951
0.602052
0.640912
0.676441
0.700080
0.722838
0.745844
0.757397
0.740776
0.694765
0.608018
0.530535
0.444865
0.364396
0.260974
0.173881
0.094011
0.033956
-0.006103
-0.033809
-0.036756
-0.025419
0.003056
0.034726
0.083176
0.116264
0.152691
0.170756
0.188197
0.189666
0.180193
0.161239
0.120867
0.103315
0.062477
0.001870
-0.047006
-0.084067
-0.127567
-0.132694
-0.122885
-0.111672
-0.092247
-0.042089
0.006003
0.059662
0.101950
0.132248
0.145029
0.145628
0.139139
0.125712
0.089697
0.045996
-0.000686
-0.053274
-0.101117
-0.135046
-0.154618
-0.166100
-0.153309
-0.135034
-0.091569
-0.041964
-0.004535
0.026894
0.067633
0.090212
0.127208
0.137819
0.118390
0.096341
0.075029
0.030055
-0.002813
-0.039680
-0.087893
-0.119459
-0.146646
-0.147752
-0.147232
-0.115720
-0.085480
-0.033823
-0.001429
0.039731
0.073231
0.107451
0.121470
0.134272
0.121519
0.122717
0.097174
0.051034
0.012710
-0.023558
-0.062234
-0.089282
-0.123599
-0.119217
-0.111510
-0.106795
-0.062411
-0.019140
0.022171
0.067802
0.103086
0.125832
0.153972
0.167455
0.163789
0.140700
0.115595
0.081408
0.040334
-0.016451
-0.060987
-0.089930
-0.105292
-0.110738
-0.107555
-0.095473
-0.061634
-0.001695
0.052003
0.096229
0.140555
0.161536
0.190725
0.197458
0.186352
0.173771
0.138250
0.116729
0.069515
0.018498
-0.024772
-0.049655
-0.080183
-0.090154
-0.068912
-0.044255
-0.012893
0.019297
0.056043
0.106295
0.161451
0.196708
0.223441
0.224651
0.224577
0.201441
0.175066
0.125249
0.078145
0.032367
-0.008682
-0.018514
-0.033521
-0.042015
-0.030309
-0.019444
0.004722
0.046200
0.099658
0.149041
0.188775
0.203700
0.227330
0.234439
0.224279
0.229202
0.186433
0.145812
0.101152
0.055801
0.000460
-0.015415
-0.034371
-0.044940
-0.021961
-0.005535
0.022108
0.052123
0.090661
0.134621
0.181143
0.211433
0.220572
0.229040
0.224152
0.204512
0.173555
0.131193
0.078362
0.039951
-0.009014
-0.042588
-0.064596
-0.072574
-0.074889
-0.050199
-0.008395
0.035308
0.083912
0.120487
0.155807
0.184096
0.210953
0.213949
0.203919
0.178713
0.134358
0.100366
0.045478
0.001676
-0.030444
-0.055867
-0.077890
-0.086993
-0.068456
-0.071964
-0.040306
-0.009357
0.037590
0.088606
0.135799
0.155028
0.177722
0.173430
0.169023
0.146649
0.107305
0.066044
0.016623
-0.026897
-0.073044
-0.098904
-0.122416
-0.135627
-0.136026
-0.122316
-0.085785
-0.048808
-0.000424
0.056831
0.113275
0.136365
0.136763
0.156009
0.136812
0.113153
0.077648
0.015379
-0.030172
-0.064988
-0.112320
-0.141086
-0.161358
-0.170544
-0.153670
-0.126680
-0.108926
-0.063159
-0.016249
0.042735
0.081366
0.116238
0.127311
0.136292
0.126675
0.115757
0.086101
0.035408
-0.024730
-0.075820
-0.119421
-0.155846
-0.169356
-0.170694
-0.163439
-0.143973
-0.115658
-0.068142
-0.020684
0.025128
0.047474
0.082931
0.104023
0.117031
0.126636
0.096278
0.068888
0.037078
-0.003011
-0.045367
-0.097715
-0.125914
-0.141041
-0.148211
-0.140276
-0.132369
-0.096390
-0.056805
-0.007065
0.042844
0.074073
0.105568
0.119507
0.135472
0.128447
0.107168
0.077704
0.033424
-0.010362
-0.054555
-0.091669
-0.118933
-0.135064
-0.153748
-0.152948
-0.140948
-0.117382
-0.062669
-0.019284
0.021754
0.070551
0.089360
0.130123
0.149580
0.140027
0.119948
0.081247
0.040503
-0.009237
-0.055359
-0.097567
-0.133054
-0.152632
-0.155623
-0.145941
-0.127070
-0.089523
-0.053291
-0.005820
0.032762
0.068519
0.103123
0.121033
0.131006
0.119939
0.101062
0.063730
0.021151
-0.023245
-0.063636
-0.109014
-0.132725
-0.147837
-0.139742
-0.138255
-0.113250
-0.089526
-0.052523
-0.007319
0.028816
0.060896
0.102244
0.129056
0.131198
0.134622
0.106496
0.082053
0.033374
-0.018689
-0.050562
-0.087217
-0.128309
-0.157718
-0.175325
-0.168082
-0.148592
-0.101713
-0.066313
-0.013838
0.044609
0.080720
0.107947
0.123856
0.124002
0.102374
0.084144
0.065347
0.035566
-0.023969
-0.070415
-0.095614
-0.116581
-0.137080
-0.157399
-0.157723
-0.135625
-0.107097
-0.067705
-0.021449
0.030408
0.077326
0.102570
0.121274
0.132081
0.113652
0.082224
0.052461
0.006880
-0.040888
-0.085543
-0.113814
-0.141461
-0.160573
-0.158393
-0.159892
-0.135343
-0.115425
-0.070671
-0.035986
0.009636
0.057146
0.077345
0.090855
0.101012
0.102370
0.087971
0.059781
0.021264
-0.028528
-0.081122
-0.115413
-0.140025
-0.162992
-0.170887
-0.165059
-0.155358
-0.125672
-0.080508
-0.044871
0.007896
0.049125
0.082255
0.100693
0.113088
0.106464
0.087935
0.052185
0.007390
-0.041787
-0.091720
-0.138035
-0.163691
-0.183252
-0.194834
-0.182234
-0.149483
-0.114016
-0.079898
-0.033080
0.009607
0.040266
0.071322
0.089046
0.099944
0.106307
0.076568
0.040537
0.012464
-0.030394
-0.077608
-0.120633
-0.156107
-0.175126
-0.180676
-0.169602
-0.158228
-0.129778
-0.084142
-0.040849
-0.003663
0.038256
0.080658
0.100777
0.102298
0.106059
0.077993
0.048759
0.006622
-0.044545
-0.100085
-0.135394
-0.168001
-0.189378
-0.200397
-0.184803
-0.151165
-0.122340
-0.086235
-0.034313
0.010534
0.044669
0.078248
0.089026
0.092271
0.085934
0.072710
0.041411
-0.007239
-0.043503
-0.074766
-0.118833
-0.153104
-0.178639
-0.188475
-0.187417
-0.171491
-0.137334
-0.098717
-0.042148
0.000470
0.049109
0.069215
0.096540
0.115913
0.103698
0.073071
0.038577
-0.008873
-0.050242
-0.096320
-0.135183
-0.166219
-0.178560
-0.195266
-0.192623
-0.166066
-0.128062
-0.086210
-0.041136
0.008516
0.039791
0.072133
0.104880
0.102505
0.100250
0.077255
0.051364
0.011378
-0.037595
-0.075067
-0.112895
-0.159398
-0.176216
-0.171497
-0.150608
-0.128729
-0.105888
-0.060753
-0.013352
0.031431
0.074708
0.105634
0.128011
0.150987
0.137029
0.112125
0.088461
0.049388
-0.010798
-0.055587
-0.098949
-0.126374
-0.149904
-0.160726
-0.150069
-0.134088
-0.112272
-0.066874
-0.020053
0.022728
0.077283
0.108155
0.131557
0.139306
0.145958
0.121672
0.093436
0.058783
0.015350
-0.030480
-0.078867
-0.118095
-0.146546
-0.158408
-0.149678
-0.120086
-0.093617
-0.046440
0.007218
0.055372
0.094406
0.138908
0.141133
0.138085
0.123570
0.107495
0.076625
0.036555
-0.016349
-0.072578
-0.114103
-0.145931
-0.168467
-0.175227
-0.173870
-0.165488
-0.126484
-0.073444
-0.030116
0.009077
0.041912
0.067724
0.098741
0.116222
0.109589
0.075416
0.032443
-0.006469
-0.054382
-0.099589
-0.146242
-0.176919
-0.188642
-0.202910
-0.196030
-0.180777
-0.149312
-0.113714
-0.063709
-0.009321
0.040844
0.070911
0.083351
0.092500
0.068659
0.050608
0.020305
-0.016474
-0.072977
-0.118521
-0.157617
-0.197119
-0.204303
-0.207771
-0.199428
-0.184550
-0.161190
-0.125714
-0.066672
-0.019966
0.019657
0.043303
0.066211
0.082278
0.070925
0.048466
0.016093
-0.009876
-0.051074
-0.097695
-0.149217
-0.189591
-0.213004
-0.226997
-0.221958
-0.191091
-0.159156
-0.119886
-0.063545
-0.014976
0.031752
0.056935
0.078258
0.086960
0.074040
0.061945
0.026927
-0.022473
-0.067344
-0.105252
-0.152623
-0.190581
-0.205394
-0.217094
-0.205737
-0.188072
-0.167557
-0.131141
-0.094969
-0.042976
0.010634
0.047406
0.077728
0.093852
0.067875
0.051949
0.010015
-0.024830
-0.079454
-0.116815
-0.140794
-0.159439
-0.151910
-0.160339
-0.144492
-0.108253
-0.075354
-0.019307
0.045765
0.110079
0.165380
0.198851
0.232069
0.267323
0.288622
0.301611
0.313981
0.293382
0.268993
0.257039
0.251837
0.250966
0.254915
0.278632
0.314784
0.371534
0.437429
0.520048
0.606009
0.674356
0.746840
0.802074
0.837503
0.853166
0.848877
0.812590
0.783617
0.726701
0.666639
0.583891
0.526546
0.455669
0.381991
0.294949
0.242603
0.211822
0.207123
0.193753
0.184500
0.188640
0.201554
0.215123
0.220078
0.220096
0.212514
0.196805
0.168199
0.124815
0.068413
0.019517
-0.029268
-0.058841
-0.092927
-0.103865
-0.097945
-0.082498
-0.064743
-0.022497
0.040335
0.071817
0.095340
0.113900
0.133320
0.135445
0.135377
0.128782
0.093774
0.047918
-0.000324
-0.053411
-0.085928
-0.109540
-0.140879
-0.174197
-0.160967
-0.146657
-0.114830
-0.069262
-0.014190
0.026646
0.070077
0.102672
0.127072
0.121348
0.124867
0.097780
0.057148
0.023963
-0.019557
-0.070525
-0.108571
-0.135106
-0.143622
-0.158218
-0.163066
-0.137850
-0.104745
-0.068443
-0.021997
0.023204
0.062882
0.099631
0.126475
0.144488
0.140265
0.116274
0.084010
0.038964
-0.007959
-0.056722
-0.094564
-0.122187
-0.143477
-0.139958
-0.141084
-0.109526
-0.081728
-0.044774
-0.008307
0.039713
0.088511
0.134313
0.148297
0.151367
0.137423
0.112917
0.094352
0.061008
0.005286
-0.039003
-0.072810
-0.106639
-0.115915
-0.119862
-0.118082
-0.091267
-0.057197
-0.017561
0.029260
0.080076
0.116575
0.142843
0.166825
0.167974
0.162992
0.143914
0.123526
0.076209
0.037513
0.002984
-0.028552
-0.050145
-0.069107
-0.076166
-0.068593
-0.050950
-0.038690
0.010124
0.059095
0.107392
0.146172
0.179772
0.202196
0.205159
0.200831
0.172436
0.142215
0.114700
0.073177
0.022240
-0.011606
-0.050642
-0.064023
-0.075806
-0.059638
-0.021878
0.002056
0.037171
0.085963
0.128940
0.175911
0.199461
0.218356
0.217973
0.208902
0.192386
0.170927
0.120794
0.082398
0.047609
0.017396
-0.022673
-0.032288
-0.036473
-0.034405
-0.002978
0.015639
0.056084
0.107470
0.149095
0.187594
0.221710
0.236785
0.247535
0.237156
0.212961
0.179035
0.141740
0.084722
0.051119
0.005732
-0.019082
-0.036228
-0.052271
-0.056712
-0.038032
-0.014412
0.021845
0.080259
0.134148
0.172417
0.207181
0.222247
0.217912
0.206340
0.185054
0.158358
0.119502
0.082392
0.028525
-0.017354
-0.058202
-0.068191
-0.074577
-0.079556
-0.059784
-0.028568
0.014966
0.052927
0.097860
0.144240
0.174215
0.189353
0.197004
0.194441
0.166606
0.130827
0.085617
0.045728
-0.008559
-0.059062
-0.096066
-0.118641
-0.125405
-0.121711
-0.093248
-0.072307
-0.035023
0.009473
0.065882
0.111140
0.131012
0.137220
0.144444
0.129228
0.107807
0.096272
0.053367
-0.000165
-0.052864
-0.087444
-0.135717
-0.148374
-0.163249
-0.143957
-0.131386
-0.096723
-0.065883
-0.030734
0.024103
0.077250
0.108478
0.128989
0.124057
0.113077
0.089998
0.075396
0.035523
-0.019758
-0.073536
-0.113289
-0.154612
-0.168353
-0.176188
-0.169895
-0.150462
-0.114367
-0.059337
-0.020342
0.029282
0.068288
0.098623
0.122033
0.123911
0.113471
0.080636
0.051091
0.011009
-0.027261
-0.073456
-0.104106
-0.131858
-0.169416
-0.174802
-0.164349
-0.134653
-0.099335
-0.070696
-0.035347
0.017855
0.062301
0.095687
0.113048
0.115177
0.107510
0.095315
0.069482
0.031379
-0.011551
-0.062350
-0.109038
-0.135395
-0.159652
-0.173503
-0.163623
-0.132647
-0.106411
-0.074334
-0.025733
0.023081
0.076337
0.113000
0.137666
0.157245
0.143848
0.110665
0.083232
0.024134
-0.017645
-0.056164
-0.087350
-0.126695
-0.144536
-0.158088
-0.147838
-0.131062
-0.117439
-0.082583
-0.028139
0.034708
0.077037
0.119684
0.143477
0.133301
0.125302
0.108755
0.083191
0.041133
-0.015199
-0.059681
-0.106482
-0.129046
-0.158401
-0.160703
-0.149463
-0.134466
-0.095493
-0.066453
-0.025022
0.011968
0.058326
0.099925
0.126847
0.131144
0.123125
0.101514
0.094626
0.043284
-0.012587
-0.060139
-0.098792
-0.128545
-0.147130
-0.157746
-0.148640
-0.133078
-0.103806
-0.060877
-0.013902
0.034860
0.068546
0.107496
0.119574
0.125879
0.110678
0.088894
0.061340
0.012578
-0.030404
-0.070407
-0.105282
-0.126119
-0.157614
-0.169149
-0.154872
-0.133396
-0.112805
-0.076187
-0.049694
0.008119
0.052983
0.082879
0.102114
0.114723
0.096667
0.083959
0.058942
0.021787
-0.020377
-0.054860
-0.102933
-0.139892
-0.157801
-0.152487
-0.148577
-0.140544
-0.112601
-0.081371
-0.039436
-0.009498
0.028429
0.070253
0.099590
0.110223
0.106862
0.083963
0.047652
0.009890
-0.018497
-0.071811
-0.118733
-0.145308
-0.167820
-0.175389
-0.173481
-0.149827
-0.119264
-0.082360
-0.038166
0.007699
0.057002
0.094613
0.097348
0.102258
0.107029
0.077547
0.052231
0.023022
-0.035178
-0.083969
-0.128581
-0.161529
-0.180107
-0.187303
-0.176924
-0.155162
-0.120392
-0.079367
-0.043429
0.004843
0.033860
0.058165
0.087974
0.094213
0.100904
0.076650
0.046026
0.008880
-0.031342
-0.079607
-0.123294
-0.147546
-0.175912
-0.186802
-0.188544
-0.157133
-0.128997
-0.088231
-0.042880
0.001213
0.049319
0.086703
0.102901
0.098143
0.075620
0.054375
0.038710
0.001430
-0.037741
-0.091568
-0.127483
-0.156256
-0.189571
-0.219641
-0.206506
-0.167546
-0.145290
-0.089584
-0.045438
0.002997
0.044653
0.084499
0.099058
0.113512
0.102988
0.071541
0.034857
-0.009930
-0.053749
-0.103037
-0.137358
-0.166386
-0.182383
-0.191803
-0.191356
-0.166301
-0.137712
-0.096266
-0.054708
0.006084
0.056215
0.083989
0.104729
0.099301
0.088027
0.071666
0.032079
0.008607
-0.026000
-0.080154
-0.122503
-0.168269
-0.182358
-0.180426
-0.177004
-0.161588
-0.121499
-0.078259
-0.031789
0.016658
0.056825
0.082904
0.107119
0.110823
0.105151
0.078428
0.052265
0.028099
-0.012608
-0.063101
-0.117120
-0.150010
-0.171741
-0.164242
-0.148415
-0.128287
-0.111079
-0.062746
-0.026550
0.020044
0.064992
0.101116
0.122346
0.127981
0.131301
0.105364
0.080880
0.033726
-0.009294
-0.056895
-0.096086
-0.131292
-0.149624
-0.147952
-0.144795
-0.130450
-0.092587
-0.042593
-0.000306
0.038190
0.070808
0.110880
0.134663
0.143771
0.148202
0.123040
0.095861
0.046811
-0.003897
-0.045945
-0.085991
-0.115844
-0.145359
-0.152719
-0.127699
-0.107056
-0.075011
-0.033237
0.004514
0.042011
0.073347
0.103725
0.120184
0.120522
0.109203
0.089539
0.045073
-0.008665
-0.044939
-0.082023
-0.129771
-0.161045
-0.175769
-0.189024
-0.179839
-0.145590
-0.119290
-0.085327
-0.044322
-0.005369
0.036352
0.061780
0.096057
0.092098
0.088891
0.063746
0.027812
-0.027581
-0.078721
-0.123028
-0.156985
-0.185086
-0.209642
-0.207453
-0.200549
-0.181607
-0.154917
-0.125052
-0.079024
-0.033617
0.004193
0.052655
0.074081
0.077668
0.074639
0.061056
0.024981
-0.033381
-0.074785
-0.119758
-0.152710
-0.188147
-0.223563
-0.222937
-0.212747
-0.187187
-0.147837
-0.109635
-0.066404
-0.021506
0.022889
0.066430
0.087045
0.079742
0.064989
0.045838
0.011655
-0.033823
-0.077731
-0.132197
-0.167909
-0.198864
-0.228353
-0.220541
-0.214440
-0.188392
-0.159783
-0.109750
-0.067761
-0.017430
0.026459
0.053366
0.070650
0.090739
0.072374
0.046507
0.010639
-0.028661
-0.062376
-0.122286
-0.165392
-0.187565
-0.214444
-0.210924
-0.214829
-0.210026
-0.170237
-0.129097
-0.082905
-0.034060
0.019264
0.062514
0.095102
0.099444
0.097712
0.095241
0.069411
0.044904
0.007396
-0.026514
-0.061693
-0.079389
-0.088886
-0.078426
-0.051735
0.001110
0.058094
0.119699
0.202744
0.269940
0.333355
0.412096
0.472790
0.495267
0.512113
0.529521
0.526141
0.507074
0.504470
0.497554
0.490914
0.487246
0.504771
0.528664
0.570049
0.606230
0.625419
0.662917
0.702043
0.728424
0.754284
0.764819
0.772011
0.747791
0.689642
0.582853
0.497236
0.390436
0.295054
0.194366
0.115885
0.043413
-0.007664
-0.037992
-0.053705
-0.047407
-0.021476
0.035438
0.078088
0.112113
0.148475
0.166215
0.181149
0.180849
0.176735
0.148240
0.115966
0.078018
0.020855
-0.026388
-0.082502
-0.116449
-0.152156
-0.143565
-0.141366
-0.109506
-0.069874
-0.028322
0.018725
0.051261
0.084279
0.124197
0.142463
0.135637
0.123785
0.097996
0.058055
0.016401
-0.015850
-0.062267
-0.098713
-0.145816
-0.172003
-0.175805
-0.182511
-0.159938
-0.115537
-0.068782
-0.031311
0.014479
0.057141
0.094499
0.117085
0.122959
0.120495
0.113885
0.084936
0.031025
-0.023270
-0.071737
-0.115964
-0.146820
-0.168954
-0.180367
-0.172636
-0.150605
-0.123186
-0.079823
-0.025923
0.028756
0.074649
0.115273
0.135102
0.138755
0.131310
0.126113
0.099614
0.051373
-0.003172
-0.045363
-0.085359
-0.108505
-0.142787
-0.154513
-0.148217
-0.131057
-0.085217
-0.041117
0.010023
0.035871
0.096046
0.127034
0.147795
0.146615
0.138004
0.135415
0.091887
0.049513
0.011582
-0.029824
-0.076106
-0.103837
-0.130114
-0.127731
-0.113501
-0.100653
-0.070617
-0.022049
0.024605
0.078702
0.122295
0.149526
0.186059
0.186459
0.185665
0.152973
0.129683
0.085369
0.057542
0.006851
-0.042028
-0.070472
-0.093048
-0.103267
-0.095493
-0.062097
-0.017198
0.025018
0.069769
0.104905
0.144308
0.183662
0.204296
0.216202
0.217339
0.196234
0.153549
0.119153
0.069351
0.023612
-0.016865
-0.052377
-0.061448
-0.060579
-0.054517
-0.055480
-0.010516
0.042487
0.079430
0.128896
0.175905
0.209737
0.232768
0.226129
0.226259
0.199659
0.176102
0.148641
0.094838
0.047813
-0.000932
-0.024651
-0.045377
-0.057223
-0.052569
-0.032801
-0.000299
0.039473
0.083101
0.140189
0.178823
0.214198
0.222132
0.222080
0.203275
0.180758
0.137361
0.114481
0.086647
0.027273
-0.011954
-0.046350
-0.072355
-0.077788
-0.072985
-0.063591
-0.035847
0.013038
0.056354
0.108033
0.145805
0.186063
0.202235
0.212548
0.196775
0.179163
0.152019
0.110999
0.063597
0.004205
-0.042743
-0.066742
-0.089059
-0.093486
-0.103154
-0.076167
-0.046452
-0.016781
0.023056
0.074098
0.117426
0.132655
0.156003
0.165248
0.161085
0.130705
0.103796
0.067627
0.003671
-0.043606
-0.089885
-0.120808
-0.146889
-0.138334
-0.145911
-0.125169
-0.086613
-0.045476
-0.010167
0.032910
0.066845
0.111604
0.126801
0.134476
0.127306
0.106442
0.067044
0.030634
-0.022525
-0.084826
-0.125191
-0.147296
-0.171176
-0.170883
-0.155768
-0.129407
-0.094478
-0.064794
-0.033574
0.014942
0.049081
0.088556
0.111962
0.111268
0.105995
0.075462
0.038348
-0.002736
-0.035794
-0.077801
-0.119874
-0.155853
-0.170520
-0.167485
-0.176981
-0.172941
-0.130278
-0.098079
-0.039822
0.005835
0.049141
0.084139
0.118795
0.123737
0.114228
0.089423
0.043782
0.004683
-0.038736
-0.072256
-0.125312
-0.160511
-0.180222
-0.179229
-0.151865
-0.144587
-0.113049
-0.068916
-0.013446
0.024591
0.061288
0.090786
0.107899
0.106661
0.102266
0.092839
0.055395
0.019993
-0.021902
-0.068368
-0.115691
-0.148304
-0.164998
-0.159925
-0.162816
-0.145221
-0.112427
-0.081953
-0.026892
0.028780
0.068463
0.101353
0.120961
0.116831
0.107745
0.088648
0.048131
0.021283
-0.037412
-0.076205
-0.112462
-0.142158
-0.167952
-0.169741
-0.159005
-0.133626
-0.106544
-0.063412
-0.030911
0.011372
0.053670
0.085749
0.100152
0.122059
0.124000
0.096507
0.060664
0.020422
-0.026816
-0.083175
-0.124674
-0.158108
-0.175364
-0.180700
-0.163235
-0.143397
-0.103597
-0.066575
-0.020320
0.025066
0.065820
0.103567
0.123871
0.122477
0.102851
0.086269
0.046497
0.013711
-0.033053
-0.084561
-0.124881
-0.147084
-0.160272
-0.158658
-0.157444
-0.143281
-0.114190
-0.073941
-0.028676
0.020542
0.068911
0.090122
0.109754
0.117313
0.108159
0.084741
0.050612
0.012047
-0.031820
-0.077860
-0.112346
-0.163869
-0.188485
-0.186733
-0.169774
-0.146377
-0.107050
-0.087571
-0.044925
0.000483
0.043952
0.095760
0.119532
0.115809
0.106981
0.087370
0.045373
0.001091
-0.059782
-0.103819
-0.139439
-0.169771
-0.195307
-0.178362
-0.171824
-0.148345
-0.132207
-0.092327
-0.029405
0.012743
0.052475
0.081524
0.093788
0.093815
0.081924
0.058837
0.033813
-0.006797
-0.066918
-0.111303
-0.142224
-0.171154
-0.193923
-0.205128
-0.185583
-0.159008
-0.123399
-0.071055
-0.022127
0.010369
0.045891
0.078655
0.091603
0.104757
0.102185
0.075742
0.037376
-0.001500
-0.049631
-0.090949
-0.131578
-0.169284
-0.191233
-0.196589
-0.192507
-0.171097
-0.137865
-0.086933
-0.033227
0.014029
0.043030
0.072150
0.092756
0.101520
0.095258
0.070077
0.035047
-0.000882
-0.050116
-0.097551
-0.138183
-0.164725
-0.192329
-0.197506
-0.200585
-0.175461
-0.129673
-0.090235
-0.047688
-0.008672
0.035028
0.064831
0.086620
0.094665
0.091504
0.061830
0.031438
-0.013512
-0.066087
-0.117193
-0.146444
-0.171167
-0.190024
-0.200858
-0.200190
-0.180040
-0.143224
-0.111879
-0.054294
0.002376
0.022683
0.066553
0.087336
0.090871
0.080252
0.050747
0.031702
-0.003552
-0.052716
-0.099092
-0.145111
-0.179979
-0.198194
-0.201387
-0.197739
-0.167023
-0.121889
-0.087947
-0.040686
0.006758
0.043240
0.074030
0.096847
0.091457
0.091103
0.086053
0.066826
0.011023
-0.013487
-0.052299
-0.097293
-0.150997
-0.173661
-0.173894
-0.156967
-0.139609
-0.116516
-0.073443
-0.018808
0.030147
0.075520
0.109033
0.135508
0.143659
0.123962
0.108729
0.072421
0.032070
-0.027932
-0.072531
-0.111854
-0.151895
-0.175112
-0.175601
-0.164704
-0.142387
-0.111751
-0.061055
-0.001708
0.037046
0.094031
0.126733
0.140900
0.142917
0.127408
0.119207
0.093339
0.043668
-0.020233
-0.061840
-0.091650
-0.129899
-0.149735
-0.162249
-0.157439
-0.146198
-0.121516
-0.087339
-0.044115
0.018654
0.060238
0.092700
0.110543
0.117069
0.093406
0.077638
0.043716
0.003848
-0.043962
-0.093661
-0.128011
-0.166175
-0.195414
-0.205647
-0.197388
-0.187288
-0.148056
-0.098913
-0.046375
-0.015321
0.025985
0.051392
0.075209
0.086577
0.081508
0.053906
0.012000
-0.030198
-0.075241
-0.135042
-0.180727
-0.199794
-0.221330
-0.234781
-0.227331
-0.212575
-0.200601
-0.148023
-0.093061
-0.037683
0.026087
0.068908
0.085309
0.081045
0.065031
0.058824
0.018202
-0.032074
-0.079313
-0.124118
-0.162120
-0.199026
-0.210210
-0.220923
-0.215751
-0.192543
-0.160944
-0.132416
-0.082520
-0.038003
-0.002914
0.037405
0.067651
0.065674
0.062058
0.036419
-0.004567
-0.034888
-0.095255
-0.140119
-0.177455
-0.207968
-0.224199
-0.235171
-0.223866
-0.208072
-0.167487
-0.125777
-0.081823
-0.034772
0.001344
0.024484
0.050585
0.066735
0.071741
0.044001
-0.006517
-0.044186
-0.096021
-0.133116
-0.179856
-0.210708
-0.235755
-0.249193
-0.241614
-0.222897
-0.170131
-0.123374
-0.065304
-0.025855
0.013511
0.038203
0.078484
0.092823
0.111682
0.097402
0.074814
0.044263
0.012998
-0.011180
-0.048621
-0.086769
-0.086319
-0.063679
-0.030063
-0.000589
0.071477
0.129784
0.201865
0.278557
0.352820
0.432107
0.491649
0.527084
0.548218
0.539613
0.536079
0.527190
0.527881
0.531811
0.520676
0.528356
0.540822
0.561925
0.568893
0.570466
0.589400
0.630085
0.654897
0.680356
0.691301
0.714371
0.695565
0.641858
0.557117
0.485188
0.397224
0.324163
0.234348
0.150186
0.051999
-0.010564
-0.046481
-0.060949
-0.055986
-0.029259
-0.019428
-0.001873
0.030634
0.068790
0.109758
0.135580
0.155006
0.149132
0.148883
0.119776
0.093669
0.041461
0.005014
-0.043117
-0.091015
-0.120528
-0.141640
-0.149757
-0.147392
-0.124465
-0.106035
-0.061619
-0.007702
0.022415
0.066688
0.096700
0.107442
0.111152
0.115449
0.080021
0.042380
0.009639
-0.037973
-0.069049
-0.122843
-0.153195
-0.183723
-0.190974
-0.178556
-0.170116
-0.133004
-0.097073
-0.049535
0.008434
0.048413
0.079365
0.099611
0.104020
0.094819
0.086828
0.050662
0.013713
-0.031727
-0.077250
-0.120030
-0.149184
-0.171039
-0.176373
-0.175397
-0.159663
-0.115599
-0.084695
-0.043186
0.000699
0.046553
0.081440
0.106017
0.118053
0.100023
0.090363
0.067683
0.025237
-0.020287
-0.060500
-0.099929
-0.125294
-0.153640
-0.164884
-0.160854
-0.132024
-0.107344
-0.065177
-0.022902
0.045075
0.089507
0.123639
0.145472
0.153934
0.138570
0.117599
0.081393
0.035413
-0.016537
-0.054848
-0.082767
-0.102539
-0.117750
-0.125932
-0.115696
-0.093942
-0.066249
-0.033410
0.015099
0.059991
0.106289
0.136526
0.146206
0.156726
0.147946
0.138561
0.099293
0.056668
0.022060
-0.022775
-0.058796
-0.082505
-0.102908
-0.097866
-0.085018
-0.068753
-0.037313
0.004713
0.036111
0.077984
0.126100
0.171634
0.198105
0.205599
0.196501
0.177064
0.143527
0.095504
0.047995
0.001101
-0.034040
-0.061759
-0.082302
-0.084353
-0.062310
-0.052627
-0.012962
0.020028
0.065491
0.119161
0.159513
0.203531
0.213857
0.217197
0.195013
0.181126
0.147155
0.109890
0.066700
0.022150
-0.027038
-0.060184
-0.077133
-0.092834
-0.071382
-0.049282
-0.023277
0.014695
0.060675
0.103213
0.146068
0.191615
0.197398
0.206660
0.196797
0.183395
0.144289
0.096819
0.050156
0.005859
-0.041151
-0.065332
-0.084232
-0.103528
-0.080733
-0.053489
-0.022996
0.016489
0.048139
0.084871
0.132077
0.164688
0.176739
0.186056
0.175767
0.150077
0.109330
0.059083
0.017019
-0.022256
-0.058436
-0.087666
-0.114542
-0.127859
-0.109576
-0.095472
-0.062782
-0.033948
-0.001232
0.042807
0.092413
0.119446
0.131385
0.135364
0.120467
0.100613
0.074542
0.029409
-0.023856
-0.048429
-0.086534
-0.120772
-0.147032
-0.163471
-0.147136
-0.134506
-0.099190
-0.070212
-0.038378
0.007171
0.046538
0.087176
0.117514
0.115259
0.105291
0.086172
0.045813
-0.002546
-0.053029
-0.092779
-0.140067
-0.175806
-0.199751
-0.196712
-0.183400
-0.169171
-0.139978
-0.099798
-0.059049
-0.015462
0.040931
0.086522
0.100089
0.096920
0.084355
0.078746
0.040688
-0.019165
-0.067700
-0.106130
-0.158041
-0.183743
-0.201883
-0.197114
-0.191299
-0.178600
-0.147866
-0.098081
-0.057339
-0.007122
0.037022
0.072058
0.091690
0.101620
0.086461
0.060267
0.022850
-0.027501
-0.056418
-0.102525
-0.146008
-0.187318
-0.201506
-0.203813
-0.192694
-0.179013
-0.143661
-0.105387
-0.049465
-0.003296
0.041408
0.080710
0.094297
0.089901
0.089001
0.079313
0.039646
0.003168
-0.046567
-0.094735
-0.130695
-0.173617
-0.193984
-0.198978
-0.189708
-0.167430
-0.136978
-0.089204
-0.052871
-0.002773
0.031335
0.070215
0.089625
0.097072
0.088847
0.077155
0.042817
-0.009302
-0.042207
-0.080775
-0.128054
-0.171155
-0.186903
-0.201903
-0.180060
-0.161195
-0.136312
-0.097674
-0.050277
-0.004233
0.044095
0.084591
0.103833
0.114500
0.101320
0.076180
0.038614
-0.010014
-0.037009
-0.091215
-0.135348
-0.166433
-0.194353
-0.197386
-0.194791
-0.172137
-0.147475
-0.091673
-0.044183
0.000550
0.035445
0.077904
0.097056
0.101550
0.089137
0.071186
0.046411
0.007777
-0.046614
-0.089316
-0.139693
-0.166676
-0.192488
-0.200066
-0.199684
-0.186615
-0.149897
-0.106733
-0.057052
-0.010423
0.030669
0.057447
0.074022
0.086960
0.072539
0.046471
0.010021
-0.027162
-0.044467
-0.085361
-0.138989
-0.170075
-0.183737
-0.186266
-0.167224
-0.165169
-0.140975
-0.099263
-0.067622
-0.030271
0.015855
0.046688
0.063170
0.072878
0.070258
0.050000
0.015844
-0.018125
-0.054125
-0.095490
-0.141907
-0.177252
-0.203587
-0.210182
-0.196911
-0.177992
-0.145101
-0.096563
-0.068460
-0.024882
0.015872
0.046336
0.057501
0.074702
0.067787
0.047681
0.013231
-0.021617
-0.079804
-0.123567
-0.151683
-0.177442
-0.197673
-0.209324
-0.201284
-0.183988
-0.153251
-0.107697
-0.063185
-0.025404
0.018441
0.049652
0.065372
0.070919
0.046378
0.033546
0.011274
-0.027016
-0.068238
-0.119052
-0.151975
-0.184994
-0.208168
-0.219950
-0.203729
-0.187123
-0.136786
-0.096543
-0.053693
-0.024758
0.013039
0.041401
0.057624
0.064744
0.059560
0.045976
0.002229
-0.039096
-0.079210
-0.119352
-0.144340
-0.176638
-0.220980
-0.228776
-0.209946
-0.182693
-0.157111
-0.120021
-0.084695
-0.035439
0.017037
0.055418
0.066587
0.072810
0.051759
0.040374
0.014847
-0.030473
-0.074950
-0.125292
-0.154788
-0.185382
-0.195987
-0.208184
-0.199915
-0.193428
-0.161690
-0.127246
-0.068852
-0.008474
0.014462
0.046917
0.065741
0.064806
0.063936
0.038290
0.009618
-0.029781
-0.065519
-0.098421
-0.134152
-0.173478
-0.188525
-0.196038
-0.180006
-0.166270
-0.128563
-0.083953
-0.050281
-0.003879
0.039797
0.075842
0.096331
0.101098
0.102566
0.092807
0.066688
0.013554
-0.041876
-0.085196
-0.121491
-0.160957
-0.178650
-0.178939
-0.158581
-0.143835
-0.112630
-0.067336
-0.030723
0.015920
0.051697
0.082409
0.096455
0.113646
0.101421
0.084805
0.055047
0.027390
-0.015159
-0.052691
-0.086353
-0.125005
-0.154074
-0.164690
-0.148954
-0.119689
-0.089169
-0.062898
-0.030881
0.006875
0.044635
0.076630
0.095411
0.101929
0.086339
0.064143
0.047290
0.020798
-0.025581
-0.076219
-0.129052
-0.168627
-0.182569
-0.197559
-0.179437
-0.171437
-0.147093
-0.094333
-0.054628
-0.014179
0.036516
0.071037
0.087148
0.080566
0.061269
0.039704
0.008161
-0.031260
-0.083231
-0.132194
-0.174646
-0.198014
-0.216619
-0.222240
-0.209067
-0.192849
-0.171485
-0.134299
-0.084076
-0.037958
0.004635
0.035574
0.051393
0.058518
0.049159
0.029582
-0.009966
-0.048378
-0.098517
-0.154134
-0.194380
-0.220720
-0.235596
-0.241371
-0.231121
-0.221252
-0.171185
-0.131768
-0.097316
-0.051914
-0.003531
0.042777
0.074381
0.065661
0.052154
0.040369
-0.007865
-0.044712
-0.099025
-0.148872
-0.178961
-0.216240
-0.226888
-0.224782
-0.222105
-0.205866
-0.176450
-0.131387
-0.079555
-0.046178
-0.017242
0.017114
0.055727
0.066861
0.052703
0.016696
-0.005674
-0.059640
-0.093599
-0.134948
-0.167539
-0.208453
-0.229693
-0.237970
-0.228622
-0.193024
-0.164695
-0.125959
-0.084944
-0.050961
-0.011354
0.014257
0.040028
0.050475
0.044810
0.021732
0.005731
-0.033518
-0.088071
-0.136538
-0.172323
-0.189177
-0.183387
-0.189811
-0.176732
-0.130408
-0.084696
-0.029020
0.023806
0.085565
0.136937
0.186503
0.230958
0.251645
0.272218
0.278711
0.276084
0.263104
0.252312
0.253991
0.234314
0.228944
0.238871
0.265226
0.302522
0.354610
0.416158
0.497752
0.577698
0.667407
0.735375
0.786515
0.824011
0.838232
0.813385
0.787911
0.734907
0.683555
0.625185
0.535343
0.464547
0.394515
0.313154
0.247857
0.196791
0.177875
0.161944
0.153781
0.142740
0.156984
0.191062
0.211080
0.228879
0.238811
0.217376
0.190082
0.137914
0.093982
0.034668
-0.022042
-0.074061
-0.110808
-0.124887
-0.134309
-0.129177
-0.102748
-0.072830
-0.038663
0.000642
0.036573
0.079692
0.116466
0.123784
0.126857
0.124509
0.099237
0.078111
0.036635
-0.012806
-0.064101
-0.105215
-0.145256
-0.172315
-0.185859
-0.184716
-0.155387
-0.127186
-0.091342
-0.040947
-0.001736
0.039566
0.067974
0.101491
0.102354
0.098005
0.071778
0.043009
0.008785
-0.031108
-0.086690
-0.125220
-0.163220
-0.178333
-0.184488
-0.186495
-0.157760
-0.127039
-0.084999
-0.037542
0.001503
0.043385
0.081864
0.109772
0.099555
0.089210
0.078453
0.045798
0.009248
-0.025503
-0.076388
-0.117132
-0.130823
-0.154786
-0.178667
-0.173594
-0.153566
-0.135979
-0.095664
-0.029893
0.022867
0.069045
0.112594
0.140942
0.157528
0.140596
0.104429
0.071914
0.024873
-0.023649
-0.063257
-0.097919
-0.130579
-0.141996
-0.150348
-0.136848
-0.112581
-0.061149
-0.033631
0.006728
0.050316
0.080796
0.114876
0.138084
0.157733
0.147949
0.124949
0.096323
0.061460
0.014823
-0.025835
-0.043318
-0.085412
-0.106598
-0.116475
-0.105430
-0.084929
-0.041655
-0.000456
0.042067
0.077488
0.119175
0.156270
0.180902
0.202719
0.194277
0.165867
0.136361
0.102281
0.060619
0.007931
-0.037237
-0.064448
-0.085501
-0.093629
-0.090956
-0.060245
-0.028465
0.015164
0.051466
0.101597
0.149351
0.171836
0.211013
0.215753
0.201765
0.177667
0.148559
0.107254
0.068034
0.030949
-0.008447
-0.045706
-0.068979
-0.081422
-0.066948
-0.041193
-0.018914
0.025236
0.071090
0.133108
0.160066
0.192155
0.212649
0.214468
0.205333
0.186737
0.154988
0.122422
0.097504
0.040095
-0.011530
-0.050673
-0.067018
-0.086295
-0.080364
-0.057512
-0.028397
0.008198
0.048248
0.100403
0.135695
0.167628
0.200856
0.207297
0.213329
0.175990
0.145067
0.090696
0.045279
-0.001200
-0.040390
-0.084363
-0.097952
-0.104286
-0.100995
-0.081280
-0.066886
-0.023533
0.029530
0.067283
0.104976
0.137724
0.148616
0.165202
0.158277
0.130822
0.105916
0.056113
0.011499
-0.030103
-0.071946
-0.112460
-0.139026
-0.147281
-0.138966
-0.105819
-0.082660
-0.043233
0.007547
0.041076
0.076525
0.102803
0.116539
0.122548
0.118655
0.090329
0.060627
0.010996
-0.019545
-0.069315
-0.108241
-0.145822
-0.176271
-0.178668
-0.176247
-0.154713
-0.125172
-0.078179
-0.035741
0.016312
0.062997
0.092360
0.106039
0.120815
0.104875
0.072268
0.029907
0.002504
-0.042221
-0.086128
-0.132919
-0.162539
-0.180939
-0.179604
-0.181904
-0.165116
-0.132046
-0.089499
-0.040666
0.001706
0.042836
0.069120
0.096259
0.096694
0.088454
0.055845
0.034133
-0.000692
-0.048273
-0.097399
-0.141794
-0.164751
-0.191208
-0.199093
-0.191450
-0.170204
-0.136530
-0.097831
-0.058896
0.000167
0.045959
0.082856
0.104993
0.111130
0.105785
0.063401
0.027969
-0.006771
-0.068355
-0.107138
-0.139191
-0.175694
-0.194181
-0.191972
-0.158135
-0.151865
-0.131367
-0.084278
-0.038655
0.009230
0.053984
0.089199
0.107803
0.114700
0.113932
0.078381
0.035731
0.001764
-0.046792
-0.085282
-0.135343
-0.164217
-0.184109
-0.192446
-0.186000
-0.159619
-0.125461
-0.071820
-0.029886
0.019287
0.054741
0.094137
0.112679
0.123654
0.126135
0.095595
0.058332
0.000197
-0.048865
-0.080394
-0.113587
-0.147281
-0.173731
-0.176988
-0.175758
-0.152198
-0.125972
-0.077972
-0.030813
0.004998
0.058836
0.092469
0.110201
0.101035
0.098002
0.068683
0.036832
0.006668
-0.038808
-0.088942
-0.124968
-0.149692
-0.177558
-0.189483
-0.187993
-0.145144
-0.125722
-0.088497
-0.036793
0.009070
0.049180
0.095667
0.108245
0.098360
0.087400
0.062547
0.043649
-0.009660
-0.055304
-0.087435
-0.130522
-0.175714
-0.195098
-0.191100
-0.178419
-0.161201
-0.133673
-0.095518
-0.051913
-0.006886
0.040172
0.078905
0.095652
0.095168
0.075823
0.055518
0.029051
-0.009796
-0.061335
-0.099812
-0.142756
-0.182738
-0.200841
-0.210075
-0.211317
-0.190722
-0.146177
-0.102401
-0.062214
-0.010928
0.040159
0.061308
0.064322
0.062089
0.059163
0.044998
0.030402
-0.012145
-0.050084
-0.103841
-0.146521
-0.185550
-0.214295
-0.217655
-0.211764
-0.176420
-0.128006
-0.093291
-0.054419
-0.011548
0.034951
0.064115
0.086755
0.086926
0.074208
0.044792
0.016240
-0.020370
-0.061532
-0.112615
-0.152375
-0.184950
-0.211156
-0.215782
-0.210983
-0.188975
-0.158096
-0.113218
-0.070521
-0.015871
0.034786
0.075993
0.095332
0.093710
0.083356
0.048165
0.029529
-0.016402
-0.069674
-0.115097
-0.162518
-0.195838
-0.222190
-0.230575
-0.217376
-0.196846
-0.160971
-0.110698
-0.054388
-0.018756
0.018995
0.056571
0.081200
0.095291
0.067259
0.038964
0.004642
-0.031138
-0.101672
-0.129863
-0.153640
-0.191860
-0.209500
-0.215977
-0.204385
-0.181732
-0.168974
-0.123545
-0.063735
-0.017120
0.020256
0.044318
0.055833
0.066681
0.061306
0.043574
0.021365
-0.009889
-0.050117
-0.098829
-0.147835
-0.183541
-0.207364
-0.213876
-0.204177
-0.173472
-0.136638
-0.094316
-0.056443
-0.016797
0.025878
0.067182
0.088363
0.100807
0.104448
0.078906
0.049147
0.011919
-0.045739
-0.095287
-0.138362
-0.164937
-0.182602
-0.178600
-0.177987
-0.160402
-0.123434
-0.076236
-0.023874
0.024945
0.056183
0.073508
0.095423
0.103155
0.094799
0.059295
0.036477
0.008284
-0.029096
-0.062659
-0.106158
-0.140340
-0.167099
-0.172093
-0.160517
-0.136935
-0.100974
-0.060588
-0.027784
0.008376
0.042419
0.081936
0.121187
0.122159
0.109841
0.079884
0.055706
0.014357
-0.051724
-0.097219
-0.138418
-0.179669
-0.201083
-0.193126
-0.194686
-0.166454
-0.135037
-0.105362
-0.062147
-0.010914
0.029442
0.049161
0.079065
0.084312
0.077783
0.049164
0.000190
-0.038146
-0.082008
-0.126017
-0.170491
-0.208304
-0.220237
-0.215666
-0.221492
-0.209115
-0.166265
-0.126983
-0.068304
-0.029032
0.017898
0.055397
0.062053
0.064892
0.047671
0.024410
-0.013142
-0.053713
-0.104965
-0.137739
-0.177702
-0.221832
-0.255710
-0.257274
-0.238242
-0.208634
-0.181226
-0.135925
-0.082467
-0.047494
-0.005261
0.032077
0.044754
0.049832
0.030550
-0.006742
-0.025081
-0.055721
-0.115144
-0.154772
-0.183377
-0.218200
-0.235103
-0.247453
-0.235275
-0.211066
-0.188145
-0.156066
-0.098558
-0.051331
-0.010831
0.035389
0.038197
0.035149
0.045188
0.014363
-0.025838
-0.070762
-0.119867
-0.163143
-0.194834
-0.225664
-0.245814
-0.258662
-0.247381
-0.220590
-0.189266
-0.141552
-0.087935
-0.033568
-0.002877
0.025190
0.042295
0.041458
0.035012
0.011633
-0.030903
-0.065166
-0.101883
-0.142716
-0.178309
-0.214308
-0.226842
-0.219777
-0.199752
-0.174781
-0.130943
-0.081546
-0.014645
0.060035
0.112830
0.158406
0.187078
0.195285
0.188356
0.188094
0.178512
0.158888
0.132081
0.120795
0.113202
0.101068
0.112689
0.124106
0.156880
0.220348
0.288230
0.336182
0.407510
0.479326
0.553434
0.624787
0.677877
0.715355
0.738225
0.738308
0.717074
0.673048
0.618601
0.579627
0.529508
0.469887
0.443007
0.409319
0.362126
0.328055
0.301628
0.286793
0.288669
0.290248
0.284670
0.264494
0.234564
0.206322
0.178184
0.140618
0.087764
0.038940
-0.009442
-0.067656
-0.107732
-0.145489
-0.179212
-0.178150
-0.160110
-0.121142
-0.092815
-0.053013
-0.001169
0.042677
0.088937
0.108413
0.131676
0.136785
0.127320
0.087685
0.056765
0.013318
-0.032948
-0.077596
-0.124056
-0.157710
-0.182339
-0.193373
-0.186871
-0.175567
-0.130873
-0.089764
-0.048880
-0.009527
0.034755
0.069989
0.101382
0.108453
0.082652
0.062455
0.023629
-0.022538
-0.074070
-0.111384
-0.153009
-0.196738
-0.219609
-0.196621
-0.172598
-0.159671
-0.123206
-0.086895
-0.044333
0.010406
0.045356
0.075601
0.091296
0.104016
0.104955
0.080038
0.047010
-0.002598
-0.060637
-0.098531
-0.139246
-0.174223
-0.197449
-0.207250
-0.192270
-0.165577
-0.127350
-0.084205
-0.031505
0.011641
0.054137
0.085369
0.107178
0.122809
0.120132
0.088592
0.047803
0.006633
-0.040595
-0.086922
-0.118743
-0.151740
-0.170962
-0.185015
-0.170543
-0.138617
-0.109030
-0.069194
-0.020401
0.024163
0.069041
0.100423
0.122021
0.128232
0.114393
0.107578
0.075494
0.039306
-0.002895
-0.033614
-0.074514
-0.114343
-0.135540
-0.137072
-0.127133
-0.103236
-0.080403
-0.034716
0.018221
0.077507
0.104605
0.132670
0.159088
0.172052
0.156940
0.134288
0.103150
0.071522
0.027832
-0.030429
-0.061697
-0.095539
-0.114816
-0.125526
-0.105439
-0.066267
-0.031638
-0.004882
0.041496
0.090285
0.136773
0.162996
0.196233
0.201551
0.203748
0.177119
0.125064
0.092522
0.063706
0.011619
-0.041927
-0.068915
-0.097848
-0.113035
-0.095659
-0.059166
-0.027942
0.008775
0.044411
0.092376
0.138694
0.173298
0.194440
0.192716
0.191102
0.164839
0.128278
0.099751
0.059429
0.014130
-0.022943
-0.055781
-0.084721
-0.096191
-0.090434
-0.075460
-0.020305
0.009407
0.033268
0.089473
0.128294
0.169911
0.195621
0.198243
0.179368
0.143929
0.115159
0.075876
0.028471
-0.011402
-0.060041
-0.094278
-0.110220
-0.112323
-0.103874
-0.085748
-0.054874
-0.029880
0.023225
0.072300
0.113563
0.131707
0.146239
0.146894
0.139036
0.127850
0.088900
0.040127
-0.003793
-0.040157
-0.078356
-0.118537
-0.153596
-0.152792
-0.144506
-0.130323
-0.101523
-0.069120
-0.021316
0.026554
0.072631
0.095342
0.108611
0.116754
0.104129
0.085228
0.044105
0.005333
-0.037876
-0.081806
-0.133822
-0.164864
-0.191923
-0.205393
-0.197675
-0.183775
-0.145222
-0.102753
-0.045965
-0.001549
0.042795
0.072954
0.084780
0.085140
0.065666
0.047810
0.012670
-0.028088
-0.065808
-0.123868
-0.165021
-0.195595
-0.215829
-0.231612
-0.220567
-0.201659
-0.159738
-0.119021
-0.073622
-0.035176
0.005366
0.049403
0.077253
0.078933
0.063293
0.048370
0.002481
-0.025589
-0.078092
-0.121271
-0.169376
-0.184494
-0.206275
-0.221608
-0.219903
-0.204313
-0.149869
-0.109110
-0.055322
-0.010127
0.024829
0.043221
0.057912
0.066123
0.061660
0.047389
-0.000056
-0.035144
-0.083742
-0.125963
-0.155728
-0.191101
-0.208070
-0.224240
-0.213891
-0.186526
-0.135578
-0.099709
-0.056273
-0.003879
0.035332
0.056448
0.077845
0.082939
0.071470
0.041258
0.008272
-0.030027
-0.084804
-0.117950
-0.152251
-0.188550
-0.205092
-0.204412
-0.201567
-0.176865
-0.138754
-0.091385
-0.057096
-0.021321
0.025448
0.058567
0.065295
0.066530
0.061265
0.050256
0.011267
-0.031046
-0.071120
-0.129059
-0.171170
-0.181120
-0.212090
-0.213559
-0.203838
-0.180166
-0.141377
-0.089238
-0.042979
0.000432
0.038271
0.063071
0.071055
0.082355
0.067698
0.053564
0.030502
-0.024857
-0.077397
-0.121609
-0.156810
-0.195216
-0.210749
-0.220207
-0.208176
-0.173839
-0.127507
-0.090639
-0.051231
-0.015994
0.022166
0.051343
0.066095
0.065300
0.064484
0.031497
-0.000868
-0.034194
-0.078679
-0.125826
-0.170943
-0.184493
-0.205104
-0.208346
-0.200152
-0.183174
-0.148032
-0.110062
-0.070328
-0.033058
0.013874
0.046540
0.067619
0.079466
0.061059
0.046075
0.002542
-0.039539
-0.091043
-0.143783
-0.180980
-0.215539
-0.230993
-0.225984
-0.210239
-0.196902
-0.155548
-0.123728
-0.080903
-0.032506
0.014926
0.041465
0.073110
0.070391
0.058356
0.039042
-0.002359
-0.038278
-0.073580
-0.134527
-0.179420
-0.220381
-0.226908
-0.230757
-0.218024
-0.200417
-0.167367
-0.117416
-0.072462
-0.029966
-0.000570
0.037255
0.054619
0.071581
0.061452
0.045641
0.010897
-0.022259
-0.077024
-0.128711
-0.179478
-0.222134
-0.235070
-0.243317
-0.232414
-0.196921
-0.162946
-0.127957
-0.079723
-0.025724
0.000584
0.028696
0.056959
0.059566
0.051178
0.024523
-0.010356
-0.038281
-0.097982
-0.139625
-0.176793
-0.217161
-0.245200
-0.246727
-0.233090
-0.205386
-0.172436
-0.119762
-0.067837
-0.021181
0.020005
0.051567
0.078040
0.062749
0.073941
0.060992
0.030383
-0.009843
-0.066329
-0.116863
-0.160280
-0.187678
-0.205246
-0.209733
-0.204254
-0.186304
-0.139661
-0.096351
-0.057864
-0.003806
0.036058
0.060710
0.078740
0.099725
0.080168
0.071069
0.027195
-0.018516
-0.065909
-0.112447
-0.150088
-0.174335
-0.204569
-0.209575
-0.203981
-0.173223
-0.130094
-0.088470
-0.020757
0.026251
0.056401
0.083505
0.105296
0.115378
0.111135
0.099156
0.047393
0.006797
-0.043604
-0.092045
-0.123170
-0.149883
-0.162567
-0.169271
-0.173677
-0.166055
-0.124884
-0.090209
-0.048384
-0.002793
0.027882
0.053383
0.066171
0.074293
0.071627
0.046430
0.010761
-0.019682
-0.065552
-0.114604
-0.174223
-0.195057
-0.221044
-0.224779
-0.226893
-0.208430
-0.172033
-0.132941
-0.100382
-0.044464
-0.016815
0.017389
0.039040
0.050213
0.051274
0.035383
0.007384
-0.048596
-0.101615
-0.144894
-0.182158
-0.208481
-0.242044
-0.241574
-0.236715
-0.218099
-0.187215
-0.155915
-0.110052
-0.067269
-0.031314
-0.007292
0.016548
0.032718
0.019540
-0.005598
-0.038933
-0.068586
-0.110182
-0.164579
-0.196592
-0.225361
-0.239123
-0.239626
-0.250410
-0.228658
-0.185567
-0.155961
-0.102614
-0.048648
-0.018897
0.017706
0.038682
0.042743
0.034422
0.017257
-0.026396
-0.061250
-0.102324
-0.153448
-0.189154
-0.226097
-0.241693
-0.253465
-0.256077
-0.226370
-0.189866
-0.141761
-0.094596
-0.057554
-0.028017
0.004167
0.045704
0.048964
0.036101
0.007003
-0.023858
-0.070142
-0.107943
-0.161140
-0.196210
-0.225856
-0.242172
-0.247253
-0.247436
-0.228769
-0.195398
-0.145362
-0.092293
-0.050128
-0.001754
0.042412
0.076623
0.107308
0.113059
0.111096
0.075904
0.057613
0.025057
-0.010044
-0.041996
-0.056954
-0.047232
-0.026038
0.009952
0.054135
0.122217
0.188086
0.247339
0.311989
0.382682
0.440223
0.487915
0.509356
0.511831
0.511166
0.526847
0.509885
0.516550
0.496352
0.488119
0.492734
0.508183
0.504249
0.506693
0.526459
0.564224
0.584922
0.629102
0.637412
0.639191
0.611459
0.557770
0.502561
0.439076
0.374032
0.310750
0.223240
0.145229
0.049590
-0.018868
-0.077766
-0.129380
-0.145629
-0.143872
-0.129057
-0.091440
-0.061922
-0.026735
0.013455
0.057550
0.092203
0.113682
0.128180
0.114766
0.099789
0.066997
0.015412
-0.028625
-0.080860
-0.113840
-0.151574
-0.177521
-0.181561
-0.182302
-0.153527
-0.115907
-0.081858
-0.029620
0.018160
0.045791
0.074091
0.102537
0.099973
0.087630
0.061533
0.015590
-0.014790
-0.074120
-0.133707
-0.164192
-0.182386
-0.196017
-0.198211
-0.200560
-0.165989
-0.121771
-0.087991
-0.052924
0.000394
0.026180
0.069687
0.092470
0.092680
0.085511
0.058823
0.022107
-0.018214
-0.055244
-0.112542
-0.157368
-0.184839
-0.194353
-0.198562
-0.195829
-0.162987
-0.114458
-0.069966
-0.028912
0.031877
0.057481
0.074669
0.086132
0.090800
0.079815
0.063878
0.043972
0.009345
-0.036028
-0.070279
-0.114739
-0.154093
-0.179739
-0.188771
-0.175199
-0.138357
-0.096023
-0.052779
-0.010958
0.032143
0.075750
0.109309
0.129874
0.135352
0.129897
0.094902
0.063495
0.028735
-0.018413
-0.066868
-0.090293
-0.108260
-0.138633
-0.150435
-0.146173
-0.128677
-0.092290
-0.040299
0.004109
0.063949
0.091390
0.140071
0.162079
0.162418
0.154381
0.140603
0.108280
0.059019
0.018582
-0.027341
-0.058516
-0.085290
-0.108670
-0.125945
-0.128881
-0.093412
-0.055381
-0.014580
0.040317
0.079993
0.127448
0.160077
0.178002
0.179554
0.173580
0.154967
0.124092
0.096672
0.056273
0.002345
-0.041513
-0.068066
-0.089742
-0.101590
-0.077894
-0.050055
-0.035909
0.006835
0.051383
0.096119
0.132242
0.165881
0.191667
0.201962
0.204695
0.180168
0.159798
0.121668
0.079375
0.023616
-0.015892
-0.054680
-0.087248
-0.103942
-0.097118
-0.081369
-0.037443
0.015687
0.057871
0.096209
0.133537
0.168339
0.196409
0.195433
0.185788
0.165627
0.132323
0.086996
0.051918
-0.012122
-0.046915
-0.081758
-0.098874
-0.103582
-0.106233
-0.087689
-0.066885
-0.017542
0.026136
0.077694
0.104495
0.138786
0.170433
0.177642
0.182035
0.152923
0.105341
0.058814
0.025403
-0.013063
-0.069802
-0.117420
-0.135055
-0.141732
-0.146926
-0.130309
-0.090655
-0.045877
-0.007560
0.046930
0.074879
0.109962
0.118253
0.118954
0.108223
0.090136
0.058630
0.028378
-0.024282
-0.075083
-0.119876
-0.150350
-0.168240
-0.183847
-0.187741
-0.160098
-0.122810
-0.078546
-0.030527
0.013624
0.051986
0.070227
0.087257
0.095046
0.093740
0.067488
0.037875
0.006295
-0.044713
-0.094908
-0.141261
-0.170857
-0.188055
-0.209753
-0.197228
-0.185233
-0.161166
-0.115425
-0.066698
-0.033266
0.007827
0.044094
0.083352
0.097879
0.096187
0.070304
0.029230
-0.018991
-0.062322
-0.115579
-0.152709
-0.189803
-0.209416
-0.217441
-0.213010
-0.179242
-0.138527
-0.102150
-0.054583
-0.018459
0.034709
0.066568
0.073931
0.076629
0.079281
0.061974
0.026986
-0.018388
-0.063947
-0.107400
-0.161030
-0.197579
-0.208160
-0.209167
-0.206669
-0.181034
-0.152530
-0.102635
-0.050315
-0.000691
0.037598
0.073037
0.095357
0.100832
0.091984
0.073193
0.044886
0.013111
-0.038103
-0.093317
-0.141310
-0.168384
-0.197614
-0.217302
-0.211258
-0.179293
-0.140189
-0.104304
-0.061010
-0.016436
0.023981
0.065962
0.091808
0.104245
0.084392
0.070022
0.035591
-0.015415
-0.062894
-0.110629
-0.149237
-0.187948
-0.205021
-0.208137
-0.189772
-0.164321
-0.126193
-0.079882
-0.042379
0.004718
0.046317
0.078303
0.101014
0.096581
0.092221
0.080193
0.044565
-0.000654
-0.041762
-0.094206
-0.128832
-0.170422
-0.198750
-0.207584
-0.196363
-0.171317
-0.132225
-0.076942
-0.029566
0.001918
0.045545
0.069117
0.084790
0.100151
0.101609
0.067892
0.030896
-0.022491
-0.055572
-0.107639
-0.142051
-0.170897
-0.191812
-0.204557
-0.186881
-0.155150
-0.135844
-0.101687
-0.055361
-0.014629
0.028819
0.069101
0.081157
0.096884
0.104763
0.078604
0.042431
-0.008421
-0.045499
-0.103958
-0.149268
-0.189787
-0.195003
-0.211781
-0.204746
-0.183831
-0.137861
-0.088677
-0.065465
-0.021302
0.020578
0.065754
0.081441
0.082493
0.075994
0.042823
0.006810
-0.040378
-0.083063
-0.118267
-0.139232
-0.169500
-0.194111
-0.216616
-0.207634
-0.172737
-0.145570
-0.102491
-0.041943
-0.005069
0.027193
0.064111
0.083236
0.080422
0.070700
0.061851
0.029352
-0.029691
-0.074123
-0.113838
-0.148789
-0.186774
-0.206210
-0.204797
-0.207998
-0.185213
-0.155660
-0.109804
-0.068329
-0.024925
0.010621
0.044107
0.070229
0.081311
0.078129
0.051517
0.014784
-0.034298
-0.080834
-0.103701
-0.132726
-0.173014
-0.207541
-0.213249
-0.200058
-0.171270
-0.141803
-0.098050
-0.054628
0.000200
0.044628
0.089138
0.091688
0.099514
0.097459
0.086397
0.051087
-0.000765
-0.041021
-0.087346
-0.135864
-0.164302
-0.180496
-0.177099
-0.169757
-0.136796
-0.104934
-0.056371
-0.010040
0.015251
0.038885
0.065361
0.078800
0.090009
0.080497
0.048876
0.027206
-0.016943
-0.056157
-0.098620
-0.121105
-0.128696
-0.149984
-0.164510
-0.150525
-0.131002
-0.101298
-0.036569
-0.002397
0.047953
0.080619
0.109704
0.124507
0.128198
0.108571
0.074044
0.056915
0.008171
-0.031028
-0.082503
-0.122600
-0.162058
-0.180051
-0.185157
-0.174162
-0.156176
-0.123388
-0.079921
-0.035998
0.002578
0.039974
0.065347
0.084632
0.087396
0.082543
0.056213
0.031232
-0.021040
-0.079572
-0.133921
-0.175858
-0.198481
-0.219440
-0.222818
-0.226634
-0.215878
-0.171805
-0.109567
-0.076188
-0.028958
0.000586
0.037392
0.049227
0.054598
0.046779
0.031783
0.009155
-0.039321
-0.089627
-0.146652
-0.190782
-0.212932
-0.235152
-0.233745
-0.226110
-0.204563
-0.182257
-0.136247
-0.080153
-0.044262
-0.001758
0.021461
0.041697
0.052571
0.049675
0.025481
-0.004984
-0.051055
-0.092056
-0.149008
-0.189966
-0.228915
-0.246146
-0.252739
-0.238402
-0.213995
-0.187204
-0.143123
-0.087042
-0.044033
-0.011900
0.024633
0.053032
0.061205
0.046629
0.030122
-0.006396
-0.060620
-0.102832
-0.165980
-0.209438
-0.225847
-0.235824
-0.251803
-0.239484
-0.219074
-0.199582
-0.134467
-0.091543
-0.047874
0.002273
0.020961
0.050666
0.064044
0.064200
0.032469
-0.004333
-0.064032
-0.108253
-0.165243
-0.205125
-0.225503
-0.243561
-0.249308
-0.224347
-0.191218
-0.150251
-0.084659
-0.019983
0.035729
0.094925
0.127606
0.160607
0.182341
0.178842
0.168442
0.146342
0.124966
0.107738
0.087717
0.050176
0.038985
0.043443
0.084069
0.132995
0.189020
0.245608
0.306882
0.382892
0.463473
0.526772
0.589070
0.631198
0.671508
0.700211
0.721283
0.724322
0.713220
0.698368
0.661352
0.604849
0.573655
0.542973
0.515664
0.499493
0.489379
0.485078
0.476989
0.459635
0.452377
0.430704
0.408287
0.388987
0.341437
0.286630
0.220599
0.168250
0.092423
0.030470
-0.032596
-0.075430
-0.101747
-0.127883
-0.135944
-0.113976
-0.111189
-0.091302
-0.043835
0.000300
0.055162
0.096200
0.125387
0.138917
0.152030
0.143559
0.116250
0.070249
0.022583
-0.030762
-0.078806
-0.128873
-0.153776
-0.168958
-0.169643
-0.183393
-0.168955
-0.132098
-0.089611
-0.051396
-0.005680
0.048604
0.077803
0.095336
0.091091
0.085660
0.071321
0.061571
0.016976
-0.046806
-0.098848
-0.130997
-0.165795
-0.179283
-0.188605
-0.182223
-0.166377
-0.126549
-0.077542
-0.044012
0.001067
0.048713
0.082128
0.100760
0.118560
0.103453
0.083650
0.057747
0.017391
-0.031569
-0.078213
-0.128921
-0.157598
-0.186130
-0.190822
-0.170469
-0.154559
-0.117982
-0.066066
-0.018956
0.033656
0.079567
0.116537
0.130753
0.127940
0.115272
0.101918
0.062162
0.013872
-0.026692
-0.066227
-0.101712
-0.137123
-0.158369
-0.155123
-0.134433
-0.117983
-0.087659
-0.041918
0.006131
0.046721
0.082167
0.110611
0.131320
0.142248
0.131041
0.119505
0.095644
0.051052
0.015239
-0.041120
-0.066578
-0.099764
-0.130044
-0.140100
-0.129319
-0.087229
-0.055553
-0.021107
0.023830
0.060969
0.090852
0.143619
0.180377
0.195879
0.191485
0.178679
0.144367
0.089576
0.057441
0.000038
-0.049180
-0.080983
-0.092767
-0.102202
-0.087204
-0.064876
-0.028174
0.019393
0.072408
0.130510
0.166760
0.188413
0.208830
0.221113
0.199501
0.174211
0.138653
0.095848
0.064735
0.025227
-0.018754
-0.054202
-0.074870
-0.074095
-0.063102
-0.044275
-0.016635
0.034930
0.082108
0.125115
0.171274
0.203306
0.225238
0.230430
0.221240
0.194244
0.170136
0.128169
0.056339
0.018452
-0.023926
-0.029309
-0.061858
-0.071592
-0.062741
-0.038574
-0.015700
0.028612
0.069538
0.122919
0.152323
0.173274
0.195556
0.200946
0.200394
0.173078
0.136291
0.095619
0.038320
-0.014575
-0.049169
-0.069749
-0.092031
-0.097005
-0.088966
-0.088437
-0.053642
-0.014389
0.026366
0.053594
0.107370
0.142772
0.166184
0.174604
0.152757
0.129380
0.101393
0.058931
0.014243
-0.041587
-0.092199
-0.124533
-0.144152
-0.138488
-0.126122
-0.110424
-0.092174
-0.052193
-0.001496
0.054788
0.100416
0.120299
0.134647
0.131877
0.117404
0.105973
0.072651
0.033586
-0.006794
-0.057072
-0.109073
-0.136623
-0.163965
-0.159588
-0.160340
-0.140052
-0.124450
-0.073811
-0.028813
0.017164
0.060589
0.103053
0.108746
0.097532
0.088226
0.074098
0.035355
-0.010156
-0.062591
-0.095753
-0.124480
-0.158350
-0.186893
-0.200169
-0.189159
-0.165337
-0.119800
-0.068608
-0.023339
0.012034
0.037117
0.065009
0.093510
0.105555
0.101254
0.078381
0.049323
-0.003922
-0.056600
-0.102546
-0.148958
-0.183641
-0.205042
-0.215270
-0.199494
-0.165121
-0.131477
-0.092249
-0.056449
-0.001088
0.042624
0.078788
0.093440
0.103362
0.096979
0.076454
0.045374
0.004914
-0.056428
-0.100237
-0.139802
-0.162738
-0.173237
-0.185386
-0.180004
-0.147112
-0.120309
-0.077037
-0.028758
0.017101
0.043638
0.071838
0.087571
0.105122
0.093275
0.077210
0.048255
0.007433
-0.047775
-0.099365
-0.127118
-0.155366
-0.181266
-0.166039
-0.162571
-0.144426
-0.107977
-0.068353
-0.012824
0.028596
0.069410
0.092193
0.121055
0.136443
0.118086
0.093616
0.056069
0.019394
-0.031165
-0.049279
-0.096694
-0.131936
-0.155743
-0.166944
-0.161424
-0.137950
-0.111805
-0.069352
-0.028802
0.015061
0.060584
0.097673
0.114466
0.110512
0.112200
0.097785
0.071699
0.030498
-0.026596
-0.067038
-0.111101
-0.149365
-0.163109
-0.181541
-0.184575
-0.163031
-0.127305
-0.070173
-0.018326
0.023499
0.066420
0.099819
0.118262
0.134553
0.120966
0.096341
0.062498
0.009282
-0.037438
-0.084019
-0.125179
-0.166771
-0.184690
-0.185815
-0.191587
-0.169180
-0.130576
-0.081001
-0.023245
0.013967
0.059723
0.108332
0.122067
0.122145
0.101599
0.072501
0.035850
0.000010
-0.052205
-0.086959
-0.117426
-0.141910
-0.170355
-0.181526
-0.170409
-0.156640
-0.131128
-0.099375
-0.044234
0.005341
0.036601
0.079372
0.112700
0.129699
0.128459
0.108849
0.067420
0.018312
-0.041220
-0.093003
-0.136888
-0.170217
-0.193011
-0.192760
-0.175755
-0.141389
-0.122830
-0.080794
-0.029631
0.010322
0.044632
0.065430
0.091407
0.102924
0.097329
0.074282
0.048712
0.010454
-0.044744
-0.085212
-0.138852
-0.171584
-0.190506
-0.192941
-0.188671
-0.166787
-0.134550
-0.092196
-0.030233
0.008167
0.038466
0.071071
0.091173
0.106311
0.096291
0.072239
0.043125
-0.001404
-0.053387
-0.098484
-0.138163
-0.172727
-0.204072
-0.203698
-0.196316
-0.164383
-0.130478
-0.086348
-0.038738
0.010871
0.063196
0.087053
0.117400
0.122972
0.114426
0.095801
0.072184
0.035393
-0.010676
-0.070674
-0.097771
-0.130539
-0.151994
-0.155710
-0.153573
-0.124779
-0.099354
-0.060530
-0.013867
0.026942
0.071164
0.106986
0.127881
0.141772
0.139747
0.123633
0.089873
0.037802
-0.021943
-0.056929
-0.102668
-0.137930
-0.151922
-0.157121
-0.160582
-0.126881
-0.087542
-0.047881
0.002121
0.051856
0.093956
0.123427
0.150396
0.156554
0.147268
0.127222
0.089045
0.041175
-0.003433
-0.041895
-0.076773
-0.115341
-0.139910
-0.144967
-0.146373
-0.145629
-0.112311
-0.072218
-0.021160
0.029270
0.065575
0.108046
0.137671
0.132377
0.111145
0.095084
0.055126
0.015851
-0.027817
-0.081363
-0.131054
-0.157954
-0.174559
-0.196373
-0.180355
-0.167289
-0.125175
-0.089938
-0.037463
-0.000551
0.035326
0.070037
0.096464
0.081707
0.067656
0.044715
0.012203
-0.031855
-0.073328
-0.108095
-0.155328
-0.186994
-0.203591
-0.193896
-0.181954
-0.169131
-0.140515
-0.105104
-0.055919
-0.015728
0.021117
0.051172
0.073330
0.068738
0.065275
0.046629
0.020060
-0.015970
-0.068729
-0.117257
-0.157237
-0.201490
-0.222998
-0.221782
-0.205349
-0.174297
-0.135875
-0.095069
-0.043113
-0.004788
0.024217
0.052095
0.073465
0.069835
0.063385
0.039486
0.018659
-0.023407
-0.076010
-0.116070
-0.161794
-0.189120
-0.213788
-0.215151
-0.206438
-0.178786
-0.143713
-0.087222
-0.041397
-0.005542
0.016859
0.050964
0.064849
0.075836
0.068509
0.053745
0.019728
-0.026107
-0.077206
-0.128654
-0.176622
-0.211055
-0.226084
-0.235847
-0.222760
-0.200232
-0.154923
-0.097472
-0.035928
0.011362
0.052378
0.094962
0.116357
0.142532
0.150692
0.126494
0.100127
0.077360
0.043050
0.012401
-0.029453
-0.043029
-0.045992
-0.019784
0.005115
0.038538
0.112715
0.168122
0.255573
0.319711
0.400801
0.469957
0.525017
0.564966
0.592232
0.589312
0.584186
0.578331
0.573391
0.568506
0.550582
0.546618
0.554610
0.570070
0.575714
0.590163
0.618292
0.667015
0.709784
0.721009
0.749038
0.765142
0.745617
0.676636
0.595929
0.520710
0.434431
0.336123
0.237839
0.134516
0.037424
-0.011993
-0.035639
-0.051150
-0.045199
-0.022478
0.001192
0.029518
0.082764
0.118211
0.159318
0.175984
0.184894
0.189789
0.181862
0.160065
0.119980
0.063296
0.007981
-0.030548
-0.064036
-0.101015
-0.123119
-0.130324
-0.138885
-0.104925
-0.079842
-0.038257
0.013950
0.049717
0.090138
0.121344
0.138559
0.142577
0.137706
0.120615
0.085162
0.043432
-0.019054
-0.049337
-0.087563
-0.126051
-0.143244
-0.151305
-0.151390
-0.136078
-0.093192
-0.057433
-0.004519
0.030550
0.085622
0.116794
0.143060
0.155511
0.139386
0.116826
0.072113
0.018748
-0.037594
-0.064171
-0.097780
-0.130765
-0.144509
-0.161080
-0.157999
-0.139151
-0.113450
-0.055687
0.005701
0.056295
0.098072
0.126474
0.147163
0.145462
0.149373
0.116279
0.084246
0.048993
-0.013885
-0.033956
-0.076467
-0.127466
-0.145248
-0.140170
-0.135391
-0.104402
-0.068935
-0.027506
0.018801
0.062225
0.107312
0.148354
0.167524
0.167816
0.169716
0.162641
0.126492
0.079585
0.032730
-0.013710
-0.054963
-0.090443
-0.111935
-0.113628
-0.103496
-0.083030
-0.043901
0.000807
0.044925
0.090774
0.137081
0.180651
0.194279
0.195356
0.188350
0.165271
0.139427
0.111967
0.064503
0.019913
-0.022849
-0.052585
-0.064703
-0.080306
-0.077209
-0.059496
-0.012095
0.023265
0.080253
0.129430
0.196824
0.233465
0.244515
0.240535
0.227409
0.204076
0.170039
0.139062
0.097899
0.043050
-0.008459
-0.040749
-0.039294
-0.057356
-0.061006
-0.032169
0.004426
0.063945
0.104929
0.150984
0.191528
0.225347
0.242474
0.260829
0.250264
0.228357
0.178697
0.138885
0.093844
0.058478
0.009801
-0.021567
-0.047487
-0.059997
-0.052722
-0.021387
0.018360
0.050243
0.096441
0.142370
0.177415
0.217939
0.246978
0.235626
0.225159
0.214090
0.174734
0.133036
0.087701
0.046083
-0.013829
-0.051167
-0.061210
-0.066053
-0.066862
-0.044952
-0.013078
0.029177
0.069606
0.122006
0.152075
0.184455
0.200185
0.218661
0.203558
0.181287
0.134695
0.092717
0.044775
-0.000050
-0.037682
-0.078543
-0.097157
-0.110242
-0.101741
-0.088030
-0.045896
0.003680
0.057536
0.108018
0.130618
0.161668
0.171637
0.178312
0.165930
0.136534
0.110524
0.072961
0.025260
-0.018292
-0.056802
-0.108736
-0.125264
-0.144153
-0.142999
-0.118960
-0.079228
-0.042604
0.003264
0.036258
0.078318
0.113737
0.126985
0.138850
0.159669
0.121597
0.077177
0.026806
-0.009661
-0.059191
-0.107350
-0.138343
-0.156993
-0.165426
-0.150234
-0.134603
-0.091559
-0.047235
0.010412
0.051348
0.090293
0.107517
0.116579
0.123614
0.119171
0.108035
0.063635
0.024226
-0.020112
-0.065692
-0.120592
-0.148683
-0.170262
-0.178760
-0.166421
-0.142008
-0.108947
-0.063980
-0.013642
0.040724
0.070715
0.103452
0.118173
0.133248
0.118383
0.097375
0.073758
0.019859
-0.019218
-0.057716
-0.090349
-0.115101
-0.139137
-0.155130
-0.155532
-0.141598
-0.112577
-0.080222
-0.014454
0.043706
0.081455
0.111746
0.128236
0.126802
0.117696
0.089579
0.059753
0.025881
-0.012206
-0.045417
-0.077982
-0.110265
-0.124265
-0.138665
-0.149757
-0.136241
-0.100786
-0.052120
0.002292
0.058990
0.090092
0.127039
0.150457
0.156787
0.138680
0.126198
0.091264
0.053125
0.007039
-0.046560
-0.082465
-0.127698
-0.143467
-0.145380
-0.136509
-0.100905
-0.088582
-0.045720
-0.000703
0.045762
0.091757
0.131403
0.142713
0.159041
0.140403
0.122190
0.089665
0.043616
-0.005134
-0.051722
-0.090464
-0.124516
-0.139270
-0.149938
-0.144494
-0.124588
-0.079857
-0.040024
-0.002987
0.038752
0.092920
0.134442
0.144672
0.154698
0.135273
0.111071
0.076816
0.038634
-0.013429
-0.048475
-0.090135
-0.123612
-0.147291
-0.150795
-0.139315
-0.122665
-0.093922
-0.046554
0.002586
0.052036
0.085908
0.120876
0.131994
0.138532
0.126385
0.098936
0.058072
0.020540
-0.011640
-0.036347
-0.089942
-0.129343
-0.151949
-0.169199
-0.174933
-0.141581
-0.098684
-0.053018
0.004016
0.051933
0.085466
0.114081
0.140800
0.138336
0.127147
0.117862
0.090144
0.033655
-0.013747
-0.066748
-0.094109
-0.138492
-0.151354
-0.167518
-0.163338
-0.140446
-0.104955
-0.065119
0.003700
0.055080
0.084505
0.113248
0.119964
0.126678
0.119898
0.103064
0.060530
0.025149
-0.031440
-0.070000
-0.104096
-0.135475
-0.148597
-0.165993
-0.154877
-0.137716
-0.104070
-0.051223
-0.007908
0.032633
0.066642
0.095093
0.121489
0.133452
0.123544
0.095916
0.062835
0.011624
-0.035346
-0.077028
-0.122935
-0.164320
-0.166502
-0.166405
-0.156587
-0.140602
-0.107250
-0.058242
-0.011386
0.030483
0.078120
0.111517
0.129176
0.125724
0.107159
0.088010
0.058091
0.007596
-0.032527
-0.072339
-0.132988
-0.163158
-0.183420
-0.175040
-0.166688
-0.140056
-0.097522
-0.053910
-0.010219
0.040896
0.083719
0.118724
0.137043
0.140597
0.130679
0.114891
0.074304
0.024947
-0.011487
-0.055954
-0.090732
-0.122585
-0.128894
-0.138279
-0.137470
-0.113199
-0.085018
-0.041210
0.008925
0.065469
0.113558
0.148604
0.168902
0.172507
0.158807
0.138536
0.116044
0.072615
0.013143
-0.039522
-0.083387
-0.120993
-0.141291
-0.145586
-0.128278
-0.109889
-0.088256
-0.029365
0.016737
0.077202
0.127622
0.159563
0.192518
0.184533
0.173187
0.137036
0.100636
0.063846
0.013569
-0.022639
-0.060200
-0.090865
-0.123533
-0.121200
-0.105538
-0.084924
-0.054810
-0.014432
0.019653
0.059249
0.087889
0.117326
0.136451
0.146118
0.147870
0.127906
0.099112
0.037290
-0.022547
-0.076801
-0.126063
-0.156123
-0.176559
-0.181580
-0.175915
-0.148516
-0.108279
-0.063168
-0.021290
0.030706
0.083965
0.119136
0.142886
0.133291
0.115018
0.086847
0.056858
0.015278
-0.032618
-0.087203
-0.122703
-0.160553
-0.172077
-0.184647
-0.171375
-0.153823
-0.128108
-0.085255
-0.028053
0.010940
0.030262
0.072151
0.098811
0.107898
0.087455
0.069002
0.051701
0.003793
-0.053336
-0.113082
-0.149480
-0.166865
-0.181727
-0.194663
-0.188514
-0.163957
-0.127987
-0.085739
-0.029679
0.014665
0.050044
0.078096
0.095064
0.104059
0.094402
0.073972
0.042657
-0.009949
-0.048855
-0.104544
-0.152619
-0.184042
-0.201180
-0.210519
-0.190154
-0.170441
-0.129400
-0.084694
-0.050277
-0.007667
0.045802
0.072316
0.098653
0.106852
0.080295
0.056590
0.045021
-0.001440
-0.049628
-0.110215
-0.151802
-0.192624
-0.206201
-0.213496
-0.215096
-0.188228
-0.143594
-0.096818
-0.048787
0.009475
0.044654
0.077495
0.111081
0.107020
0.094976
0.078347
0.058475
0.035103
-0.012443
-0.064863
-0.090430
-0.106651
-0.108934
-0.092554
-0.066617
-0.031262
0.014475
0.060288
0.119706
0.203718
0.280663
0.330189
0.361989
0.400000
0.423420
0.445087
0.468139
0.453905
0.444747
0.432538
0.415208
0.404325
0.408951
0.433126
0.501521
0.554995
0.628362
0.700428
0.767143
0.840121
0.866168
0.891129
0.915940
0.903335
0.874605
0.838914
0.770830
0.688834
0.578238
0.453615
0.344337
0.248630
0.174633
0.119616
0.080557
0.068980
0.076716
0.113518
0.151040
0.196269
0.234411
0.243451
0.250082
0.238765
0.214946
0.187004
0.145991
0.105225
0.052132
-0.003810
-0.048914
-0.068226
-0.084758
-0.104557
-0.087153
-0.071423
-0.034553
0.003895
0.029604
0.064898
0.108422
0.137635
0.159513
0.163447
0.148135
0.134920
0.094674
0.041273
-0.007132
-0.049061
-0.086287
-0.111879
-0.136640
-0.161950
-0.152785
-0.134614
-0.100086
-0.047074
0.003941
0.059301
0.094383
0.128525
0.159368
0.154058
0.147935
0.120152
0.091490
0.050648
0.002694
-0.039814
-0.085446
-0.126005
-0.152639
-0.153314
-0.144488
-0.127129
-0.087174
-0.048238
0.000264
0.048044
0.077370
0.125967
0.164011
0.175302
0.165891
0.138406
0.101741
0.059634
0.013716
-0.039388
-0.088720
-0.122827
-0.148573
-0.155598
-0.140417
-0.112948
-0.064976
-0.015079
0.019565
0.081236
0.124543
0.158543
0.169118
0.174514
0.171799
0.149709
0.118029
0.084397
0.029874
-0.029122
-0.074301
-0.098459
-0.108025
-0.110102
-0.086578
-0.080881
-0.060211
-0.016162
0.032494
0.100092
0.139683
0.170750
0.188185
0.202282
0.192184
0.168896
0.132096
0.093178
0.055090
0.003411
-0.035034
-0.071584
-0.081353
-0.083752
-0.076493
-0.046832
-0.009237
0.026968
0.079252
0.130557
0.167604
0.203808
0.238720
0.249040
0.236954
0.222025
0.187938
0.137539
0.089979
0.041676
-0.003849
-0.037915
-0.052483
-0.057230
-0.033770
-0.007986
0.021702
0.061929
0.112930
0.167382
0.204557
0.227052
0.252432
0.259562
0.253085
0.225169
0.185915
0.142525
0.107708
0.058232
0.021885
-0.001182
-0.038339
-0.025701
-0.028082
-0.009691
0.025998
0.070264
0.115109
0.164135
0.197942
0.223966
0.253897
0.263697
0.250680
0.226732
0.184429
0.142733
0.097491
0.046113
0.000017
-0.023948
-0.063409
-0.057056
-0.030893
-0.032724
0.012508
0.046473
0.096485
0.142174
0.177950
0.215764
0.231274
0.224592
0.219713
0.190303
0.159004
0.109713
0.060396
0.008644
-0.042835
-0.068241
-0.068243
-0.077646
-0.089787
-0.072701
-0.042580
-0.004214
0.048702
0.103797
0.141536
0.173862
0.192482
0.194544
0.169729
0.145520
0.113035
0.076145
0.037049
-0.009039
-0.059611
-0.094174
-0.117228
-0.116659
-0.110320
-0.093384
-0.071870
-0.034559
0.019465
0.070752
0.118525
0.137890
0.160071
0.162438
0.148541
0.120235
0.090650
0.043490
-0.006624
-0.053961
-0.088766
-0.127531
-0.142118
-0.156752
-0.136662
-0.117046
-0.094283
-0.043341
0.000069
0.044038
0.085755
0.115729
0.141428
0.137311
0.124630
0.102735
0.076080
0.027319
-0.030322
-0.076240
-0.124652
-0.159603
-0.178090
-0.164387
-0.154777
-0.144010
-0.093510
-0.051082
-0.011996
0.028087
0.071500
0.110917
0.144835
0.148430
0.127474
0.092639
0.054929
0.024531
-0.030558
-0.071645
-0.119355
-0.145835
-0.171915
-0.165321
-0.155878
-0.133518
-0.092120
-0.055672
-0.014391
0.022701
0.072785
0.108591
0.116256
0.121372
0.117589
0.087915
0.050026
0.011648
-0.029279
-0.089992
-0.123632
-0.155244
-0.168118
-0.154723
-0.130291
-0.104523
-0.073516
-0.034693
-0.005028
0.045724
0.083005
0.114140
0.145681
0.144436
0.141894
0.121630
0.086264
0.048160
0.002466
-0.045552
-0.091885
-0.133943
-0.147363
-0.150323
-0.145687
-0.118095
-0.089837
-0.050633
-0.002573
0.046400
0.077176
0.111281
0.148600
0.155970
0.146698
0.118870
0.086960
0.049547
-0.006208
-0.049660
-0.094809
-0.121784
-0.141752
-0.150699
-0.142238
-0.120399
-0.074863
-0.025762
-0.002464
0.051870
0.094744
0.118438
0.148604
0.136951
0.134945
0.100503
0.061847
0.031401
-0.006524
-0.061072
-0.103894
-0.139367
-0.151942
-0.153062
-0.138791
-0.109828
-0.082480
-0.042691
-0.007265
0.040690
0.082349
0.117027
0.134656
0.140820
0.132457
0.104559
0.063861
0.014200
-0.036173
-0.083515
-0.114611
-0.135777
-0.160505
-0.154354
-0.144096
-0.129825
-0.098138
-0.059616
-0.018624
0.039170
0.086724
0.122073
0.135409
0.144378
0.137797
0.116710
0.076531
0.026900
-0.018383
-0.064344
-0.110581
-0.140915
-0.164325
-0.170939
-0.155790
-0.142807
-0.100049
-0.068295
-0.009852
0.036384
0.081741
0.112877
0.126199
0.138081
0.128031
0.096266
0.056605
0.006703
-0.036052
-0.087404
-0.123521
-0.156540
-0.171432
-0.168694
-0.171343
-0.146653
-0.114273
-0.072010
-0.027952
0.025445
0.069642
0.110845
0.116532
0.122458
0.111480
0.091003
0.054787
0.012187
-0.042698
-0.087776
-0.125248
-0.156471
-0.170074
-0.172317
-0.182738
-0.155361
-0.129738
-0.078230
-0.018957
0.032572
0.063540
0.101708
0.118484
0.121137
0.106592
0.087774
0.043391
-0.020805
-0.057696
-0.103243
-0.131522
-0.164437
-0.185758
-0.188755
-0.174649
-0.156714
-0.128346
-0.088078
-0.043920
0.015131
0.066019
0.087816
0.101757
0.106314
0.105000
0.081427
0.046865
-0.003964
-0.045883
-0.094461
-0.138129
-0.163342
-0.191619
-0.178788
-0.163955
-0.143763
-0.122905
-0.079896
-0.023629
0.020782
0.064702
0.099521
0.120726
0.122910
0.123460
0.112672
0.069678
0.029053
-0.020297
-0.084617
-0.132582
-0.156981
-0.170624
-0.173233
-0.162430
-0.135369
-0.093335
-0.044908
0.005379
0.052473
0.095722
0.127359
0.159258
0.162208
0.147197
0.111590
0.075944
0.025668
-0.019949
-0.067085
-0.101083
-0.128394
-0.145833
-0.149166
-0.152359
-0.139592
-0.115104
-0.063967
-0.002943
0.043653
0.083211
0.123196
0.157090
0.158447
0.161035
0.133930
0.101941
0.048801
-0.000097
-0.054484
-0.090113
-0.113995
-0.131924
-0.135330
-0.136072
-0.120357
-0.090972
-0.047267
-0.018901
0.023100
0.069341
0.099509
0.112921
0.120452
0.104418
0.080932
0.050881
0.011580
-0.043618
-0.074217
-0.123500
-0.162211
-0.193270
-0.208270
-0.200303
-0.177685
-0.135262
-0.097861
-0.045590
0.002611
0.052159
0.083183
0.093711
0.093645
0.086749
0.055571
0.038549
-0.004918
-0.059628
-0.121234
-0.157433
-0.186270
-0.206982
-0.212616
-0.213568
-0.195937
-0.167729
-0.123886
-0.084348
-0.045056
0.009106
0.043720
0.066412
0.082527
0.078405
0.043705
0.011875
-0.017456
-0.062020
-0.123911
-0.173629
-0.211069
-0.235159
-0.232667
-0.219645
-0.193400
-0.168409
-0.130823
-0.077273
-0.024804
0.014855
0.049938
0.070820
0.067107
0.068066
0.045895
0.015501
-0.037317
-0.080050
-0.128661
-0.185798
-0.212435
-0.237057
-0.244825
-0.235991
-0.203057
-0.182213
-0.136168
-0.093236
-0.045917
0.005256
0.031393
0.066976
0.077829
0.062978
0.040576
0.008353
-0.033137
-0.085455
-0.130465
-0.185583
-0.200305
-0.226105
-0.231713
-0.237283
-0.208772
-0.189430
-0.149951
-0.096748
-0.041826
0.010465
0.036049
0.049679
0.058207
0.056133
0.043490
0.010031
-0.018154
-0.056437
-0.101662
-0.139381
-0.155143
-0.170190
-0.173891
-0.148657
-0.097472
-0.043402
0.011109
0.060649
0.139053
0.201807
0.248548
0.298504
0.330747
0.362547
0.365349
0.359815
0.366211
0.346397
0.316323
0.313792
0.321401
0.331439
0.357113
0.391676
0.465207
0.530015
0.605572
0.688443
0.759547
0.810629
0.826352
0.837584
0.833947
0.809234
0.775064
0.730608
0.664825
0.582330
0.474845
0.362479
0.279506
0.194554
0.138355
0.086318
0.050769
0.038502
0.059317
0.097396
0.135442
0.170448
0.194313
0.206516
0.201219
0.193592
0.157520
0.113388
0.051235
-0.009076
-0.051740
-0.080695
-0.107344
-0.133901
-0.144956
-0.135957
-0.116025
-0.089973
-0.065353
-0.029165
0.015628
0.068697
0.087652
0.103534
0.112824
0.099257
0.077554
0.044549
-0.004107
-0.045928
-0.085512
-0.127017
-0.150241
-0.175096
-0.188092
-0.181403
-0.158204
-0.129403
-0.082496
-0.032385
0.009463
0.042094
0.066342
0.072648
0.091330
0.083985
0.064529
0.036250
0.000201
-0.043505
-0.095090
-0.138858
-0.170715
-0.191812
-0.191656
-0.192528
-0.171009
-0.141628
-0.085720
-0.034310
0.005907
0.054622
0.080953
0.101539
0.095842
0.091070
0.066965
0.044789
0.007210
-0.034385
-0.083271
-0.118381
-0.159494
-0.175363
-0.195049
-0.188788
-0.159237
-0.117722
-0.073999
-0.027524
0.025756
0.067734
0.105507
0.131372
0.125683
0.115986
0.093688
0.065653
0.022018
-0.027976
-0.063212
-0.119504
-0.150674
-0.164033
-0.179214
-0.139153
-0.107955
-0.080103
-0.043929
0.005074
0.059482
0.102637
0.116014
0.134346
0.152385
0.144735
0.129221
0.095181
0.049542
-0.008991
-0.061935
-0.105902
-0.116884
-0.134418
-0.136010
-0.117202
-0.094989
-0.068448
-0.038629
0.010210
0.058848
0.122794
0.158472
0.176043
0.177194
0.160433
0.134346
0.108420
0.069627
0.016144
-0.013583
-0.051143
-0.080601
-0.096615
-0.100873
-0.102241
-0.071740
-0.041181
-0.003964
0.040829
0.085332
0.131632
0.173250
0.195769
0.204836
0.180919
0.165133
0.132670
0.111886
0.066800
0.033202
-0.015443
-0.060639
-0.104509
-0.104466
-0.095063
-0.067814
-0.037778
0.013873
0.053826
0.096990
0.141271
0.170232
0.188294
0.205484
0.195834
0.161158
0.127882
0.086368
0.032042
-0.007740
-0.048901
-0.074329
-0.102518
-0.109434
-0.098657
-0.076622
-0.052069
-0.019244
0.033682
0.082456
0.147340
0.184293
0.200152
0.199728
0.175363
0.147139
0.115311
0.068158
0.017489
-0.030658
-0.089579
-0.109713
-0.135792
-0.147528
-0.145702
-0.122610
-0.095124
-0.053428
0.005073
0.048670
0.106636
0.135281
0.144695
0.131015
0.125903
0.101037
0.058351
0.012986
-0.027558
-0.069113
-0.125403
-0.154420
-0.186954
-0.192320
-0.188789
-0.168089
-0.126924
-0.094758
-0.038057
0.015036
0.049535
0.074080
0.101398
0.110151
0.107188
0.076125
0.036604
-0.015323
-0.059021
-0.113470
-0.157068
-0.180760
-0.203079
-0.220636
-0.208787
-0.170255
-0.146692
-0.107778
-0.064423
-0.028679
0.031330
0.058317
0.078287
0.092622
0.083129
0.057147
0.008507
-0.045715
-0.089694
-0.132139
-0.181635
-0.206534
-0.231990
-0.232381
-0.214858
-0.207157
-0.158403
-0.106377
-0.066326
-0.025300
0.025556
0.066625
0.091119
0.092421
0.069176
0.046655
0.010894
-0.035710
-0.077918
-0.128107
-0.172775
-0.207941
-0.217910
-0.212834
-0.208724
-0.190652
-0.155934
-0.118633
-0.078332
-0.030299
0.036203
0.053207
0.085493
0.098527
0.092302
0.051585
0.012945
-0.033744
-0.080023
-0.115431
-0.168439
-0.187043
-0.211315
-0.230314
-0.216240
-0.185528
-0.156000
-0.116591
-0.059228
-0.020330
0.015818
0.055418
0.075603
0.101520
0.120471
0.085543
0.038365
-0.015607
-0.060648
-0.108421
-0.149932
-0.176957
-0.205125
-0.213260
-0.199208
-0.186465
-0.154143
-0.110479
-0.062137
-0.011354
0.030106
0.068445
0.080712
0.092697
0.076790
0.051779
0.021274
-0.012545
-0.055104
-0.105693
-0.149431
-0.196039
-0.226047
-0.232339
-0.213818
-0.191144
-0.150726
-0.105861
-0.055954
-0.015013
0.034020
0.064479
0.080565
0.078322
0.078973
0.050014
0.025859
-0.008128
-0.049684
-0.118290
-0.165052
-0.195540
-0.213386
-0.213774
-0.204525
-0.190253
-0.155834
-0.113686
-0.059387
-0.013259
0.033043
0.057300
0.073801
0.073525
0.064628
0.049076
0.012476
-0.024541
-0.078192
-0.118264
-0.158379
-0.187181
-0.206321
-0.230104
-0.229263
-0.203518
-0.159159
-0.121401
-0.070216
-0.019897
0.027412
0.053213
0.062965
0.081176
0.078227
0.059020
0.027309
-0.019990
-0.082470
-0.137271
-0.179045
-0.189740
-0.206263
-0.213042
-0.213272
-0.190726
-0.160559
-0.119410
-0.069876
-0.021962
0.012570
0.055201
0.071774
0.071274
0.052346
0.031901
0.002687
-0.042632
-0.083464
-0.122531
-0.173462
-0.204206
-0.217147
-0.230928
-0.221131
-0.195110
-0.154102
-0.111081
-0.070453
-0.021317
0.009821
0.032346
0.060687
0.069449
0.061177
0.041387
0.003530
-0.035012
-0.077640
-0.131302
-0.174644
-0.211227
-0.238470
-0.243839
-0.234159
-0.217607
-0.179159
-0.142855
-0.100101
-0.037774
0.021439
0.051216
0.071095
0.071339
0.041468
0.022665
-0.001981
-0.049956
-0.090545
-0.142892
-0.177390
-0.205851
-0.219135
-0.231520
-0.218756
-0.204957
-0.182558
-0.136797
-0.083920
-0.041418
0.011582
0.044514
0.053243
0.063853
0.066020
0.040726
-0.000827
-0.037418
-0.090165
-0.129567
-0.172100
-0.215104
-0.232239
-0.240983
-0.228308
-0.209001
-0.180494
-0.144189
-0.104260
-0.058856
-0.024292
0.017688
0.057852
0.061572
0.046148
0.042806
0.008182
-0.027309
-0.080235
-0.131307
-0.185854
-0.217426
-0.233798
-0.231817
-0.216016
-0.201224
-0.174042
-0.127127
-0.095861
-0.038081
0.013252
0.037140
0.063794
0.073985
0.048690
0.014134
-0.012611
-0.055460
-0.089450
-0.137548
-0.173506
-0.207115
-0.217649
-0.243466
-0.234038
-0.218117
-0.180532
-0.131548
-0.083959
-0.032489
0.012573
0.043629
0.065107
0.079999
0.061610
0.043534
0.015528
-0.035139
-0.081461
-0.127092
-0.161775
-0.197607
-0.224914
-0.220443
-0.219328
-0.188988
-0.147448
-0.093690
-0.037206
0.005885
0.035155
0.079196
0.096117
0.104186
0.085098
0.067634
0.030743
-0.000483
-0.047401
-0.098553
-0.138956
-0.185274
-0.205444
-0.213364
-0.216268
-0.188394
-0.138354
-0.089898
-0.041722
0.005553
0.046181
0.080451
0.100154
0.111929
0.110351
0.098162
0.069403
0.024007
-0.026385
-0.065908
-0.114532
-0.147160
-0.164906
-0.178022
-0.185456
-0.172158
-0.132985
-0.089329
-0.049081
0.000983
0.039299
0.065408
0.087817
0.088322
0.070136
0.036890
0.005798
-0.037080
-0.086542
-0.132385
-0.172598
-0.202335
-0.219026
-0.223211
-0.219303
-0.196965
-0.158334
-0.121661
-0.064024
-0.023718
0.016815
0.048057
0.069441
0.077457
0.056741
0.041793
0.006535
-0.047617
-0.086262
-0.137665
-0.184448
-0.217504
-0.239293
-0.256014
-0.252157
-0.224975
-0.210854
-0.152012
-0.094270
-0.048261
-0.009293
0.027023
0.047649
0.065214
0.039120
0.018182
-0.016106
-0.072364
-0.127016
-0.166720
-0.207469
-0.236903
-0.256589
-0.249071
-0.239384
-0.212505
-0.189855
-0.138154
-0.092986
-0.047053
-0.008114
0.015679
0.037396
0.045729
0.033347
0.014246
-0.022255
