-0.086444
-0.036376
0.006779
0.048783
0.065360
0.071053
0.070921
0.042408
0.013539
-0.032184
-0.084835
-0.136221
-0.174648
-0.211219
-0.238016
-0.238496
-0.221985
-0.200026
-0.166168
-0.131788
-0.092558
-0.045697
-0.007352
0.019027
0.047520
0.068125
0.047516
0.025225
-0.017663
-0.050772
-0.098809
-0.139042
-0.164554
-0.196611
-0.212301
-0.211182
-0.183726
-0.132890
-0.087294
-0.033699
0.036002
0.085810
0.145997
0.190934
0.245633
0.277397
0.289574
0.285679
0.279027
0.262564
0.249007
0.237862
0.228283
0.222821
0.241686
0.264576
0.299009
0.359010
0.422110
0.524655
0.612910
0.690573
0.759862
0.832749
0.893058
0.902174
0.891535
0.875304
0.832079
0.758012
0.694360
0.627733
0.559855
0.475777
0.387370
0.317378
0.262072
0.237944
0.222136
0.211693
0.217011
0.204286
0.225375
0.252626
0.262769
0.262468
0.235085
0.211602
0.169471
0.112993
0.061746
0.010691
-0.041325
-0.086557
-0.112158
-0.120903
-0.108598
-0.090573
-0.068515
-0.037154
0.005717
0.040643
0.089196
0.113697
0.136202
0.150839
0.140889
0.117154
0.075867
0.023756
-0.015661
-0.066580
-0.111845
-0.144767
-0.173956
-0.191075
-0.175611
-0.146154
-0.117213
-0.086683
-0.044863
0.003307
0.054297
0.092443
0.114696
0.126800
0.110011
0.083663
0.050532
-0.001337
-0.043397
-0.077769
-0.124727
-0.159510
-0.183006
-0.189572
-0.188495
-0.160634
-0.119652
-0.070230
-0.020507
0.023306
0.057803
0.100574
0.124510
0.129546
0.122157
0.093378
0.048084
0.007510
-0.036579
-0.084662
-0.123955
-0.159905
-0.186638
-0.185719
-0.174699
-0.144699
-0.109900
-0.068789
-0.014564
0.028884
0.079334
0.112801
0.129839
0.141933
0.135356
0.107045
0.079724
0.033662
0.001685
-0.048179
-0.100216
-0.132001
-0.156383
-0.176413
-0.160883
-0.132400
-0.098148
-0.055493
-0.004051
0.041482
0.090456
0.128339
0.143305
0.170982
0.153181
0.130041
0.094815
0.055640
0.004936
-0.027103
-0.072518
-0.114384
-0.135189
-0.141107
-0.121344
-0.097886
-0.067475
-0.022736
0.027930
0.080033
0.123432
0.158316
0.180636
0.193124
0.193007
0.173630
0.138353
0.096735
0.042330
-0.002053
-0.038971
-0.069776
-0.092602
-0.102940
-0.101357
-0.077250
-0.046474
-0.001946
0.055984
0.098372
0.145439
0.185008
0.219418
0.224282
0.216439
0.190519
0.148474
0.109495
0.063289
0.018135
-0.021636
-0.057728
-0.074425
-0.095829
-0.085146
-0.065889
-0.025742
0.016687
0.057834
0.110079
0.148261
0.191248
0.206889
0.220563
0.203450
0.179514
0.150796
0.106563
0.057704
0.015180
-0.025139
-0.063797
-0.085804
-0.109918
-0.099621
-0.069072
-0.040165
0.003785
0.056482
0.099671
0.135463
0.174265
0.190346
0.205759
0.189403
0.160806
0.139348
0.094706
0.039505
-0.016522
-0.064644
-0.084628
-0.119217
-0.132910
-0.118356
-0.093418
-0.054230
-0.013666
0.032702
0.077967
0.113732
0.145300
0.156324
0.166759
0.158190
0.134148
0.100849
0.053201
0.001315
-0.039106
-0.084362
-0.123947
-0.152322
-0.172154
-0.164225
-0.140488
-0.105146
-0.052240
-0.011291
0.032266
0.075361
0.109816
0.128473
0.149377
0.129534
0.104701
0.079497
0.030650
-0.026541
-0.078734
-0.119275
-0.154728
-0.177505
-0.194423
-0.183083
-0.158585
-0.134861
-0.092513
-0.042510
0.004857
0.053471
0.090817
0.108155
0.121178
0.108607
0.078631
0.049778
0.007990
-0.043944
-0.079065
-0.127505
-0.170781
-0.201023
-0.216162
-0.201752
-0.178396
-0.147810
-0.089689
-0.038416
0.009171
0.040482
0.077744
0.096542
0.099188
0.097382
0.085887
0.045681
0.002866
-0.049236
-0.093128
-0.135940
-0.165196
-0.186444
-0.205566
-0.196804
-0.173606
-0.141145
-0.089822
-0.040101
0.000680
0.037880
0.074135
0.097109
0.119205
0.110204
0.088171
0.058313
0.009103
-0.037966
-0.084486
-0.134629
-0.163584
-0.181048
-0.184129
-0.176518
-0.155846
-0.137471
-0.086568
-0.039036
0.005370
0.046357
0.079431
0.097784
0.119327
0.109166
0.092031
0.058767
0.017530
-0.030149
-0.079866
-0.120463
-0.159096
-0.171946
-0.179690
-0.173109
-0.152401
-0.124293
-0.078194
-0.028235
0.012835
0.057587
0.094265
0.118279
0.121010
0.113196
0.097620
0.065066
0.018456
-0.024158
-0.072279
-0.115489
-0.150938
-0.173249
-0.182606
-0.178618
-0.151531
-0.122887
-0.061168
-0.024818
0.013401
0.050579
0.086225
0.110233
0.125702
0.121607
0.096853
0.056365
0.006069
-0.035299
-0.085650
-0.119397
-0.149787
-0.179754
-0.197621
-0.187139
-0.166202
-0.132558
-0.082779
-0.033384
0.027220
0.063889
0.103588
0.123058
0.122383
0.114115
0.084150
0.043644
-0.003843
-0.041702
-0.084864
-0.125867
-0.160609
-0.187649
-0.202208
-0.194940
-0.170016
-0.135144
-0.091952
-0.035476
0.006571
0.056184
0.081334
0.108047
0.116687
0.111220
0.085555
0.057312
0.002367
-0.048724
-0.088603
-0.135957
-0.169474
-0.184609
-0.195250
-0.195145
-0.173218
-0.144822
-0.092274
-0.040387
-0.001304
0.041430
0.073677
0.098106
0.102499
0.101291
0.079374
0.063256
0.004085
-0.043313
-0.091974
-0.132025
-0.163054
-0.183339
-0.202322
-0.202823
-0.176696
-0.144807
-0.096525
-0.056333
-0.018966
0.025549
0.057160
0.084604
0.095177
0.083239
0.084296
0.051997
-0.000944
-0.053805
-0.100942
-0.142871
-0.169876
-0.201188
-0.213237
-0.211904
-0.182766
-0.142912
-0.095493
-0.052855
-0.002629
0.040621
0.071163
0.086383
0.096159
0.085262
0.067477
0.038185
-0.010756
-0.055185
-0.103092
-0.144660
-0.179338
-0.213107
-0.221671
-0.221169
-0.187124
-0.143611
-0.110972
-0.060076
-0.011685
0.034551
0.068614
0.090566
0.101212
0.097036
0.073184
0.027205
-0.013509
-0.054598
-0.109155
-0.143292
-0.173226
-0.200543
-0.208319
-0.205390
-0.183358
-0.154337
-0.114561
-0.068770
-0.019440
0.030453
0.061683
0.089212
0.091046
0.080865
0.063256
0.037494
-0.009575
-0.057400
-0.096910
-0.147920
-0.175292
-0.197834
-0.214985
-0.209859
-0.186562
-0.153629
-0.109026
-0.064497
-0.015740
0.031447
0.062550
0.086099
0.093759
0.098821
0.068451
0.029274
-0.005433
-0.055809
-0.096551
-0.130310
-0.163896
-0.208348
-0.210514
-0.197126
-0.160644
-0.117126
-0.079793
-0.030553
0.009687
0.062387
0.102746
0.125023
0.124533
0.116883
0.107711
0.079285
0.045409
-0.006675
-0.069043
-0.110237
-0.138391
-0.160554
-0.176850
-0.174733
-0.152006
-0.118283
-0.076885
-0.032477
0.013687
0.059040
0.098479
0.130630
0.145034
0.141016
0.117373
0.088338
0.045043
-0.002623
-0.052836
-0.093373
-0.135976
-0.160304
-0.164918
-0.158126
-0.132470
-0.093675
-0.050583
-0.000056
0.033355
0.064993
0.103315
0.121281
0.137501
0.131361
0.101153
0.063006
0.018562
-0.025725
-0.067098
-0.117286
-0.154222
-0.187028
-0.203769
-0.204433
-0.178030
-0.139786
-0.096197
-0.049385
-0.004254
0.040414
0.072213
0.085651
0.088987
0.086911
0.068054
0.025938
-0.009454
-0.064413
-0.123953
-0.163913
-0.200533
-0.222684
-0.227337
-0.214950
-0.197413
-0.162468
-0.118341
-0.067085
-0.026526
0.017943
0.042489
0.069945
0.074647
0.066380
0.042251
0.007766
-0.027368
-0.079666
-0.130254
-0.185024
-0.214442
-0.236581
-0.243465
-0.240568
-0.211167
-0.187423
-0.147347
-0.099917
-0.038363
0.000539
0.036024
0.064534
0.082025
0.088123
0.062574
0.023378
-0.028847
-0.088085
-0.137262
-0.181413
-0.202168
-0.225493
-0.237455
-0.233205
-0.211766
-0.174086
-0.134623
-0.085440
-0.039641
0.003643
0.034722
0.053703
0.063944
0.059649
0.037067
-0.001907
-0.037464
-0.087962
-0.123511
-0.166736
-0.203330
-0.226937
-0.242381
-0.241014
-0.211728
-0.175636
-0.134203
-0.083474
-0.035319
-0.000460
0.034101
0.054049
0.058369
0.055532
0.033845
0.002720
-0.045102
-0.091029
-0.146565
-0.180125
-0.210856
-0.223920
-0.216569
-0.198017
-0.162214
-0.108852
-0.056003
0.002778
0.081026
0.133877
0.179590
0.213942
0.240974
0.257583
0.266580
0.254244
0.252441
0.232382
0.206402
0.202789
0.199686
0.200376
0.243006
0.280901
0.328176
0.397562
0.481923
0.572688
0.649723
0.726900
0.791643
0.842880
0.885611
0.893401
0.859332
0.837025
0.779648
0.706376
0.634602
0.572647
0.505761
0.435340
0.347955
0.289456
0.249174
0.236095
0.224964
0.228704
0.234210
0.240435
0.256766
0.272622
0.271716
0.271971
0.250246
0.203393
0.147974
0.084806
0.018255
-0.038406
-0.087327
-0.128321
-0.127266
-0.132013
-0.110612
-0.074812
-0.038719
0.011407
0.053910
0.090330
0.131826
0.145592
0.153942
0.140209
0.116823
0.073673
0.034647
-0.020213
-0.071356
-0.120814
-0.149199
-0.168771
-0.174523
-0.173286
-0.153553
-0.109857
-0.073960
-0.028214
0.011705
0.050830
0.078541
0.098899
0.113580
0.113088
0.086342
0.061024
0.016157
-0.032268
-0.082950
-0.122966
-0.164895
-0.181997
-0.188868
-0.184858
-0.160477
-0.129078
-0.087235
-0.038551
0.010184
0.048878
0.084107
0.112579
0.115870
0.119292
0.098864
0.066618
0.027816
-0.032090
-0.080127
-0.118992
-0.143545
-0.168540
-0.179340
-0.168489
-0.146339
-0.115970
-0.078406
-0.026676
0.025939
0.067339
0.112576
0.130699
0.143800
0.135579
0.111488
0.058872
0.030149
-0.012456
-0.056007
-0.098418
-0.135361
-0.152696
-0.163217
-0.149989
-0.133278
-0.098957
-0.061322
-0.011899
0.032082
0.079198
0.117544
0.144154
0.150466
0.141174
0.114348
0.090410
0.050686
0.009804
-0.033528
-0.070754
-0.104674
-0.128602
-0.133787
-0.126213
-0.107302
-0.066515
-0.028033
0.034376
0.070335
0.110231
0.141185
0.166938
0.181717
0.186412
0.156985
0.130062
0.095295
0.045512
0.004920
-0.050188
-0.078800
-0.096049
-0.100247
-0.099469
-0.076499
-0.045948
-0.007944
0.039905
0.094881
0.142699
0.183013
0.207583
0.210641
0.209770
0.186168
0.147092
0.112876
0.063875
0.021573
-0.029571
-0.065186
-0.091639
-0.099058
-0.097592
-0.070780
-0.038347
0.001068
0.056654
0.104488
0.149293
0.179015
0.209086
0.220527
0.213945
0.192986
0.158787
0.120270
0.056950
0.007777
-0.036392
-0.068325
-0.092876
-0.104930
-0.087489
-0.072485
-0.041707
0.000856
0.049619
0.094165
0.136222
0.166209
0.181820
0.184315
0.191092
0.167123
0.140824
0.104549
0.041461
-0.013558
-0.049093
-0.085123
-0.103448
-0.117635
-0.116754
-0.099587
-0.066812
-0.030278
0.021201
0.058494
0.105336
0.149433
0.171805
0.181579
0.173824
0.150340
0.096340
0.043847
-0.000728
-0.043362
-0.083879
-0.112991
-0.145038
-0.159779
-0.156619
-0.138910
-0.108790
-0.070981
-0.014751
0.021862
0.063062
0.104221
0.124303
0.127884
0.126011
0.113184
0.066953
0.031079
-0.013987
-0.070958
-0.114582
-0.161432
-0.180754
-0.196116
-0.188177
-0.165683
-0.126094
-0.086168
-0.031221
-0.003225
0.041578
0.071646
0.097148
0.109928
0.114100
0.088057
0.052224
0.001256
-0.042952
-0.086822
-0.129732
-0.168876
-0.188891
-0.194564
-0.194626
-0.173106
-0.140451
-0.102031
-0.055161
-0.010016
0.040813
0.072442
0.094634
0.111226
0.095447
0.075701
0.052546
0.013654
-0.045367
-0.100996
-0.137534
-0.171909
-0.198319
-0.201994
-0.189269
-0.168354
-0.139290
-0.088488
-0.041043
0.005093
0.046694
0.071220
0.100541
0.114964
0.101923
0.083613
0.049922
0.009662
-0.037398
-0.085841
-0.130389
-0.158939
-0.193622
-0.196672
-0.193204
-0.179197
-0.140558
-0.089201
-0.038755
0.001594
0.050192
0.087505
0.104888
0.120208
0.108655
0.090765
0.055872
0.007610
-0.033749
-0.067335
-0.106675
-0.156036
-0.176320
-0.186941
-0.186996
-0.169847
-0.128235
-0.080593
-0.036890
0.009759
0.052500
0.084240
0.109154
0.118020
0.099646
0.084309
0.061202
0.019688
-0.024925
-0.081554
-0.130420
-0.170833
-0.189309
-0.189467
-0.175416
-0.150663
-0.114876
-0.082900
-0.033172
0.010257
0.050635
0.083134
0.118288
0.122951
0.116872
0.095348
0.061960
0.018057
-0.028457
-0.078732
-0.120163
-0.157540
-0.182501
-0.190399
-0.175575
-0.160293
-0.128247
-0.081590
-0.034265
0.013038
0.057878
0.086380
0.110521
0.119475
0.121140
0.085317
0.058204
0.019911
-0.041040
-0.086840
-0.144154
-0.171612
-0.188995
-0.198027
-0.190930
-0.173680
-0.135072
-0.093672
-0.046042
-0.005196
0.050978
0.086630
0.111868
0.113947
0.106570
0.084933
0.049967
0.009083
-0.049091
-0.095971
-0.147881
-0.181277
-0.197453
-0.196056
-0.189008
-0.168475
-0.140139
-0.097324
-0.049606
0.008940
0.038029
0.065769
0.088428
0.103629
0.100245
0.084074
0.040904
0.000513
-0.041813
-0.092058
-0.135833
-0.175236
-0.194177
-0.207346
-0.202096
-0.184520
-0.144312
-0.112503
-0.071707
-0.022435
0.019343
0.062396
0.086093
0.104335
0.082556
0.065066
0.037359
0.006350
-0.042216
-0.098246
-0.149047
-0.180292
-0.193270
-0.202767
-0.195906
-0.182713
-0.146454
-0.102581
-0.059793
-0.018540
0.028163
0.058315
0.079021
0.087594
0.081218
0.069790
0.027085
-0.013214
-0.060320
-0.097645
-0.143183
-0.178889
-0.205084
-0.213517
-0.193721
-0.183891
-0.145394
-0.111370
-0.068415
-0.023876
0.017998
0.054223
0.073164
0.087373
0.086573
0.071456
0.034766
0.003112
-0.052112
-0.100122
-0.139497
-0.176862
-0.199003
-0.213094
-0.208259
-0.202072
-0.172733
-0.125891
-0.075288
-0.019661
0.029760
0.064070
0.088429
0.095544
0.085959
0.071573
0.036142
-0.002794
-0.046004
-0.103303
-0.152819
-0.175319
-0.196120
-0.210245
-0.203444
-0.176414
-0.148172
-0.100641
-0.057945
-0.008344
0.037745
0.073642
0.103765
0.111497
0.095373
0.084361
0.047264
0.017735
-0.031954
-0.078226
-0.116303
-0.150897
-0.169522
-0.178131
-0.174370
-0.156920
-0.125316
-0.075487
-0.032816
0.021759
0.064766
0.102642
0.119685
0.126196
0.115553
0.107300
0.075941
0.030631
-0.009629
-0.063719
-0.118188
-0.149671
-0.162134
-0.179212
-0.168250
-0.141459
-0.105538
-0.060449
-0.017307
0.029908
0.082476
0.113373
0.133379
0.139051
0.135315
0.126856
0.095722
0.047095
0.001355
-0.058665
-0.104950
-0.132081
-0.149331
-0.164307
-0.169183
-0.162513
-0.129740
-0.090515
-0.043465
0.009297
0.052619
0.076273
0.107724
0.111073
0.099199
0.083126
0.039486
-0.001715
-0.046467
-0.095140
-0.142607
-0.171074
-0.200017
-0.209946
-0.205201
-0.189935
-0.165852
-0.120245
-0.078498
-0.028216
0.006772
0.051446
0.069502
0.072663
0.066777
0.048752
0.022939
-0.019335
-0.061995
-0.118990
-0.170035
-0.204281
-0.234812
-0.237607
-0.232840
-0.214736
-0.174919
-0.138458
-0.099239
-0.040222
0.008096
0.037981
0.057355
0.063591
0.062644
0.047878
0.016654
-0.027523
-0.068073
-0.121010
-0.161018
-0.202294
-0.229962
-0.242747
-0.236747
-0.226115
-0.182172
-0.139829
-0.098255
-0.048048
-0.003171
0.040206
0.059825
0.068378
0.058269
0.039828
0.001563
-0.032652
-0.077221
-0.131453
-0.174095
-0.208426
-0.227583
-0.240490
-0.233708
-0.214167
-0.179323
-0.134691
-0.091724
-0.043335
-0.002653
0.027351
0.052831
0.062356
0.056150
0.037928
0.002323
-0.037829
-0.074815
-0.121540
-0.168315
-0.209517
-0.243719
-0.246196
-0.235954
-0.214258
-0.186915
-0.156815
-0.102836
-0.043771
0.002702
0.052305
0.084154
0.098538
0.107607
0.110265
0.092111
0.057164
0.022034
-0.013577
-0.040069
-0.065320
-0.065635
-0.054352
-0.028110
0.017266
0.078513
0.151318
0.227406
0.312686
0.388269
0.450127
0.514784
0.570596
0.586224
0.600181
0.606175
0.604952
0.601728
0.590383
0.570735
0.567011
0.573568
0.584553
0.582390
0.599174
0.632961
0.648860
0.676912
0.715892
0.744568
0.732076
0.688839
0.631515
0.563209
0.489563
0.402906
0.310678
0.223282
0.128890
0.059597
0.019248
-0.028745
-0.037320
-0.046187
-0.039448
-0.013295
0.016176
0.037067
0.084374
0.125797
0.147892
0.169367
0.179182
0.167643
0.151807
0.117814
0.068869
0.015364
-0.040613
-0.084391
-0.118274
-0.152042
-0.164590
-0.149876
-0.130925
-0.101500
-0.055653
-0.012179
0.019411
0.056485
0.081401
0.108312
0.111557
0.105100
0.087157
0.056437
0.007842
-0.038892
-0.082134
-0.124416
-0.156086
-0.177832
-0.182144
-0.179869
-0.157797
-0.130628
-0.087591
-0.051064
-0.003546
0.032031
0.075499
0.106162
0.107232
0.107286
0.084832
0.059878
0.018312
-0.025813
-0.083411
-0.131583
-0.162189
-0.183565
-0.178022
-0.180123
-0.155490
-0.123222
-0.086893
-0.027730
0.022041
0.058232
0.099317
0.114907
0.118580
0.119803
0.099528
0.066664
0.018267
-0.024817
-0.081269
-0.118607
-0.156484
-0.170592
-0.167816
-0.160800
-0.141194
-0.112159
-0.066319
-0.020739
0.036823
0.080976
0.112552
0.127642
0.138778
0.132515
0.118400
0.095090
0.051171
-0.002484
-0.050271
-0.095634
-0.128911
-0.139040
-0.149023
-0.143202
-0.123451
-0.095807
-0.052497
-0.010911
0.044463
0.099435
0.134419
0.156215
0.163011
0.157629
0.138111
0.113192
0.065098
0.033363
-0.011183
-0.045978
-0.081946
-0.100849
-0.108938
-0.101911
-0.084767
-0.059284
-0.011764
0.029181
0.075508
0.122600
0.162229
0.186573
0.193900
0.191713
0.172079
0.137968
0.100355
0.051331
0.003256
-0.030002
-0.065377
-0.083313
-0.090671
-0.081885
-0.059900
-0.032196
0.008594
0.054910
0.107458
0.145222
0.176930
0.200072
0.210926
0.199934
0.185192
0.154064
0.108887
0.070897
0.024994
-0.020510
-0.062692
-0.086983
-0.101717
-0.091416
-0.069844
-0.054351
-0.003426
0.044067
0.087513
0.130888
0.172453
0.195775
0.207512
0.198682
0.168646
0.142333
0.102360
0.046639
-0.008178
-0.063056
-0.089917
-0.105207
-0.108389
-0.100091
-0.077847
-0.049262
-0.009892
0.036663
0.086260
0.120655
0.157566
0.172882
0.173532
0.160569
0.134043
0.112287
0.074914
0.024020
-0.016489
-0.065596
-0.101971
-0.124550
-0.136211
-0.136093
-0.114149
-0.089073
-0.055295
-0.005564
0.032239
0.072646
0.115970
0.141488
0.153966
0.139714
0.120881
0.089060
0.038310
-0.000353
-0.059029
-0.109861
-0.145222
-0.162147
-0.169732
-0.162311
-0.134810
-0.113024
-0.070217
-0.032766
0.005151
0.054184
0.091960
0.112503
0.117072
0.101850
0.081479
0.055184
0.015607
-0.034129
-0.086818
-0.131824
-0.166406
-0.182346
-0.195670
-0.194590
-0.163731
-0.143390
-0.091843
-0.050878
-0.002676
0.040116
0.069296
0.086120
0.096585
0.088283
0.071999
0.037094
-0.013190
-0.052512
-0.102223
-0.146593
-0.172124
-0.190158
-0.197416
-0.185707
-0.161757
-0.137179
-0.091935
-0.040386
0.004756
0.045674
0.059735
0.083943
0.102777
0.100855
0.074403
0.047007
-0.003161
-0.041783
-0.099932
-0.148957
-0.187961
-0.194229
-0.194011
-0.179487
-0.155398
-0.130078
-0.085167
-0.051658
-0.014497
0.027239
0.057870
0.095057
0.111144
0.108640
0.087990
0.060308
0.014787
-0.028782
-0.079781
-0.134807
-0.172918
-0.191997
-0.192354
-0.187826
-0.164675
-0.142031
-0.091392
-0.047599
-0.004670
0.038883
0.075556
0.106587
0.114158
0.101868
0.078925
0.060315
0.016297
-0.036405
-0.082631
-0.120469
-0.151410
-0.175724
-0.186640
-0.179994
-0.158169
-0.125200
-0.087426
-0.030518
0.013931
0.052327
0.088675
0.109155
0.110314
0.109143
0.088360
0.056147
0.008899
-0.039300
-0.082224
-0.114936
-0.156490
-0.185774
-0.185160
-0.182812
-0.159747
-0.131326
-0.095821
-0.047565
-0.010302
0.037694
0.075374
0.100242
0.109645
0.109790
0.078810
0.044513
0.017232
-0.035032
-0.081783
-0.121472
-0.148824
-0.176146
-0.196529
-0.188897
-0.170329
-0.144499
-0.090908
-0.053181
-0.007644
0.033834
0.079733
0.108094
0.113135
0.101652
0.083706
0.050146
0.014245
-0.034434
-0.080585
-0.132662
-0.168964
-0.191075
-0.200780
-0.191612
-0.167281
-0.135974
-0.102421
-0.054841
-0.012205
0.027989
0.062199
0.080895
0.087835
0.088884
0.067448
0.040210
-0.001281
-0.050442
-0.094599
-0.147368
-0.177303
-0.191669
-0.201368
-0.195972
-0.181243
-0.150455
-0.110477
-0.055448
-0.009979
0.032254
0.064065
0.095281
0.098599
0.093115
0.070759
0.038046
-0.001109
-0.047038
-0.093934
-0.147118
-0.185814
-0.208118
-0.216377
-0.200054
-0.181977
-0.155249
-0.112054
-0.067100
-0.014753
0.029450
0.057521
0.082403
0.091925
0.082021
0.070129
0.037655
-0.012889
-0.057210
-0.096047
-0.141525
-0.171146
-0.202244
-0.212016
-0.204893
-0.175603
-0.154222
-0.109650
-0.067879
-0.026152
0.024031
0.055159
0.079589
0.087950
0.084299
0.059179
0.034357
-0.008881
-0.053220
-0.097499
-0.144725
-0.186495
-0.197137
-0.203029
-0.206090
-0.189658
-0.154888
-0.112405
-0.076439
-0.024801
0.024292
0.061129
0.087769
0.091350
0.073607
0.055678
0.026006
-0.017009
-0.061140
-0.103627
-0.150498
-0.178361
-0.201431
-0.201479
-0.190801
-0.170718
-0.144104
-0.100720
-0.060333
-0.011818
0.041432
0.077576
0.091666
0.101548
0.091325
0.071948
0.049875
0.025398
-0.019961
-0.066971
-0.118669
-0.146969
-0.164296
-0.168564
-0.160319
-0.142654
-0.114541
-0.079263
-0.031689
0.007170
0.045217
0.078283
0.103611
0.122734
0.120155
0.095404
0.062194
0.010473
-0.034251
-0.076765
-0.111339
-0.138458
-0.153712
-0.156501
-0.143960
-0.119584
-0.090789
-0.057532
-0.006200
0.033091
0.078130
0.108255
0.144507
0.150074
0.142548
0.121897
0.087763
0.041475
-0.010485
-0.064379
-0.115331
-0.152426
-0.174395
-0.177303
-0.175533
-0.159044
-0.133351
-0.089517
-0.046445
-0.001764
0.038797
0.066000
0.087536
0.102722
0.102778
0.073088
0.034197
0.005839
-0.050132
-0.100922
-0.145054
-0.179818
-0.202251
-0.212857
-0.199960
-0.181532
-0.157545
-0.122287
-0.080727
-0.035944
0.011600
0.031767
0.065070
0.072165
0.066216
0.046798
0.007122
-0.031753
-0.081316
-0.124685
-0.165024
-0.201778
-0.214449
-0.229415
-0.226026
-0.212150
-0.177226
-0.145473
-0.086231
-0.049702
0.005801
0.047962
0.065359
0.072328
0.065490
0.032518
0.004487
-0.034882
-0.083882
-0.138670
-0.185546
-0.216133
-0.233018
-0.237526
-0.230800
-0.212247
-0.183934
-0.137828
-0.088253
-0.032504
0.009654
0.037232
0.054537
0.061327
0.061536
0.050167
0.007346
-0.036323
-0.085280
-0.148348
-0.183045
-0.201129
-0.224633
-0.236258
-0.228486
-0.207693
-0.182250
-0.143908
-0.088036
-0.033641
0.002724
0.038285
0.058269
0.061828
0.061959
0.036972
0.003111
-0.045664
-0.093345
-0.128434
-0.178548
-0.214238
-0.248623
-0.248727
-0.245857
-0.227455
-0.186181
-0.157335
-0.100912
-0.042203
0.012431
0.054291
0.089764
0.115681
0.125019
0.121430
0.103322
0.082697
0.049293
0.005221
-0.009645
-0.016221
-0.022609
-0.011853
0.029814
0.065336
0.120675
0.187084
0.275829
0.363201
0.436237
0.512550
0.563192
0.600658
0.626615
0.643190
0.652933
0.652498
0.644294
0.624614
0.608517
0.606897
0.592387
0.579693
0.578379
0.578197
0.597980
0.622755
0.656466
0.669979
0.659127
0.625359
0.579002
0.521689
0.472572
0.408776
0.328493
0.247145
0.157686
0.086905
0.023377
-0.014262
-0.038750
-0.057870
-0.057828
-0.052107
-0.036973
-0.005164
0.034610
0.083197
0.113137
0.150475
0.169246
0.174916
0.162594
0.142769
0.104918
0.064000
0.005592
-0.042087
-0.090281
-0.132824
-0.159291
-0.165361
-0.165148
-0.146594
-0.108170
-0.077720
-0.026834
0.018815
0.053417
0.091270
0.119690
0.134016
0.121267
0.095475
0.052535
0.017177
-0.028335
-0.071934
-0.111963
-0.158772
-0.185120
-0.200037
-0.192608
-0.170934
-0.136277
-0.095281
-0.048313
0.003520
0.047637
0.080038
0.104212
0.109703
0.100989
0.086425
0.054300
0.014086
-0.031373
-0.080620
-0.120030
-0.158858
-0.180527
-0.177306
-0.168859
-0.153697
-0.120843
-0.090039
-0.036785
0.007193
0.059333
0.094020
0.118638
0.120282
0.121798
0.103135
0.074620
0.041627
-0.003007
-0.053611
-0.102643
-0.140947
-0.163850
-0.168706
-0.163821
-0.135306
-0.109486
-0.072911
-0.013916
0.030976
0.071311
0.106357
0.135575
0.139229
0.130174
0.109672
0.081080
0.052840
0.006175
-0.041565
-0.086051
-0.106222
-0.133230
-0.135778
-0.128163
-0.107568
-0.081357
-0.033371
0.011609
0.064229
0.100669
0.136855
0.167276
0.165021
0.162776
0.152323
0.112252
0.082362
0.028698
-0.019184
-0.055943
-0.096571
-0.120349
-0.116674
-0.102268
-0.079055
-0.043554
-0.002680
0.035807
0.076231
0.125136
0.168824
0.201426
0.208285
0.208420
0.184798
0.151679
0.112810
0.062460
0.012106
-0.027979
-0.071723
-0.095288
-0.103555
-0.086225
-0.066549
-0.029876
0.004583
0.051299
0.099879
0.140870
0.177846
0.193693
0.204714
0.201681
0.198093
0.168470
0.131407
0.085871
0.028806
-0.024600
-0.068972
-0.100118
-0.096855
-0.085029
-0.056341
-0.026687
0.019306
0.059784
0.104051
0.129431
0.169377
0.192110
0.199738
0.197699
0.174387
0.134591
0.088436
0.053730
0.004404
-0.028559
-0.064094
-0.089040
-0.105252
-0.096430
-0.081661
-0.061655
-0.021527
0.018319
0.072797
0.110197
0.151364
0.171077
0.179845
0.179096
0.155990
0.119673
0.075924
0.027150
-0.025736
-0.066152
-0.102811
-0.120555
-0.135892
-0.127844
-0.112727
-0.070409
-0.036911
0.002968
0.055174
0.080744
0.118230
0.133197
0.146200
0.137898
0.113666
0.081264
0.046103
-0.003944
-0.053971
-0.103482
-0.145119
-0.160124
-0.169742
-0.177883
-0.159586
-0.123918
-0.075646
-0.033900
0.012486
0.048308
0.094158
0.105216
0.115683
0.115996
0.081118
0.049301
0.025216
-0.042984
-0.087071
-0.121922
-0.159817
-0.184618
-0.189371
-0.176476
-0.160775
-0.128571
-0.088864
-0.037138
0.005877
0.048106
0.082420
0.101213
0.101956
0.101191
0.084091
0.044978
0.000816
-0.047034
-0.087814
-0.136102
-0.172356
-0.191096
-0.200725
-0.190270
-0.159845
-0.132072
-0.098830
-0.056502
-0.005407
0.036311
0.074181
0.095006
0.094284
0.091893
0.078697
0.055369
0.018169
-0.039241
-0.083236
-0.128535
-0.163750
-0.181237
-0.196743
-0.194671
-0.171452
-0.126449
-0.082442
-0.036815
0.007126
0.038408
0.073044
0.101111
0.112851
0.113702
0.091693
0.050830
0.017432
-0.033456
-0.081023
-0.122786
-0.159234
-0.181700
-0.189770
-0.176985
-0.157937
-0.125855
-0.085451
-0.046535
0.008508
0.055469
0.088049
0.115270
0.117952
0.110507
0.096691
0.062263
0.012403
-0.028865
-0.071845
-0.117098
-0.153511
-0.169934
-0.179568
-0.177090
-0.161575
-0.125065
-0.090396
-0.047483
0.001937
0.042574
0.080357
0.109313
0.125006
0.110985
0.095950
0.058945
0.019451
-0.025778
-0.069305
-0.123830
-0.151652
-0.178140
-0.194768
-0.192748
-0.168215
-0.133363
-0.083790
-0.036659
0.005824
0.041107
0.083842
0.111513
0.116873
0.111499
0.087816
0.058667
0.016433
-0.027516
-0.072388
-0.117371
-0.152527
-0.174335
-0.180012
-0.180412
-0.156848
-0.121074
-0.086533
-0.045690
-0.007887
0.033773
0.063719
0.084236
0.101213
0.092509
0.074970
0.051980
0.009512
-0.032506
-0.090876
-0.123530
-0.151548
-0.180341
-0.189805
-0.193431
-0.174006
-0.127940
-0.083575
-0.040863
-0.004177
0.029132
0.055657
0.092334
0.102199
0.091049
0.067885
0.042546
0.003144
-0.045418
-0.092649
-0.125975
-0.161904
-0.185278
-0.195844
-0.193774
-0.172680
-0.140994
-0.096207
-0.056639
-0.016217
0.028704
0.069520
0.081325
0.092789
0.095203
0.074352
0.032319
-0.005086
-0.045558
-0.091901
-0.132190
-0.176580
-0.191792
-0.194704
-0.191702
-0.158042
-0.142756
-0.105372
-0.069092
-0.027585
0.022402
0.061548
0.080411
0.094064
0.093622
0.068567
0.039802
-0.002744
-0.047751
-0.100829
-0.138958
-0.176832
-0.196388
-0.202938
-0.197614
-0.174517
-0.143090
-0.109791
-0.071754
-0.017931
0.026281
0.054411
0.082352
0.087892
0.082404
0.062098
0.034396
-0.017345
-0.051730
-0.100262
-0.138018
-0.174438
-0.198433
-0.209644
-0.203966
-0.176534
-0.144143
-0.104843
-0.046358
-0.014857
0.023714
0.057326
0.070830
0.085002
0.088556
0.080718
0.041852
0.003024
-0.043854
-0.087016
-0.124248
-0.154052
-0.179557
-0.185936
-0.182221
-0.152114
-0.119375
-0.080300
-0.035003
0.009203
0.051613
0.078953
0.099976
0.121055
0.120191
0.102320
0.065764
0.021914
-0.019598
-0.062828
-0.105715
-0.149061
-0.163980
-0.178558
-0.162580
-0.139488
-0.119946
-0.075664
-0.039013
0.007487
0.056183
0.089747
0.114687
0.129521
0.126679
0.117706
0.095392
0.054839
0.017809
-0.038270
-0.072851
-0.112308
-0.140633
-0.150018
-0.143325
-0.118161
-0.087283
-0.046096
-0.008616
0.020390
0.056576
0.093882
0.125085
0.119413
0.107073
0.087871
0.057206
0.011035
-0.030189
-0.072837
-0.105655
-0.130444
-0.167131
-0.191632
-0.185269
-0.172416
-0.141973
-0.106850
-0.070951
-0.017469
0.017871
0.054485
0.081872
0.099385
0.096679
0.076195
0.050448
0.002779
-0.049906
-0.104422
-0.155124
-0.175782
-0.200220
-0.225400
-0.221582
-0.204153
-0.168398
-0.118862
-0.081512
-0.032616
0.003360
0.027275
0.050477
0.056374
0.042624
0.020189
0.002281
-0.037753
-0.078379
-0.124499
-0.162738
-0.188469
-0.206825
-0.221332
-0.216435
-0.195127
-0.166363
-0.131042
-0.092880
-0.045058
-0.003840
0.027470
0.048157
0.061145
0.056499
0.034004
0.006353
-0.037395
-0.074675
-0.123571
-0.165357
-0.203908
-0.236398
-0.241293
-0.227800
-0.209194
-0.173012
-0.121021
-0.078938
-0.035696
0.002804
0.034641
0.059195
0.065598
0.064996
0.039745
0.014720
-0.024248
-0.070991
-0.125365
-0.158151
-0.196124
-0.219982
-0.233416
-0.232205
-0.211328
-0.170942
-0.129887
-0.096033
-0.050669
-0.007825
0.031195
0.051027
0.064302
0.052828
0.026837
-0.004089
-0.045178
-0.084599
-0.117886
-0.162345
-0.182029
-0.188685
-0.191451
-0.175063
-0.141852
-0.092624
-0.028001
0.040033
0.091294
0.144395
0.185415
0.232591
0.258944
0.268479
0.282296
0.289009
0.276371
0.262644
0.254535
0.238990
0.236872
0.251205
0.275709
0.304041
0.349256
0.424833
0.518668
0.589377
0.673597
0.745277
0.813847
0.864181
0.874561
0.856673
0.845904
0.809523
0.742334
0.679283
0.619070
0.556173
0.481394
0.381626
0.306206
0.251460
0.215715
0.201509
0.186966
0.184455
0.200167
0.220152
0.238703
0.257847
0.258948
0.249835
0.204600
0.157896
0.112022
0.054715
-0.002612
-0.044329
-0.083538
-0.109889
-0.118663
-0.108224
-0.097213
-0.067407
-0.038380
-0.004916
0.036012
0.075889
0.117039
0.132533
0.144855
0.133857
0.111348
0.077344
0.021901
-0.028644
-0.071766
-0.116904
-0.143681
-0.173801
-0.174308
-0.170455
-0.151728
-0.120665
-0.078261
-0.040135
0.011972
0.043269
0.075122
0.099109
0.121777
0.108820
0.087187
0.056295
0.021194
-0.024485
-0.078016
-0.126294
-0.150891
-0.177684
-0.182803
-0.175730
-0.158546
-0.128682
-0.084722
-0.039963
0.010003
0.057606
0.086912
0.110435
0.122192
0.120534
0.091453
0.061550
0.022084
-0.018695
-0.071230
-0.117653
-0.139506
-0.166883
-0.173182
-0.173113
-0.159651
-0.115093
-0.071236
-0.035275
0.008432
0.057588
0.092686
0.119380
0.134401
0.123250
0.105715
0.075222
0.034780
-0.014812
-0.058026
-0.106471
-0.126556
-0.144395
-0.148380
-0.151861
-0.130742
-0.101567
-0.058855
-0.019159
0.031230
0.078108
0.112485
0.145452
0.157468
0.144087
0.128582
0.094363
0.059770
0.020009
-0.028304
-0.067830
-0.100785
-0.125956
-0.126194
-0.119458
-0.100762
-0.072332
-0.028115
0.023138
0.072449
0.119282
0.147698
0.174418
0.182590
0.183050
0.161534
0.129846
0.087848
0.042327
0.006069
-0.035790
-0.063049
-0.100719
-0.110211
-0.102861
-0.078531
-0.026711
0.009845
0.052476
0.101715
0.154830
0.183138
0.197432
0.199324
0.200264
0.178098
0.141496
0.101764
0.062495
0.015218
-0.026614
-0.057437
-0.073330
-0.080464
-0.083185
-0.068277
-0.034485
0.021713
0.064424
0.100634
0.143348
0.180376
0.198433
0.207702
0.204207
0.177817
0.145701
0.110378
0.061887
0.021067
-0.029351
-0.065865
-0.079888
-0.084337
-0.084315
-0.070033
-0.037308
0.000718
0.054566
0.092065
0.137410
0.158387
0.180126
0.186806
0.173161
0.151731
0.117447
0.079978
0.035864
-0.006368
-0.048892
-0.086256
-0.114245
-0.117047
-0.109052
-0.088752
-0.055503
-0.018642
0.026977
0.061294
0.101001
0.136954
0.159828
0.163897
0.160149
0.138128
0.094836
0.052987
0.008946
-0.030843
-0.077073
-0.117944
-0.142716
-0.154430
-0.149366
-0.134878
-0.103737
-0.072569
-0.022080
0.025202
0.068035
0.107489
0.122701
0.126406
0.120080
0.085501
0.057011
0.015072
-0.025734
-0.060353
-0.104155
-0.140537
-0.171023
-0.183594
-0.180523
-0.157065
-0.129386
-0.095941
-0.042379
0.004666
0.046947
0.068621
0.087283
0.101721
0.090981
0.075791
0.047267
0.004868
-0.044841
-0.089670
-0.129538
-0.158647
-0.191642
-0.199736
-0.189353
-0.165557
-0.130585
-0.090068
-0.053320
-0.012814
0.023102
0.056793
0.083152
0.104093
0.091401
0.078644
0.043572
-0.002047
-0.057282
-0.093502
-0.137966
-0.175762
-0.197317
-0.201389
-0.199122
-0.170113
-0.136344
-0.091046
-0.054038
-0.006601
0.037642
0.074278
0.099403
0.107552
0.094073
0.074523
0.042585
0.007640
-0.039430
-0.069029
-0.114263
-0.152887
-0.180680
-0.188544
-0.186109
-0.169903
-0.143071
-0.090348
-0.043224
-0.010733
0.037879
0.077395
0.102029
0.101748
0.100593
0.081196
0.060724
0.024006
-0.029482
-0.077361
-0.112280
-0.149907
-0.176806
-0.183642
-0.183997
-0.168027
-0.140008
-0.096516
-0.053973
-0.010216
0.035942
0.080190
0.108089
0.100990
0.098931
0.080005
0.050227
0.009319
-0.028131
-0.066769
-0.116357
-0.144715
-0.162321
-0.187138
-0.186977
-0.156261
-0.127038
-0.084142
-0.047182
-0.007364
0.045891
0.085188
0.101183
0.112592
0.101249
0.078198
0.053080
0.007634
-0.045366
-0.082294
-0.123078
-0.163069
-0.181723
-0.188608
-0.195111
-0.166426
-0.135837
-0.099162
-0.048727
-0.000702
0.032511
0.068691
0.087645
0.095848
0.095009
0.080037
0.047221
0.000727
-0.038617
-0.075634
-0.115598
-0.155977
-0.178775
-0.195262
-0.189533
-0.171476
-0.141207
-0.102543
-0.053932
-0.008171
0.044541
0.083913
0.102731
0.105746
0.097003
0.070506
0.042354
-0.006160
-0.060094
-0.103546
-0.146792
-0.164204
-0.185285
-0.193621
-0.195935
-0.180065
-0.151143
-0.112699
-0.067619
-0.025160
0.017888
0.064255
0.087200
0.101480
0.083766
0.059375
0.025018
-0.012072
-0.064923
-0.099222
-0.143300
-0.175552
-0.191251
-0.190050
-0.191314
-0.178650
-0.162052
-0.117830
-0.062742
-0.023144
0.034591
0.056858
0.062301
0.079581
0.080391
0.064686
0.033108
-0.006861
-0.055466
-0.096930
-0.146058
-0.193816
-0.205701
-0.210485
-0.206335
-0.175645
-0.151801
-0.103141
-0.054308
-0.029326
0.015664
0.043462
0.063696
0.081869
0.079591
0.055802
0.016141
-0.021556
-0.065166
-0.104238
-0.146480
-0.178093
-0.195876
-0.205322
-0.194137
-0.169246
-0.146358
-0.101614
-0.050374
-0.004441
0.035839
0.075173
0.091337
0.102100
0.098026
0.079238
0.053355
0.006877
-0.045262
-0.068395
-0.124591
-0.155568
-0.173528
-0.176430
-0.179531
-0.160291
-0.136414
-0.093837
-0.042270
0.000104
0.042400
0.082661
0.099513
0.113175
0.107798
0.088977
0.058059
0.016971
-0.026993
-0.062951
-0.107913
-0.149169
-0.170501
-0.177297
-0.163607
-0.127263
-0.104741
-0.067098
-0.021784
0.026821
0.071196
0.107923
0.130508
0.142078
0.133343
0.108180
0.078350
0.027920
-0.018975
-0.078325
-0.114783
-0.142493
-0.161538
-0.182014
-0.169069
-0.163290
-0.121258
-0.095094
-0.050958
-0.010082
0.038738
0.057492
0.087917
0.103890
0.091204
0.070305
0.027925
-0.013563
-0.063607
-0.107749
-0.148657
-0.180865
-0.198767
-0.213941
-0.201813
-0.179113
-0.151066
-0.110988
-0.072490
-0.033935
0.002960
0.036872
0.058092
0.067923
0.058666
0.036670
0.015428
-0.033546
-0.084728
-0.125726
-0.176716
-0.213287
-0.239237
-0.247219
-0.243294
-0.227225
-0.188536
-0.142385
-0.099568
-0.065311
-0.012952
0.022744
0.038904
0.056381
0.051699
0.032134
0.007567
-0.031622
-0.080477
-0.130756
-0.174707
-0.212314
-0.220054
-0.241088
-0.237796
-0.215363
-0.191494
-0.138571
-0.097674
-0.053937
-0.019483
0.005083
0.031150
0.047941
0.041599
0.011553
-0.023169
-0.061589
-0.098100
-0.133312
-0.174321
-0.208630
-0.225205
-0.241680
-0.237089
-0.215211
-0.187567
-0.131430
-0.086455
-0.051504
-0.017375
0.016158
0.041633
0.060246
0.053486
0.022726
-0.015038
-0.058249
-0.106556
-0.145147
-0.188718
-0.219970
-0.243520
-0.259315
-0.258762
-0.234178
-0.194671
-0.148755
-0.090322
-0.028373
0.032981
0.075110
0.106444
0.134587
0.134161
0.131356
0.110950
0.093635
0.062772
0.028119
0.002747
-0.012563
-0.012948
-0.008998
0.028778
0.075468
0.141473
0.218860
0.292271
0.360246
0.431748
0.494490
0.533875
0.575518
0.608111
0.625672
0.616478
0.600973
0.593995
0.582843
0.570432
0.547882
0.533863
0.531546
0.517932
0.531320
0.549033
0.568230
0.575996
0.575407
0.544889
0.512925
0.483933
0.447998
0.395831
0.341357
0.263711
0.176583
0.101339
0.031947
-0.023821
-0.068143
-0.112223
-0.131152
-0.120661
-0.116638
-0.098566
-0.054778
-0.000254
0.041532
0.072401
0.114904
0.137799
0.147107
0.141548
0.117273
0.085181
0.029182
-0.017494
-0.066931
-0.103306
-0.142571
-0.169603
-0.181059
-0.170482
-0.149250
-0.131583
-0.094910
-0.049962
0.002074
0.038464
0.071579
0.086983
0.087210
0.092573
0.075536
0.044484
0.002711
-0.043413
-0.095490
-0.131851
-0.169580
-0.191893
-0.200453
-0.193222
-0.181828
-0.148531
-0.103374
-0.061302
-0.014614
0.027043
0.055207
0.074735
0.088417
0.089147
0.080766
0.045668
0.003203
-0.047149
-0.084406
-0.133470
-0.159089
-0.185963
-0.193169
-0.192519
-0.172974
-0.136855
-0.089505
-0.050427
0.003789
0.041796
0.064682
0.089617
0.105928
0.097964
0.079994
0.050747
0.004900
-0.033924
-0.071254
-0.109223
-0.147382
-0.164250
-0.176896
-0.169284
-0.155194
-0.124285
-0.077534
-0.031171
0.022562
0.061512
0.093538
0.115049
0.127517
0.116067
0.097100
0.067189
0.026877
-0.013432
-0.056565
-0.085500
-0.118816
-0.136358
-0.146776
-0.150114
-0.125380
-0.094794
-0.052574
-0.002903
0.042211
0.080130
0.114140
0.136230
0.143946
0.145113
0.134719
0.090159
0.046795
0.009694
-0.037627
-0.071532
-0.098644
-0.124234
-0.118610
-0.111306
-0.092772
-0.058324
-0.028862
0.016449
0.070308
0.117121
0.148692
0.171231
0.175264
0.174755
0.154347
0.115157
0.075023
0.034302
-0.014365
-0.036044
-0.071970
-0.092669
-0.105214
-0.093433
-0.070781
-0.043399
0.000425
0.042916
0.081065
0.118245
0.161739
0.182184
0.183594
0.181519
0.163924
0.126490
0.086042
0.034690
-0.006796
-0.047147
-0.080423
-0.099356
-0.102414
-0.089275
-0.077471
-0.045139
-0.006988
0.039058
0.083346
0.115153
0.141347
0.168738
0.175359
0.160909
0.151897
0.121359
0.081077
0.025232
-0.018411
-0.049336
-0.084786
-0.114735
-0.117263
-0.111945
-0.097717
-0.068824
-0.026612
0.019132
0.060486
0.097632
0.135258
0.150254
0.152453
0.146380
0.120227
0.097109
0.055729
0.017804
-0.032480
-0.071624
-0.122027
-0.138555
-0.154944
-0.157626
-0.143790
-0.109190
-0.065161
-0.032314
0.010967
0.046376
0.091138
0.123974
0.131805
0.115055
0.092936
0.052389
0.015120
-0.029268
-0.080370
-0.122723
-0.145307
-0.166281
-0.175956
-0.186864
-0.167884
-0.129668
-0.082334
-0.039810
-0.000286
0.029785
0.065238
0.085341
0.100964
0.086435
0.058803
0.020267
-0.020128
-0.068153
-0.108638
-0.143511
-0.180250
-0.201672
-0.203611
-0.202789
-0.182248
-0.141889
-0.105655
-0.070249
-0.019204
0.008688
0.047322
0.073365
0.073817
0.069737
0.050387
0.017509
-0.025075
-0.070480
-0.127641
-0.159242
-0.192096
-0.208925
-0.223972
-0.210151
-0.193136
-0.169765
-0.125278
-0.064171
-0.016447
0.032885
0.049344
0.070419
0.085431
0.085275
0.061282
0.026525
-0.013377
-0.065933
-0.101815
-0.144762
-0.183801
-0.205692
-0.212848
-0.219951
-0.185779
-0.142616
-0.106283
-0.069030
-0.016291
0.022353
0.064538
0.085464
0.092011
0.089331
0.070307
0.028343
-0.008962
-0.052108
-0.107264
-0.134347
-0.173495
-0.206694
-0.198073
-0.192580
-0.165670
-0.132526
-0.098917
-0.063687
-0.014978
0.023067
0.062717
0.086330
0.084472
0.079406
0.065696
0.032561
-0.001250
-0.042287
-0.098901
-0.135353
-0.165461
-0.185078
-0.194184
-0.199170
-0.172477
-0.136419
-0.095735
-0.048954
-0.005282
0.027879
0.058465
0.073674
0.084281
0.077875
0.052970
0.020028
-0.022196
-0.066596
-0.104397
-0.136752
-0.165351
-0.190087
-0.200430
-0.200185
-0.186003
-0.151393
-0.105687
-0.060518
-0.000832
0.034394
0.061082
0.077119
0.083582
0.091132
0.059145
0.033292
-0.010482
-0.062670
-0.101300
-0.136047
-0.173518
-0.201760
-0.204662
-0.208912
-0.182861
-0.146532
-0.109481
-0.064771
-0.020382
0.013731
0.055409
0.070165
0.079141
0.078270
0.058337
0.028806
-0.021528
-0.061604
-0.110182
-0.159249
-0.188814
-0.212959
-0.221143
-0.213138
-0.187018
-0.144339
-0.104065
-0.054489
-0.017003
0.022200
0.051482
0.071668
0.077455
0.069052
0.044474
0.016985
-0.021975
-0.067173
-0.122132
-0.159709
-0.188972
-0.199770
-0.213128
-0.212005
-0.198004
-0.167478
-0.123195
-0.077172
-0.035835
0.007730
0.036230
0.061560
0.069689
0.057182
0.043707
0.015728
-0.016186
-0.062975
-0.115823
-0.154699
-0.178407
-0.208766
-0.217422
-0.223288
-0.192106
-0.166485
-0.121412
-0.082742
-0.038465
-0.004839
0.034267
0.056544
0.063781
0.063566
0.037857
0.011691
-0.026986
-0.071445
-0.114305
-0.154105
-0.186171
-0.210058
-0.212847
-0.199819
-0.179153
-0.145713
-0.109107
-0.056970
-0.002570
0.042751
0.070733
0.098831
0.109787
0.106866
0.075560
0.042115
0.003556
-0.054742
-0.089397
-0.123958
-0.161357
-0.185047
-0.190411
-0.179674
-0.161103
-0.134882
-0.087624
-0.049134
-0.008759
0.034624
0.068207
0.093566
0.109143
0.105750
0.076715
0.052001
0.010824
-0.039421
-0.074406
-0.115151
-0.143190
-0.161210
-0.177664
-0.173475
-0.146320
-0.113543
-0.076257
-0.028007
0.023016
0.067013
0.089711
0.115352
0.124550
0.111199
0.087409
0.052611
0.001085
-0.045895
-0.093300
-0.130951
-0.166633
-0.195331
-0.202357
-0.200925
-0.188807
-0.154042
-0.118190
-0.068691
-0.025405
0.018983
0.040983
0.063106
0.067188
0.062381
0.039786
0.026814
-0.017361
-0.064135
-0.120290
-0.163609
-0.202298
-0.222450
-0.228737
-0.225282
-0.202962
-0.171248
-0.135723
-0.098492
-0.062497
-0.012507
0.006907
0.030370
0.045501
0.042142
0.024240
-0.008868
-0.060029
-0.110208
-0.150293
-0.191141
-0.216370
-0.238365
-0.243935
-0.243963
-0.221284
-0.200320
-0.156663
-0.109850
-0.061098
-0.016052
0.011864
0.029883
0.033249
0.026733
-0.002005
-0.023355
-0.066551
-0.116379
-0.158868
-0.199886
-0.227056
-0.248280
-0.260565
-0.262181
-0.230030
-0.192818
-0.145594
-0.113923
-0.067308
-0.025826
0.006058
0.022548
0.037409
0.039728
0.014615
-0.016358
-0.064067
-0.104559
-0.156233
-0.199354
-0.219796
-0.250835
-0.254653
-0.253220
-0.233161
-0.203086
-0.159943
-0.113306
-0.070630
-0.029316
-0.006289
0.018153
0.027128
0.020794
-0.005964
-0.024024
-0.067201
-0.116273
-0.159668
-0.204351
-0.229060
-0.243470
-0.243822
-0.223887
-0.201184
-0.151969
-0.100335
-0.032079
0.024758
0.084316
0.129878
0.167644
0.177923
0.184772
0.195884
0.189987
0.166186
0.155329
0.138190
0.123456
0.132079
0.134818
0.146822
0.179098
0.239801
0.309687
0.383704
0.454847
0.530549
0.613025
0.676754
0.731372
0.770559
0.804489
0.811225
0.794903
0.751682
0.702325
0.648081
0.584956
0.526699
0.491507
0.461494
0.423144
0.373126
0.332271
0.312760
0.311821
0.301433
0.295849
0.273544
0.254050
0.241438
0.217128
0.185230
0.151935
0.099944
0.045257
-0.012957
-0.074273
-0.105938
-0.121639
-0.135880
-0.138235
-0.110571
-0.081645
-0.045457
-0.003924
0.035050
0.075757
0.099762
0.118296
0.112199
0.100909
0.078101
0.040595
-0.004403
-0.053020
-0.086952
-0.134659
-0.162369
-0.197472
-0.205848
-0.198582
-0.183688
-0.151570
-0.113255
-0.069316
-0.017436
0.023561
0.040247
0.063831
0.077084
0.060708
0.038917
0.010978
-0.023322
-0.067880
-0.122254
-0.160542
-0.187051
-0.206376
-0.221220
-0.208612
-0.177919
-0.158444
-0.117909
-0.084283
-0.041468
0.001800
0.035481
0.054604
0.069678
0.064044
0.046103
0.013725
-0.021203
-0.065174
-0.112172
-0.154295
-0.173679
-0.204244
-0.210185
-0.195085
-0.180749
-0.156246
-0.108021
-0.068119
-0.022730
0.028336
0.053833
0.070825
0.083770
0.075576
0.054564
0.027397
-0.011136
-0.053015
-0.103984
-0.144110
-0.162500
-0.188846
-0.203597
-0.180805
-0.167069
-0.140000
-0.097245
-0.044001
-0.004120
0.037999
0.078422
0.097365
0.104268
0.089205
0.071852
0.043084
0.002760
-0.038204
-0.084866
-0.104979
-0.144853
-0.177090
-0.175036
-0.163273
-0.142262
-0.102927
-0.067546
-0.027111
0.026579
0.061306
0.094597
0.115028
0.118074
0.117266
0.106772
0.074832
0.042121
-0.005967
-0.056148
-0.087731
-0.118013
-0.143273
-0.153276
-0.140810
-0.129159
-0.101547
-0.052345
-0.012804
0.035053
0.082676
0.115020
0.144435
0.158952
0.145480
0.132752
0.096333
0.051586
0.008500
-0.024781
-0.073596
-0.110539
-0.132301
-0.138042
-0.129889
-0.104387
-0.067445
-0.030774
0.009986
0.041485
0.100221
0.122344
0.139287
0.140834
0.141104
0.125755
0.097169
0.059757
0.013625
-0.034078
-0.079826
-0.115206
-0.137802
-0.141599
-0.140535
-0.131519
-0.088855
-0.045791
-0.007197
0.037507
0.077423
0.105792
0.123578
0.140650
0.121909
0.104477
0.071697
0.027151
-0.011681
-0.061567
-0.107377
-0.133485
-0.163735
-0.166078
-0.169985
-0.144517
-0.113781
-0.073433
-0.040225
0.011077
0.058941
0.079476
0.099374
0.102008
0.091888
0.062914
0.023591
-0.013940
-0.065064
-0.103813
-0.139441
-0.172220
-0.195681
-0.202686
-0.199038
-0.188923
-0.152802
-0.118017
-0.081479
-0.029163
0.004824
0.041525
0.059344
0.060004
0.051471
0.040946
0.007919
-0.038624
-0.091416
-0.136936
-0.173271
-0.208869
-0.232502
-0.251303
-0.247802
-0.235169
-0.192317
-0.150094
-0.109040
-0.061161
-0.018703
0.012369
0.027453
0.033699
0.025565
0.006315
-0.023954
-0.064189
-0.109998
-0.149377
-0.197398
-0.220996
-0.246548
-0.254550
-0.245327
-0.226135
-0.201222
-0.160723
-0.125185
-0.069953
-0.031610
0.000440
0.024357
0.029513
0.016700
-0.004282
-0.041202
-0.075167
-0.122048
-0.160562
-0.212829
-0.238702
-0.255282
-0.255568
-0.243871
-0.235166
-0.202495
-0.150503
-0.109436
-0.068402
-0.030121
0.004665
0.023244
0.029785
0.027460
0.004025
-0.024212
-0.067859
-0.106748
-0.160307
-0.205039
-0.225868
-0.243152
-0.254264
-0.253468
-0.239020
-0.209604
-0.169796
-0.115953
-0.070388
-0.032721
-0.005679
0.011121
0.014154
0.011495
-0.003044
-0.039162
-0.071646
-0.127922
-0.177523
-0.213926
-0.238381
-0.241635
-0.257929
-0.244792
-0.223853
-0.198393
-0.161342
-0.116616
-0.066192
-0.017223
0.003313
0.021490
0.020986
0.016977
0.009915
-0.021990
-0.062216
-0.107225
-0.152447
-0.194360
-0.230323
-0.250910
-0.265672
-0.256112
-0.237749
-0.202250
-0.164321
-0.116102
-0.076149
-0.044587
-0.002380
0.015073
0.024204
0.016699
-0.004039
-0.044082
-0.079540
-0.125593
-0.163998
-0.211916
-0.237879
-0.251208
-0.267287
-0.255950
-0.239612
-0.206311
-0.166984
-0.122517
-0.077141
-0.037294
-0.002707
0.016284
0.020821
0.013997
-0.011030
-0.039693
-0.079935
-0.135861
-0.181358
-0.216311
-0.245481
-0.261452
-0.269169
-0.264493
-0.249452
-0.216297
-0.178810
-0.136728
-0.089449
-0.054163
-0.014519
-0.000283
0.010017
0.001959
-0.022756
-0.055272
-0.095344
-0.139788
-0.184503
-0.216964
-0.243584
-0.267005
-0.287536
-0.280489
-0.253349
-0.210834
-0.183202
-0.135865
-0.093793
-0.059693
-0.022572
-0.003359
0.005649
-0.013310
-0.036177
-0.071187
-0.105009
-0.147038
-0.190907
-0.233584
-0.274486
-0.293659
-0.302163
-0.287688
-0.254440
-0.225734
-0.188639
-0.137551
-0.098440
-0.062933
-0.032466
-0.019266
-0.006809
-0.008948
-0.033503
-0.058563
-0.094878
-0.159029
-0.201222
-0.237795
-0.277542
-0.290863
-0.306992
-0.305070
-0.279907
-0.251343
-0.202361
-0.151093
-0.096981
-0.065390
-0.031958
-0.017799
-0.012430
-0.018194
-0.033220
-0.064717
-0.094815
-0.143168
-0.197573
-0.250018
-0.273864
-0.291105
-0.293029
-0.289865
-0.261968
-0.217951
-0.173133
-0.128202
-0.069533
-0.035911
-0.003243
0.010454
0.015846
0.012741
-0.003651
-0.038675
-0.073964
-0.117627
-0.161300
-0.199673
-0.228072
-0.248258
-0.268131
-0.255047
-0.235440
-0.211588
-0.171092
-0.119451
-0.077975
-0.045601
-0.019039
-0.006800
0.011924
0.012593
-0.006900
-0.033778
-0.074285
-0.113050
-0.159696
-0.192202
-0.226314
-0.240162
-0.251107
-0.248090
-0.225462
-0.187964
-0.145296
-0.104519
-0.064246
-0.031817
-0.008088
0.006915
0.012645
0.004392
-0.014877
-0.061740
-0.106703
-0.159665
-0.191357
-0.232336
-0.264960
-0.279488
-0.285157
-0.272370
-0.258160
-0.237784
-0.190455
-0.155287
-0.112618
-0.071115
-0.036263
-0.028300
-0.022786
-0.018107
-0.046415
-0.090045
-0.143396
-0.187305
-0.226479
-0.271187
-0.303569
-0.321933
-0.327755
-0.316578
-0.295938
-0.271220
-0.233104
-0.189308
-0.139810
-0.101975
-0.079505
-0.063545
-0.057544
-0.067680
-0.098204
-0.113394
-0.157518
-0.212164
-0.256948
-0.291800
-0.322276
-0.341440
-0.352220
-0.341818
-0.314179
-0.275550
-0.239897
-0.202541
-0.154186
-0.114206
-0.077664
-0.056269
-0.047067
-0.058948
-0.082395
-0.110995
-0.149014
-0.199384
-0.238492
-0.281922
-0.316904
-0.341327
-0.340583
-0.339094
-0.307957
-0.292664
-0.261483
-0.210233
-0.159932
-0.121655
-0.091214
-0.072180
-0.060316
-0.070028
-0.086436
-0.115942
-0.157841
-0.203110
-0.256327
-0.290752
-0.323925
-0.331335
-0.342764
-0.330353
-0.312601
-0.276786
-0.247112
-0.212755
-0.176618
-0.133800
-0.098328
-0.075048
-0.069742
-0.080617
-0.102820
-0.124989
-0.165095
-0.212134
-0.251271
-0.291818
-0.315321
-0.330452
-0.324609
-0.299272
-0.255168
-0.212246
-0.161663
-0.112684
-0.044628
0.009346
0.052696
0.078801
0.101783
0.110480
0.106877
0.119041
0.101887
0.080301
0.068686
0.063772
0.072757
0.084408
0.116830
0.156603
0.209655
0.269606
0.345026
0.432280
0.531417
0.604634
0.672855
0.719251
0.759320
0.762470
0.727502
0.698128
0.651703
0.582783
0.527482
0.460800
0.402482
0.352582
0.286393
0.235228
0.182589
0.152395
0.134072
0.127058
0.128737
0.123478
0.131415
0.148307
0.150445
0.137481
0.093680
0.053167
0.000850
-0.054415
-0.104459
-0.155661
-0.194849
-0.220850
-0.235896
-0.234666
-0.209353
-0.183888
-0.154616
-0.118926
-0.072311
-0.034182
-0.005834
-0.000807
0.013632
0.001143
-0.026667
-0.058621
-0.099225
-0.141365
-0.184872
-0.229542
-0.269507
-0.291520
-0.297945
-0.299783
-0.277976
-0.248272
-0.205623
-0.168557
-0.116840
-0.076258
-0.042472
-0.028447
-0.025159
-0.025786
-0.046726
-0.077319
-0.115899
-0.168721
-0.222519
-0.274102
-0.301749
-0.318898
-0.315013
-0.304955
-0.284867
-0.256490
-0.217157
-0.166426
-0.114054
-0.074255
-0.052818
-0.028379
-0.018080
-0.023926
-0.041754
-0.068858
-0.117386
-0.157336
-0.202724
-0.249889
-0.284946
-0.306291
-0.311818
-0.296059
-0.272552
-0.245023
-0.206027
-0.157632
-0.107325
-0.075675
-0.052520
-0.025327
-0.018787
-0.024625
-0.033925
-0.050627
-0.094413
-0.139966
-0.189015
-0.225314
-0.258598
-0.291079
-0.294078
-0.283000
-0.254682
-0.228911
-0.187830
-0.130208
-0.080006
-0.048191
-0.016681
0.015159
0.019190
0.024688
-0.002745
-0.033253
-0.076888
-0.125881
-0.170216
-0.212564
-0.246406
-0.266079
-0.269936
-0.249479
-0.232517
-0.200843
-0.166228
-0.116559
-0.055204
-0.001896
0.022639
0.043402
0.043616
0.034609
0.010506
-0.015531
-0.045597
-0.086268
-0.138421
-0.180514
-0.212718
-0.228660
-0.234385
-0.208854
-0.195048
-0.156409
-0.120562
-0.076339
-0.023841
0.016107
0.040923
0.056900
0.056144
0.057580
0.038482
0.013597
-0.033727
-0.075502
-0.116656
-0.164008
-0.193702
-0.210527
-0.210328
-0.215451
-0.191954
-0.161221
-0.122326
-0.071015
-0.019535
0.016422
0.048138
0.063408
0.064844
0.058629
0.035378
0.003116
-0.042555
-0.085337
-0.127931
-0.168049
-0.194731
-0.213313
-0.215629
-0.211764
-0.197686
-0.168706
-0.127725
-0.085367
-0.041475
0.002410
0.030338
0.054214
0.054150
0.048314
0.025084
-0.004229
-0.042744
-0.095757
-0.148066
-0.183644
-0.224159
-0.254340
-0.262912
-0.251702
-0.233810
-0.201044
-0.162064
-0.112857
-0.069136
-0.026103
-0.000284
0.015769
0.013656
0.001910
-0.010484
-0.044686
-0.091301
-0.142415
-0.196532
-0.225057
-0.260581
-0.281584
-0.277765
-0.272918
-0.267191
-0.237637
-0.197671
-0.152387
-0.103275
-0.071290
-0.042110
-0.021014
-0.022320
-0.029136
-0.050258
-0.078043
-0.113977
-0.167967
-0.212685
-0.248015
-0.279864
-0.298123
-0.317058
-0.313238
-0.297178
-0.258772
-0.217681
-0.174670
-0.136692
-0.098394
-0.074418
-0.042995
-0.048740
-0.058558
-0.078826
-0.107029
-0.147908
-0.187373
-0.228385
-0.259280
-0.296483
-0.319139
-0.318349
-0.317143
-0.296154
-0.258833
-0.211216
-0.168579
-0.124817
-0.096647
-0.064724
-0.050656
-0.054064
-0.055999
-0.073642
-0.097992
-0.139974
-0.198438
-0.250632
-0.286304
-0.314140
-0.325647
-0.335157
-0.333966
-0.319191
-0.281683
-0.229356
-0.191766
-0.142539
-0.095390
-0.052499
-0.027355
-0.028090
-0.042656
-0.060462
-0.102223
-0.150807
-0.200971
-0.240358
-0.277709
-0.303682
-0.316187
-0.319579
-0.315238
-0.293685
-0.251186
-0.212510
-0.174658
-0.129741
-0.089066
-0.063458
-0.030825
-0.030976
-0.044841
-0.055358
-0.081161
-0.133316
-0.179706
-0.230342
-0.260904
-0.291887
-0.316133
-0.321390
-0.309196
-0.291147
-0.265662
-0.225889
-0.175624
-0.132133
-0.095999
-0.053631
-0.024725
-0.022796
-0.018716
-0.047064
-0.085131
-0.123978
-0.176603
-0.214023
-0.251701
-0.282953
-0.298733
-0.312200
-0.309402
-0.282578
-0.244586
-0.195825
-0.163233
-0.125509
-0.079497
-0.048746
-0.033536
-0.030103
-0.031289
-0.055923
-0.096910
-0.132748
-0.178877
-0.227970
-0.272315
-0.298602
-0.317881
-0.305991
-0.311903
-0.288346
-0.253270
-0.215226
-0.172427
-0.124489
-0.089188
-0.058548
-0.021316
-0.031051
-0.029151
-0.054325
-0.098479
-0.132331
-0.179097
-0.221303
-0.263522
-0.294406
-0.317200
-0.319515
-0.309623
-0.290423
-0.252328
-0.218504
-0.178166
-0.131534
-0.087777
-0.066413
-0.040206
-0.036546
-0.041728
-0.071204
-0.094135
-0.146663
-0.184686
-0.229159
-0.270376
-0.294935
-0.310371
-0.313695
-0.315685
-0.285681
-0.250342
-0.216704
-0.184455
-0.146566
-0.112663
-0.073014
-0.052548
-0.048723
-0.055096
-0.064429
-0.086495
-0.134392
-0.184315
-0.234330
-0.277417
-0.299027
-0.320839
-0.322869
-0.319668
-0.295584
-0.262139
-0.230818
-0.178162
-0.135718
-0.106182
-0.077066
-0.053944
-0.049092
-0.059556
-0.072749
-0.102481
-0.146283
-0.192461
-0.239011
-0.279905
-0.312471
-0.328749
-0.323813
-0.320115
-0.298533
-0.257189
-0.226467
-0.184479
-0.138768
-0.102975
-0.070164
-0.041144
-0.042893
-0.049529
-0.068687
-0.101690
-0.132757
-0.191934
-0.228745
-0.257020
-0.289737
-0.309779
-0.317490
-0.306374
-0.283053
-0.246328
-0.203446
-0.157154
-0.112903
-0.066684
-0.039361
-0.019772
-0.009439
-0.016372
-0.034224
-0.070514
-0.101937
-0.154123
-0.194538
-0.232928
-0.271201
-0.297820
-0.298749
-0.293814
-0.269660
-0.245956
-0.219082
-0.169495
-0.122925
-0.079667
-0.037796
-0.004319
0.008650
0.014730
-0.013201
-0.046843
-0.096228
-0.141117
-0.183001
-0.216376
-0.243821
-0.274672
-0.278039
-0.258408
-0.243279
-0.209540
-0.177662
-0.141272
-0.093068
-0.054016
-0.027809
-0.014804
-0.010576
-0.018547
-0.039583
-0.077293
-0.109560
-0.164847
-0.208022
-0.244707
-0.277773
-0.302142
-0.311461
-0.308542
-0.283619
-0.251645
-0.212890
-0.167194
-0.126238
-0.087058
-0.067076
-0.051517
-0.041437
-0.048771
-0.057461
-0.100313
-0.140222
-0.193151
-0.240629
-0.291822
-0.318964
-0.339865
-0.345821
-0.342967
-0.314257
-0.281519
-0.244276
-0.197542
-0.150805
-0.106611
-0.078528
-0.062645
-0.051136
-0.072683
-0.096984
-0.123556
-0.164334
-0.222774
-0.274642
-0.318476
-0.350657
-0.359682
-0.362362
-0.353768
-0.327884
-0.292021
-0.261024
-0.211076
-0.172662
-0.117610
-0.089006
-0.061455
-0.066906
-0.064756
-0.084399
-0.109666
-0.151799
-0.207285
-0.253255
-0.297754
-0.332875
-0.358245
-0.362288
-0.356451
-0.331929
-0.295059
-0.257784
-0.204254
-0.153500
-0.116051
-0.087011
-0.066805
-0.062375
-0.072765
-0.086789
-0.118749
-0.158294
-0.207333
-0.257281
-0.293602
-0.329623
-0.359166
-0.368528
-0.353491
-0.326908
-0.293145
-0.256125
-0.207281
-0.162201
-0.123995
-0.098990
-0.076776
-0.066136
-0.075009
-0.096716
-0.130539
-0.175376
-0.228049
-0.266842
-0.301473
-0.314181
-0.329627
-0.318212
-0.302448
-0.263160
-0.213195
-0.156834
-0.104495
-0.043498
0.006141
0.042340
0.072194
0.106166
0.116582
0.122333
0.126838
0.124148
0.115657
0.103135
0.096812
0.088138
0.089373
0.119430
0.163934
0.206700
0.287954
0.361510
0.444899
0.538697
0.616046
0.670701
0.718516
0.752923
0.754234
0.731023
0.698412
0.643533
0.573965
0.509567
0.457153
0.408571
0.340440
0.276337
0.215097
0.167429
0.145960
0.138883
0.131170
0.129886
0.150811
0.162647
0.169619
0.169711
0.150908
0.115339
0.065685
0.006194
-0.047425
-0.099433
-0.153651
-0.191118
-0.218708
-0.234480
-0.218103
-0.203031
-0.175834
-0.152301
-0.106296
-0.066587
-0.016981
0.007436
0.024164
0.016409
0.011158
-0.008176
-0.037687
-0.079666
-0.132002
-0.179684
-0.224531
-0.261744
-0.277822
-0.284041
-0.275919
-0.263899
-0.229938
-0.192840
-0.154688
-0.097945
-0.054546
-0.032414
-0.018792
-0.017036
-0.021919
-0.030217
-0.070650
-0.112163
-0.146935
-0.191720
-0.228589
-0.266559
-0.286479
-0.292565
-0.290590
-0.268651
-0.247671
-0.198686
-0.150754
-0.110422
-0.061026
-0.021494
-0.010663
0.000488
-0.009554
-0.024351
-0.062970
-0.100621
-0.138689
-0.178102
-0.221049
-0.253090
-0.274169
-0.284747
-0.263831
-0.241847
-0.211005
-0.165426
-0.117069
-0.073668
-0.028948
-0.002772
0.008579
0.016932
0.004044
-0.005979
-0.039851
-0.086105
-0.133128
-0.183738
-0.217846
-0.243547
-0.256056
-0.257264
-0.247993
-0.234359
-0.203943
-0.154021
-0.102579
-0.044313
-0.009408
0.016450
0.033871
0.044694
0.034177
0.013893
-0.017910
-0.053409
-0.095644
-0.136624
-0.185896
-0.211359
-0.237808
-0.245961
-0.239147
-0.199694
-0.165493
-0.109565
-0.070775
-0.022880
0.017367
0.048456
0.069202
0.080784
0.067820
0.052251
0.017667
-0.014467
-0.055495
-0.112282
-0.154969
-0.183642
-0.200482
-0.207171
-0.192995
-0.177488
-0.152032
-0.102477
-0.056466
-0.004421
0.048082
0.078432
0.094443
0.101892
0.084645
0.062464
0.033617
-0.011403
-0.050016
-0.092797
-0.132979
-0.161908
-0.175176
-0.177850
-0.165747
-0.152652
-0.116289
-0.064739
-0.024659
0.022407
0.047706
0.082616
0.097591
0.101469
0.085092
0.071860
0.039503
-0.005020
-0.045575
-0.089678
-0.134751
-0.165394
-0.201186
-0.207416
-0.193781
-0.165509
-0.137510
-0.085232
-0.046057
-0.005573
0.036155
0.067353
0.089134
0.092156
0.080691
0.056421
0.028965
-0.020851
-0.058671
-0.105247
-0.154838
-0.187326
-0.208897
-0.214857
-0.207470
-0.178782
-0.146783
-0.108511
-0.071507
-0.033495
0.004144
0.033100
0.061659
0.058435
0.052331
0.023813
-0.014708
-0.062296
-0.094822
-0.147060
-0.191763
-0.226060
-0.236861
-0.252315
-0.241540
-0.226003
-0.187513
-0.154444
-0.112463
-0.064516
-0.028038
0.002070
0.025129
0.026132
0.011657
-0.005376
-0.041077
-0.084642
-0.126007
-0.166564
-0.213198
-0.249032
-0.275483
-0.285698
-0.262644
-0.249655
-0.219000
-0.169532
-0.128760
-0.083529
-0.052838
-0.019280
0.001935
0.022534
-0.002865
-0.019723
-0.061746
-0.097030
-0.137067
-0.179971
-0.218646
-0.258157
-0.281116
-0.291901
-0.275703
-0.249072
-0.220508
-0.168702
-0.133333
-0.096981
-0.052041
-0.028072
-0.007209
-0.002879
-0.012641
-0.035348
-0.061553
-0.103555
-0.160756
-0.205864
-0.233391
-0.259910
-0.281774
-0.289930
-0.276972
-0.246438
-0.213094
-0.177892
-0.130433
-0.091803
-0.052799
-0.004455
0.020100
0.015692
0.008413
-0.017936
-0.047514
-0.086061
-0.131651
-0.182887
-0.216457
-0.253526
-0.277135
-0.282900
-0.268412
-0.239188
-0.215156
-0.184040
-0.134907
-0.087295
-0.049594
-0.009140
0.020157
0.028071
0.014776
0.000105
-0.036708
-0.075350
-0.126812
-0.174588
-0.219333
-0.238662
-0.262058
-0.268541
-0.256273
-0.245013
-0.206675
-0.158911
-0.114513
-0.080090
-0.034591
0.009170
0.019407
0.017607
0.008665
-0.010500
-0.040589
-0.081927
-0.116634
-0.161277
-0.202683
-0.239202
-0.266420
-0.270465
-0.259318
-0.240590
-0.203649
-0.168533
-0.123762
-0.081938
-0.029071
0.001947
0.028118
0.029893
0.019696
-0.004088
-0.044827
-0.080451
-0.114578
-0.166980
-0.209812
-0.234190
-0.261162
-0.263653
-0.247664
-0.229860
-0.197215
-0.165521
-0.115406
-0.072566
-0.027547
0.009136
0.021663
0.022894
0.020865
-0.008199
-0.039076
-0.074581
-0.118750
-0.168585
-0.205348
-0.238893
-0.260098
-0.279559
-0.270121
-0.246020
-0.205987
-0.157528
-0.115122
-0.073258
-0.029812
-0.006567
0.020884
0.025904
0.014983
-0.004385
-0.034318
-0.081853
-0.138883
-0.183549
-0.220375
-0.248460
-0.265670
-0.276797
-0.268607
-0.253312
-0.212847
-0.163466
-0.115740
-0.077004
-0.042060
-0.011539
0.013497
0.022375
0.004953
-0.021270
-0.053489
-0.084901
-0.136669
-0.176237
-0.215374
-0.251645
-0.272415
-0.272884
-0.269026
-0.250620
-0.213876
-0.171961
-0.142768
-0.089934
-0.042873
0.007495
0.015903
0.011339
-0.003793
-0.024719
-0.056795
-0.080909
-0.123509
-0.171825
-0.208796
-0.250839
-0.278429
-0.271875
-0.263465
-0.246230
-0.213553
-0.171699
-0.138347
-0.097978
-0.052588
-0.013959
0.006709
0.016966
0.015170
-0.016120
-0.040922
-0.089573
-0.139768
-0.185327
-0.228430
-0.263008
-0.266781
-0.276020
-0.264473
-0.242852
-0.220163
-0.188733
-0.133240
-0.085319
-0.049154
-0.008997
0.015556
0.014963
0.006032
-0.015051
-0.045140
-0.088637
-0.129492
-0.162727
-0.201504
-0.239932
-0.258979
-0.261403
-0.244447
-0.207845
-0.184412
-0.151731
-0.106454
-0.048347
-0.008310
0.035518
0.059752
0.054278
0.043130
0.025109
-0.014274
-0.054679
-0.106667
-0.152380
-0.186033
-0.215421
-0.237200
-0.254002
-0.239928
-0.203959
-0.170513
-0.135933
-0.089176
-0.049624
-0.006675
0.028545
0.049529
0.052454
0.050376
0.032316
0.007502
-0.017513
-0.063459
-0.116277
-0.160921
-0.197671
-0.219597
-0.219175
-0.203522
-0.182458
-0.154636
-0.111102
-0.071001
-0.028730
0.010674
0.030351
0.054606
0.056765
0.048536
0.016768
-0.001209
-0.058087
-0.106856
-0.143459
-0.182938
-0.211681
-0.242482
-0.238073
-0.238101
-0.210276
-0.187355
-0.154733
-0.130316
-0.076807
-0.038326
0.006264
0.015763
0.021574
0.013590
-0.025380
-0.050032
-0.096333
-0.155123
-0.188420
-0.226346
-0.254966
-0.270317
-0.278659
-0.272522
-0.241116
-0.215061
-0.178515
-0.128120
-0.093780
-0.057730
-0.020579
-0.002040
0.001297
0.002350
-0.028639
-0.064833
-0.102353
-0.150930
-0.191700
-0.231289
-0.263098
-0.289951
-0.291888
-0.287405
-0.268651
-0.238907
-0.187804
-0.139429
-0.089540
-0.051634
-0.023209
0.005058
0.007505
-0.001239
-0.030945
-0.057096
-0.102839
-0.151574
-0.187840
-0.240548
-0.275088
-0.288579
-0.289321
-0.282575
-0.255675
-0.225829
-0.182410
-0.127634
-0.070392
-0.046279
-0.018310
-0.001298
0.007507
-0.001621
-0.027169
-0.065973
-0.105241
-0.143134
-0.193601
-0.241479
-0.272130
-0.283747
-0.285997
-0.286468
-0.256848
-0.221954
-0.178988
-0.138029
-0.102680
-0.063573
-0.032277
-0.014264
-0.014341
-0.010244
-0.044665
-0.074787
-0.102246
-0.144530
-0.195701
-0.226713
-0.253167
-0.250462
-0.242378
-0.224970
-0.189971
-0.144218
-0.093025
-0.033187
0.013035
0.075353
0.114194
0.151791
0.184502
0.212870
0.196064
0.187885
0.172806
0.150740
0.148610
0.126037
0.144653
0.153814
0.177727
0.222934
0.274660
0.333483
0.402081
0.505586
0.594034
0.668620
0.730471
0.782793
0.822279
0.823008
0.782116
0.750875
0.709442
0.635289
0.578475
0.521424
0.465454
0.401955
0.336917
0.275265
0.240403
0.203896
0.210482
0.220430
0.205799
0.199249
0.210550
0.225326
0.218507
0.204790
0.179898
0.136474
0.069355
0.012169
-0.037881
-0.084851
-0.126418
-0.160780
-0.175808
-0.155471
-0.137746
-0.114944
-0.070699
-0.018639
0.009460
0.050867
0.079463
0.091372
0.094663
0.087618
0.050301
0.015984
-0.027867
-0.068952
-0.107497
-0.145173
-0.186345
-0.210153
-0.223365
-0.219505
-0.191737
-0.163810
-0.121514
-0.070114
-0.036351
0.005000
0.037946
0.064148
0.070425
0.062768
0.037018
0.011356
-0.027753
-0.080216
-0.130909
-0.176283
-0.210287
-0.236821
-0.233723
-0.226014
-0.199387
-0.168791
-0.131369
-0.079621
-0.030776
0.015590
0.052390
0.066486
0.067261
0.058302
0.027388
-0.007127
-0.050825
-0.092460
-0.120933
-0.159768
-0.196931
-0.208963
-0.212699
-0.203099
-0.185488
-0.140895
-0.103643
-0.054722
-0.019985
0.020890
0.060214
0.080210
0.086875
0.086643
0.058237
0.028882
-0.023594
-0.074987
-0.115904
-0.156992
-0.183970
-0.200689
-0.200063
-0.179278
-0.165922
-0.132221
-0.091496
-0.042201
-0.008047
0.046501
0.078974
0.099439
0.105814
0.098149
0.077930
0.047155
0.015889
-0.035855
-0.075885
-0.124064
-0.136189
-0.157150
-0.161087
-0.160767
-0.131772
-0.099437
-0.057631
-0.007855
0.035957
0.078962
0.121972
0.136026
0.147047
0.131495
0.113570
0.076574
0.040075
-0.015133
-0.049963
-0.078402
-0.107612
-0.137125
-0.152244
-0.136810
-0.115323
-0.072316
-0.027908
0.021547
0.073707
0.119948
0.146291
0.175907
0.174265
0.168498
0.141544
0.101273
0.061050
0.029206
-0.023496
-0.062481
-0.092561
-0.115826
-0.120618
-0.116393
-0.091991
-0.055753
-0.015410
0.028759
0.079930
0.118686
0.153576
0.171333
0.173870
0.164937
0.141426
0.108069
0.059104
0.019985
-0.034060
-0.078874
-0.099309
-0.121197
-0.131095
-0.118590
-0.097044
-0.075437
-0.019285
0.017565
0.059049
0.108298
0.131428
0.159058
0.167908
0.147890
0.121624
0.079010
0.039602
-0.001278
-0.039769
-0.080619
-0.114608
-0.135343
-0.147728
-0.135939
-0.116904
-0.095008
-0.053057
0.001026
0.046484
0.093430
0.105910
0.129457
0.139444
0.132006
0.109016
0.066730
0.018839
-0.027081
-0.078003
-0.122501
-0.162407
-0.177799
-0.195493
-0.181787
-0.154880
-0.119955
-0.098657
-0.051153
0.002058
0.046071
0.077014
0.086602
0.091202
0.082222
0.070746
0.026718
-0.014986
-0.062019
-0.112296
-0.159314
-0.188776
-0.206347
-0.216799
-0.192459
-0.176488
-0.138379
-0.103990
-0.069304
-0.021440
0.019501
0.043894
0.066789
0.078297
0.066255
0.042993
0.006912
-0.038232
-0.080356
-0.124159
-0.163059
-0.188377
-0.214342
-0.219086
-0.214020
-0.189307
-0.154477
-0.118341
-0.069641
-0.019606
0.020484
0.056232
0.072098
0.073183
0.063232
0.038827
0.005253
-0.039403
-0.088167
-0.124031
-0.171224
-0.203473
-0.224369
-0.220794
-0.207490
-0.187499
-0.155974
-0.108213
-0.065221
-0.018723
0.018157
0.053011
0.077222
0.085674
0.075983
0.042602
0.003991
-0.020114
-0.078318
-0.124198
-0.161399
-0.185875
-0.214998
-0.214466
-0.200056
-0.170958
-0.147964
-0.112304
-0.063161
-0.013091
0.030190
0.066225
0.088024
0.098107
0.078386
0.051102
0.021014
-0.015342
-0.059247
-0.117443
-0.150586
-0.177591
-0.206019
-0.205400
-0.192976
-0.180369
-0.136053
-0.098863
-0.049971
-0.010661
0.037555
0.064104
0.089717
0.095047
0.083501
0.070984
0.031912
-0.014016
-0.057972
-0.109587
-0.154500
-0.181844
-0.193733
-0.193921
-0.183013
-0.166898
-0.126345
-0.094703
-0.051947
-0.004950
0.033904
0.066929
0.090926
0.091240
0.072255
0.055612
0.018978
-0.013974
-0.065832
-0.113375
-0.147622
-0.174291
-0.194390
-0.199032
-0.193638
-0.176279
-0.136881
-0.086477
-0.057835
-0.010202
0.041768
0.074677
0.093853
0.105097
0.094537
0.068159
0.025552
-0.016396
-0.064143
-0.103917
-0.144346
-0.174903
-0.197711
-0.201150
-0.194249
-0.176252
-0.132604
-0.096066
-0.051354
-0.001277
0.036818
0.076386
0.084150
0.096267
0.084528
0.063339
0.023220
-0.023359
-0.066432
-0.121561
-0.160317
-0.196088
-0.211703
-0.206651
-0.192732
-0.175303
-0.140901
-0.101974
-0.058033
-0.006894
0.028342
0.060592
0.085264
0.085452
0.075302
0.051728
0.017432
-0.032000
-0.080372
-0.125663
-0.154224
-0.169996
-0.199940
-0.212226
-0.210058
-0.183455
-0.148375
-0.096784
-0.056649
-0.012458
0.020165
0.046428
0.072245
0.072563
0.065978
0.046101
0.016356
-0.026149
-0.062117
-0.114450
-0.156597
-0.192209
-0.204413
-0.219365
-0.210481
-0.184536
-0.143398
-0.096561
-0.061834
-0.017723
0.022904
0.051100
0.065192
0.077201
0.068775
0.040786
0.010569
-0.033390
-0.076909
-0.127483
-0.164377
-0.188887
-0.199770
-0.204724
-0.197255
-0.174861
-0.140487
-0.112091
-0.057876
-0.004556
0.024753
0.048935
0.070096
0.073451
0.073865
0.057798
0.015483
-0.021671
-0.081215
-0.129033
-0.153291
-0.192536
-0.212472
-0.214606
-0.209185
-0.185889
-0.146433
-0.104334
-0.062897
-0.008569
0.030644
0.067871
0.084561
0.084998
0.089426
0.066018
0.018677
-0.018970
-0.057827
-0.099639
-0.131646
-0.172566
-0.193449
-0.193212
-0.177028
-0.159201
-0.132121
-0.085840
-0.026543
0.034823
0.059338
0.093289
0.123331
0.126289
0.122476
0.098807
0.062666
0.013853
-0.037451
-0.092713
-0.126301
-0.156570
-0.185849
-0.200959
-0.183340
-0.159472
-0.109328
-0.069497
-0.018015
0.021423
0.067535
0.100092
0.127279
0.128594
0.140301
0.119636
0.079788
0.038788
-0.015292
-0.057408
-0.081928
-0.120510
-0.139203
-0.150133
-0.155598
-0.135044
-0.101249
-0.072243
-0.034389
0.015727
0.052304
0.082087
0.091732
0.095034
0.095977
0.089905
0.051596
-0.008137
-0.052779
-0.090331
-0.128772
-0.161568
-0.187191
-0.197986
-0.188462
-0.168256
-0.126289
-0.090027
-0.056555
-0.014066
0.022867
0.057836
0.075083
0.079580
0.073723
0.045776
0.010275
-0.047102
-0.087415
-0.124658
-0.160785
-0.199655
-0.218847
-0.223943
-0.215563
-0.188447
-0.163645
-0.117376
-0.074145
-0.033624
0.006413
0.038531
0.057303
0.059914
0.052158
0.030442
-0.003132
-0.046824
-0.089545
-0.141154
-0.172988
-0.206604
-0.224339
-0.229633
-0.225000
-0.197351
-0.162928
-0.116194
-0.072701
-0.035609
0.008134
0.041181
0.065895
0.066684
0.056043
0.048653
0.009897
-0.047122
-0.087530
-0.121312
-0.168373
-0.199038
-0.219845
-0.235811
-0.231157
-0.208443
-0.166922
-0.122717
-0.072077
-0.046093
-0.003702
0.041202
0.064323
0.072463
0.065038
0.033129
0.008357
-0.039540
-0.084039
-0.142620
-0.176911
-0.206231
-0.228444
-0.243141
-0.230779
-0.205865
-0.160167
-0.115855
-0.083479
-0.047021
-0.005599
0.039749
0.044782
0.059580
0.055671
0.034991
0.005771
-0.019574
-0.047894
-0.089962
-0.124175
-0.139944
-0.144360
-0.139974
-0.114158
-0.069784
-0.025067
0.024753
0.089576
0.155390
0.217582
0.276936
0.329166
0.365450
0.387034
0.390374
0.389427
0.373660
0.373382
0.360734
0.336563
0.340577
0.353453
0.405021
0.452519
0.508647
0.570164
0.647344
0.725476
0.789321
0.822345
0.847682
0.878948
0.865131
0.835507
0.803291
0.742429
0.653465
0.548599
0.429282
0.331729
0.238874
0.180570
0.125852
0.083797
0.062067
0.070547
0.101428
0.129278
0.161700
0.213711
0.236544
0.242450
0.236036
0.208440
0.169051
0.129428
0.066009
0.019490
-0.023633
-0.058972
-0.092089
-0.124638
-0.126407
-0.122195
-0.102928
-0.065642
-0.025618
0.008829
0.057996
0.087930
0.117322
0.137635
0.146801
0.139692
0.121339
0.083192
0.034367
-0.014426
-0.063865
-0.115551
-0.148313
-0.170617
-0.180605
-0.163189
-0.141536
-0.117468
-0.069574
-0.030691
0.022638
0.058663
0.091846
0.111937
0.123022
0.111969
0.095481
0.061287
0.008562
-0.026114
-0.073635
-0.113988
-0.151195
-0.166919
-0.178889
-0.176464
-0.143244
-0.112782
-0.061526
-0.020191
0.027641
0.070823
0.105263
0.122269
0.126359
0.113732
0.097849
0.074530
0.015341
-0.023638
-0.060604
-0.094922
-0.113604
-0.139288
-0.154719
-0.150659
-0.129871
-0.098015
-0.048496
0.002219
0.047647
0.093388
0.122357
0.144587
0.153687
0.146062
0.113989
0.074209
0.040162
0.000855
-0.045288
-0.085461
-0.118530
-0.141938
-0.147984
-0.138058
-0.115993
-0.079957
-0.024902
0.031916
0.084387
0.113259
0.142745
0.161961
0.168330
0.166138
0.151168
0.121323
0.074289
0.020936
-0.019106
-0.053311
-0.086165
-0.107956
-0.110604
-0.103540
-0.076430
-0.043535
0.004258
0.060806
0.104577
0.155096
0.181403
0.196997
0.204293
0.192929
0.173708
0.147733
0.097375
0.052432
0.006936
-0.031722
-0.056603
-0.082114
-0.084459
-0.073434
-0.049437
-0.013227
0.031314
0.077226
0.123899
0.168302
0.203329
0.224608
0.235106
0.218807
0.192686
0.169361
0.128493
0.079326
0.033113
-0.013519
-0.044270
-0.066555
-0.075809
-0.067831
-0.040364
-0.011477
0.031042
0.077592
0.121894
0.168713
0.203262
0.223634
0.227637
0.212966
0.195389
0.160698
0.106172
0.058171
0.019814
-0.024667
-0.059741
-0.073225
-0.083393
-0.071102
-0.045017
-0.015302
0.023519
0.072750
0.114024
0.153036
0.177993
0.197041
0.202062
0.190838
0.164038
0.130466
0.078650
0.035522
-0.006815
-0.055603
-0.082856
-0.110233
-0.121140
-0.111999
-0.086122
-0.050570
-0.010218
0.032182
0.081587
0.119895
0.144551
0.173745
0.183262
0.170851
0.130887
0.099393
0.062618
0.013304
-0.039381
-0.096014
-0.118730
-0.150976
-0.155421
-0.143788
-0.121559
-0.082866
-0.039335
0.009029
0.051939
0.092372
0.116453
0.126437
0.126486
0.129103
0.104680
0.073260
0.025610
-0.020396
-0.077156
-0.113691
-0.145614
-0.170577
-0.172312
-0.164377
-0.139187
-0.105382
-0.054955
-0.018636
0.031006
0.078548
0.111185
0.131970
0.126784
0.122495
0.095855
0.059551
0.004270
-0.035570
-0.078984
-0.116576
-0.159221
-0.179849
-0.188691
-0.178529
-0.145863
-0.113563
-0.061758
-0.023663
0.016995
0.061595
0.100673
0.113112
0.121851
0.111623
0.089643
0.056662
0.022159
-0.028120
-0.073916
-0.122369
-0.154845
-0.174931
-0.176838
-0.158935
-0.150784
-0.118256
-0.072112
-0.014180
0.026502
0.072955
0.095697
0.123670
0.129627
0.115927
0.094978
0.060899
0.015728
-0.030739
-0.076827
-0.118210
-0.142004
-0.165360
-0.169367
-0.159042
-0.136173
-0.102886
-0.059722
0.001460
0.036196
0.082190
0.105381
0.129582
0.138694
0.129444
0.109421
0.073408
0.011931
-0.019238
-0.060269
-0.102089
-0.140493
-0.157849
-0.172300
-0.160554
-0.131041
-0.107822
-0.057790
-0.007857
0.038183
0.075011
0.112670
0.126245
0.145374
0.133511
0.113418
0.073894
0.029237
-0.022479
-0.064554
-0.112274
-0.148508
-0.162634
-0.169290
-0.152285
-0.121344
-0.095895
-0.058776
-0.010648
0.056298
0.082804
0.108190
0.134458
0.136429
0.138562
0.107403
0.066467
0.035528
-0.016317
-0.076164
-0.111894
-0.139999
-0.160631
-0.163430
-0.162047
-0.142334
-0.104453
-0.058722
-0.012672
0.031535
0.071347
0.100367
0.123541
0.123667
0.118198
0.101109
0.066985
0.025719
-0.028972
-0.070875
-0.103252
-0.137669
-0.158128
-0.163780
-0.158542
-0.140290
-0.117036
-0.068207
-0.024134
0.021758
0.070866
0.107288
0.119306
0.126620
0.109965
0.088912
0.045149
0.020246
-0.032861
-0.069156
-0.115904
-0.147658
-0.159381
-0.166486
-0.170582
-0.146875
-0.116750
-0.071159
-0.020169
0.028720
0.061481
0.094887
0.108819
0.113859
0.101847
0.085298
0.053889
0.017971
-0.039232
-0.085409
-0.122440
-0.163755
-0.179984
-0.187273
-0.170732
-0.153985
-0.129718
-0.087290
-0.032727
0.026537
0.068052
0.095053
0.105222
0.114488
0.095916
0.081726
0.044426
0.005987
-0.035282
-0.081471
-0.120382
-0.156720
-0.186795
-0.191653
-0.182980
-0.164853
-0.125664
-0.097064
-0.048834
0.005614
0.047557
0.073535
0.097162
0.116368
0.112788
0.093227
0.053975
0.008463
-0.045841
-0.094661
-0.126119
-0.158239
-0.178209
-0.178109
-0.178178
-0.153879
-0.117571
-0.079742
-0.023217
0.019037
0.057182
0.089391
0.115089
0.111021
0.100345
0.073705
0.044486
0.005213
-0.045939
-0.086255
-0.139163
-0.173209
-0.187998
-0.182512
-0.179653
-0.158367
-0.118932
-0.089082
-0.034293
0.003198
0.046829
0.086359
0.104442
0.110398
0.100703
0.090690
0.062137
0.009238
-0.045315
-0.091210
-0.133479
-0.176827
-0.195098
-0.195693
-0.181800
-0.160158
-0.118431
-0.088284
-0.028202
0.015697
0.054758
0.086822
0.108799
0.114714
0.103588
0.083763
0.053466
0.007544
-0.047331
-0.097376
-0.143532
-0.171370
-0.185760
-0.186680
-0.188065
-0.162391
-0.133559
-0.097592
-0.034680
-0.000469
0.041720
0.077352
0.103378
0.112975
0.107518
0.087148
0.056729
0.006513
-0.049689
-0.086560
-0.135847
-0.170320
-0.191113
-0.181278
-0.179902
-0.157473
-0.114275
-0.076524
-0.029826
0.011764
0.053371
0.086532
0.102312
0.115751
0.113310
0.090237
0.057684
0.018246
-0.030789
-0.076583
-0.111612
-0.134209
-0.159546
-0.163751
-0.156502
-0.133279
-0.081173
-0.037071
0.019427
0.056046
0.095473
0.127280
0.146510
0.151305
0.138842
0.111639
0.075513
0.043153
-0.016333
-0.058546
-0.108554
-0.144027
-0.158185
-0.166042
-0.146695
-0.121093
-0.085696
-0.043708
0.021531
0.060970
0.113415
0.153445
0.172307
0.168605
0.152973
0.133910
0.100870
0.067211
0.018233
-0.014753
-0.067131
-0.116565
-0.139227
-0.148456
-0.143432
-0.117337
-0.086953
-0.046762
0.006473
0.047465
0.083169
0.111017
0.118769
0.125667
0.123642
0.092998
0.059936
0.031849
-0.027537
-0.077453
-0.112798
-0.152872
-0.163045
-0.176102
-0.171398
-0.153286
-0.122386
-0.070934
-0.026970
0.020099
0.050601
0.087889
0.110216
0.109653
0.094567
0.067454
0.038617
-0.016847
-0.055767
-0.100392
-0.142688
-0.174629
-0.192939
-0.201289
-0.200552
-0.174945
-0.146560
-0.098196
-0.056662
-0.009834
0.031646
0.069780
0.084576
0.090276
0.084112
0.057702
0.019520
-0.021599
-0.064857
-0.101045
-0.147055
-0.187279
-0.196900
-0.210955
-0.201179
-0.180618
-0.148287
-0.104685
-0.049388
0.003139
0.040067
0.078594
0.095344
0.095114
0.097746
0.063785
0.039103
-0.004270
-0.065501
-0.126243
-0.154627
-0.191022
-0.208206
-0.213376
-0.206634
-0.178433
-0.129952
-0.084711
-0.037330
0.003365
0.043446
0.073918
0.085448
0.098035
0.082985
0.063328
0.025767
-0.018331
-0.069115
-0.119404
-0.159789
-0.200157
-0.213665
-0.218231
-0.212244
-0.189923
-0.155240
-0.115975
-0.067210
-0.023383
0.021554
0.058837
0.081182
0.097016
0.100008
0.093507
0.059181
0.030067
-0.014747
-0.044436
-0.070137
-0.090669
-0.083694
-0.082271
-0.068244
-0.030728
0.020707
0.089764
0.160899
0.239857
0.315060
0.382916
0.432529
0.478116
0.504504
0.507064
0.506325
0.499365
0.474310
0.457717
0.459477
0.467795
0.489372
0.515309
0.555562
0.614667
0.672905
0.732181
0.771929
0.819901
0.843893
0.852771
0.852669
0.833151
0.801376
0.730809
0.619969
0.520860
0.417212
0.318435
0.222870
0.145904
0.063319
0.027108
0.029407
0.041256
0.064257
0.091025
0.128936
0.159011
0.194282
0.207896
0.224399
0.218115
0.204051
0.175587
0.145187
0.098482
0.047046
-0.000361
-0.040301
-0.082411
-0.102532
-0.119787
-0.109833
-0.095491
-0.068227
-0.022732
0.030915
0.066149
0.109085
0.136681
0.151700
0.165871
0.147722
0.119833
0.084175
0.033998
-0.018355
-0.070048
-0.100879
-0.136869
-0.143888
-0.158612
-0.142713
-0.125578
-0.090908
-0.047109
-0.001085
0.038817
0.091009
0.128017
0.143047
0.143688
0.134599
0.114539
0.083429
0.035796
-0.002113
-0.060326
-0.097274
-0.131158
-0.160422
-0.158143
-0.158790
-0.133702
-0.102642
-0.052693
-0.000258
0.055215
0.094334
0.122707
0.150380
0.161418
0.145363
0.113949
0.070513
0.039019
-0.007572
-0.049299
-0.085404
-0.114687
-0.144425
-0.152904
-0.136986
-0.111624
-0.073479
-0.026928
0.025062
0.067141
0.093484
0.131176
0.160184
0.164701
0.155123
0.134378
0.108181
0.074957
0.032320
-0.026763
-0.067363
-0.099862
-0.123225
-0.131639
-0.111951
-0.092103
-0.055891
-0.013139
0.042914
0.095826
0.140479
0.176953
0.197465
0.198468
0.185558
0.161856
0.129523
0.084813
0.046831
0.003705
-0.042575
-0.065668
-0.085555
-0.093455
-0.088488
-0.068287
-0.031514
0.011006
0.070821
0.107095
0.154440
0.191605
0.218988
0.236014
0.218472
0.197144
0.157527
0.117250
0.076898
0.029863
-0.003308
-0.042285
-0.058048
-0.065422
-0.054115
-0.033163
-0.003830
0.044292
0.092126
0.138964
0.189986
0.206558
0.228421
0.226384
0.222833
0.209486
0.187408
0.141747
0.090581
0.036364
-0.007664
-0.042211
-0.061369
-0.064382
-0.053082
-0.029776
0.008990
0.045633
0.084434
0.141623
0.181134
0.211073
0.220278
0.231376
0.235840
0.202971
0.173400
0.133661
0.077895
0.032243
0.005745
-0.033011
-0.070164
-0.070456
-0.062382
-0.047788
-0.014554
0.030735
0.074900
0.126878
0.156725
0.187827
0.214985
0.214748
0.201447
0.182182
0.152519
0.106741
0.055233
0.011355
-0.037282
-0.075001
-0.099065
-0.102191
-0.096069
-0.068047
-0.042538
0.001484
0.040092
0.081508
0.124696
0.151232
0.176363
0.191588
0.195956
0.172822
0.132352
0.082470
0.024989
-0.024846
-0.065242
-0.100552
-0.126339
-0.133862
-0.121834
-0.098120
-0.068419
-0.030909
0.011870
0.065803
0.101962
0.129851
0.154627
0.160146
0.146309
0.117408
0.089585
0.039798
-0.013514
-0.069379
-0.104208
-0.143179
-0.157894
-0.157437
-0.148442
-0.128126
-0.097951
-0.057826
-0.013497
0.055992
0.087111
0.125392
0.138630
0.135757
0.124963
0.098334
0.064846
0.020739
-0.030304
-0.070649
-0.110423
-0.140715
-0.166416
-0.170005
-0.174141
-0.149611
-0.109661
-0.043651
0.007349
0.045875
0.075427
0.112655
0.127335
0.141544
0.135390
0.110148
0.066455
0.021194
-0.024391
-0.072591
-0.113583
-0.140127
-0.164425
-0.165364
-0.151304
-0.137093
-0.100331
-0.055622
-0.010680
0.043927
0.086751
0.114655
0.138993
0.144921
0.133990
0.114489
0.083514
0.037353
-0.012259
-0.062862
-0.101213
-0.140193
-0.160927
-0.165675
-0.159001
-0.141587
-0.099654
-0.043716
0.002253
0.055807
0.087879
0.123775
0.147205
0.148249
0.139287
0.121860
0.088182
0.046039
0.005710
-0.050064
-0.101032
-0.135157
-0.157689
-0.159716
-0.150479
-0.119299
-0.088843
-0.052745
-0.010812
0.047910
0.091674
0.141857
0.160938
0.150010
0.143607
0.122133
0.082663
0.035284
-0.007491
-0.058928
-0.103148
-0.132069
-0.157837
-0.154514
-0.144373
-0.119493
-0.082131
-0.042432
0.006358
0.046469
0.088067
0.119868
0.147054
0.162268
0.150853
0.116848
0.081885
0.038331
-0.008807
-0.055412
-0.098242
-0.133125
-0.156711
-0.152331
-0.151594
-0.126813
-0.095598
-0.046085
-0.004350
0.051157
0.089574
0.123771
0.140585
0.145702
0.141346
0.110314
0.069071
0.033365
-0.010754
-0.058254
-0.104282
-0.140123
-0.166388
-0.165352
-0.157602
-0.134042
-0.098669
-0.055524
-0.006004
0.031673
0.079084
0.110904
0.145504
0.138933
0.125807
0.107401
0.066549
0.032107
-0.008914
-0.065918
-0.119634
-0.151673
-0.168155
-0.179604
-0.170655
-0.139330
-0.107768
-0.062601
-0.018701
0.032797
0.073506
0.094419
0.118981
0.121353
0.117311
0.091847
0.065679
0.028290
-0.012211
-0.066973
-0.113308
-0.146447
-0.170469
-0.184360
-0.169873
-0.148880
-0.110920
-0.065728
-0.014728
0.029779
0.066978
0.107915
0.124837
0.113040
0.105889
0.083244
0.048653
0.015808
-0.026232
-0.078547
-0.121153
-0.160266
-0.184810
-0.190418
-0.177756
-0.151031
-0.116884
-0.073964
-0.029978
0.025394
0.066742
0.096909
0.122541
0.114264
0.105762
0.088470
0.047762
0.014187
-0.028127
-0.072968
-0.105339
-0.146591
-0.187272
-0.192331
-0.174686
-0.147661
-0.110530
-0.079195
-0.028711
0.016507
0.063221
0.092128
0.113050
0.114293
0.100655
0.086793
0.053134
0.018131
-0.029517
-0.078032
-0.121751
-0.151015
-0.173213
-0.177117
-0.172385
-0.156067
-0.124021
-0.078618
-0.027577
0.016041
0.059951
0.088035
0.110116
0.117050
0.124203
0.096037
0.056068
0.016805
-0.035795
-0.087614
-0.137792
-0.161795
-0.175521
-0.168960
-0.176365
-0.151589
-0.121952
-0.081605
-0.035374
0.010814
0.043487
0.080718
0.105229
0.108448
0.101529
0.092487
0.067155
0.021879
-0.029634
-0.070782
-0.123616
-0.156196
-0.182744
-0.184132
-0.169426
-0.144928
-0.113296
-0.076377
-0.028473
0.020237
0.067795
0.106849
0.121923
0.120207
0.112694
0.084437
0.058230
0.009780
-0.039073
-0.087422
-0.125274
-0.156580
-0.171025
-0.180536
-0.164507
-0.139642
-0.096511
-0.056335
-0.005114
0.042515
0.088933
0.122240
0.141865
0.150157
0.144033
0.121651
0.089084
0.050214
0.006327
-0.042477
-0.100117
-0.131095
-0.153318
-0.158280
-0.147157
-0.124384
-0.093003
-0.054175
-0.003160
0.049137
0.096445
0.129447
0.155336
0.167768
0.155069
0.134472
0.105171
0.070074
0.022093
-0.025091
-0.071568
-0.102181
-0.129934
-0.132906
-0.121467
-0.099548
-0.065911
-0.014194
0.030578
0.070025
0.104595
0.129073
0.158334
0.164051
0.150520
0.123778
0.093306
0.036916
-0.015327
-0.062441
-0.110514
-0.140833
-0.151983
-0.162930
-0.158684
-0.133128
-0.107937
-0.067824
-0.023251
0.028594
0.082318
0.116166
0.123110
0.130406
0.119511
0.098830
0.054168
0.006230
-0.042204
-0.090458
-0.138684
-0.167690
-0.190072
-0.201094
-0.193121
-0.159880
-0.133498
-0.081728
-0.032019
0.012869
0.054526
0.086929
0.111095
0.103949
0.091316
0.075673
0.039458
-0.003427
-0.062202
-0.113436
-0.161973
-0.191970
-0.208271
-0.204102
-0.197848
-0.170186
-0.141877
-0.101437
-0.044256
0.000979
0.045380
0.068074
0.094328
0.096676
0.085768
0.060519
0.033355
-0.014297
-0.061945
-0.109897
-0.153472
-0.184446
-0.204291
-0.202660
-0.196586
-0.180544
-0.143953
-0.100399
-0.060230
-0.014450
0.036656
0.064192
0.089093
0.101503
0.092338
0.069518
0.040592
-0.004466
-0.064872
-0.101140
-0.158199
-0.189579
-0.215659
-0.220579
-0.209709
-0.181618
-0.153343
-0.103975
-0.052293
-0.006993
0.038897
0.080166
0.094944
0.098268
0.079189
0.054099
0.016715
-0.025927
-0.072363
-0.116926
-0.162719
-0.187264
-0.206594
-0.200850
-0.176107
-0.144736
-0.104869
-0.048368
0.021242
0.072993
0.145085
0.202133
0.236514
0.255358
0.265667
0.261132
0.245788
0.228032
0.210486
0.194453
0.176963
0.184182
0.201250
0.212395
0.256474
0.319740
0.371846
0.455368
0.525020
0.626496
0.718330
0.794750
0.839959
0.879950
0.902798
0.896276
0.845477
0.792013
0.745750
0.684038
0.618602
0.569970
0.530459
0.488872
0.441886
0.390545
0.363794
0.345155
0.342327
0.339370
0.342540
0.329581
0.330759
0.308951
0.289422
0.260389
0.222982
0.170955
0.099314
0.045935
-0.011054
-0.047741
-0.068428
-0.096076
-0.088557
-0.063807
-0.038748
0.002545
0.056779
0.093494
0.139893
0.171565
0.191501
0.198594
0.178124
0.152105
0.110587
0.052682
0.012770
-0.042239
-0.080782
-0.112538
-0.145140
-0.147049
-0.130597
-0.123555
-0.091764
-0.050548
-0.006518
0.041999
0.088935
0.125341
0.144350
0.153243
0.144739
0.122985
0.088489
0.031071
-0.015873
-0.060540
-0.105968
-0.137953
-0.164981
-0.175185
-0.161773
-0.141793
-0.111115
-0.061089
-0.012663
0.037536
0.087551
0.123321
0.141594
0.152958
0.139305
0.123425
0.092440
0.047803
0.002893
-0.049711
-0.090459
-0.132417
-0.148144
-0.153483
-0.137950
-0.121122
-0.082578
-0.038325
0.004831
0.053484
0.105061
0.140863
0.158550
0.172609
0.157752
0.133987
0.099500
0.055464
0.011973
-0.036329
-0.063146
-0.100337
-0.132946
-0.137831
-0.123645
-0.105364
-0.063079
-0.014364
0.025855
0.081970
0.121702
0.153361
0.178936
0.182741
0.168833
0.147325
0.115937
0.080598
0.028974
-0.013037
-0.053687
-0.083107
-0.103538
-0.109257
-0.103349
-0.073914
-0.039062
0.003909
0.057514
0.110222
0.153339
0.179664
0.204431
0.219396
0.210196
0.188059
0.160291
0.116366
0.071112
0.028570
-0.022048
-0.048560
-0.076911
-0.084546
-0.067309
-0.053786
-0.012667
0.030740
0.081054
0.125954
0.172054
0.211917
0.231892
0.240533
0.230797
0.216611
0.178433
0.139908
0.089256
0.041087
0.001853
-0.035585
-0.046231
-0.045710
-0.049704
-0.036577
-0.001480
0.041640
0.091243
0.146049
0.197720
0.215599
0.238775
0.241933
0.233782
0.212944
0.172575
0.128484
0.086675
0.046249
-0.004163
-0.038087
-0.059900
-0.077604
-0.064612
-0.042070
-0.002677
0.039395
0.080721
0.139283
0.172925
0.207078
0.225888
0.234583
0.222574
0.198962
0.170726
0.126195
0.073631
0.029242
-0.023660
-0.052703
-0.083038
-0.099533
-0.088179
-0.060203
-0.025887
0.022943
0.067896
0.115344
0.159627
0.190323
0.202194
0.198004
0.192277
0.158065
0.126062
0.077809
0.038995
-0.011332
-0.055894
-0.095804
-0.119104
-0.113073
-0.106875
-0.096802
-0.069954
-0.031680
0.013610
0.065995
0.112677
0.147195
0.172637
0.172911
0.159256
0.133901
0.094744
0.042838
0.007367
-0.034222
-0.082151
-0.123613
-0.151201
-0.155367
-0.155723
-0.131636
-0.102234
-0.057833
-0.011201
0.041561
0.075866
0.111408
0.137943
0.144450
0.123037
0.112787
0.084587
0.049496
0.003288
-0.050671
-0.107630
-0.140150
-0.156474
-0.175982
-0.167727
-0.140697
-0.111309
-0.061506
-0.015933
0.029394
0.073139
0.105129
0.127381
0.132650
0.124622
0.109236
0.067552
0.031412
-0.017101
-0.060534
-0.105391
-0.147992
-0.173652
-0.177628
-0.165057
-0.145520
-0.108630
-0.068797
-0.023205
0.027092
0.069531
0.098869
0.120416
0.127783
0.116508
0.098063
0.076973
0.050958
-0.008646
-0.064517
-0.113634
-0.144026
-0.160189
-0.155686
-0.144137
-0.123205
-0.093692
-0.051937
-0.001157
0.045059
0.084327
0.120165
0.132643
0.141418
0.137667
0.117157
0.084919
0.033954
-0.012888
-0.051345
-0.100138
-0.138565
-0.155850
-0.159119
-0.146615
-0.121619
-0.089582
-0.049636
-0.001990
0.049328
0.093591
0.138918
0.149884
0.142038
0.132951
0.121170
0.073108
0.042647
-0.006614
-0.064584
-0.103633
-0.149765
-0.164175
-0.171818
-0.159936
-0.126319
-0.089765
-0.049795
-0.001961
0.040844
0.084209
0.127502
0.135682
0.144149
0.145257
0.127885
0.093335
0.050951
0.007884
-0.047400
-0.086209
-0.129706
-0.149598
-0.157023
-0.160636
-0.134447
-0.103886
-0.051146
0.001929
0.050632
0.086224
0.118105
0.142469
0.147449
0.134641
0.119601
0.082683
0.032062
-0.014246
-0.053546
-0.091105
-0.135130
-0.162507
-0.170738
-0.169882
-0.142477
-0.099625
-0.059557
-0.014357
0.038853
0.084351
0.116495
0.131721
0.135336
0.129192
0.103956
0.059816
0.025561
-0.014546
-0.064448
-0.105349
-0.140053
-0.159161
-0.168907
-0.171909
-0.146416
-0.106123
-0.062893
-0.013725
0.026402
0.072419
0.119297
0.135331
0.129997
0.133225
0.104733
0.074753
0.035423
-0.014856
-0.077100
-0.114028
-0.152030
-0.175895
-0.175826
-0.161530
-0.144001
-0.111221
-0.071497
-0.022629
0.025161
0.067313
0.116419
0.136470
0.136764
0.123894
0.097798
0.063201
0.021692
-0.028447
-0.080460
-0.123168
-0.153088
-0.178755
-0.182931
-0.179211
-0.148363
-0.113413
-0.065684
-0.026882
0.019418
0.055447
0.097723
0.116060
0.126088
0.123545
0.100468
0.062530
0.020493
-0.023244
-0.071176
-0.119394
-0.162445
-0.172746
-0.180242
-0.190082
-0.163463
-0.120538
-0.078849
-0.027787
0.023727
0.057681
0.098051
0.120236
0.124375
0.122756
0.097631
0.067648
0.024468
-0.032371
-0.087391
-0.133435
-0.174722
-0.196279
-0.191985
-0.184742
-0.162740
-0.125047
-0.071433
-0.019953
0.023508
0.061282
0.104142
0.122071
0.125428
0.118446
0.091197
0.049613
0.007726
-0.027387
-0.074072
-0.123044
-0.160549
-0.175153
-0.171968
-0.166412
-0.147354
-0.114965
-0.080229
-0.031119
0.015414
0.058335
0.108793
0.124546
0.122260
0.112570
0.088362
0.055116
0.016579
-0.033482
-0.077846
-0.121451
-0.167948
-0.184324
-0.194445
-0.182982
-0.146144
-0.111089
-0.072109
-0.021568
0.018660
0.060737
0.097971
0.119303
0.135878
0.121878
0.105662
0.075411
0.029827
-0.020326
-0.068303
-0.123693
-0.157807
-0.175567
-0.173600
-0.154170
-0.136558
-0.094659
-0.053759
-0.007931
0.041593
0.084850
0.123725
0.148648
0.157423
0.158572
0.131787
0.095651
0.059327
0.016170
-0.033395
-0.077311
-0.114955
-0.144746
-0.154696
-0.153800
-0.111379
-0.085597
-0.052239
-0.010736
0.040601
0.092585
0.136676
0.156165
0.164977
0.158434
0.145831
0.120531
0.067798
0.021492
-0.016381
-0.057646
-0.103197
-0.109223
-0.122793
-0.114107
-0.087380
-0.060878
-0.011135
0.025868
0.059336
0.097715
0.124561
0.150082
0.159372
0.153966
0.116730
0.093353
0.042236
-0.008755
-0.056393
-0.102600
-0.137503
-0.151362
-0.153702
-0.147563
-0.128086
-0.104302
-0.070441
-0.017059
0.031772
0.061579
0.107340
0.127424
0.125951
0.120163
0.105902
0.066786
0.015094
-0.039613
-0.084898
-0.135622
-0.164814
-0.188771
-0.191447
-0.183696
-0.161927
-0.132339
-0.089488
-0.043549
0.007558
0.051539
0.088022
0.103614
0.104385
0.095690
0.067158
0.029626
-0.010865
-0.062491
-0.109089
-0.149222
-0.184140
-0.204729
-0.206191
-0.191911
-0.164168
-0.130964
-0.089579
-0.046655
-0.012374
0.034868
0.070043
0.103095
0.106187
0.103057
0.085477
0.047251
0.000647
-0.064176
-0.102745
-0.145751
-0.183343
-0.202170
-0.210699
-0.208562
-0.176747
-0.140262
-0.105967
-0.055448
-0.008344
0.033989
0.072802
0.097540
0.104229
0.103446
0.073441
0.035281
-0.005700
-0.046627
-0.092982
-0.129683
-0.166610
-0.190111
-0.206776
-0.211616
-0.185415
-0.149502
-0.089175
-0.050314
-0.007964
0.038326
0.069198
0.077803
0.090916
0.083644
0.059052
0.022806
-0.020909
-0.061309
-0.102440
-0.144798
-0.164947
-0.175920
-0.174247
-0.149186
-0.104621
-0.055537
0.001767
0.064946
0.126991
0.175008
0.223727
0.260219
0.292973
0.315318
0.315189
0.309474
0.296968
0.284606
0.276914
0.273285
0.254137
0.276301
0.297573
0.330297
0.384628
0.449320
0.539971
0.626167
0.710760
0.779544
0.847943
0.900834
0.918770
0.899336
0.889204
0.843956
0.781948
0.710420
0.646940
0.578566
0.502152
0.405533
0.329078
0.278208
0.249451
0.236462
0.223303
0.219214
0.224246
0.245960
0.274566
0.295860
0.298070
0.293248
0.260302
0.204769
0.143318
0.079211
0.035695
-0.017717
-0.061036
-0.090242
-0.103261
-0.098830
-0.075395
-0.041756
-0.000176
0.036858
0.086260
0.123987
0.144813
0.171874
0.183017
0.171423
0.150937
0.112621
0.064028
0.015521
-0.044747
-0.079962
-0.118804
-0.140685
-0.144879
-0.139804
-0.120694
-0.092217
-0.053548
-0.008128
0.038189
0.073887
0.111831
0.134848
0.148330
0.146195
0.120468
0.084392
0.041153
-0.010592
-0.051954
-0.084721
-0.127149
-0.153550
-0.164078
-0.154370
-0.129465
-0.101520
-0.050178
0.000649
0.052900
0.092557
0.122140
0.151015
0.154547
0.151819
0.131507
0.097884
0.049513
0.006571
-0.039060
-0.083384
-0.124564
-0.136083
-0.136627
-0.127309
-0.115246
-0.083049
-0.036275
0.009479
0.048803
0.102391
0.143640
0.165548
0.177594
0.176359
0.148136
0.114913
0.058389
0.014976
-0.034406
-0.073772
-0.107628
-0.122182
-0.132385
-0.122322
-0.092233
-0.058950
-0.015720
0.026290
0.082418
0.119700
0.153753
0.183730
0.192251
0.182145
0.169213
0.129606
0.089251
0.048723
0.014624
-0.027943
-0.057555
-0.102791
-0.101373
-0.095535
-0.071666
-0.035920
0.018088
0.066689
0.111189
0.171347
0.205595
0.225461
0.230176
0.223878
0.198476
0.162012
0.126732
0.082208
0.034554
-0.016044
-0.041871
-0.073358
-0.075502
-0.062325
-0.042191
0.003185
0.046852
0.090314
0.137952
0.186716
0.218390
0.240349
0.245877
0.240260
0.225527
0.197744
0.147900
0.101361
0.056779
0.010114
-0.021045
-0.038986
-0.043948
-0.040549
-0.024032
0.007216
0.047265
0.098886
0.150098
0.191926
0.216844
0.243384
0.251678
0.236346
0.221639
0.185166
0.139261
0.098470
0.061420
0.016008
-0.018025
-0.039897
-0.051858
-0.048961
-0.027328
0.003103
0.036184
0.083130
0.132607
0.182076
0.219893
0.242718
0.244222
0.230365
0.204040
0.169325
0.130724
0.087508
0.040389
-0.006639
-0.038529
-0.072271
-0.079419
-0.081282
-0.065217
-0.021384
0.018025
0.065040
0.106391
0.136161
0.163922
0.201184
0.204026
0.196800
0.170055
0.140340
0.095348
0.047963
-0.006479
-0.053092
-0.087634
-0.110631
-0.115693
-0.110370
-0.098875
-0.059769
-0.021492
0.019733
0.067515
0.107494
0.133823
0.164910
0.173869
0.160266
0.144506
0.108438
0.058330
0.003534
-0.040633
-0.089153
-0.127819
-0.148613
-0.149008
-0.137729
-0.123879
-0.102789
-0.055331
-0.015008
0.031217
0.076600
0.108343
0.136365
0.144990
0.139110
0.122344
0.085512
0.044118
-0.008953
-0.056525
-0.101881
-0.139429
-0.154927
-0.170257
-0.169868
-0.155782
-0.118427
-0.067160
-0.014925
0.033670
0.075924
0.111009
0.137820
0.141527
0.133377
0.111071
0.072255
0.025412
-0.017541
-0.070756
-0.108645
-0.149559
-0.174462
-0.184909
-0.171857
-0.151732
-0.111755
-0.070643
-0.022642
0.029980
0.080993
0.110143
0.133879
0.140593
0.127100
0.099204
0.073272
0.032446
-0.015506
-0.064508
-0.109087
-0.137590
-0.173139
-0.175856
-0.168295
-0.141445
-0.102317
-0.055859
-0.006100
0.041491
0.085914
0.127778
0.154787
0.149046
0.142821
0.117434
0.070844
0.027911
-0.008824
-0.052672
-0.099545
-0.129803
-0.159755
-0.155623
-0.149536
-0.140586
-0.100226
-0.058512
-0.006402
0.033425
0.074177
0.110979
0.138672
0.141973
0.135788
0.116799
0.074651
0.035730
-0.008895
-0.049602
-0.087009
-0.121312
-0.140996
-0.147634
-0.141942
-0.130953
-0.087924
-0.056991
-0.013182
0.040534
0.075919
0.109580
0.132074
0.138025
0.128980
0.111089
0.086432
0.038860
-0.001450
-0.053744
-0.105226
-0.137712
-0.163498
-0.158309
-0.145701
-0.137303
-0.099653
-0.053799
-0.003516
0.035936
0.082067
0.121537
0.146177
0.154759
0.139781
0.120136
0.076883
0.031653
-0.024829
-0.070599
-0.112310
-0.141333
-0.166938
-0.155424
-0.151151
-0.129884
-0.096884
-0.052052
-0.000417
0.037029
0.071801
0.109317
0.131884
0.134645
0.135722
0.112765
0.074675
0.025388
-0.019864
-0.067645
-0.113443
-0.143478
-0.166776
-0.172041
-0.175848
-0.153518
-0.105102
-0.066095
-0.010979
0.036996
0.068758
0.100860
0.131655
0.132731
0.119979
0.103986
0.073446
0.038238
-0.021394
-0.066936
-0.106584
-0.141413
-0.183763
-0.191711
-0.175252
-0.149748
-0.117411
-0.073490
-0.032170
0.025902
0.064425
0.102743
0.119968
0.123757
0.115051
0.099392
0.061624
0.020343
-0.025507
-0.070228
-0.104878
-0.145380
-0.177706
-0.194233
-0.172085
-0.152705
-0.118785
-0.082072
-0.033469
0.011527
0.054356
0.092856
0.115382
0.124090
0.121866
0.093832
0.057422
0.019389
-0.038869
-0.085629
-0.125193
-0.162120
-0.178651
-0.188365
-0.181420
-0.153588
-0.117076
-0.072639
-0.032241
0.021028
0.057525
0.093526
0.110820
0.120185
0.112786
0.094642
0.062600
0.023761
-0.030216
-0.074551
-0.116579
-0.152588
-0.174613
-0.184489
-0.181288
-0.154383
-0.118647
-0.077024
-0.025723
0.018105
0.063610
0.108179
0.133844
0.143060
0.138196
0.115425
0.082819
0.048863
-0.001902
-0.044402
-0.091385
-0.130595
-0.144056
-0.159949
-0.149761
-0.125783
-0.083934
-0.040290
0.002806
0.044324
0.082635
0.115893
0.136080
0.138401
0.139582
0.114678
0.081753
0.042840
-0.001674
-0.046275
-0.093139
-0.119496
-0.146415
-0.163578
-0.152858
-0.122251
-0.089232
-0.033439
0.017703
0.063805
0.107899
0.142304
0.164629
0.187412
0.175812
0.154900
0.120966
0.081088
0.029480
-0.019566
-0.068640
-0.109671
-0.140858
-0.155279
-0.145748
-0.125381
-0.091475
-0.049507
-0.011868
0.033475
0.076871
0.108595
0.122633
0.137916
0.131790
0.103044
0.076848
0.026335
-0.016584
-0.064137
-0.117642
-0.158574
-0.179444
-0.185155
-0.169201
-0.162894
-0.130993
-0.092136
-0.041525
0.000420
0.041121
0.065399
0.092876
0.110540
0.102263
0.072046
0.049159
0.005467
-0.052592
-0.096503
-0.141882
-0.180800
-0.197335
-0.211174
-0.193225
-0.176636
-0.152280
-0.112200
-0.063028
-0.020555
0.025362
0.060963
0.078349
0.086774
0.086800
0.066442
0.034514
-0.009476
-0.063570
-0.120333
-0.154930
-0.183730
-0.205538
-0.217711
-0.207798
-0.187287
-0.151419
-0.106395
-0.066596
-0.011808
0.031369
0.062952
0.074632
0.086862
0.087165
0.071348
0.038698
-0.003094
-0.055130
-0.106768
-0.150223
-0.174676
-0.191806
-0.206873
-0.200234
-0.187813
-0.152506
-0.114173
-0.068646
-0.026385
0.010894
0.055751
0.065795
0.080021
0.087034
0.074163
0.035446
-0.014478
-0.059874
-0.110703
-0.151251
-0.196624
-0.223010
-0.239757
-0.218057
-0.189404
-0.157005
-0.106933
-0.062897
-0.012600
0.045002
0.082470
0.110871
0.127709
0.136093
0.131809
0.122462
0.092279
0.063436
0.035444
-0.011100
-0.035721
-0.038401
-0.036873
-0.013485
0.040618
0.099141
0.173650
0.251915
0.331998
0.405082
0.455722
0.508127
0.561642
0.571381
0.571513
0.563426
0.545794
0.527951
0.518010
0.506359
0.510036
0.539988
0.556604
0.565985
0.578022
0.604772
0.642675
0.680509
0.716913
0.742290
0.733349
0.688712
0.632537
0.575736
0.491833
0.412497
0.330581
0.237486
0.149559
0.071178
0.013313
-0.035293
-0.073537
-0.083519
-0.076390
-0.049749
-0.003662
0.033127
0.069956
0.117872
0.151316
0.178686
0.188104
0.185425
0.160683
0.133379
0.083375
0.033014
-0.013964
-0.064800
-0.097533
-0.130764
-0.144679
-0.137633
-0.115954
-0.095549
-0.057577
0.001488
0.041927
0.085519
0.115022
0.130863
0.137215
0.134227
0.108447
0.084290
0.029084
-0.008074
-0.052145
-0.101821
-0.145963
-0.162262
-0.172525
-0.157353
-0.131107
-0.097732
-0.051341
-0.015124
0.031044
0.080389
0.100841
0.123418
0.141883
0.130051
0.109066
0.086180
0.033026
-0.009934
-0.066008
-0.107577
-0.148524
-0.161428
-0.172794
-0.160580
-0.136567
-0.102929
-0.057231
-0.004361
0.036875
0.080977
0.105905
0.131280
0.147617
0.146913
0.118950
0.092474
0.040415
-0.005058
-0.042437
-0.087023
-0.118408
-0.143606
-0.143284
-0.133271
-0.121381
-0.090118
-0.034686
0.008337
0.055869
0.096523
0.116412
0.155801
0.169277
0.157176
0.143847
0.107733
0.066948
0.016479
-0.028264
-0.072316
-0.105174
-0.129080
-0.141471
-0.121083
-0.089931
-0.049081
-0.006169
0.039326
0.088506
0.135105
0.161227
0.176181
0.190058
0.183173
0.177233
0.154476
0.107886
0.065256
0.003696
-0.041179
-0.081625
-0.097570
-0.105901
-0.090267
-0.069093
-0.032172
0.013035
0.060468
0.112981
0.151993
0.183115
0.210565
0.229921
0.225693
0.205066
0.170823
0.121285
0.075961
0.045614
0.001234
-0.038196
-0.060052
-0.070807
-0.067474
-0.038908
-0.013047
0.037645
0.082678
0.128850
0.173042
0.204942
0.224940
0.236805
0.236095
0.221544
0.187672
0.142195
0.091195
0.040565
-0.001481
-0.026409
-0.049059
-0.062217
-0.055240
-0.035741
-0.007976
0.039319
0.086995
0.118269
0.153444
0.200997
0.224346
0.232383
0.226932
0.212421
0.174487
0.123489
0.079544
0.020781
-0.023342
-0.062696
-0.068884
-0.081102
-0.071148
-0.048005
-0.026295
0.013624
0.057664
0.102958
0.149912
0.194510
0.212695
0.209850
0.192813
0.180189
0.148164
0.100617
0.051343
0.000620
-0.049039
-0.083757
-0.104226
-0.117174
-0.119498
-0.097575
-0.069153
-0.028461
0.017503
0.065927
0.102868
0.137572
0.156950
0.158596
0.158075
0.135934
0.103942
0.063621
0.002244
-0.045349
-0.078774
-0.111495
-0.147135
-0.163637
-0.165047
-0.140593
-0.104721
-0.060713
-0.016166
0.030504
0.071492
0.105196
0.140183
0.146624
0.128660
0.107730
0.069990
0.021937
-0.025303
-0.071359
-0.115701
-0.156566
-0.183684
-0.197015
-0.189778
-0.167091
-0.133498
-0.089961
-0.042258
0.024096
0.070672
0.093053
0.122694
0.119477
0.113093
0.091641
0.063203
0.015972
-0.024355
-0.069101
-0.126562
-0.165204
-0.180127
-0.187166
-0.196525
-0.181122
-0.140467
-0.094419
-0.048053
0.005289
0.051012
0.093613
0.114297
0.119527
0.102713
0.089149
0.045159
0.008517
-0.040432
-0.075217
-0.115865
-0.151436
-0.183062
-0.185182
-0.183266
-0.162315
-0.120378
-0.080301
-0.027346
0.020338
0.058907
0.087448
0.109461
0.117097
0.120461
0.095110
0.058354
0.018289
-0.030031
-0.070196
-0.113398
-0.148148
-0.174905
-0.185694
-0.178509
-0.162634
-0.123226
-0.083153
-0.037312
0.017691
0.061025
0.095963
0.118906
0.124832
0.123508
0.095298
0.061276
0.017753
-0.026402
-0.069282
-0.118594
-0.151655
-0.171646
-0.180556
-0.171881
-0.151323
-0.116857
-0.063743
-0.017553
0.022148
0.073774
0.097756
0.120609
0.127941
0.129579
0.106326
0.075265
0.028131
-0.020169
-0.062391
-0.106068
-0.142414
-0.168519
-0.177072
-0.190902
-0.161106
-0.133177
-0.085028
-0.034991
0.018201
0.059141
0.099893
0.115826
0.123315
0.124032
0.108050
0.073235
0.033733
-0.014813
-0.073815
-0.110128
-0.150916
-0.167113
-0.174274
-0.181185
-0.161262
-0.124734
-0.084509
-0.045394
-0.000304
0.059271
0.093672
0.116332
0.128011
0.119607
0.095324
0.064906
0.026741
-0.027761
-0.080267
-0.124125
-0.154033
-0.186611
-0.190526
-0.182682
-0.170244
-0.138969
-0.097169
-0.042621
0.005136
0.050862
0.084730
0.095294
0.104299
0.105091
0.085315
0.056734
0.022736
-0.022945
-0.083064
-0.121772
-0.154882
-0.186305
-0.196729
-0.192683
-0.160694
-0.135721
-0.094515
-0.045235
-0.004246
0.044672
0.076319
0.098866
0.102323
0.099782
0.073714
0.048446
0.012707
-0.029932
-0.083134
-0.121537
-0.164940
-0.188776
-0.194128
-0.193629
-0.178246
-0.141305
-0.095499
-0.043043
-0.002034
0.041555
0.087526
0.099182
0.099473
0.099014
0.084790
0.044542
0.003921
-0.045464
-0.095489
-0.136407
-0.166041
-0.193564
-0.200399
-0.209983
-0.195153
-0.154928
-0.103972
-0.055394
0.000691
0.038468
0.065370
0.097603
0.099775
0.100494
0.075533
0.042478
0.003493
-0.046674
-0.087888
-0.137303
-0.164852
-0.188367
-0.202972
-0.197505
-0.172481
-0.137991
-0.103580
-0.040012
0.013772
0.055549
0.095961
0.121202
0.136126
0.138991
0.108790
0.070481
0.041848
-0.012319
-0.066558
-0.104231
-0.140839
-0.164158
-0.167484
-0.166722
-0.144813
-0.114886
-0.072013
-0.023746
0.021270
0.058804
0.097167
0.129338
0.135907
0.142091
0.112156
0.076044
0.039723
-0.018230
-0.056431
-0.096227
-0.135133
-0.149268
-0.155977
-0.151482
-0.134193
-0.090297
-0.057764
-0.007402
0.039330
0.077325
0.116343
0.147312
0.164539
0.148813
0.132766
0.101554
0.058648
0.001627
-0.051966
-0.100385
-0.134066
-0.154419
-0.167122
-0.173585
-0.144361
-0.105938
-0.066195
-0.016960
0.019721
0.053294
0.086124
0.105682
0.114942
0.101654
0.078005
0.043911
0.002556
-0.047525
-0.100491
-0.142807
-0.173919
-0.184950
-0.199010
-0.204545
-0.183625
-0.145370
-0.112840
-0.059945
-0.015655
0.023937
0.061309
0.084204
0.088219
0.078004
0.062067
0.032511
-0.022609
-0.072420
-0.121698
-0.161746
-0.195690
-0.212210
-0.224569
-0.220690
-0.196238
-0.162958
-0.121821
-0.080727
-0.039436
0.006288
0.045085
0.061030
0.072956
0.064390
0.050684
0.020741
-0.016181
-0.074656
-0.120544
-0.166281
-0.199661
-0.222864
-0.220168
-0.230831
-0.208521
-0.178540
-0.139749
-0.079143
-0.039382
-0.000715
0.044112
0.064469
0.075787
0.062065
0.042226
0.012663
-0.022184
-0.074406
-0.115504
-0.164754
-0.203869
-0.225093
-0.227993
-0.222854
-0.207162
-0.169781
-0.126648
-0.081244
-0.034782
0.006847
0.040387
0.059940
0.065909
0.067503
0.037132
-0.005240
-0.038692
-0.089705
-0.143634
-0.183220
-0.215383
-0.234350
-0.246920
-0.229384
-0.208733
-0.173991
-0.126051
-0.064368
-0.012291
0.034243
0.077891
0.120008
0.140692
0.149639
0.146373
0.129110
0.093574
0.058475
0.026296
0.004283
-0.009128
-0.010816
0.012417
0.040946
0.080574
0.147964
0.226276
0.318632
0.386206
0.454065
0.515814
0.562551
0.602766
0.639207
0.662086
0.656379
0.650042
0.628679
0.621635
0.613130
0.591538
0.572637
0.559059
0.554211
0.552677
0.574314
0.597619
0.628068
0.629298
0.620905
0.585160
0.543314
0.491645
0.440568
0.369622
0.296907
0.207863
0.132142
0.066447
0.008812
-0.048920
-0.070938
-0.091432
-0.087908
-0.078947
-0.055184
-0.021274
0.035636
0.069919
0.113226
0.150356
0.158842
0.163104
0.160250
0.132086
0.093978
0.046628
0.010363
-0.040819
-0.093698
-0.133628
-0.151389
-0.163140
-0.156865
-0.147882
-0.111335
-0.076306
-0.024139
0.020764
0.063819
0.099060
0.116461
0.121081
0.120367
0.107331
0.066034
0.020046
-0.016669
-0.070435
-0.125378
-0.150217
-0.182797
-0.188410
-0.176143
-0.158031
-0.119307
-0.080197
-0.029638
0.012883
0.059688
0.092586
0.107604
0.122680
0.110508
0.091957
0.061877
0.019702
-0.019829
-0.077311
-0.124060
-0.156339
-0.172032
-0.178123
-0.180699
-0.156034
-0.126397
-0.079293
-0.023215
0.025220
0.070702
0.090885
0.115348
0.133851
0.137650
0.115078
0.093603
0.047597
-0.019034
-0.067413
-0.106381
-0.133430
-0.156671
-0.158241
-0.152066
-0.129869
-0.102381
-0.048958
-0.002390
0.033341
0.072381
0.117624
0.142451
0.156194
0.143227
0.121001
0.094350
0.055290
0.009147
-0.027089
-0.082811
-0.115219
-0.134617
-0.137273
-0.129801
-0.111753
-0.090431
-0.033054
0.017102
0.057901
0.101154
0.140987
0.161611
0.176848
0.173003
0.155667
0.118256
0.074616
0.037804
-0.012467
-0.050434
-0.087206
-0.094106
-0.107389
-0.089122
-0.073122
-0.030687
0.005133
0.051189
0.101780
0.140641
0.163322
0.200389
0.215167
0.206249
0.185465
0.156909
0.114453
0.070462
0.025733
-0.018738
-0.055705
-0.077694
-0.093029
-0.082471
-0.057011
-0.024618
0.022032
0.067120
0.109624
0.161436
0.190935
0.212680
0.218560
0.210190
0.196884
0.162356
0.117558
0.077063
0.029887
-0.020966
-0.051988
-0.079727
-0.094304
-0.081534
-0.067979
-0.026999
0.017303
0.061187
0.093861
0.151760
0.184477
0.206694
0.217049
0.210072
0.193756
0.148312
0.104028
0.055223
0.010197
-0.028757
-0.075568
-0.089472
-0.105111
-0.098558
-0.078015
-0.038788
0.000546
0.037069
0.081922
0.128040
0.158982
0.181998
0.180778
0.169608
0.155648
0.110067
0.068705
0.028051
-0.021822
-0.070378
-0.106034
-0.131425
-0.145109
-0.135036
-0.124594
-0.086740
-0.039058
0.005917
0.060004
0.097445
0.126924
0.143060
0.138296
0.125623
0.105650
0.070048
0.038724
0.002312
-0.042827
-0.101064
-0.134242
-0.168486
-0.174474
-0.167977
-0.149704
-0.117653
-0.074024
-0.027885
0.024582
0.066784
0.092558
0.104284
0.113194
0.108283
0.091889
0.059581
0.014182
-0.037653
-0.088088
-0.127247
-0.161859
-0.184718
-0.194811
-0.183503
-0.171773
-0.135110
-0.093525
-0.048856
0.003810
0.046847
0.074382
0.102259
0.113776
0.096555
0.087411
0.059311
0.006822
-0.043882
-0.094229
-0.137962
-0.177120
-0.192110
-0.192144
-0.178514
-0.168561
-0.128726
-0.090694
-0.056800
0.003797
0.037408
0.077170
0.102280
0.115195
0.102864
0.088965
0.044597
0.011443
-0.040460
-0.092507
-0.129372
-0.159728
-0.177362
-0.191272
-0.188592
-0.175979
-0.137250
-0.094521
-0.046616
0.010339
0.038932
0.074512
0.084370
0.100981
0.104945
0.097439
0.062465
0.015378
-0.024210
-0.073831
-0.128149
-0.164273
-0.185659
-0.189817
-0.174060
-0.153341
-0.117708
-0.076139
-0.033747
0.004925
0.046860
0.077965
0.105638
0.109083
0.103952
0.094553
0.068216
0.022144
-0.016710
-0.067588
-0.115231
-0.149753
-0.173202
-0.186897
-0.180278
-0.154315
-0.117666
-0.080274
-0.034846
0.009263
0.054144
0.086803
0.102026
0.121013
0.123582
0.108007
0.071249
0.024815
-0.019616
-0.073340
-0.117643
-0.145439
-0.170727
-0.177392
-0.175984
-0.154457
-0.122595
-0.076145
-0.036190
0.010445
0.048895
0.092906
0.107614
0.118305
0.112667
0.091882
0.065540
0.021978
-0.027512
-0.079320
-0.118367
-0.156149
-0.174123
-0.184376
-0.177836
-0.160853
-0.131792
-0.084677
-0.035170
0.005000
0.059710
0.093090
0.112262
0.119744
0.108505
0.095256
0.050642
0.011004
-0.040844
-0.090665
-0.127180
-0.167679
-0.197586
-0.185295
-0.179884
-0.164168
-0.127449
-0.084098
-0.041101
0.000508
0.046076
0.082577
0.107555
0.122629
0.111753
0.088931
0.054961
0.011564
-0.036691
-0.085896
-0.127717
-0.169515
-0.205507
-0.199756
-0.201883
-0.189343
-0.153069
-0.105647
-0.054796
-0.000698
0.038506
0.071650
0.095956
0.095237
0.099792
0.089177
0.046878
-0.000911
-0.041851
-0.084983
-0.127312
-0.173208
-0.188421
-0.194105
-0.195595
-0.181467
-0.147939
-0.098203
-0.056005
-0.008959
0.039926
0.075271
0.096923
0.098806
0.085628
0.072566
0.040719
0.002974
-0.042691
-0.093453
-0.128135
-0.163874
-0.192500
-0.208284
-0.206496
-0.193293
-0.155782
-0.109662
-0.059332
-0.003369
0.035906
0.072246
0.092936
0.102346
0.092774
0.079789
0.047790
0.002181
-0.052210
-0.106944
-0.145051
-0.176277
-0.200201
-0.198271
-0.185083
-0.168952
-0.139334
-0.100372
-0.048974
0.010194
0.051801
0.088825
0.099092
0.113172
0.108808
0.093427
0.067374
0.019412
-0.027034
-0.072397
-0.121251
-0.144497
-0.164743
-0.171655
-0.167148
-0.147819
-0.109188
-0.061714
-0.015609
0.037177
0.082248
0.121049
0.134583
0.135751
0.130200
0.115335
0.076621
0.045212
-0.000847
-0.067996
-0.103333
-0.144407
-0.168262
-0.172810
-0.157928
-0.142658
-0.107863
-0.069507
-0.012777
0.043035
0.081507
0.125070
0.156259
0.154885
0.140853
0.125227
0.107399
0.060505
0.001403
-0.043442
-0.083215
-0.125260
-0.159016
-0.165492
-0.167806
-0.140951
-0.122015
-0.076644
-0.037230
0.013369
0.055306
0.099539
0.113024
0.115718
0.107835
0.094571
0.058064
0.016024
-0.031059
-0.072732
-0.135763
-0.161277
-0.181267
-0.191078
-0.190687
-0.165665
-0.140208
-0.105243
-0.057657
-0.009204
0.018270
0.056298
0.079905
0.080729
0.069265
0.055090
0.020578
-0.008981
-0.059802
-0.107823
-0.151469
-0.183037
-0.204315
-0.221262
-0.225654
-0.207904
-0.174109
-0.130124
-0.092385
-0.037866
0.004311
0.047723
0.060662
0.073507
0.078807
0.055568
0.018267
-0.025690
-0.072849
-0.122288
-0.162610
-0.198871
-0.219021
-0.230599
-0.233664
-0.210975
-0.179158
-0.132444
-0.083432
-0.032764
0.014699
0.050378
0.062244
0.073480
0.061987
0.041496
0.016308
-0.025314
-0.070025
-0.119480
-0.167324
-0.208734
-0.223495
-0.231126
-0.225515
-0.195651
-0.163537
-0.119663
-0.082121
-0.026394
0.018970
0.062924
0.078791
0.078195
0.070575
0.047939
0.015810
-0.032591
-0.081057
-0.123298
-0.172631
-0.207310
-0.227832
-0.242098
-0.230250
-0.211629
-0.187022
-0.145969
-0.099188
-0.055097
-0.010463
0.038357
0.071112
0.083873
0.091176
0.074745
0.047047
0.015216
-0.002907
-0.030331
-0.073455
-0.093735
-0.100075
-0.099063
-0.074035
-0.028773
0.024040
0.096103
0.174254
0.247357
0.319558
0.391388
0.441119
0.494481
0.523757
0.542699
0.555239
0.542492
0.527887
0.513156
0.513993
0.520687
0.523357
0.536348
0.578170
0.645085
0.682510
0.723532
0.771251
0.812871
0.829101
0.840076
0.837766
0.816136
0.775762
0.691706
0.595961
0.478465
0.377403
0.266538
0.175732
0.098164
0.034036
0.005779
0.003657
0.020963
0.030850
0.074382
0.107267
0.140380
0.171624
0.186631
0.207492
0.209166
0.178809
0.156447
0.123730
0.081485
0.035314
-0.019403
-0.065488
-0.102228
-0.124398
-0.143660
-0.148277
-0.130234
-0.109050
-0.069331
-0.014244
0.032802
0.080866
0.114596
0.130042
0.136262
0.138044
0.105139
0.072256
0.029148
-0.019908
-0.078903
-0.131093
-0.151909
-0.176907
-0.180390
-0.165546
-0.149398
-0.121659
-0.083966
-0.033811
0.006623
0.052561
0.090634
0.108109
0.116527
0.113080
0.092505
0.066198
0.028764
-0.022952
-0.076178
-0.110433
-0.142585
-0.179144
-0.192271
-0.187949
-0.166159
-0.133349
-0.087455
-0.030457
0.005839
0.055752
0.098382
0.120988
0.124442
0.126403
0.102068
0.079878
0.039391
-0.007089
-0.045640
-0.099119
-0.130821
-0.153614
-0.167912
-0.160600
-0.127806
-0.104754
-0.067977
-0.034179
0.020817
0.071123
0.109532
0.135645
0.138089
0.131951
0.113394
0.089047
0.060508
0.003196
-0.043268
-0.084348
-0.119454
-0.147997
-0.156099
-0.134227
-0.114021
-0.078997
-0.041661
-0.005463
0.055269
0.100198
0.132835
0.160248
0.172212
0.183476
0.164241
0.128613
0.087115
0.040620
-0.008827
-0.056179
-0.086211
-0.109473
-0.110202
-0.102656
-0.077925
-0.046648
-0.005240
0.045415
0.090543
0.134677
0.166678
0.194951
0.201245
0.197289
0.184240
0.158445
0.110291
0.064618
0.022817
-0.028537
-0.058292
-0.071757
-0.083590
-0.076026
-0.045112
-0.024784
0.023671
0.070719
0.116447
0.161100
0.191493
0.215620
0.225930
0.223670
0.208635
0.174020
0.130775
0.077462
0.040392
-0.016142
-0.049784
-0.071856
-0.070525
-0.075925
-0.049687
-0.036658
0.012743
0.061949
0.101789
0.158499
0.189909
0.211498
0.230503
0.226764
0.202849
0.168723
0.124361
0.074826
0.028957
-0.004713
-0.050121
-0.082891
-0.099063
-0.084507
-0.061456
-0.036375
0.002317
0.040870
0.083300
0.142806
0.170387
0.190884
0.196971
0.175954
0.155489
0.123885
0.087016
0.047483
-0.000747
-0.061034
-0.093205
-0.112996
-0.123051
-0.123326
-0.104490
-0.080746
-0.027525
0.024852
0.058928
0.098431
0.123743
0.140935
0.149076
0.144952
0.125139
0.095860
0.049427
0.007413
-0.040225
-0.091301
-0.130366
-0.149056
-0.163853
-0.162726
-0.143952
-0.110975
-0.067651
-0.018692
0.013929
0.049991
0.088477
0.124145
0.127575
0.124300
0.094986
0.058765
0.023438
-0.027992
-0.076011
-0.120663
-0.163043
-0.181399
-0.192641
-0.183516
-0.162135
-0.134465
-0.086771
-0.052337
-0.003308
0.042730
0.070517
0.092466
0.105362
0.108662
0.072262
0.046117
0.004450
-0.034652
-0.083471
-0.130124
-0.168464
-0.195754
-0.204948
-0.195632
-0.168755
-0.144808
-0.108428
-0.054061
-0.008683
0.042046
0.079474
0.102286
0.098697
0.093875
0.077664
0.051726
0.007018
-0.036847
-0.076113
-0.131034
-0.165076
-0.188050
-0.200893
-0.188257
-0.168966
-0.137402
-0.108378
-0.052420
-0.000177
0.034965
0.063077
0.098346
0.116650
0.116492
0.091424
0.046316
-0.000239
-0.038327
-0.089590
-0.137938
-0.159024
-0.180145
-0.192182
-0.186229
-0.163788
-0.126076
-0.086995
-0.041266
0.011168
0.053787
0.084986
0.102974
0.096598
0.101570
0.079090
0.060410
0.019652
-0.018085
-0.067078
-0.120103
-0.149270
-0.170860
-0.184647
-0.183061
-0.167221
-0.132175
-0.090126
-0.030418
0.012780
0.055306
0.091950
0.109562
0.117371
0.107209
0.088926
0.055304
0.021217
-0.032002
-0.069727
-0.117865
-0.152825
-0.174226
-0.181725
-0.176036
-0.159615
-0.121890
-0.086647
-0.034770
0.022814
0.061953
0.095084
0.122381
0.126942
0.112093
0.087720
0.065303
0.020622
-0.033494
-0.080726
-0.128209
-0.157408
-0.188394
-0.194328
-0.177706
-0.161863
-0.122774
-0.076428
-0.031271
0.013442
0.059837
0.086510
0.112215
0.115649
0.109983
0.097291
0.057587
0.019526
-0.027883
-0.077992
-0.122918
-0.154967
-0.178591
-0.197841
-0.182622
-0.161229
-0.123788
-0.080777
-0.042277
0.005336
0.042107
0.079081
0.096350
0.109547
0.107685
0.084332
0.043694
0.012292
-0.035813
-0.084964
-0.137923
-0.172236
-0.190862
-0.190626
-0.179452
-0.166654
-0.139419
-0.100143
-0.054920
-0.006235
0.041374
0.077803
0.103082
0.105174
0.109059
0.085442
0.055493
0.018346
-0.036837
-0.077052
-0.123724
-0.162265
-0.185225
-0.199505
-0.194611
-0.169902
-0.139985
-0.097497
-0.053972
-0.004172
0.037244
0.071626
0.093726
0.087888
0.084206
0.056200
0.032831
0.002963
-0.040590
-0.097389
-0.141725
-0.172995
-0.181990
-0.187684
-0.181844
-0.170050
-0.135225
-0.110404
-0.066599
-0.011433
0.040258
0.065857
0.088399
0.091546
0.085196
0.065431
0.034562
-0.004347
-0.052548
-0.098576
-0.129069
-0.161306
-0.194309
-0.194737
-0.196830
-0.182359
-0.144575
-0.094424
-0.038472
0.002666
0.040695
0.075400
0.096399
0.105659
0.098608
0.084677
0.054105
0.021464
-0.026261
-0.069671
-0.112970
-0.149304
-0.178579
-0.176538
-0.157430
-0.132413
-0.113962
-0.081702
-0.025298
0.023545
0.069227
0.108923
0.128774
0.133028
0.122401
0.100936
0.078508
0.040442
-0.000116
-0.058904
-0.104081
-0.136147
-0.166534
-0.171528
-0.161804
-0.133429
-0.107087
-0.076880
-0.022050
0.029273
0.072593
0.116231
0.150525
0.161189
0.148347
0.129196
0.095595
0.056557
0.011233
-0.028067
-0.066946
-0.096294
-0.133689
-0.151151
-0.141008
-0.129039
-0.097451
-0.063477
-0.024365
0.020723
0.057400
0.093740
0.120049
0.124634
0.112872
0.091223
0.052758
0.016786
-0.024183
-0.069010
-0.118905
-0.152343
-0.178964
-0.189823
-0.194180
-0.167244
-0.133440
-0.107471
-0.056499
-0.012204
0.029247
0.062455
0.090117
0.096305
0.095493
0.066165
0.026804
-0.014758
-0.055229
-0.098115
-0.135415
-0.179948
-0.201221
-0.213480
-0.211825
-0.192015
-0.163028
-0.127991
-0.082386
-0.037347
0.003464
0.042528
0.071803
0.074846
0.065825
0.045743
0.005454
-0.034776
-0.079898
-0.121476
-0.150945
-0.187357
-0.214091
-0.223825
-0.223050
-0.206285
-0.170580
-0.129609
-0.081613
-0.035730
-0.000982
0.033300
0.050415
0.052340
0.048048
0.044136
0.017151
-0.019938
-0.068575
-0.114402
-0.153433
-0.188065
-0.215509
-0.219139
-0.214033
-0.193981
-0.166210
-0.131826
-0.081316
-0.025161
0.013556
0.052309
0.076255
0.083310
0.068826
0.045742
0.017736
-0.025631
-0.075731
-0.112042
-0.152421
-0.192772
-0.217032
-0.234672
-0.225644
-0.198079
-0.169910
-0.132063
-0.079739
-0.040800
-0.000029
0.033144
0.058564
0.061607
0.070188
0.050117
0.018907
0.000369
-0.026781
-0.074744
-0.098520
-0.134224
-0.142173
-0.140672
-0.110186
-0.072692
-0.032856
0.020291
0.104365
0.169661
0.226972
0.295982
0.336758
0.379066
0.405307
0.424831
0.435159
0.429676
0.410050
0.404985
0.393123
0.380626
0.387857
0.415461
0.479993
0.535310
0.589636
0.663068
0.754527
0.813116
0.851477
0.883073
0.896576
0.867596
0.852425
0.804989
0.750352
0.678492
0.569912
0.457120
0.355880
0.266486
0.196357
0.126461
0.084347
0.066894
0.070853
0.095682
0.136710
0.169109
0.201590
0.233765
0.239097
0.222918
0.211856
0.184241
0.149376
0.096936
0.046453
-0.009718
-0.046404
-0.078991
-0.100683
-0.117138
-0.123495
-0.117762
-0.081727
-0.042153
0.002494
0.051035
0.092188
0.119071
0.129971
0.140962
0.133690
0.106352
0.075786
0.040776
-0.011990
-0.054469
-0.094229
-0.142932
-0.162862
-0.171210
-0.158123
-0.141252
-0.104717
-0.070206
-0.030462
0.018216
0.052434
0.092603
0.119940
0.130897
0.132722
0.105927
0.070668
0.021781
-0.018713
-0.065199
-0.113975
-0.147730
-0.172354
-0.169949
-0.163131
-0.140474
-0.111823
-0.071672
-0.020769
0.027786
0.074196
0.109634
0.135156
0.145364
0.134474
0.108998
0.076067
0.038523
-0.005269
-0.057113
-0.096150
-0.129281
-0.158193
-0.160676
-0.156478
-0.129520
-0.099899
-0.053305
-0.008026
0.038197
0.080753
0.117408
0.142900
0.159933
0.146999
0.128603
0.089324
0.054902
0.008712
-0.026263
-0.070929
-0.108905
-0.141872
-0.141489
-0.122881
-0.099672
-0.064448
-0.023531
0.014798
0.063801
0.105675
0.140504
0.163992
0.168973
0.160539
0.141645
0.124600
0.086978
0.040700
0.000630
-0.042406
-0.080196
-0.101707
-0.108131
-0.091001
-0.074563
-0.041993
-0.005807
0.041666
0.082178
0.128259
0.169580
0.189574
0.202781
0.206791
0.184462
0.153577
0.124066
0.071364
0.030346
-0.011509
-0.053382
-0.071232
-0.082271
-0.077666
-0.049230
-0.006258
0.035407
0.073248
0.128305
0.176678
0.213446
0.241767
0.248496
0.231723
0.210034
0.180732
0.139547
0.100125
0.043924
0.004790
-0.026931
-0.049366
-0.047146
-0.043688
-0.022624
-0.005873
0.047736
0.085476
0.128759
0.175247
0.211139
0.225710
0.233480
0.225150
0.203687
0.173133
0.129337
0.079034
0.032800
-0.011073
-0.044044
-0.066663
-0.085069
-0.062674
-0.041921
-0.011308
0.027343
0.068022
0.111806
0.152307
0.185443
0.210165
0.216115
0.202272
0.182314
0.150435
0.103883
0.060487
0.011386
-0.031282
-0.060620
-0.098861
-0.107889
-0.106247
-0.077027
-0.050935
-0.013954
0.020943
0.066504
0.099660
0.141080
0.163119
0.175543
0.168764
0.141629
0.110666
0.070535
0.013300
-0.028584
-0.078312
-0.105647
-0.127509
-0.132770
-0.145245
-0.137455
-0.098884
-0.050677
-0.007024
0.038191
0.077542
0.111149
0.133182
0.137750
0.132869
0.105507
0.071254
0.024041
-0.005632
-0.057953
-0.099794
-0.138037
-0.157129
-0.177953
-0.171030
-0.155554
-0.121482
-0.070799
-0.030914
0.012878
0.053175
0.084751
0.102852
0.118075
0.094860
0.069485
0.049895
0.014264
-0.021528
-0.080821
-0.109842
-0.134263
-0.160211
-0.179635
-0.167167
-0.154119
-0.126755
-0.083860
-0.040666
0.021877
0.058716
0.079205
0.103007
0.115457
0.108622
0.089398
0.052228
0.015206
-0.024831
-0.066090
-0.116954
-0.148051
-0.177042
-0.182769
-0.173278
-0.151509
-0.110934
-0.069880
-0.029809
0.015393
0.051599
0.093056
0.108083
0.123568
0.109383
0.089454
0.061354
0.020323
-0.015049
-0.071010
-0.112393
-0.138450
-0.168027
-0.172417
-0.159379
-0.149683
-0.121004
-0.077972
-0.026876
0.019121
0.071289
0.092220
0.116979
0.136634
0.127033
0.111465
0.074022
0.026592
-0.019356
-0.051443
-0.097663
-0.144699
-0.168208
-0.176973
-0.167588
-0.142343
-0.118974
-0.078045
-0.034898
0.016019
0.055327
0.100762
0.119720
0.126870
0.124151
0.097538
0.069006
0.030222
-0.008995
-0.055963
-0.090190
-0.124145
-0.150931
-0.163732
-0.156027
-0.141674
-0.101967
-0.072374
-0.036221
0.027931
0.071213
0.106224
0.124890
0.132461
0.117644
0.098930
0.065554
0.027014
-0.015881
-0.061455
-0.102319
-0.128604
-0.152471
-0.162747
-0.153013
-0.137072
-0.113848
-0.071272
-0.030777
0.018008
0.060190
0.095213
0.119124
0.130798
0.125904
0.102390
0.071586
0.029906
-0.010700
-0.069382
-0.108122
-0.137047
-0.151503
-0.161664
-0.161209
-0.145626
-0.106087
-0.062264
-0.024342
0.021471
0.051264
0.090983
0.115784
0.117676
0.113625
0.101410
0.058137
0.021768
-0.019766
-0.067487
-0.101473
-0.147723
-0.185106
-0.185073
-0.171000
-0.151538
-0.123091
-0.076220
-0.030617
0.022228
0.049645
0.086134
0.118124
0.121665
0.113630
0.091277
0.067181
0.019516
-0.025447
-0.073369
-0.113855
-0.136638
-0.162538
-0.193640
-0.188337
-0.167502
-0.132999
-0.091588
-0.049807
-0.006844
0.047486
0.083013
0.112937
0.124440
0.122452
0.092709
0.065521
0.024749
-0.020747
-0.079752
-0.119422
-0.149628
-0.171052
-0.172373
-0.176068
-0.153473
-0.123362
-0.091973
-0.050457
-0.009139
0.028749
0.065551
0.092320
0.101867
0.095116
0.079678
0.049590
0.010845
-0.028312
-0.078805
-0.115200
-0.153821
-0.186532
-0.198251
-0.183539
-0.170038
-0.130372
-0.087359
-0.053890
-0.005401
0.040330
0.074288
0.095110
0.103538
0.101196
0.078518
0.054466
0.010055
-0.032409
-0.076041
-0.120287
-0.164445
-0.188782
-0.190100
-0.184604
-0.169180
-0.135834
-0.087095
-0.046350
0.003027
0.035387
0.065665
0.099484
0.111546
0.103767
0.092201
0.065082
0.019434
-0.015164
-0.065845
-0.101400
-0.131710
-0.160925
-0.180805
-0.176905
-0.146099
-0.106855
-0.056675
-0.014530
0.041999
0.085725
0.117708
0.141599
0.149787
0.135094
0.112849
0.079182
0.053152
0.005710
-0.048726
-0.097082
-0.124280
-0.146702
-0.150452
-0.149675
-0.128782
-0.100182
-0.065690
-0.010095
0.036760
0.088716
0.112900
0.147196
0.156470
0.154855
0.132788
0.109411
0.068588
0.017388
-0.034741
-0.079259
-0.114473
-0.143357
-0.147162
-0.134780
-0.117135
-0.068397
-0.029434
0.013568
0.052512
0.092042
0.114836
0.139317
0.140096
0.131150
0.105567
0.081161
0.037304
-0.001259
-0.049426
-0.091950
-0.126472
-0.154322
-0.172601
-0.179192
-0.166702
-0.127973
-0.084342
-0.036281
0.003461
0.040453
0.077859
0.094333
0.107817
0.104445
0.078360
0.042857
0.002487
-0.029944
-0.085205
-0.131038
-0.164330
-0.189034
-0.198124
-0.195457
-0.170867
-0.142228
-0.097535
-0.051182
-0.016269
0.016846
0.056259
0.081019
0.084421
0.075582
0.063090
0.026028
-0.018616
-0.059412
-0.109757
-0.142611
-0.174432
-0.205230
-0.207835
-0.204583
-0.184025
-0.148440
-0.109601
-0.067460
-0.020542
0.021493
0.055178
0.078902
0.086736
0.079984
0.064664
0.031127
-0.013224
-0.053198
-0.105658
-0.147293
-0.182374
-0.205937
-0.217445
-0.205656
-0.183333
-0.153093
-0.108755
-0.067261
-0.025874
0.014359
0.036457
0.069725
0.075466
0.071401
0.054429
0.019574
-0.010160
-0.063988
-0.102162
-0.144726
-0.177163
-0.205024
-0.209066
-0.206987
-0.184046
-0.149326
-0.106939
-0.064548
-0.022488
0.014247
0.055926
0.068985
0.077913
0.065838
0.037916
0.010067
-0.035371
-0.071528
-0.111580
-0.151895
-0.171811
-0.182342
