0.011245
0.053251
0.102499
0.144378
0.149658
0.153717
0.142000
0.116334
0.096781
0.045530
-0.007187
-0.057777
-0.093194
-0.133134
-0.159535
-0.171850
-0.166373
-0.126175
-0.086494
-0.040355
0.020221
0.063814
0.097075
0.120523
0.140302
0.154820
0.147629
0.119080
0.077135
0.022510
0.001414
-0.042675
-0.096160
-0.127934
-0.147690
-0.153360
-0.149443
-0.108847
-0.077754
-0.036336
0.001298
0.034022
0.083042
0.119416
0.167106
0.173167
0.144606
0.174940
0.145702
0.073717
0.005467
-0.030347
-0.068733
-0.098592
-0.112389
-0.118172
-0.120410
-0.095065
-0.065604
-0.017996
0.040809
0.090093
0.137160
0.167648
0.176421
0.172238
0.157930
0.135877
0.097845
0.079962
0.099852
0.024082
-0.034008
-0.092059
-0.089499
-0.102282
-0.092099
-0.065043
-0.032608
0.007388
0.071342
0.112093
0.155649
0.189219
0.184076
0.231071
0.222106
0.198048
0.167247
0.116622
0.068382
0.024048
-0.020048
-0.057462
-0.075925
-0.074403
-0.060862
-0.052276
-0.024237
0.035859
0.092580
0.133637
0.193734
0.235022
0.250769
0.262509
0.249999
0.230055
0.210822
0.187774
0.120416
0.056384
0.017924
-0.021316
-0.034495
-0.047402
-0.046852
-0.013687
0.017489
0.065641
0.114116
0.168658
0.215924
0.251091
0.268320
0.253887
0.271612
0.246630
0.216417
0.164081
0.108324
0.068880
0.022029
-0.015192
-0.045105
-0.040395
-0.032346
-0.007879
0.008690
0.054315
0.120422
0.172092
0.210780
0.229272
0.241548
0.257194
0.262220
0.254500
0.227024
0.170203
0.095917
0.037971
0.008494
-0.032527
-0.057248
-0.060059
-0.047039
-0.023118
0.003326
0.038728
0.086075
0.131114
0.172480
0.212576
0.221096
0.235157
0.227000
0.202617
0.170309
0.125271
0.053167
0.028585
-0.043424
-0.092010
-0.072586
-0.078216
-0.084334
-0.069672
-0.054406
-0.019521
0.024856
0.068453
0.136952
0.178780
0.179950
0.182340
0.179617
0.162882
0.117262
0.064826
-0.003830
-0.014997
-0.051007
-0.053153
-0.094926
-0.131283
-0.138487
-0.120373
-0.085817
-0.026346
0.018074
0.060054
0.092083
0.122798
0.158257
0.164284
0.173094
0.140043
0.094981
0.050198
0.010200
-0.043229
-0.091141
-0.121392
-0.146834
-0.162552
-0.169011
-0.139349
-0.105789
-0.059486
-0.006080
0.037072
0.080224
0.114014
0.144429
0.151933
0.134566
0.108731
0.074556
0.029594
-0.000262
-0.043473
-0.107807
-0.160616
-0.160959
-0.154007
-0.155542
-0.121449
-0.113980
-0.070010
-0.026719
0.027229
0.079426
0.121851
0.140919
0.150653
0.150151
0.118879
0.083198
0.038919
-0.010180
-0.049233
-0.089717
-0.123820
-0.154602
-0.174143
-0.150864
-0.138543
-0.107576
-0.085451
-0.003628
0.043870
0.083883
0.121943
0.141786
0.153578
0.153083
0.120166
0.083116
0.051592
0.016927
-0.043956
-0.104195
-0.150521
-0.172229
-0.186078
-0.180853
-0.162574
-0.103602
-0.054334
-0.017902
0.036780
0.091493
0.124510
0.154205
0.166720
0.155764
0.142438
0.118612
0.046340
-0.017594
-0.059668
-0.073712
-0.084205
-0.127676
-0.137371
-0.135177
-0.131650
-0.097256
-0.042423
0.006245
0.050278
0.076914
0.105273
0.129756
0.149167
0.136868
0.118765
0.094807
0.072784
0.020866
-0.034788
-0.084567
-0.122692
-0.137838
-0.146030
-0.147739
-0.128393
-0.115446
-0.076358
-0.034425
0.040252
0.078920
0.108845
0.132396
0.148919
0.142694
0.123669
0.097245
0.058141
0.013420
-0.037484
-0.092340
-0.119609
-0.137432
-0.166151
-0.153042
-0.130006
-0.111985
-0.074438
-0.025789
0.034443
0.083768
0.110525
0.151364
0.142110
0.147015
0.133797
0.071082
0.027725
0.008025
-0.046140
-0.101179
-0.146021
-0.147088
-0.150037
-0.153993
-0.152964
-0.126781
-0.060151
-0.020780
0.027584
0.065374
0.108867
0.140627
0.150291
0.146120
0.122713
0.100826
0.050131
-0.009357
-0.059611
-0.106406
-0.154694
-0.183674
-0.180584
-0.175230
-0.169476
-0.113948
-0.045067
-0.003847
0.033624
0.074400
0.097106
0.132383
0.151698
0.143836
0.134332
0.104474
0.038219
-0.021982
-0.069313
-0.099859
-0.144403
-0.179966
-0.198256
-0.174039
-0.162188
-0.134917
-0.103267
-0.059287
0.020111
0.074882
0.097694
0.128489
0.111060
0.136144
0.140606
0.083651
0.047506
0.002646
-0.061071
-0.113271
-0.151291
-0.179454
-0.189394
-0.184061
-0.182257
-0.155232
-0.113720
-0.044716
0.007387
0.073566
0.136739
0.161011
0.168679
0.144480
0.130347
0.085257
0.032340
0.015158
-0.030166
-0.078808
-0.118733
-0.142871
-0.148689
-0.136367
-0.118144
-0.089448
-0.045474
-0.000393
0.051651
0.108567
0.137550
0.161464
0.173159
0.168186
0.131934
0.119081
0.068449
0.026625
-0.030797
-0.083681
-0.101988
-0.139335
-0.151108
-0.142974
-0.123135
-0.097191
-0.039619
-0.006133
0.034822
0.087264
0.139211
0.155609
0.176858
0.202811
0.191883
0.137906
0.105969
0.046513
-0.033555
-0.059012
-0.095860
-0.131640
-0.150444
-0.137792
-0.092403
-0.063429
-0.029642
0.013016
0.043812
0.104481
0.126636
0.154544
0.166502
0.154178
0.122375
0.094523
0.052888
0.011722
-0.032660
-0.083867
-0.131251
-0.165715
-0.189640
-0.167325
-0.116639
-0.102270
-0.064077
-0.031301
0.022071
0.072564
0.082279
0.123456
0.111212
0.111926
0.102629
0.067299
0.007129
-0.031657
-0.096119
-0.149923
-0.163616
-0.166067
-0.182522
-0.203453
-0.175971
-0.133387
-0.084686
-0.045324
0.001208
0.047300
0.084529
0.114245
0.115523
0.114471
0.087960
0.044043
0.007150
-0.067910
-0.113959
-0.156332
-0.193914
-0.222534
-0.208145
-0.189277
-0.178493
-0.154419
-0.110370
-0.060268
0.008320
0.055025
0.086658
0.108542
0.114957
0.118733
0.088201
0.046422
0.000402
-0.042704
-0.077244
-0.123513
-0.167906
-0.190259
-0.195755
-0.200833
-0.180075
-0.154718
-0.123796
-0.051900
0.002009
0.058378
0.100306
0.115240
0.122557
0.115335
0.084872
0.053394
0.004842
-0.051729
-0.123095
-0.158220
-0.180703
-0.206871
-0.192927
-0.191328
-0.155692
-0.118127
-0.097757
-0.088649
-0.025703
0.039789
0.055262
0.117868
0.118032
0.145487
0.104219
0.076260
0.045544
0.000975
-0.039000
-0.059621
-0.074732
-0.091012
-0.086499
-0.062758
-0.037812
-0.008363
0.057248
0.130634
0.206239
0.281745
0.338613
0.391187
0.423519
0.448391
0.464645
0.473368
0.458895
0.451867
0.428562
0.405754
0.411561
0.419707
0.459940
0.514760
0.559323
0.624660
0.705525
0.785283
0.832050
0.877518
0.921018
0.930724
0.887211
0.867171
0.823554
0.760563
0.679868
0.561327
0.457410
0.340148
0.241243
0.155474
0.095877
0.039215
0.030197
0.050126
0.084883
0.133469
0.182090
0.206638
0.229975
0.254101
0.259537
0.248309
0.210553
0.162208
0.106375
0.049805
-0.000698
-0.018327
-0.068908
-0.082943
-0.097305
-0.094738
-0.089160
-0.063903
-0.029254
0.008540
0.068421
0.117319
0.147076
0.168354
0.178275
0.169745
0.141048
0.105716
0.057063
0.007286
-0.038962
-0.067079
-0.119707
-0.164093
-0.193589
-0.134546
-0.108811
-0.078351
-0.046491
0.006363
0.069319
0.094693
0.129495
0.141702
0.148862
0.149733
0.128310
0.091001
0.059709
0.006554
-0.030966
-0.069009
-0.102127
-0.137664
-0.150738
-0.138333
-0.124962
-0.083741
-0.047724
-0.007799
0.044398
0.086761
0.111775
0.151985
0.155210
0.156621
0.134745
0.112907
0.069280
0.021755
-0.031384
-0.068517
-0.099973
-0.135719
-0.136848
-0.120568
-0.103912
-0.078181
-0.034217
0.007382
0.057687
0.102669
0.142406
0.159670
0.177468
0.176051
0.158478
0.131841
0.090705
0.039415
-0.006905
-0.058255
-0.089882
-0.109455
-0.120744
-0.092954
-0.071487
-0.026644
-0.000057
0.041208
0.072057
0.143395
0.161206
0.189858
0.201567
0.188716
0.165614
0.125811
0.097254
0.070765
0.035891
0.016436
-0.034043
-0.057491
-0.063832
-0.044648
-0.032812
-0.011554
0.020164
0.113711
0.152609
0.183976
0.197895
0.229084
0.266056
0.241065
0.241195
0.207630
0.157517
0.104556
0.055167
0.025764
-0.005782
-0.028259
-0.032609
-0.034718
-0.018241
0.023380
0.062529
0.099500
0.152563
0.189324
0.214755
0.251944
0.258787
0.254320
0.241414
0.214632
0.178268
0.141664
0.086514
0.039170
0.013204
-0.007830
-0.006309
-0.013999
-0.003490
0.031000
0.073299
0.112073
0.154643
0.188291
0.221999
0.251653
0.260922
0.245389
0.230737
0.197117
0.168172
0.129122
0.078544
0.041839
0.010719
-0.018431
-0.027429
-0.028837
-0.006970
0.020751
0.049560
0.098479
0.142042
0.174745
0.198015
0.216638
0.222667
0.215842
0.210898
0.167636
0.136781
0.090731
0.050378
0.020845
-0.010625
-0.037819
-0.053801
-0.052297
-0.017576
0.008719
0.019666
0.063080
0.116960
0.133858
0.157332
0.173860
0.173823
0.179405
0.158642
0.133475
0.068676
0.054239
0.038137
0.003137
-0.045191
-0.083026
-0.105352
-0.097521
-0.087364
-0.062493
-0.034577
0.030548
0.103300
0.145650
0.149552
0.152071
0.150375
0.151085
0.130736
0.094741
0.060525
0.023304
-0.015103
-0.053573
-0.095804
-0.114734
-0.124354
-0.125264
-0.101766
-0.068868
-0.036128
0.008910
0.044421
0.077668
0.103438
0.115584
0.128463
0.140450
0.106519
0.067846
0.027152
-0.016899
-0.055526
-0.076760
-0.117630
-0.131066
-0.111214
-0.120810
-0.113916
-0.082907
-0.059971
-0.015299
0.027980
0.064332
0.091974
0.119590
0.123508
0.117533
0.101958
0.071894
0.040895
-0.004977
-0.042386
-0.082048
-0.105196
-0.129319
-0.132564
-0.112345
-0.095370
-0.069000
-0.050519
0.003012
0.036460
0.063024
0.104421
0.116318
0.110487
0.133885
0.117870
0.081732
0.042757
-0.009207
-0.050104
-0.082860
-0.098655
-0.130523
-0.131799
-0.122383
-0.096472
-0.080534
-0.058690
0.026513
0.065041
0.117539
0.155260
0.155007
0.138378
0.127573
0.113684
0.089861
0.068603
0.022863
-0.036073
-0.087158
-0.110079
-0.127167
-0.113139
-0.104544
-0.102997
-0.075034
-0.028733
0.019575
0.067417
0.105354
0.134714
0.148723
0.147980
0.132094
0.105602
0.087265
0.060106
-0.001620
-0.053640
-0.060968
-0.083145
-0.107440
-0.119775
-0.112768
-0.092252
-0.058244
-0.025434
0.019505
0.053159
0.092849
0.127734
0.137653
0.145784
0.146276
0.118837
0.078727
0.046531
0.008312
-0.034529
-0.091832
-0.131660
-0.131541
-0.125813
-0.126784
-0.111774
-0.061696
-0.005655
0.037037
0.059412
0.103569
0.131261
0.148412
0.141232
0.111708
0.108449
0.067528
0.054210
0.010280
-0.028520
-0.069899
-0.102730
-0.116822
-0.122090
-0.124345
-0.144154
-0.047873
-0.027859
0.003258
0.064242
0.118480
0.128971
0.143086
0.138814
0.126376
0.098093
0.063756
0.061130
0.006766
-0.038628
-0.075386
-0.111000
-0.126359
-0.135693
-0.117001
-0.095005
-0.056815
-0.028893
0.009713
0.047940
0.083341
0.110331
0.137990
0.131447
0.118968
0.095054
0.077212
0.032519
-0.008976
-0.065600
-0.094218
-0.112897
-0.119620
-0.133355
-0.132599
-0.121175
-0.074828
-0.031122
0.013952
0.052353
0.076523
0.105744
0.122294
0.116689
0.110543
0.097431
0.064427
0.024067
-0.012714
-0.051223
-0.091313
-0.115287
-0.145003
-0.149481
-0.134593
-0.114594
-0.097206
-0.035917
0.026906
0.045281
0.075208
0.096314
0.106267
0.111192
0.093094
0.060900
0.059218
0.032514
0.006205
-0.023573
-0.067071
-0.121023
-0.134768
-0.133612
-0.123555
-0.112668
-0.084396
-0.049570
0.013484
0.064530
0.098829
0.102534
0.107260
0.133087
0.156155
0.109377
0.069939
0.040147
-0.004864
-0.056499
-0.111938
-0.145246
-0.146206
-0.142895
-0.137023
-0.112671
-0.053738
0.001058
0.035349
0.064862
0.123458
0.141013
0.144149
0.140999
0.158736
0.134413
0.094739
0.057617
0.015644
-0.026593
-0.074004
-0.082608
-0.094251
-0.101147
-0.088448
-0.080807
-0.044294
-0.007904
0.033932
0.070516
0.124519
0.162965
0.165362
0.161546
0.153069
0.135268
0.095390
0.049647
-0.000521
-0.049197
-0.103994
-0.139532
-0.108738
-0.082555
-0.067599
-0.044609
0.002770
0.004801
0.054533
0.103528
0.150310
0.194119
0.204256
0.194230
0.161161
0.152197
0.125044
0.086300
0.021249
-0.012285
-0.058321
-0.087820
-0.119178
-0.117270
-0.112089
-0.096954
-0.071048
-0.013091
0.037353
0.080754
0.099226
0.125715
0.164001
0.173865
0.158340
0.118615
0.086296
0.043836
-0.007339
-0.073178
-0.120153
-0.136997
-0.145899
-0.141366
-0.124145
-0.105058
-0.072336
-0.038573
0.005040
0.041856
0.078912
0.117023
0.124044
0.118962
0.103899
0.085549
0.051405
0.011310
-0.042651
-0.091440
-0.127238
-0.163662
-0.181096
-0.169371
-0.154767
-0.128705
-0.100130
-0.064648
-0.010657
0.020921
0.062311
0.098070
0.127616
0.133633
0.113848
0.071366
0.040677
0.019397
-0.032897
-0.092435
-0.142020
-0.171215
-0.180589
-0.174495
-0.173068
-0.137417
-0.084108
-0.047398
-0.002137
0.040069
0.070174
0.103340
0.122092
0.133652
0.105691
0.083678
0.042803
0.007099
-0.038553
-0.087006
-0.131122
-0.146994
-0.178029
-0.181599
-0.177381
-0.152904
-0.086864
-0.016964
0.023065
0.046492
0.066413
0.104745
0.127498
0.128919
0.106211
0.073445
0.051861
0.014333
-0.040924
-0.095765
-0.135792
-0.169333
-0.185590
-0.203284
-0.189015
-0.155326
-0.120741
-0.065220
-0.011422
0.057603
0.092704
0.133195
0.157373
0.200362
0.191098
0.165378
0.163786
0.133108
0.080246
0.040723
0.014883
0.009514
0.025793
0.044130
0.069528
0.120784
0.191226
0.250114
0.367276
0.432680
0.511889
0.592258
0.635757
0.672195
0.687077
0.690876
0.704249
0.694761
0.662233
0.623308
0.628907
0.665562
0.655365
0.661557
0.688883
0.708594
0.688301
0.691998
0.730917
0.759036
0.779848
0.746261
0.686109
0.622769
0.535732
0.469307
0.382490
0.276626
0.182829
0.106696
0.052858
0.018823
-0.001101
-0.015486
-0.012917
0.004225
0.034405
0.063805
0.109241
0.145539
0.177740
0.200287
0.225720
0.238723
0.220311
0.192552
0.158813
0.112413
0.050589
-0.010379
-0.046159
-0.083115
-0.106253
-0.112189
-0.097999
-0.074206
-0.040848
-0.000705
0.042721
0.096005
0.126536
0.169225
0.191158
0.186951
0.166795
0.148778
0.112117
0.065316
0.017697
-0.027980
-0.076924
-0.110205
-0.138761
-0.120495
-0.122654
-0.110907
-0.044118
0.002775
0.051923
0.081442
0.111734
0.152073
0.177483
0.185017
0.176234
0.157243
0.132614
0.064318
0.021372
-0.031485
-0.078013
-0.106463
-0.119079
-0.119798
-0.110348
-0.083058
-0.059912
-0.014334
0.038077
0.075590
0.128884
0.166614
0.203131
0.177652
0.163071
0.111930
0.097780
0.065205
0.049384
0.004417
-0.046096
-0.087243
-0.103123
-0.104880
-0.100116
-0.097338
-0.048531
-0.020501
0.046745
0.119242
0.187776
0.244639
0.255391
0.231229
0.212531
0.189987
0.156753
0.112741
0.064311
0.014749
-0.029725
-0.059820
-0.074500
-0.079377
-0.062640
-0.037839
0.000448
0.048154
0.090323
0.142671
0.196479
0.230159
0.245089
0.251440
0.233450
0.222936
0.186426
0.146225
0.099379
0.049477
0.003353
-0.031294
-0.047102
-0.046983
-0.037240
-0.019500
0.035546
0.083003
0.123835
0.169246
0.213435
0.247834
0.265638
0.281376
0.278941
0.250601
0.214896
0.176789
0.133212
0.082707
0.040429
0.004026
-0.012724
-0.019088
0.005334
0.016326
0.048081
0.108933
0.144884
0.205730
0.245180
0.266130
0.288824
0.310378
0.308682
0.283579
0.246866
0.190193
0.142163
0.099562
0.041614
0.013725
-0.009684
-0.030711
-0.009012
0.019125
0.048713
0.092486
0.143252
0.188967
0.230208
0.271192
0.282138
0.290061
0.273612
0.255961
0.224498
0.159696
0.118121
0.077106
0.056166
-0.004948
-0.048940
-0.030594
-0.014455
0.018350
0.054760
0.105650
0.134052
0.183232
0.225196
0.260459
0.264223
0.270882
0.265746
0.228456
0.195548
0.156400
0.107723
0.050265
0.000804
-0.038692
-0.056759
-0.080108
-0.074112
-0.059019
-0.023722
0.022305
0.084387
0.141445
0.163606
0.229309
0.255095
0.239671
0.210295
0.182221
0.157576
0.128032
0.062077
0.006992
-0.037469
-0.079747
-0.109838
-0.123354
-0.105431
-0.075825
-0.037790
0.003141
0.052541
0.106732
0.138666
0.175898
0.187427
0.185729
0.169050
0.130052
0.066264
0.090835
0.061285
-0.002595
-0.060921
-0.102097
-0.120241
-0.134918
-0.117557
-0.098755
-0.066176
-0.033776
0.010136
0.062827
0.107830
0.160705
0.192819
0.190548
0.169000
0.134097
0.103890
0.050459
0.011434
-0.035964
-0.075406
-0.108954
-0.155080
-0.167142
-0.166652
-0.108722
-0.043120
0.008225
0.041364
0.081699
0.114408
0.145701
0.180282
0.190599
0.170870
0.156538
0.120403
0.065268
0.013945
-0.037960
-0.080686
-0.106707
-0.139920
-0.148398
-0.131129
-0.104643
-0.069338
-0.018030
0.030874
0.080233
0.121941
0.156929
0.178861
0.186930
0.175238
0.157537
0.114285
0.053991
0.024952
-0.011422
-0.054441
-0.104339
-0.138803
-0.159884
-0.141742
-0.097160
-0.084442
-0.044148
0.048022
0.103484
0.133303
0.153409
0.169507
0.175047
0.167558
0.145800
0.119364
0.082705
0.034341
-0.011899
-0.063788
-0.081445
-0.105330
-0.119095
-0.124592
-0.087032
-0.057951
-0.010171
0.052401
0.071386
0.111096
0.160553
0.174083
0.216358
0.197113
0.164318
0.116519
0.049093
0.022041
-0.016018
-0.054690
-0.104674
-0.127362
-0.127178
-0.114685
-0.089178
-0.056555
-0.010471
0.032143
0.079419
0.114017
0.152914
0.166619
0.172066
0.183443
0.165400
0.131462
0.068053
0.022698
-0.041287
-0.058992
-0.104405
-0.135315
-0.131948
-0.095511
-0.101047
-0.061523
-0.011235
0.026541
0.072419
0.114900
0.162216
0.178533
0.190572
0.170692
0.148658
0.109522
0.064613
0.021260
-0.029635
-0.074935
-0.113703
-0.128549
-0.138234
-0.135468
-0.108806
-0.071107
-0.026001
0.015826
0.066887
0.109940
0.146404
0.167449
0.176415
0.174417
0.146550
0.119709
0.071683
0.014415
-0.035278
-0.077973
-0.112309
-0.134871
-0.148843
-0.140161
-0.112269
-0.078471
-0.022562
0.012535
0.056679
0.094149
0.138356
0.171072
0.173266
0.159442
0.127866
0.103204
0.064367
-0.002220
-0.053278
-0.084271
-0.094888
-0.123796
-0.162199
-0.175431
-0.135567
-0.072874
-0.028983
0.009159
0.066583
0.103593
0.141451
0.171264
0.166680
0.159591
0.131166
0.080855
0.054532
0.016996
-0.033502
-0.086066
-0.132291
-0.176065
-0.184829
-0.134243
-0.119315
-0.084282
-0.034024
0.015048
0.066066
0.094048
0.130705
0.157432
0.165505
0.148762
0.125872
0.100285
0.056839
-0.001279
-0.050738
-0.092256
-0.131025
-0.151486
-0.162300
-0.159231
-0.124242
-0.092855
-0.040718
0.012744
0.050336
0.109834
0.142150
0.167810
0.187195
0.167024
0.141170
0.097125
0.061156
0.002409
-0.051383
-0.097095
-0.133893
-0.148904
-0.152898
-0.146664
-0.105984
-0.076278
-0.034219
0.015274
0.074155
0.123731
0.162177
0.186564
0.187644
0.181747
0.150403
0.110162
0.070564
0.013279
-0.032789
-0.064249
-0.089591
-0.125947
-0.137041
-0.111327
-0.066763
-0.026688
0.012821
0.063227
0.100705
0.133320
0.158569
0.204541
0.199726
0.175073
0.151793
0.128785
0.086897
0.028306
-0.025118
-0.065287
-0.097347
-0.117811
-0.119816
-0.129823
-0.114237
-0.060868
-0.004122
0.048266
0.096318
0.160480
0.199820
0.231426
0.218926
0.203236
0.199461
0.145757
0.091319
0.056154
0.009685
-0.041834
-0.072114
-0.100206
-0.124274
-0.109386
-0.047854
-0.033302
-0.007080
0.049356
0.089119
0.123695
0.155506
0.175504
0.180690
0.171906
0.139914
0.100480
0.061723
0.019699
-0.031296
-0.085289
-0.115642
-0.144367
-0.152442
-0.147681
-0.119952
-0.093073
-0.048112
0.006675
0.055671
0.111430
0.136777
0.148013
0.162295
0.178760
0.122149
0.076727
0.028955
-0.019990
-0.057591
-0.089935
-0.127658
-0.159288
-0.176806
-0.172696
-0.137013
-0.093310
-0.057751
-0.007909
0.038405
0.065432
0.114444
0.134161
0.143300
0.129098
0.096277
0.064818
0.030825
-0.034247
-0.077063
-0.113274
-0.155083
-0.194378
-0.198870
-0.174324
-0.135350
-0.095151
-0.061476
-0.030859
0.027405
0.084035
0.133919
0.148586
0.145999
0.131823
0.103840
0.063816
0.019348
-0.029452
-0.087181
-0.119838
-0.169931
-0.170169
-0.182487
-0.174573
-0.140786
-0.105886
-0.066183
-0.025838
0.018720
0.066932
0.103893
0.159037
0.168550
0.152942
0.105954
0.075369
0.046331
-0.032266
-0.063589
-0.111515
-0.154547
-0.180756
-0.190732
-0.183145
-0.152954
-0.133157
-0.060335
-0.015107
0.028150
0.076592
0.110598
0.141874
0.144053
0.143069
0.131091
0.104855
0.068811
0.030830
-0.001068
-0.033646
-0.057682
-0.072491
-0.052365
-0.040238
-0.015765
0.047679
0.120176
0.192952
0.274962
0.356795
0.430420
0.486100
0.510078
0.535610
0.546136
0.551757
0.552808
0.525744
0.500524
0.499589
0.503379
0.512324
0.532130
0.582979
0.646244
0.694632
0.752577
0.796990
0.843092
0.890271
0.913742
0.917178
0.896581
0.861399
0.795202
0.690700
0.568071
0.459684
0.354326
0.256940
0.168053
0.094171
0.036302
0.022412
0.060768
0.087262
0.114693
0.162811
0.205679
0.240601
0.262607
0.276447
0.272291
0.254634
0.216712
0.183675
0.131436
0.080444
0.035106
-0.020156
-0.060348
-0.087781
-0.095888
-0.096916
-0.069098
-0.039324
-0.000269
0.047627
0.093429
0.139554
0.175639
0.199532
0.207363
0.202351
0.162062
0.127517
0.081935
0.028519
-0.016393
-0.058759
-0.093728
-0.117162
-0.141207
-0.138681
-0.111313
-0.100946
-0.040916
0.024046
0.083489
0.121653
0.158051
0.180974
0.182406
0.174993
0.167989
0.163817
0.104653
0.045875
-0.000663
-0.061677
-0.124335
-0.111477
-0.124254
-0.113463
-0.085542
-0.050578
-0.021479
0.031258
0.069041
0.103832
0.146240
0.181352
0.183500
0.190776
0.150235
0.127050
0.094686
0.050169
0.004933
-0.037219
-0.078016
-0.100114
-0.119330
-0.111451
-0.087413
-0.058424
-0.010668
0.033945
0.080032
0.128417
0.180551
0.191425
0.211185
0.185333
0.194291
0.148831
0.114610
0.064654
0.036038
-0.007995
-0.051170
-0.083224
-0.082139
-0.066450
-0.045387
-0.017939
0.020086
0.068000
0.110421
0.158013
0.193337
0.217920
0.232551
0.226325
0.193442
0.168103
0.127550
0.087512
0.064038
0.026181
-0.004570
-0.028699
-0.036292
-0.039442
-0.029461
0.001855
0.047670
0.089735
0.145769
0.188769
0.226458
0.242503
0.268172
0.279102
0.245575
0.203568
0.167581
0.128758
0.074116
0.038027
0.026536
-0.003100
-0.007242
0.006876
0.010590
0.026989
0.072427
0.147518
0.202004
0.228548
0.253484
0.269842
0.281316
0.284535
0.265793
0.230229
0.199952
0.150737
0.109144
0.072574
0.022855
-0.007535
-0.016362
-0.005355
0.030314
0.057791
0.089715
0.141941
0.171453
0.198538
0.231501
0.233221
0.276258
0.278629
0.254152
0.225520
0.199365
0.142061
0.105569
0.056649
0.015491
-0.003970
-0.010092
-0.010933
0.001434
0.031849
0.069488
0.109714
0.161788
0.210093
0.237048
0.242281
0.257147
0.241164
0.223822
0.179747
0.145986
0.124736
0.096314
0.047952
0.003014
-0.040360
-0.045801
-0.035011
-0.016286
0.002161
0.038230
0.073741
0.111180
0.142395
0.177137
0.213276
0.207669
0.205641
0.183842
0.171341
0.123440
0.077836
0.029810
-0.000412
-0.043525
-0.069757
-0.091106
-0.078376
-0.064246
-0.037441
-0.003044
0.037779
0.076531
0.121130
0.143318
0.168020
0.185034
0.170579
0.151797
0.119413
0.093722
0.036268
-0.007048
-0.045572
-0.085755
-0.108510
-0.117581
-0.112703
-0.090906
-0.073595
-0.034769
0.001820
0.056074
0.096109
0.127662
0.140680
0.147826
0.156863
0.130843
0.076713
0.043485
0.005303
-0.042390
-0.055832
-0.080405
-0.107232
-0.134317
-0.143189
-0.134721
-0.077868
-0.042726
0.004796
0.050008
0.092240
0.125202
0.154009
0.153428
0.141853
0.126493
0.102271
0.065814
0.027956
-0.019029
-0.073076
-0.114381
-0.140525
-0.156367
-0.139224
-0.092619
-0.072022
-0.055462
0.016045
0.057941
0.112198
0.131625
0.160064
0.166030
0.161520
0.122724
0.078302
0.052639
0.019534
-0.011002
-0.054930
-0.084578
-0.119079
-0.130557
-0.133315
-0.102564
-0.049292
-0.012227
0.011389
0.061179
0.106314
0.107027
0.130216
0.152776
0.163994
0.144205
0.105345
0.066743
0.027038
-0.003624
-0.047959
-0.093798
-0.111180
-0.108421
-0.111751
-0.107168
-0.082669
-0.030103
0.022311
0.066334
0.093510
0.125367
0.149540
0.163667
0.154927
0.128859
0.094311
0.063217
0.025532
-0.011879
-0.048754
-0.069270
-0.097850
-0.113597
-0.110957
-0.092871
-0.062558
-0.022228
0.014973
0.056106
0.096753
0.122349
0.145802
0.156057
0.154096
0.145438
0.111647
0.072985
0.020457
-0.019236
-0.057056
-0.089175
-0.120740
-0.120558
-0.126043
-0.109886
-0.090625
-0.023464
0.010723
0.047051
0.076347
0.094007
0.123562
0.146078
0.142589
0.136287
0.112221
0.076527
0.027773
-0.023010
-0.052346
-0.102917
-0.119668
-0.120412
-0.111602
-0.106126
-0.091961
-0.050144
0.005882
0.055968
0.085721
0.121289
0.150771
0.155626
0.136160
0.122507
0.094141
0.048170
0.002388
-0.034938
-0.078494
-0.099873
-0.118240
-0.134498
-0.130084
-0.114633
-0.086560
-0.050740
-0.006897
0.031825
0.075866
0.103535
0.123643
0.141606
0.125870
0.116213
0.096950
0.044268
0.003706
-0.035016
-0.084666
-0.121092
-0.109306
-0.142745
-0.149029
-0.130271
-0.098869
-0.048905
-0.003953
0.016281
0.071386
0.096930
0.121001
0.136025
0.137814
0.109968
0.064330
0.042114
-0.012258
-0.044373
-0.109466
-0.133227
-0.121227
-0.088123
-0.102691
-0.126887
-0.101882
-0.059054
-0.029373
0.022687
0.049599
0.078504
0.102639
0.129030
0.163445
0.126569
0.067604
0.031346
0.000583
-0.064891
-0.091913
-0.118559
-0.151709
-0.150824
-0.139381
-0.113406
-0.091155
-0.067868
-0.029633
0.027278
0.064894
0.099787
0.129927
0.144915
0.137030
0.113807
0.084627
0.048670
0.001877
-0.051415
-0.099157
-0.134492
-0.148444
-0.151072
-0.148860
-0.120832
-0.088037
-0.061132
-0.018438
0.023705
0.068156
0.098127
0.118508
0.131409
0.125578
0.108469
0.079206
0.043607
0.001069
-0.051111
-0.092279
-0.117714
-0.136727
-0.154856
-0.149160
-0.125462
-0.091488
-0.063823
-0.016992
0.025208
0.068507
0.095347
0.116782
0.128456
0.121632
0.105685
0.071793
0.038245
-0.003590
-0.040300
-0.073083
-0.119207
-0.147125
-0.152134
-0.131704
-0.122566
-0.081819
-0.051219
-0.019413
0.028700
0.092234
0.110991
0.126193
0.138591
0.150049
0.138223
0.108883
0.071415
0.020999
-0.023367
-0.060897
-0.097522
-0.104398
-0.110334
-0.110743
-0.091532
-0.064752
-0.037082
-0.001944
0.045852
0.086040
0.125147
0.139603
0.160715
0.143891
0.101256
0.071640
0.023739
-0.000426
-0.018289
-0.069465
-0.078396
-0.065614
-0.069210
-0.085174
-0.074123
-0.029597
0.004938
0.053862
0.101872
0.123576
0.159670
0.190425
0.199317
0.192553
0.164770
0.125211
0.111351
0.036074
-0.022479
-0.070064
-0.112345
-0.130321
-0.126464
-0.104885
-0.090510
-0.068383
-0.026189
0.012076
0.037474
0.074999
0.103264
0.133967
0.140592
0.141136
0.114933
0.075897
0.043565
-0.008380
-0.044779
-0.091414
-0.119025
-0.137344
-0.146809
-0.146437
-0.131489
-0.101995
-0.062809
-0.026206
0.017423
0.052406
0.081215
0.103951
0.114075
0.109412
0.089922
0.045501
0.007301
-0.040347
-0.075137
-0.112003
-0.142802
-0.164136
-0.168713
-0.168060
-0.168246
-0.146849
-0.077958
-0.023829
0.013241
0.036951
0.066782
0.095906
0.107845
0.101877
0.069650
0.045226
0.025281
-0.028714
-0.083596
-0.141703
-0.149327
-0.159794
-0.179746
-0.172697
-0.158230
-0.131274
-0.100470
-0.026382
0.012257
0.050325
0.105076
0.105687
0.102046
0.091249
0.081857
0.046951
0.017467
-0.027517
-0.072528
-0.108622
-0.145307
-0.154030
-0.180365
-0.180906
-0.167420
-0.126423
-0.075162
-0.031637
0.020333
0.046693
0.060534
0.091098
0.108247
0.101570
0.068918
0.032919
0.004867
-0.041099
-0.087060
-0.131697
-0.158842
-0.151076
-0.183245
-0.178752
-0.152878
-0.112888
-0.080157
-0.023508
0.018430
0.066284
0.109051
0.132799
0.159074
0.174489
0.159146
0.134671
0.115072
0.103717
0.068138
0.031366
0.030272
0.021971
0.033275
0.064016
0.105294
0.173001
0.245905
0.317806
0.409222
0.475560
0.542522
0.595274
0.629891
0.658586
0.697029
0.707314
0.704384
0.702167
0.675668
0.673640
0.674399
0.660616
0.628517
0.620365
0.627903
0.635573
0.651715
0.681218
0.708112
0.709280
0.662062
0.616627
0.562454
0.500344
0.436305
0.338411
0.233151
0.179768
0.129936
0.079791
0.051743
0.014358
-0.003757
-0.004404
-0.005986
0.026351
0.044853
0.079261
0.107742
0.157175
0.174177
0.189308
0.196880
0.186785
0.174083
0.140861
0.089741
0.028225
-0.012080
-0.042970
-0.072343
-0.094057
-0.109200
-0.105281
-0.087334
-0.046903
-0.017176
0.031312
0.081504
0.109880
0.123295
0.128396
0.119337
0.177731
0.146645
0.078293
0.051404
0.020576
-0.035427
-0.073667
-0.111336
-0.133128
-0.136013
-0.106379
-0.085588
-0.061230
-0.024665
0.015860
0.057479
0.073082
0.135785
0.143059
0.144318
0.133023
0.107110
0.075433
0.039712
-0.003747
-0.064138
-0.099499
-0.087017
-0.089379
-0.113808
-0.106414
-0.100420
-0.061535
-0.007601
0.038331
0.081128
0.108656
0.133607
0.148179
0.147660
0.142082
0.105168
0.069378
0.054896
0.025137
-0.021327
-0.076535
-0.087595
-0.084292
-0.096401
-0.101275
-0.064139
-0.027160
0.018272
0.059926
0.098533
0.122989
0.160554
0.182077
0.177868
0.161203
0.148931
0.111834
0.077642
0.033636
-0.005862
-0.027209
-0.052218
-0.073281
-0.066407
-0.064030
-0.047668
-0.004669
0.026966
0.061848
0.111395
0.159445
0.196611
0.224939
0.221973
0.202761
0.171215
0.122453
0.104696
0.072012
0.022341
-0.018859
-0.031718
-0.032295
-0.042011
-0.037161
-0.017521
0.025259
0.072975
0.102219
0.149560
0.192688
0.244772
0.262952
0.268950
0.249799
0.220929
0.171117
0.120996
0.112065
0.059552
0.019990
-0.008978
-0.010691
-0.015086
-0.007789
0.004423
0.044394
0.090075
0.130090
0.169582
0.209214
0.250059
0.273552
0.289486
0.278294
0.246641
0.206726
0.149959
0.105261
0.062345
0.016662
-0.005334
-0.027746
-0.030536
-0.007977
0.013610
0.041646
0.089966
0.134662
0.183320
0.219814
0.257347
0.270173
0.270209
0.261341
0.240205
0.191717
0.144162
0.097259
0.054126
0.009400
-0.026347
-0.047839
-0.060261
-0.052478
-0.014874
0.042736
0.081708
0.106525
0.157474
0.195354
0.231165
0.252931
0.270047
0.251208
0.208393
0.173105
0.128996
0.081439
0.024823
-0.024446
-0.050290
-0.068412
-0.076521
-0.079788
-0.058906
-0.009414
0.026624
0.058823
0.116588
0.188537
0.211687
0.203427
0.202494
0.209925
0.169671
0.132488
0.073945
0.023992
-0.029607
-0.054970
-0.086680
-0.115301
-0.113452
-0.117453
-0.091516
-0.052200
-0.006713
0.036429
0.092928
0.144454
0.169778
0.180904
0.182307
0.163112
0.143057
0.113471
0.059344
-0.011935
-0.055071
-0.093569
-0.132187
-0.153811
-0.156652
-0.137034
-0.109073
-0.075452
-0.031034
0.016132
0.056454
0.095445
0.125022
0.167121
0.170439
0.156300
0.122087
0.087492
0.038162
-0.010484
-0.067979
-0.109353
-0.142075
-0.159489
-0.177169
-0.178068
-0.137778
-0.096675
-0.032646
0.022396
0.063771
0.101379
0.139316
0.155784
0.161153
0.151635
0.128062
0.086219
0.046537
-0.008051
-0.066446
-0.111337
-0.146939
-0.161695
-0.172623
-0.185239
-0.134113
-0.090151
-0.035347
0.006926
0.052617
0.102550
0.136543
0.160940
0.178694
0.167802
0.136313
0.096777
0.050567
0.001181
-0.060128
-0.102864
-0.131934
-0.146681
-0.153443
-0.140317
-0.117080
-0.085831
-0.041228
0.011496
0.060326
0.107525
0.149061
0.171799
0.178932
0.166184
0.136375
0.098264
0.053488
0.002869
-0.049831
-0.096949
-0.130279
-0.145540
-0.161961
-0.140903
-0.124326
-0.080480
-0.036082
0.024850
0.066920
0.113610
0.140421
0.152240
0.160810
0.165655
0.139612
0.094559
0.033836
0.002356
-0.044735
-0.087622
-0.128836
-0.133985
-0.132788
-0.165038
-0.108204
-0.089397
-0.050747
-0.001221
0.043071
0.094474
0.135203
0.171955
0.159983
0.152826
0.136047
0.097544
0.047949
-0.003509
-0.055492
-0.085008
-0.126799
-0.159460
-0.170131
-0.170473
-0.144904
-0.105591
-0.052848
-0.001658
0.049169
0.091966
0.123877
0.139220
0.149878
0.131190
0.118713
0.086462
0.017522
-0.011790
-0.068510
-0.126843
-0.154867
-0.142536
-0.171470
-0.152343
-0.141959
-0.113843
-0.051795
-0.002260
0.037980
0.091545
0.125470
0.149910
0.156658
0.146371
0.114588
0.072409
0.027000
-0.016391
-0.066905
-0.124941
-0.166406
-0.185779
-0.198908
-0.177310
-0.148061
-0.117529
-0.058893
-0.030298
0.023151
0.087556
0.135493
0.137110
0.130830
0.134362
0.132480
0.100117
0.047658
-0.008976
-0.078872
-0.112244
-0.155879
-0.186101
-0.189766
-0.176422
-0.155574
-0.120392
-0.067874
-0.020125
0.024361
0.074008
0.118939
0.136966
0.136063
0.123090
0.098222
0.061800
0.025004
-0.029127
-0.099867
-0.145530
-0.167669
-0.181143
-0.191704
-0.189963
-0.154630
-0.123193
-0.073680
-0.030183
0.024802
0.075939
0.105517
0.124010
0.124072
0.116398
0.092968
0.059105
-0.002688
-0.039288
-0.080450
-0.126108
-0.159273
-0.175613
-0.196413
-0.194517
-0.175987
-0.139115
-0.100572
-0.032106
0.015818
0.057874
0.096967
0.120848
0.134688
0.112678
0.092539
0.056855
0.002217
-0.059032
-0.094349
-0.138299
-0.174496
-0.191174
-0.203596
-0.196431
-0.179008
-0.142226
-0.088957
-0.050877
-0.000543
0.036219
0.070849
0.125941
0.130977
0.129458
0.107711
0.064372
0.001436
-0.031788
-0.082065
-0.133522
-0.165722
-0.191549
-0.195041
-0.175349
-0.165602
-0.132760
-0.077586
-0.037744
0.019949
0.074119
0.092884
0.123039
0.148679
0.143825
0.116194
0.081122
0.044448
0.018261
-0.018543
-0.083541
-0.117322
-0.136896
-0.153271
-0.158643
-0.143151
-0.104292
-0.058471
-0.014249
0.038987
0.082594
0.124254
0.137072
0.150652
0.139896
0.116191
0.076757
0.033459
-0.011702
-0.075180
-0.104996
-0.118929
-0.130745
-0.140991
-0.133341
-0.120253
-0.090311
-0.041273
0.003195
0.046822
0.096559
0.135975
0.171038
0.181553
0.171438
0.138591
0.091938
0.050069
-0.007341
-0.066429
-0.104103
-0.136242
-0.162236
-0.184830
-0.170079
-0.145265
-0.116995
-0.080246
-0.039280
0.012387
0.064659
0.094779
0.112200
0.103048
0.102343
0.087409
0.048513
-0.002900
-0.037677
-0.068775
-0.122719
-0.167022
-0.205065
-0.221186
-0.217765
-0.164878
-0.143840
-0.114391
-0.071571
-0.026340
0.028639
0.047913
0.084039
0.108187
0.095701
0.067878
0.028844
-0.033262
-0.076349
-0.131694
-0.175908
-0.208529
-0.212197
-0.216120
-0.216346
-0.214633
-0.169649
-0.130561
-0.087982
-0.039551
0.011793
0.053441
0.089843
0.084274
0.056653
0.027011
0.007912
-0.027351
-0.062359
-0.120478
-0.160313
-0.191174
-0.221025
-0.234257
-0.230699
-0.236587
-0.190610
-0.140476
-0.083396
-0.035250
0.020182
0.046902
0.057897
0.051807
0.054165
0.024555
0.001431
-0.030920
-0.079503
-0.113748
-0.152285
-0.193078
-0.215481
-0.228820
-0.228940
-0.215235
-0.180295
-0.138796
-0.091393
-0.056889
-0.006291
0.022890
0.047107
0.060024
0.055718
0.056596
0.022002
-0.033215
-0.086895
-0.154487
-0.164455
-0.199492
-0.231553
-0.247502
-0.255036
-0.228651
-0.193011
-0.139863
-0.089124
-0.022836
0.025296
0.063223
0.088953
0.114047
0.126749
0.126360
0.102424
0.074210
0.041689
0.002154
-0.022957
-0.039784
-0.010970
-0.014468
0.022322
0.054776
0.131284
0.212949
0.290081
0.352372
0.420761
0.485887
0.550281
0.591628
0.612613
0.628829
0.640396
0.629468
0.626239
0.609133
0.597503
0.600053
0.570821
0.556318
0.560592
0.565986
0.569341
0.581959
0.610132
0.613485
0.612979
0.564309
0.527373
0.472158
0.413476
0.349855
0.310424
0.213775
0.124917
0.058083
0.016344
-0.021554
-0.048790
-0.079050
-0.090291
-0.079127
-0.042624
-0.015237
0.022461
0.041414
0.083145
0.109961
0.119579
0.116835
0.117563
0.103491
0.068830
0.030525
-0.012217
-0.058067
-0.108312
-0.132152
-0.167060
-0.179538
-0.173225
-0.156285
-0.113254
-0.068917
-0.046017
-0.024494
0.030957
0.070498
0.090153
0.089568
0.056880
0.060689
0.025589
-0.021841
-0.073535
-0.114037
-0.146647
-0.169990
-0.177810
-0.180620
-0.171805
-0.159114
-0.121071
-0.083743
-0.052714
-0.012195
0.022363
0.047031
0.073048
0.076898
0.073033
0.049428
0.007880
-0.043500
-0.094654
-0.110881
-0.132920
-0.157835
-0.187987
-0.203663
-0.204194
-0.190950
-0.119081
-0.076847
-0.051110
-0.009473
0.035312
0.055105
0.084502
0.077288
0.107197
0.063643
0.018484
-0.037169
-0.053566
-0.095149
-0.121104
-0.158391
-0.172633
-0.171968
-0.157727
-0.140104
-0.111622
-0.064385
-0.014655
0.031236
0.060540
0.086944
0.108509
0.111165
0.106801
0.080196
0.053491
0.005099
-0.032473
-0.089980
-0.123946
-0.144894
-0.166836
-0.168127
-0.157433
-0.147738
-0.103596
-0.027845
0.033364
0.052826
0.082818
0.103858
0.133331
0.141740
0.122417
0.094411
0.071179
0.035415
-0.006130
-0.064181
-0.098311
-0.123188
-0.154349
-0.145331
-0.117736
-0.068127
-0.041620
-0.004553
0.043097
0.100733
0.129507
0.156910
0.168593
0.173441
0.143473
0.120035
0.083612
0.046267
0.012158
-0.028903
-0.055402
-0.086555
-0.107319
-0.114847
-0.100675
-0.070071
-0.025238
0.018576
0.065991
0.112555
0.146996
0.166875
0.184786
0.195906
0.163819
0.138970
0.106006
0.061324
0.023443
-0.038250
-0.084750
-0.085015
-0.084778
-0.107795
-0.125860
-0.068754
-0.029466
0.011978
0.058311
0.109592
0.140215
0.161505
0.169256
0.187824
0.183931
0.154984
0.106114
0.051978
0.008699
-0.035479
-0.089514
-0.119921
-0.136921
-0.138014
-0.134818
-0.106915
-0.078580
-0.029684
0.014364
0.053324
0.102838
0.140552
0.175925
0.162747
0.145265
0.122375
0.086530
0.030652
-0.027767
-0.085585
-0.143614
-0.187493
-0.179700
-0.177687
-0.165848
-0.146687
-0.120587
-0.083263
-0.027378
0.019927
0.057916
0.099519
0.123216
0.126549
0.108269
0.076643
0.037554
-0.006595
-0.059210
-0.108821
-0.168731
-0.214781
-0.233626
-0.236522
-0.216775
-0.203159
-0.168498
-0.118620
-0.064365
-0.046589
-0.006457
0.050182
0.087505
0.094144
0.088285
0.074747
0.023629
-0.024885
-0.092430
-0.147569
-0.191517
-0.220130
-0.234511
-0.239609
-0.243421
-0.231856
-0.201986
-0.156904
-0.100176
-0.050212
-0.013094
0.026601
0.047400
0.055140
0.056403
0.030663
-0.008919
-0.052021
-0.105456
-0.159857
-0.219004
-0.240789
-0.258945
-0.243939
-0.243951
-0.232508
-0.209746
-0.137232
-0.092068
-0.070075
-0.012341
0.021164
0.038356
0.046750
0.050692
0.026220
-0.002283
-0.039633
-0.101951
-0.148684
-0.190551
-0.233704
-0.271959
-0.265234
-0.245376
-0.211135
-0.198163
-0.153239
-0.097741
-0.058187
-0.018322
0.018296
0.028947
0.032698
0.040210
0.047337
0.016449
-0.034932
-0.090830
-0.151331
-0.186698
-0.220822
-0.252370
-0.261409
-0.248193
-0.229522
-0.203861
-0.168897
-0.105918
-0.061172
-0.013987
0.011714
0.039568
0.053258
0.049137
0.023216
-0.009426
-0.025918
-0.078561
-0.137697
-0.187120
-0.222093
-0.239869
-0.245686
-0.238289
-0.215713
-0.181833
-0.147551
-0.102019
-0.063083
-0.027101
0.011263
0.031395
0.034880
0.039777
0.022869
0.000680
-0.046437
-0.099414
-0.121678
-0.165620
-0.201754
-0.227762
-0.245904
-0.258165
-0.240595
-0.192780
-0.165196
-0.106657
-0.046717
-0.016388
0.009568
0.019633
0.040102
0.035413
0.023795
-0.009613
-0.054718
-0.109476
-0.158698
-0.196274
-0.204196
-0.243563
-0.238715
-0.234443
-0.222250
-0.196940
-0.152720
-0.114146
-0.075330
-0.034899
0.000844
0.019103
0.021291
0.022285
-0.000765
-0.030141
-0.071343
-0.108859
-0.154289
-0.197718
-0.236044
-0.260172
-0.287252
-0.264819
-0.232467
-0.191640
-0.155993
-0.111509
-0.079808
-0.046823
-0.013456
0.003689
0.013356
-0.000062
-0.021129
-0.068064
-0.069699
-0.110949
-0.152327
-0.196495
-0.244886
-0.261125
-0.265145
-0.272301
-0.253254
-0.206025
-0.175055
-0.123524
-0.081559
-0.051576
-0.029888
-0.013907
-0.001895
0.005994
-0.002525
-0.042912
-0.080770
-0.116928
-0.158661
-0.205026
-0.244747
-0.263278
-0.259651
-0.262829
-0.246327
-0.224491
-0.184825
-0.141666
-0.094823
-0.054425
-0.020413
-0.006115
0.006132
-0.002691
-0.015849
-0.052700
-0.099401
-0.142987
-0.173856
-0.219524
-0.259041
-0.271466
-0.277284
-0.271317
-0.250845
-0.207676
-0.177477
-0.140798
-0.102600
-0.063423
-0.039289
-0.015812
-0.011513
-0.042887
-0.037464
-0.087383
-0.128118
-0.164107
-0.205334
-0.240336
-0.279710
-0.274364
-0.229233
-0.211733
-0.201166
-0.188669
-0.176499
-0.140273
-0.099167
-0.058482
-0.021869
0.002432
0.002445
-0.014306
-0.039104
-0.074941
-0.108223
-0.150466
-0.191271
-0.218154
-0.256474
-0.269537
-0.277354
-0.254818
-0.229692
-0.215501
-0.189828
-0.144348
-0.105206
-0.085097
-0.037274
-0.002626
-0.011826
-0.013902
-0.064929
-0.063510
-0.097375
-0.147639
-0.187280
-0.230205
-0.268741
-0.281180
-0.283350
-0.268831
-0.249149
-0.221545
-0.174576
-0.120310
-0.080016
-0.046591
-0.015049
0.002558
0.001975
-0.004205
-0.011723
-0.041672
-0.081664
-0.151733
-0.187665
-0.181024
-0.203716
-0.226936
-0.233883
-0.221484
-0.196969
-0.191379
-0.143836
-0.090914
-0.052544
-0.024458
-0.012748
-0.010989
0.015834
0.007677
-0.026920
-0.057158
-0.087306
-0.117144
-0.160683
-0.203504
-0.218276
-0.223397
-0.240179
-0.240014
-0.214695
-0.177499
-0.132508
-0.087848
-0.031400
0.014444
0.027758
0.030021
0.044551
0.065615
0.022718
-0.036399
-0.080680
-0.125126
-0.170724
-0.214549
-0.234359
-0.253386
-0.280913
-0.279694
-0.230321
-0.189775
-0.147869
-0.110375
-0.085381
-0.046108
-0.024275
-0.005040
-0.010493
-0.015378
-0.043372
-0.074950
-0.120375
-0.177673
-0.223957
-0.251525
-0.268396
-0.281780
-0.286956
-0.279130
-0.253830
-0.240927
-0.197462
-0.168279
-0.118901
-0.057757
-0.038655
-0.034770
-0.006642
-0.028783
-0.068448
-0.098945
-0.144117
-0.188172
-0.233216
-0.278338
-0.310834
-0.329058
-0.341168
-0.328074
-0.307418
-0.299041
-0.243728
-0.168016
-0.104029
-0.082875
-0.050034
-0.034205
-0.046878
-0.063349
-0.092426
-0.117192
-0.134868
-0.176919
-0.235102
-0.270649
-0.303694
-0.301304
-0.302221
-0.310715
-0.291778
-0.260544
-0.219076
-0.167067
-0.120830
-0.082867
-0.049791
-0.025759
-0.027438
-0.049886
-0.082202
-0.124354
-0.172542
-0.217766
-0.258393
-0.278798
-0.309743
-0.324175
-0.335541
-0.315066
-0.274213
-0.245176
-0.206191
-0.156388
-0.117438
-0.082847
-0.055153
-0.051551
-0.039060
-0.051713
-0.077160
-0.118378
-0.164850
-0.206680
-0.237363
-0.282325
-0.311637
-0.335940
-0.345278
-0.332420
-0.291286
-0.251289
-0.203758
-0.145858
-0.075993
-0.045260
-0.017303
0.024814
0.051425
0.055560
0.049484
0.021533
-0.010645
-0.035850
-0.062145
-0.080587
-0.094095
-0.090488
-0.069408
-0.021654
0.033754
0.104290
0.185866
0.256090
0.338781
0.422809
0.477476
0.524198
0.567119
0.602544
0.611264
0.600147
0.580629
0.566943
0.543601
0.503858
0.473414
0.464781
0.447964
0.438277
0.443154
0.460309
0.465195
0.461829
0.439854
0.414214
0.386261
0.348358
0.308819
0.253414
0.171672
0.093913
0.032399
-0.022741
-0.104674
-0.146517
-0.165041
-0.171730
-0.207445
-0.204671
-0.161070
-0.124821
-0.097845
-0.067669
-0.020614
0.008911
0.043722
0.049388
0.059190
0.027017
-0.001592
-0.026925
-0.077554
-0.131696
-0.168356
-0.238543
-0.279755
-0.329443
-0.317776
-0.253661
-0.193994
-0.162785
-0.158838
-0.130945
-0.078198
-0.028805
0.018023
0.013785
0.002336
-0.009756
-0.017524
-0.042745
-0.094735
-0.163835
-0.249270
-0.263846
-0.271734
-0.286777
-0.259424
-0.262067
-0.252168
-0.214460
-0.172419
-0.131014
-0.083123
-0.036857
-0.009801
0.006379
0.008872
-0.004763
-0.020989
-0.045963
-0.101207
-0.155043
-0.198680
-0.237946
-0.266031
-0.281186
-0.287758
-0.276459
-0.259373
-0.226056
-0.166029
-0.108078
-0.067973
-0.032284
0.009309
0.025345
0.014038
-0.013588
-0.009468
-0.034568
-0.096152
-0.140634
-0.185431
-0.223689
-0.254326
-0.277094
-0.264767
-0.246432
-0.233641
-0.197334
-0.152203
-0.098036
-0.042787
-0.008320
0.031224
0.040583
0.033752
0.035912
0.018692
-0.017680
-0.057144
-0.093376
-0.154254
-0.190108
-0.216483
-0.238945
-0.241153
-0.230813
-0.204154
-0.158199
-0.104811
-0.065999
-0.016198
0.027283
0.058462
0.083832
0.081734
0.091719
0.072519
0.023377
-0.022983
-0.080004
-0.136589
-0.176907
-0.190994
-0.186510
-0.181611
-0.180882
-0.182377
-0.132363
-0.079232
-0.038914
0.016008
0.057334
0.092388
0.114351
0.113613
0.087282
0.084013
0.058161
0.000388
-0.036499
-0.095467
-0.139444
-0.170711
-0.178281
-0.183730
-0.172402
-0.144824
-0.105459
-0.065267
-0.004655
0.042651
0.083421
0.126392
0.139082
0.133226
0.108007
0.073005
0.038772
0.007379
-0.027120
-0.082501
-0.122771
-0.157701
-0.181627
-0.191326
-0.183665
-0.156635
-0.118480
-0.064467
-0.022350
0.024697
0.078150
0.100693
0.124380
0.121008
0.095531
0.065335
0.057193
0.026444
-0.028914
-0.093750
-0.135061
-0.168215
-0.197672
-0.194231
-0.176774
-0.165122
-0.142202
-0.087821
-0.044965
0.003346
0.052445
0.078975
0.111520
0.111797
0.087770
0.056651
0.027939
-0.008026
-0.079591
-0.134907
-0.167432
-0.222576
-0.234066
-0.244664
-0.237360
-0.185334
-0.163350
-0.117909
-0.062712
-0.009695
0.014269
0.036121
0.087456
0.074543
0.060162
0.024388
-0.015386
-0.081834
-0.131421
-0.178426
-0.215647
-0.261617
-0.279949
-0.285023
-0.273921
-0.259312
-0.217760
-0.164017
-0.112077
-0.054585
0.007877
0.022215
0.026156
0.019174
0.012107
-0.014270
-0.044028
-0.099337
-0.139440
-0.196777
-0.254452
-0.293933
-0.317035
-0.296303
-0.280566
-0.269276
-0.216665
-0.166169
-0.124135
-0.085827
-0.040145
-0.002610
0.012816
0.019095
-0.006503
-0.028512
-0.067476
-0.116101
-0.169642
-0.225279
-0.264410
-0.299698
-0.328561
-0.337045
-0.285037
-0.251619
-0.227859
-0.192311
-0.136318
-0.084399
-0.028333
0.007728
0.016740
0.021367
0.014091
-0.020176
-0.048889
-0.098069
-0.147493
-0.201182
-0.246436
-0.284167
-0.310592
-0.318979
-0.311446
-0.273640
-0.238220
-0.196100
-0.158252
-0.096903
-0.034270
-0.003936
0.018785
0.026137
0.023454
0.014595
-0.026771
-0.083666
-0.140115
-0.195233
-0.261305
-0.307218
-0.294433
-0.285950
-0.270640
-0.263368
-0.219705
-0.175727
-0.134839
-0.077519
-0.014221
0.025744
0.044627
0.034826
0.015543
0.006332
-0.038532
-0.075410
-0.132400
-0.193333
-0.235569
-0.277936
-0.315718
-0.295690
-0.282872
-0.267306
-0.227095
-0.180731
-0.135070
-0.067047
-0.015670
0.022529
0.050691
0.048396
0.033336
0.011846
-0.021606
-0.062104
-0.132642
-0.185289
-0.231322
-0.273734
-0.300307
-0.320590
-0.288563
-0.268582
-0.234526
-0.194700
-0.133101
-0.087675
-0.047516
-0.000130
0.028040
0.025929
0.017310
-0.005883
-0.048857
-0.091074
-0.137027
-0.196732
-0.232559
-0.262804
-0.292811
-0.302564
-0.294902
-0.278958
-0.249588
-0.203411
-0.140899
-0.065854
-0.031426
-0.018685
0.014626
0.033681
0.022076
-0.013267
-0.044879
-0.099670
-0.148727
-0.204131
-0.248430
-0.272967
-0.290950
-0.278172
-0.301300
-0.284552
-0.248154
-0.199789
-0.137145
-0.079705
-0.045037
-0.039324
0.024958
0.044745
0.032051
-0.018890
-0.050107
-0.095437
-0.153260
-0.213635
-0.258878
-0.294030
-0.316712
-0.298647
-0.296094
-0.286475
-0.256583
-0.197236
-0.130325
-0.083271
-0.058465
-0.013150
0.022504
0.018251
0.017662
-0.010413
-0.066026
-0.119649
-0.159349
-0.197498
-0.241072
-0.258484
-0.300512
-0.302423
-0.294255
-0.284078
-0.250881
-0.200274
-0.164239
-0.115329
-0.085177
-0.019789
0.019108
0.011811
-0.021281
-0.056560
-0.026503
-0.068833
-0.182310
-0.204294
-0.257439
-0.258129
-0.288752
-0.281100
-0.290673
-0.275460
-0.261127
-0.215547
-0.153272
-0.102372
-0.066696
-0.040591
-0.018711
0.004434
0.010741
-0.011238
-0.049746
-0.101708
-0.145986
-0.190241
-0.236428
-0.266272
-0.322731
-0.307400
-0.299008
-0.283424
-0.259557
-0.217223
-0.175161
-0.113312
-0.066106
-0.029522
0.001795
0.012050
-0.011144
-0.020167
-0.050788
-0.095707
-0.142362
-0.184664
-0.234697
-0.255132
-0.286213
-0.303449
-0.295397
-0.271350
-0.244711
-0.202672
-0.157070
-0.099753
-0.060272
-0.007025
0.007859
0.027034
0.023386
-0.001199
-0.037787
-0.075265
-0.122855
-0.167289
-0.200861
-0.246061
-0.282227
-0.272885
-0.281757
-0.241948
-0.197937
-0.164309
-0.125149
-0.083684
-0.050288
-0.018858
0.033867
0.023263
0.010037
-0.032081
-0.045738
-0.076037
-0.114318
-0.163689
-0.210046
-0.248836
-0.254191
-0.235609
-0.241372
-0.228740
-0.173077
-0.116509
-0.110076
-0.068314
-0.009981
0.020935
0.034354
0.035361
0.021687
-0.002990
-0.035839
-0.059645
-0.112711
-0.176903
-0.201652
-0.238362
-0.263254
-0.274817
-0.263141
-0.247148
-0.238296
-0.202093
-0.152225
-0.089974
-0.042864
-0.012550
-0.020291
-0.007771
-0.009298
-0.033331
-0.067981
-0.105307
-0.145084
-0.203897
-0.233793
-0.263998
-0.291519
-0.306800
-0.299159
-0.271902
-0.244363
-0.212606
-0.168804
-0.115334
-0.080056
-0.055405
-0.031393
-0.039804
-0.031048
-0.029562
-0.073140
-0.131782
-0.181833
-0.236217
-0.269368
-0.288902
-0.321119
-0.326516
-0.304405
-0.290164
-0.278456
-0.225155
-0.200124
-0.175130
-0.090042
-0.066264
-0.056684
-0.042168
-0.027589
-0.040158
-0.075652
-0.128497
-0.193553
-0.242374
-0.269607
-0.279116
-0.318396
-0.317094
-0.322066
-0.316379
-0.270198
-0.227089
-0.179440
-0.127060
-0.089602
-0.058226
-0.048779
-0.033648
-0.044340
-0.065466
-0.082800
-0.128638
-0.172579
-0.220822
-0.281466
-0.307001
-0.314296
-0.322047
-0.324634
-0.303116
-0.274988
-0.236599
-0.191157
-0.152918
-0.108889
-0.074479
-0.019569
-0.054484
-0.047660
-0.061423
-0.088331
-0.129849
-0.185204
-0.234609
-0.278166
-0.297014
-0.303927
-0.328037
-0.323084
-0.291778
-0.256133
-0.211580
-0.163200
-0.103214
-0.047671
0.002589
0.035941
0.070769
0.076460
0.078255
0.042290
-0.004531
-0.028553
-0.057125
-0.086159
-0.088492
-0.077636
-0.051552
-0.030221
0.015844
0.080870
0.136977
0.205012
0.301488
0.367280
0.408896
0.438194
0.507196
0.554819
0.548308
0.551695
0.534239
0.528761
0.520816
0.483279
0.460548
0.452089
0.413041
0.397182
0.424968
0.441694
0.431129
0.415588
0.388001
0.369488
0.353231
0.324838
0.266405
0.198232
0.158848
0.089405
0.026409
-0.041587
-0.101108
-0.158209
-0.188284
-0.206370
-0.206904
-0.202990
-0.191832
-0.160545
-0.129321
-0.092734
-0.057592
-0.003825
0.023475
0.027832
0.035631
0.026372
-0.006313
-0.035501
-0.084117
-0.131790
-0.162886
-0.197098
-0.227476
-0.250476
-0.257508
-0.249065
-0.233155
-0.198237
-0.161803
-0.124879
-0.097319
-0.057358
-0.034292
-0.018056
-0.000795
-0.012557
-0.031822
-0.049683
-0.065779
-0.105585
-0.177618
-0.251382
-0.272909
-0.290084
-0.294919
-0.269513
-0.247222
-0.220408
-0.177762
-0.127290
-0.101189
-0.060785
-0.035831
-0.001162
0.013269
0.008827
-0.031374
-0.068724
-0.103762
-0.148858
-0.207004
-0.242179
-0.248504
-0.274234
-0.274637
-0.272688
-0.248609
-0.220697
-0.156991
-0.129286
-0.102254
-0.043660
-0.000435
0.036595
0.044549
0.028864
-0.011597
-0.055494
-0.097935
-0.137568
-0.188232
-0.226192
-0.249806
-0.257052
-0.229362
-0.221342
-0.214807
-0.190712
-0.139004
-0.097127
-0.067235
-0.007853
0.022431
0.049742
0.058851
0.051654
0.028900
-0.005196
-0.060642
-0.100204
-0.152722
-0.217845
-0.208587
-0.212964
-0.217676
-0.225279
-0.195341
-0.145167
-0.100821
-0.057569
-0.010389
0.031545
0.052301
0.074043
0.079470
0.063870
0.034391
0.013917
-0.032052
-0.080422
-0.128724
-0.166187
-0.198547
-0.206910
-0.212805
-0.181235
-0.133043
-0.106213
-0.069819
-0.025513
0.011226
0.062885
0.079552
0.098611
0.093052
0.073386
0.057728
0.030653
-0.001992
-0.045512
-0.084500
-0.122699
-0.159229
-0.169945
-0.169884
-0.156761
-0.141375
-0.107826
-0.049947
-0.009629
0.028839
0.065079
0.110190
0.127412
0.134672
0.111720
0.088086
0.046836
-0.013203
-0.065892
-0.085431
-0.134388
-0.171962
-0.176902
-0.171322
-0.161284
-0.143835
-0.112594
-0.070094
-0.008898
0.031538
0.068896
0.116416
0.123834
0.112732
0.115019
0.084998
0.034108
-0.010081
-0.062819
-0.105742
-0.145276
-0.178248
-0.199785
-0.200087
-0.190814
-0.178683
-0.150575
-0.108113
-0.051139
-0.017330
0.022085
0.108617
0.137792
0.109533
0.089593
0.052544
0.013663
-0.060964
-0.118116
-0.151293
-0.175915
-0.188074
-0.219217
-0.229771
-0.230023
-0.203658
-0.159251
-0.123644
-0.081238
-0.034753
-0.003250
0.036177
0.062809
0.060463
0.032074
0.010673
-0.030321
-0.075703
-0.124658
-0.168920
-0.214303
-0.247741
-0.281478
-0.293742
-0.289648
-0.253141
-0.197018
-0.163598
-0.117902
-0.084014
-0.037217
-0.009153
-0.016850
0.034841
-0.004878
-0.026296
-0.044165
-0.084571
-0.147390
-0.202569
-0.245224
-0.269285
-0.283110
-0.293311
-0.286987
-0.268931
-0.225895
-0.183899
-0.134909
-0.079557
-0.039823
-0.023838
-0.010766
-0.002479
-0.000439
-0.011591
-0.066402
-0.116666
-0.150747
-0.213445
-0.260347
-0.287640
-0.317410
-0.323882
-0.315265
-0.287625
-0.229335
-0.193079
-0.146879
-0.070692
-0.028334
-0.006373
0.005436
0.006619
-0.013382
-0.031039
-0.054480
-0.086660
-0.152834
-0.213881
-0.259313
-0.281859
-0.294177
-0.318231
-0.300219
-0.275913
-0.251474
-0.220548
-0.162437
-0.083661
-0.010290
0.028730
0.027964
0.028263
0.012603
-0.032129
-0.069496
-0.098834
-0.145479
-0.196040
-0.244835
-0.280642
-0.304121
-0.308561
-0.304230
-0.270125
-0.219506
-0.190758
-0.156981
-0.107906
-0.059723
-0.004407
0.025373
0.040778
0.022433
0.007968
-0.042129
-0.093741
-0.148178
-0.205454
-0.250226
-0.286883
-0.294226
-0.312441
-0.287644
-0.277449
-0.247083
-0.197869
-0.134368
-0.088120
-0.013705
0.032036
0.035295
0.039478
0.025144
-0.002145
-0.048998
-0.096281
-0.145099
-0.189702
-0.237795
-0.273593
-0.302082
-0.306433
-0.296868
-0.269813
-0.231029
-0.184157
-0.134756
-0.073778
-0.033270
-0.004328
0.018092
0.024380
-0.005454
-0.022975
-0.056410
-0.085673
-0.131597
-0.196382
-0.251545
-0.288978
-0.309797
-0.309113
-0.299184
-0.282768
-0.246152
-0.196327
-0.129664
-0.088699
-0.043073
-0.019963
0.002119
0.007164
-0.001270
-0.016042
-0.029970
-0.083667
-0.147592
-0.210311
-0.264535
-0.296776
-0.319465
-0.317976
-0.306872
-0.292395
-0.245604
-0.210815
-0.176436
-0.121092
-0.051283
-0.025550
-0.019474
0.025249
0.021734
-0.021540
-0.064463
-0.104264
-0.166007
-0.214128
-0.261574
-0.293802
-0.305920
-0.316445
-0.323916
-0.297981
-0.246414
-0.205616
-0.162147
-0.113809
-0.064834
-0.024584
0.006234
0.008836
-0.002382
-0.019866
-0.059219
-0.098733
-0.134697
-0.197658
-0.267608
-0.313938
-0.330512
-0.344313
-0.332326
-0.306640
-0.264238
-0.209337
-0.170685
-0.102012
-0.054963
-0.022155
0.002257
0.014658
0.001445
-0.022836
-0.066354
-0.107462
-0.148387
-0.193400
-0.249386
-0.287588
-0.323953
-0.337550
-0.319591
-0.312944
-0.295051
-0.236999
-0.165748
-0.110743
-0.067081
-0.036349
-0.022490
-0.001862
-0.013696
-0.047937
-0.043685
-0.102479
-0.149063
-0.209920
-0.245783
-0.286699
-0.313108
-0.322420
-0.319692
-0.298497
-0.259262
-0.217091
-0.167004
-0.118017
-0.063844
-0.032063
-0.009944
-0.002490
0.002326
-0.016521
-0.044571
-0.083181
-0.146329
-0.203182
-0.235733
-0.248602
-0.271401
-0.292839
-0.285390
-0.272459
-0.237540
-0.198682
-0.145059
-0.100133
-0.048836
-0.003136
0.036272
0.059564
0.039810
-0.001117
-0.023681
-0.080261
-0.126601
-0.172370
-0.223129
-0.272927
-0.288048
-0.309306
-0.321557
-0.269330
-0.231482
-0.181969
-0.129890
-0.083933
-0.025681
0.025444
0.036319
0.035355
0.040051
0.030204
-0.008462
-0.031702
-0.066468
-0.118928
-0.185236
-0.230946
-0.255784
-0.271459
-0.275382
-0.254155
-0.235304
-0.190483
-0.150219
-0.084287
-0.032944
-0.003505
0.022252
0.022655
0.015274
-0.005507
-0.051909
-0.094518
-0.135130
-0.181101
-0.231240
-0.266937
-0.293098
-0.315387
-0.308573
-0.301019
-0.256911
-0.216147
-0.179084
-0.131757
-0.082656
-0.044636
-0.012260
-0.003109
-0.022475
-0.056548
-0.094682
-0.121352
-0.172608
-0.210081
-0.258754
-0.323371
-0.324874
-0.329957
-0.319718
-0.297109
-0.268072
-0.233378
-0.183725
-0.140998
-0.102847
-0.063479
-0.041729
-0.023865
-0.027609
-0.046559
-0.084675
-0.122803
-0.166441
-0.222498
-0.278468
-0.316115
-0.344879
-0.347335
-0.332474
-0.327402
-0.273140
-0.242649
-0.205051
-0.161383
-0.111892
-0.061408
-0.019096
-0.011864
-0.029296
-0.064214
-0.093893
-0.116326
-0.162474
-0.221685
-0.268482
-0.319174
-0.330677
-0.320150
-0.318396
-0.305325
-0.278763
-0.236055
-0.180428
-0.140334
-0.106091
-0.047756
-0.038460
-0.029714
-0.027412
-0.052675
-0.096491
-0.135865
-0.189402
-0.220168
-0.254389
-0.301729
-0.315692
-0.334136
-0.322163
-0.310113
-0.300742
-0.264452
-0.206783
-0.161234
-0.110018
-0.064648
-0.048905
-0.017645
-0.015082
-0.032311
-0.058157
-0.078580
-0.120636
-0.148036
-0.183323
-0.214236
-0.222377
-0.205709
-0.183588
-0.171662
-0.127845
-0.067239
-0.004775
0.045624
0.132228
0.211461
0.276437
0.312514
0.335681
0.352570
0.335426
0.322567
0.312676
0.280189
0.264971
0.259350
0.272219
0.303458
0.350391
0.397551
0.450838
0.519365
0.569815
0.613325
0.660289
0.695529
0.694329
0.701372
0.677693
0.616964
0.545819
0.437516
0.334847
0.219637
0.104431
0.023943
-0.041521
-0.073470
-0.136647
-0.145099
-0.124657
-0.099007
-0.029223
0.028059
0.054580
0.077984
0.078941
0.085499
0.079082
0.062176
0.038613
-0.013301
-0.070761
-0.125369
-0.175139
-0.206014
-0.225335
-0.241330
-0.248017
-0.236008
-0.201254
-0.176787
-0.136839
-0.092363
-0.053893
0.030432
0.057479
0.051089
0.049559
0.032289
-0.009437
-0.049604
-0.091827
-0.157512
-0.209443
-0.245078
-0.266324
-0.273558
-0.277810
-0.264490
-0.246790
-0.198258
-0.144291
-0.094752
-0.047942
-0.010689
0.004461
0.044991
0.042700
0.009400
-0.027414
-0.065616
-0.110525
-0.168620
-0.215443
-0.249054
-0.273782
-0.283140
-0.260290
-0.259282
-0.228661
-0.175771
-0.126303
-0.089006
-0.056195
-0.021809
0.010279
0.024179
0.030665
0.003073
0.021896
-0.021299
-0.075518
-0.123744
-0.173931
-0.220210
-0.249844
-0.262350
-0.252384
-0.235160
-0.197086
-0.156631
-0.111291
-0.056662
0.000913
0.030384
0.051829
0.054400
0.060818
0.042444
-0.003242
-0.050835
-0.081655
-0.122903
-0.147292
-0.204794
-0.225772
-0.229210
-0.221787
-0.213107
-0.201332
-0.143927
-0.079878
-0.032356
0.006505
0.044476
0.075450
0.105594
0.104577
0.086878
0.052157
0.005793
-0.043136
-0.092989
-0.119851
-0.148951
-0.170238
-0.207743
-0.200855
-0.181792
-0.155278
-0.091267
-0.038685
0.006203
0.049282
0.077434
0.082676
0.131913
0.139191
0.118819
0.075695
0.037861
-0.032938
-0.054710
-0.093826
-0.133704
-0.162270
-0.156455
-0.155629
-0.139724
-0.106143
-0.061844
-0.014302
0.035831
0.065266
0.105893
0.120168
0.136792
0.158839
0.129180
0.097053
0.044038
-0.005161
-0.057189
-0.085176
-0.149065
-0.140638
-0.156995
-0.155662
-0.133734
-0.104445
-0.039183
0.008045
0.046690
0.072216
0.113491
0.143241
0.148109
0.141479
0.134207
0.111611
0.050955
0.006162
-0.047055
-0.108421
-0.137623
-0.145770
-0.174068
-0.176342
-0.152503
-0.100726
-0.054454
-0.019266
0.020678
0.072830
0.115179
0.121926
0.126935
0.128453
0.115999
0.088541
0.042964
-0.023707
-0.080545
-0.138980
-0.177948
-0.211613
-0.218587
-0.210227
-0.184589
-0.135371
-0.084912
-0.047596
0.004400
0.064699
0.097756
0.094658
0.083978
0.089655
0.061696
0.014979
-0.023685
-0.051395
-0.107288
-0.138061
-0.194625
-0.217539
-0.230288
-0.224754
-0.207859
-0.166525
-0.135757
-0.094006
-0.052791
-0.004435
0.044490
0.067961
0.067178
0.035743
0.044666
0.002025
-0.043909
-0.099829
-0.118798
-0.177357
-0.238374
-0.270147
-0.275464
-0.276315
-0.240508
-0.215047
-0.176591
-0.117265
-0.059205
-0.023481
0.013943
0.034107
0.051996
0.047226
0.021541
-0.001497
-0.047738
-0.107224
-0.148200
-0.196753
-0.243777
-0.279654
-0.311621
-0.285404
-0.250864
-0.229752
-0.175251
-0.115686
-0.060010
-0.005408
0.016137
0.016083
0.045477
0.065190
0.030726
-0.010287
-0.061914
-0.104120
-0.148149
-0.190781
-0.228569
-0.269780
-0.288077
-0.274967
-0.242161
-0.204070
-0.160366
-0.115442
-0.066153
-0.027175
0.014370
0.043147
0.065261
0.053586
0.026839
-0.008779
-0.071904
-0.104484
-0.160941
-0.198289
-0.239103
-0.263063
-0.269208
-0.244156
-0.213707
-0.187966
-0.155220
-0.095619
-0.046785
-0.001211
0.020921
0.043676
0.061509
0.050543
0.032538
0.010979
-0.032832
-0.085687
-0.144159
-0.168035
-0.202715
-0.240790
-0.254115
-0.237263
-0.225943
-0.199802
-0.147097
-0.101405
-0.065223
-0.023953
0.007286
0.023952
0.072894
0.064240
0.026475
-0.006441
-0.040245
-0.084135
-0.123742
-0.171157
-0.209180
-0.241118
-0.254439
-0.256607
-0.232874
-0.194151
-0.148800
-0.101918
-0.055835
-0.016722
0.016957
0.048627
0.067825
0.061185
0.053657
0.014782
-0.038761
-0.077383
-0.128974
-0.174973
-0.216630
-0.247660
-0.259547
-0.249462
-0.232002
-0.194124
-0.146752
-0.105609
-0.053050
-0.012223
0.026877
0.047842
0.053602
0.039188
0.023874
0.011261
-0.024469
-0.082300
-0.150884
-0.172226
-0.208184
-0.231882
-0.255009
-0.227328
-0.223830
-0.201552
-0.186602
-0.104584
-0.055131
-0.012481
0.019084
0.050082
0.060133
0.023456
0.026112
0.017674
-0.017286
-0.071808
-0.156104
-0.184559
-0.206975
-0.237252
-0.243956
-0.255860
-0.230075
-0.200357
-0.158151
-0.113616
-0.060996
-0.016296
0.021311
0.049230
0.061355
0.049377
0.031615
-0.009313
-0.047786
-0.093378
-0.137122
-0.177159
-0.212585
-0.245937
-0.269027
-0.266626
-0.246030
-0.209356
-0.175930
-0.122380
-0.074706
-0.032518
0.021039
0.067036
0.064937
0.065392
0.032775
-0.006559
-0.044818
-0.090964
-0.142531
-0.185165
-0.230056
-0.255107
-0.261296
-0.263502
-0.253080
-0.214866
-0.169144
-0.117621
-0.057608
-0.016579
0.002958
0.042533
0.061874
0.057884
0.030168
-0.004083
-0.054960
-0.103731
-0.155327
-0.205902
-0.230969
-0.262636
-0.272466
-0.260379
-0.225280
-0.177279
-0.156404
-0.120252
-0.065819
-0.034967
0.012377
0.033495
0.037491
0.014788
0.014604
-0.018694
-0.051316
-0.084618
-0.121223
-0.179241
-0.214367
-0.244467
-0.259955
-0.253883
-0.234214
-0.188232
-0.159465
-0.095674
-0.042897
-0.002754
0.032012
0.048980
0.062733
0.076689
0.056680
0.020783
-0.020615
-0.060265
-0.123665
-0.155187
-0.179993
-0.225110
-0.238504
-0.214741
-0.181894
-0.173703
-0.123895
-0.085133
-0.040434
0.013266
0.055094
0.090753
0.097377
0.068092
0.049878
0.037400
-0.010238
-0.055244
-0.103596
-0.132435
-0.172100
-0.201901
-0.214845
-0.224521
-0.210073
-0.174851
-0.125196
-0.075368
-0.018075
0.035972
0.063176
0.095070
0.106333
0.106214
0.095806
0.062449
0.008211
-0.028473
-0.078781
-0.125252
-0.164534
-0.169323
-0.185934
-0.189297
-0.182787
-0.176343
-0.132638
-0.089261
-0.055757
0.000082
0.058717
0.073535
0.076521
0.064321
0.055604
0.020136
-0.029014
-0.075917
-0.120148
-0.175988
-0.184600
-0.226008
-0.234801
-0.224559
-0.212697
-0.200756
-0.157934
-0.120516
-0.076030
-0.025801
-0.000378
0.029061
0.055814
0.037194
0.031118
0.008749
-0.039887
-0.087628
-0.155072
-0.192213
-0.207630
-0.246248
-0.246182
-0.255894
-0.241579
-0.203894
-0.163353
-0.124314
-0.074894
-0.035025
-0.000650
0.027341
0.046581
0.020216
0.011597
-0.014147
-0.054180
-0.105337
-0.151698
-0.190492
-0.235398
-0.260086
-0.274653
-0.282688
-0.266579
-0.247870
-0.179685
-0.125159
-0.078483
-0.031998
-0.002548
0.017492
0.025186
0.022161
0.014021
0.015972
-0.040096
-0.095093
-0.142356
-0.186401
-0.231151
-0.257087
-0.273821
-0.256342
-0.246729
-0.213996
-0.179581
-0.136700
-0.078109
-0.047050
-0.010138
0.031846
0.060012
0.054074
0.009691
-0.023366
-0.046105
-0.086794
-0.142804
-0.195286
-0.236961
-0.260732
-0.257258
-0.267414
-0.251254
-0.216232
-0.174277
-0.134089
-0.090319
-0.034364
-0.001240
0.020080
0.033634
0.038077
0.031834
0.006160
-0.022042
-0.054630
-0.102661
-0.134374
-0.155502
-0.167991
-0.166870
-0.139966
-0.102234
-0.053897
-0.019233
0.042925
0.101668
0.166588
0.217023
0.287398
0.340802
0.373377
0.382951
0.383455
0.377235
0.347852
0.342477
0.311858
0.300524
0.325230
0.370227
0.405862
0.455898
0.516782
0.578492
0.672082
0.714866
0.769606
0.793628
0.824411
0.808420
0.804495
0.750360
0.681099
0.613302
0.490975
0.375999
0.267612
0.179924
0.106513
0.044478
0.001693
-0.033723
-0.023244
0.007260
0.030997
0.062593
0.102472
0.147562
0.158590
0.154820
0.146900
0.145035
0.100511
0.050115
-0.006747
-0.039971
-0.071241
-0.107891
-0.151020
-0.157643
-0.169142
-0.167227
-0.149552
-0.102256
-0.055397
-0.010556
0.037685
0.073612
0.096696
0.122507
0.115182
0.087165
0.041107
-0.000242
-0.050613
-0.095793
-0.128502
-0.169055
-0.184824
-0.193559
-0.202892
-0.184255
-0.145864
-0.110120
-0.081565
-0.028314
0.027494
0.049487
0.085892
0.087924
0.088910
0.079472
0.041743
-0.000152
-0.045099
-0.107388
-0.143816
-0.181644
-0.206922
-0.209385
-0.205389
-0.183225
-0.145287
-0.106528
-0.077980
-0.034827
0.015912
0.060224
0.084877
0.076294
0.070921
0.065871
0.036661
0.007226
-0.025966
-0.065922
-0.097358
-0.139389
-0.179076
-0.182829
-0.193508
-0.182696
-0.146201
-0.088791
-0.033855
0.013613
0.048763
0.080174
0.096271
0.112130
0.120214
0.098421
0.065919
0.036250
-0.008739
-0.058747
-0.098056
-0.136820
-0.145406
-0.149027
-0.145463
-0.138480
-0.101398
-0.060377
-0.010436
0.043382
0.080906
0.104307
0.122639
0.117519
0.125719
0.135023
0.102919
0.041413
-0.003393
-0.036549
-0.062101
-0.093706
-0.107046
-0.118411
-0.116016
-0.099236
-0.076762
-0.031788
0.013759
0.065267
0.111043
0.139457
0.165958
0.171234
0.167967
0.161265
0.121016
0.081772
0.045167
0.005654
-0.034639
-0.063634
-0.080733
-0.084761
-0.085515
-0.068984
-0.025153
0.029901
0.054583
0.086006
0.143923
0.185003
0.200249
0.207749
0.188028
0.165173
0.142096
0.123756
0.077598
0.030188
-0.013278
-0.050981
-0.075449
-0.089733
-0.074712
-0.053536
-0.005809
0.027380
0.064627
0.102483
0.148443
0.176389
0.183111
0.194733
0.202918
0.200199
0.166991
0.122289
0.059608
-0.007136
-0.042547
-0.063892
-0.093253
-0.068054
-0.076495
-0.070341
-0.029285
0.011432
0.052578
0.104998
0.139367
0.164675
0.182577
0.182384
0.173055
0.152014
0.116148
0.077145
0.030596
-0.010247
-0.051358
-0.085194
-0.107156
-0.119627
-0.119988
-0.086374
-0.039286
-0.011194
0.015602
0.054636
0.080928
0.108582
0.126464
0.146036
0.162993
0.120626
0.076891
0.037684
-0.011220
-0.057627
-0.092500
-0.135118
-0.151414
-0.161921
-0.146512
-0.127498
-0.101327
-0.064772
-0.025952
0.027514
0.073594
0.096274
0.109824
0.112437
0.098507
0.073764
0.037915
-0.009644
-0.063012
-0.104869
-0.144094
-0.170808
-0.180689
-0.187127
-0.166101
-0.162519
-0.113972
-0.087114
-0.064174
-0.000684
0.031424
0.066132
0.082360
0.102533
0.099708
0.069812
0.036931
-0.007220
-0.059705
-0.102353
-0.143407
-0.180524
-0.199562
-0.204143
-0.196386
-0.173680
-0.127279
-0.104386
-0.054472
-0.014008
0.028791
0.059878
0.062690
0.074525
0.089617
0.055559
0.007604
-0.047662
-0.093338
-0.120184
-0.137481
-0.178531
-0.191426
-0.203700
-0.196142
-0.167514
-0.131763
-0.096331
-0.027157
0.011928
0.034777
0.066650
0.084006
0.088238
0.094374
0.058976
0.026680
-0.018879
-0.075817
-0.105216
-0.138053
-0.169870
-0.205069
-0.208052
-0.166852
-0.153014
-0.120984
-0.089316
-0.045466
0.005374
0.058899
0.081947
0.102441
0.105657
0.090920
0.064884
0.026141
-0.018778
-0.065646
-0.114217
-0.152338
-0.197987
-0.189980
-0.203995
-0.184534
-0.157513
-0.126151
-0.091003
-0.043051
0.013154
0.054059
0.087262
0.102599
0.113074
0.105859
0.076943
0.040330
-0.007984
-0.054336
-0.117739
-0.161648
-0.197683
-0.198198
-0.200365
-0.181853
-0.150525
-0.122890
-0.078691
-0.027105
0.008902
0.037357
0.084059
0.114120
0.118739
0.099968
0.065104
0.021543
-0.018267
-0.058810
-0.105001
-0.138988
-0.169790
-0.187578
-0.191446
-0.174920
-0.154453
-0.126505
-0.085963
-0.031511
0.008552
0.046910
0.087000
0.119701
0.114936
0.094756
0.071383
0.045288
0.003576
-0.057810
-0.115519
-0.156737
-0.195957
-0.204321
-0.196452
-0.171931
-0.169773
-0.150442
-0.103647
-0.054053
-0.004062
0.044807
0.087693
0.102846
0.116051
0.064232
0.040165
0.017384
-0.017445
-0.063358
-0.109612
-0.152296
-0.178703
-0.195841
-0.200604
-0.202227
-0.182637
-0.148020
-0.096487
-0.051140
-0.013148
0.014675
0.031719
0.082169
0.100296
0.094749
0.065497
0.022783
-0.034412
-0.074521
-0.134621
-0.178739
-0.190016
-0.197585
-0.219449
-0.219690
-0.176203
-0.137661
-0.096929
-0.033912
0.012152
0.053894
0.081344
0.087031
0.097248
0.093105
0.062061
0.028969
-0.023654
-0.075381
-0.127180
-0.172106
-0.202110
-0.234518
-0.221848
-0.201246
-0.202632
-0.160010
-0.105080
-0.057506
-0.015012
0.028192
0.067406
0.095819
0.109019
0.087006
0.073002
0.048899
-0.007299
-0.068082
-0.131983
-0.190029
-0.205782
-0.213070
-0.222797
-0.228664
-0.201844
-0.168864
-0.113928
-0.067232
-0.015712
0.023461
0.061912
0.081302
0.091514
0.075960
0.052082
0.035742
-0.020945
-0.079255
-0.124795
-0.175463
-0.214716
-0.233019
-0.250609
-0.235449
-0.209730
-0.179467
-0.123385
-0.064611
-0.018682
0.035633
0.071403
0.082226
0.094096
0.092389
0.057395
0.014725
-0.034787
-0.083716
-0.113589
-0.155262
-0.184812
-0.223444
-0.235681
-0.219684
-0.178873
-0.154078
-0.098466
-0.042625
0.017137
0.052048
0.084888
0.102304
0.122749
0.113029
0.095461
0.060031
-0.009107
-0.042459
-0.079780
-0.114540
-0.158671
-0.180174
-0.192471
-0.182473
-0.175437
-0.140949
-0.087801
-0.039807
0.000155
0.055915
0.112255
0.128756
0.128354
0.133477
0.109491
0.068175
0.003401
-0.047093
-0.088499
-0.131527
-0.172445
-0.197858
-0.214501
-0.195571
-0.163240
-0.104555
-0.051624
-0.012573
0.024716
0.057963
0.138094
0.161983
0.158705
0.148514
0.125062
0.088521
0.020317
-0.001790
-0.051328
-0.104151
-0.153911
-0.190093
-0.211001
-0.213459
-0.189816
-0.167169
-0.119246
-0.049689
0.029828
0.050901
0.067092
0.098336
0.111100
0.110149
0.093490
0.055139
-0.001156
-0.054444
-0.094350
-0.157090
-0.191738
-0.230036
-0.248963
-0.235788
-0.210400
-0.168782
-0.120154
-0.074828
-0.038824
0.003964
0.048209
0.077716
0.087701
0.081014
0.056106
0.027108
-0.021324
-0.088547
-0.137219
-0.171398
-0.230789
-0.245377
-0.249655
-0.235707
-0.212575
-0.182259
-0.136499
-0.097970
-0.058379
-0.000294
0.021924
0.042600
0.052953
0.038573
0.059158
0.041931
-0.018540
-0.057337
-0.116668
-0.161170
-0.209753
-0.242666
-0.255742
-0.246232
-0.228887
-0.193474
-0.143482
-0.097866
-0.051160
-0.014739
0.017366
0.036170
0.056860
0.062355
0.031836
0.001148
-0.043251
-0.049552
-0.099289
-0.152155
-0.197890
-0.224047
-0.232386
-0.208940
-0.198282
-0.185330
-0.147387
-0.111559
-0.072152
-0.019600
0.026621
0.057116
0.071344
0.056767
0.037664
0.014937
-0.032052
-0.086982
-0.143416
-0.142390
-0.190153
-0.242756
-0.250228
-0.241907
-0.219508
-0.186296
-0.145964
-0.104095
-0.042432
0.031308
0.090353
0.111822
0.121520
0.145389
0.144918
0.117811
0.091675
0.050968
0.029552
-0.007839
-0.008299
-0.024815
-0.013422
0.025868
0.071638
0.116715
0.190103
0.263410
0.343798
0.392958
0.479723
0.557056
0.604528
0.624869
0.634679
0.645697
0.646934
0.637172
0.634615
0.616822
0.608654
0.592668
0.563644
0.571964
0.594307
0.600507
0.617527
0.629960
0.660400
0.649163
0.609643
0.557867
0.501106
0.426674
0.384336
0.329168
0.217229
0.119447
0.050204
-0.000327
-0.037157
-0.064814
-0.076595
-0.078638
-0.064264
-0.037325
-0.006479
0.034923
0.096257
0.120583
0.126942
0.128619
0.145879
0.134406
0.115675
0.093757
0.038642
-0.018728
-0.068219
-0.101515
-0.136064
-0.140912
-0.154516
-0.147759
-0.135501
-0.116237
-0.066491
-0.015650
0.013411
0.044999
0.065822
0.106642
0.117661
0.103400
0.058006
0.034797
0.003692
-0.034569
-0.080889
-0.128822
-0.165200
-0.189589
-0.184146
-0.179243
-0.152642
-0.117006
-0.078060
-0.027971
0.005598
0.039543
0.079447
0.098335
0.094881
0.087576
0.063658
0.035340
0.014240
-0.035767
-0.076701
-0.132552
-0.162742
-0.169273
-0.147482
-0.157298
-0.144364
-0.107391
-0.055353
-0.026134
0.018366
0.063536
0.082458
0.122428
0.120149
0.122727
0.084950
0.050180
0.023276
-0.029543
-0.074389
-0.108587
-0.129205
-0.143203
-0.154007
-0.138375
-0.117334
-0.087332
-0.055406
0.005141
0.060741
0.095199
0.120518
0.136824
0.149762
0.133829
0.114113
0.087263
0.036400
0.000088
-0.034835
-0.073956
-0.116999
-0.138794
-0.143631
-0.132038
-0.093060
-0.044333
0.004367
0.042839
0.086549
0.120369
0.156600
0.184182
0.191879
0.182896
0.149343
0.113964
0.065304
0.028829
-0.006458
-0.049203
-0.089821
-0.110435
-0.101028
-0.094249
-0.059070
-0.020314
0.019310
0.073765
0.117782
0.157014
0.193667
0.217480
0.217243
0.211744
0.198526
0.144728
0.106076
0.063390
0.013791
-0.029913
-0.059448
-0.085310
-0.075173
-0.052245
-0.027355
0.018005
0.051537
0.091269
0.136028
0.162304
0.196233
0.227897
0.247370
0.252814
0.218451
0.166125
0.114917
0.059055
0.016564
-0.018996
-0.054961
-0.078378
-0.066775
-0.057240
-0.026629
0.004320
0.026114
0.094331
0.138714
0.174014
0.197928
0.207054
0.226347
0.246088
0.216465
0.157881
0.108428
0.079622
0.028566
-0.033122
-0.076338
-0.089181
-0.095548
-0.078167
-0.056247
-0.000375
0.043431
0.070016
0.108790
0.169935
0.195291
0.207610
0.216574
0.201891
0.179331
0.139304
0.082161
0.037094
-0.023817
-0.060295
-0.094696
-0.121068
-0.118071
-0.110231
-0.091177
-0.066833
-0.025356
0.023129
0.064936
0.117854
0.152910
0.163358
0.167306
0.161476
0.137190
0.097118
0.038158
-0.020033
-0.083578
-0.102678
-0.121670
-0.174526
-0.178556
-0.171311
-0.132111
-0.095462
-0.061437
-0.013005
0.029206
0.078497
0.109459
0.132764
0.133709
0.132934
0.102213
0.060765
0.002516
-0.054321
-0.098633
-0.161634
-0.177776
-0.189609
-0.194220
-0.191276
-0.152919
-0.113736
-0.083034
-0.046840
0.006585
0.046669
0.082333
0.107183
0.124662
0.114918
0.079472
0.046320
-0.004768
-0.058478
-0.115293
-0.149561
-0.179319
-0.200246
-0.213287
-0.213045
-0.196830
-0.142374
-0.080251
-0.018867
0.016588
0.060525
0.087967
0.111796
0.124123
0.119467
0.088484
0.049717
0.011815
-0.019190
-0.082895
-0.156402
-0.184135
-0.208229
-0.214632
-0.208566
-0.146425
-0.109582
-0.083231
-0.041362
0.005533
0.047334
0.087442
0.102935
0.134175
0.137686
0.104677
0.055134
0.019086
-0.036468
-0.112415
-0.142816
-0.184650
-0.201712
-0.192680
-0.198230
-0.141336
-0.124525
-0.079645
-0.036445
0.012142
0.061128
0.099947
0.131831
0.141992
0.130810
0.095125
0.042720
0.027211
-0.009052
-0.080914
-0.133223
-0.171174
-0.184890
-0.166739
-0.180197
-0.188056
-0.151617
-0.122482
-0.071937
0.020057
0.076168
0.106761
0.135926
0.140296
0.158219
0.136605
0.076685
0.028585
-0.014509
-0.066772
-0.113617
-0.155857
-0.181499
-0.190923
-0.190886
-0.171025
-0.135078
-0.078255
-0.031101
0.022898
0.061744
0.099585
0.123470
0.130092
0.132402
0.115004
0.074075
0.035079
-0.032120
-0.078221
-0.122840
-0.162037
-0.191529
-0.204366
-0.195212
-0.178116
-0.151215
-0.103445
-0.051269
0.012395
0.061802
0.094244
0.114300
0.130186
0.135475
0.117863
0.073809
0.025875
-0.016524
-0.072121
-0.129631
-0.161340
-0.193375
-0.202177
-0.201755
-0.173235
-0.146863
-0.106308
-0.046300
-0.002021
0.038057
0.077211
0.105814
0.115108
0.124022
0.102046
0.068800
0.020746
-0.028269
-0.084564
-0.131203
-0.169372
-0.194562
-0.214911
-0.213606
-0.205108
-0.165498
-0.114605
-0.054697
-0.009618
0.044626
0.055925
0.081053
0.110484
0.093026
0.083119
0.048812
0.006140
-0.063270
-0.088670
-0.118742
-0.148817
-0.177850
-0.188706
-0.196682
-0.176210
-0.152803
-0.131774
-0.088152
-0.043823
0.040721
0.088275
0.106590
0.114069
0.107969
0.095675
0.068502
0.033527
-0.039679
-0.110626
-0.157734
-0.168754
-0.192367
-0.202853
-0.216358
-0.193251
-0.154435
-0.116978
-0.051378
-0.006969
0.037209
0.058247
0.065232
0.109652
0.114530
0.092061
0.054236
0.015293
-0.034517
-0.081076
-0.120882
-0.155756
-0.193210
-0.207358
-0.207036
-0.185943
-0.154213
-0.124960
-0.080391
-0.039075
0.017272
0.071176
0.108887
0.118572
0.112634
0.073523
0.035660
-0.006331
-0.050728
-0.096047
-0.144698
-0.177155
-0.171262
-0.176332
-0.194946
-0.201557
-0.158262
-0.129330
-0.076345
-0.021724
0.010138
0.052771
0.069763
0.078759
0.075801
0.043195
0.023062
-0.015004
-0.016057
-0.050304
-0.095651
-0.146079
-0.192238
-0.210226
-0.200261
-0.168489
-0.146316
-0.108088
-0.058219
-0.017208
0.023092
0.053228
0.081153
0.108600
0.099794
0.077263
0.042660
0.046568
0.015909
-0.061798
-0.116987
-0.148030
-0.166754
-0.174603
-0.175487
-0.161114
-0.129992
-0.078561
-0.038302
0.011276
0.082502
0.098080
0.099436
0.117681
0.125879
0.095679
0.081083
0.041102
-0.019376
-0.059234
-0.103679
-0.136946
-0.152177
-0.164023
-0.172086
-0.142325
-0.099825
-0.063769
-0.013599
0.031057
0.077517
0.110416
0.130950
0.144902
0.142471
0.122308
0.077674
0.044891
0.027330
-0.026983
-0.062907
-0.096627
-0.125171
-0.126379
-0.117384
-0.116345
-0.088184
-0.062249
-0.028179
0.025724
0.055396
0.080982
0.117395
0.116605
0.098411
0.081567
0.055462
0.026788
-0.016813
-0.075228
-0.124074
-0.158074
-0.176630
-0.186739
-0.186946
-0.193688
-0.155323
-0.098798
-0.055122
-0.003493
0.053242
0.056914
0.057566
0.069069
0.090502
0.065590
0.035305
0.001648
-0.043221
-0.101455
-0.156042
-0.163675
-0.180002
-0.188132
-0.185145
-0.170912
-0.141894
-0.090095
-0.047448
-0.012254
0.022559
0.042768
0.061788
0.065128
0.050679
0.031928
-0.001966
-0.016875
-0.069905
-0.116289
-0.161315
-0.192345
-0.202022
-0.202397
-0.191532
-0.183059
-0.149552
-0.103589
-0.062640
-0.017448
0.013533
0.035955
0.078205
0.082301
0.066515
0.048162
0.018026
-0.031156
-0.077238
-0.115757
-0.151276
-0.191462
-0.215211
-0.209849
-0.207113
-0.191725
-0.174419
-0.136776
-0.098146
-0.030281
0.023636
0.041123
0.065452
0.075743
0.076733
0.051307
0.019143
-0.021807
-0.063507
-0.112368
-0.157702
-0.187610
-0.202002
-0.201388
-0.204586
-0.181797
-0.138547
-0.121032
-0.073621
-0.039079
0.005971
0.022850
0.010116
0.043776
0.042291
0.039680
0.023268
-0.021096
-0.055399
-0.094972
-0.102467
-0.113073
-0.136515
-0.134064
-0.110693
-0.084609
-0.030143
0.017890
0.061625
0.110265
0.179762
0.215588
0.266346
0.291360
0.322525
0.342420
0.351503
0.327966
0.313900
0.302673
0.284947
0.293409
0.315669
0.341620
0.373294
0.415142
0.513211
0.610830
0.695403
0.757409
0.826033
0.870669
0.871004
0.869432
0.880605
0.849143
0.778462
0.687998
0.620036
0.564037
0.470432
0.369719
0.281103
0.212920
0.184139
0.164547
0.133786
0.126321
0.131668
0.177072
0.195571
0.221998
0.251267
0.241581
0.222910
0.189459
0.145732
0.094783
0.044023
-0.022299
-0.072563
-0.111836
-0.119101
-0.127495
-0.121613
-0.103856
-0.070815
-0.022194
0.024020
0.077274
0.100716
0.133005
0.146293
0.154099
0.137178
0.095587
0.067470
0.023223
-0.010371
-0.050753
-0.106583
-0.148325
-0.186438
-0.191478
-0.184082
-0.154211
-0.115895
-0.047784
-0.018461
0.036969
0.101911
0.123098
0.135084
0.145130
0.142884
0.114981
0.075217
0.018383
-0.034178
-0.082439
-0.123764
-0.151952
-0.180854
-0.196190
-0.191460
-0.173866
-0.118782
-0.050912
-0.004196
0.047274
0.086232
0.133564
0.142878
0.143318
0.140778
0.124095
0.076664
0.032140
-0.021450
-0.068263
-0.125538
-0.161539
-0.154813
-0.156614
-0.154571
-0.133292
-0.096856
-0.052112
-0.004762
0.056522
0.100861
0.139234
0.165223
0.171556
0.157570
0.148664
0.115944
0.071346
0.011880
-0.038994
-0.082736
-0.127143
-0.151771
-0.156824
-0.147195
-0.131666
-0.092222
-0.033748
0.004789
0.090121
0.139690
0.169384
0.192599
0.193481
0.168486
0.149953
0.139731
0.089490
0.059415
-0.005438
-0.041895
-0.069059
-0.090079
-0.114205
-0.098545
-0.060675
-0.034374
-0.003559
0.046859
0.102499
0.167574
0.204719
0.220739
0.227129
0.222850
0.202270
0.178623
0.133061
0.083428
0.025986
-0.018657
-0.049262
-0.064816
-0.080530
-0.082235
-0.063724
-0.028438
0.020364
0.076555
0.137956
0.205993
0.239369
0.250734
0.258748
0.252773
0.238185
0.204123
0.166050
0.119107
0.071635
0.024538
-0.015687
-0.050679
-0.056033
-0.049321
-0.038158
0.007533
0.048173
0.084669
0.138038
0.179960
0.226465
0.255127
0.260348
0.253859
0.248854
0.212418
0.155343
0.113639
0.060880
0.014946
-0.027624
-0.047928
-0.062160
-0.057511
-0.044249
-0.012542
0.033403
0.073216
0.117080
0.160084
0.175459
0.223079
0.242257
0.249908
0.232980
0.187993
0.140353
0.094474
0.046808
-0.011448
-0.056834
-0.089680
-0.088959
-0.087805
-0.071655
-0.052557
-0.019278
0.027814
0.080391
0.138114
0.178456
0.185889
0.168933
0.217177
0.195804
0.157819
0.110409
0.045593
-0.004230
-0.063735
-0.105139
-0.114193
-0.109990
-0.101124
-0.078073
-0.061521
-0.028414
0.002581
0.053023
0.077182
0.102404
0.172018
0.176144
0.152791
0.133076
0.099934
0.056875
0.034551
-0.022526
-0.075126
-0.113374
-0.148754
-0.162335
-0.138663
-0.122099
-0.111194
-0.078386
-0.024449
0.016057
0.058623
0.092062
0.108312
0.132107
0.124803
0.115738
0.085991
0.038336
0.000887
-0.056281
-0.094758
-0.138212
-0.171292
-0.180438
-0.185463
-0.146012
-0.117443
-0.095639
-0.060148
0.019579
0.066925
0.086702
0.103899
0.114306
0.099449
0.071516
0.052392
0.018261
-0.024231
-0.063548
-0.106927
-0.123770
-0.144279
-0.158896
-0.164834
-0.137064
-0.108241
-0.069628
-0.030994
0.005920
0.051791
0.094159
0.109757
0.107560
0.106419
0.092731
0.066875
0.029821
-0.033058
-0.066234
-0.094477
-0.124354
-0.164763
-0.177715
-0.165828
-0.124674
-0.076195
-0.061018
-0.035936
0.003993
0.043185
0.111063
0.126199
0.129829
0.121978
0.114467
0.082175
0.039855
-0.006085
-0.058032
-0.091276
-0.126000
-0.148611
-0.151194
-0.144681
-0.133113
-0.083842
-0.040940
-0.006017
0.029152
0.063780
0.102949
0.121194
0.121046
0.113726
0.091541
0.071695
0.038298
-0.016864
-0.063767
-0.088255
-0.133123
-0.170014
-0.155088
-0.143230
-0.125829
-0.107779
-0.061115
-0.018855
0.035419
0.063249
0.103037
0.112060
0.108152
0.102414
0.088437
0.074745
0.045672
-0.008324
-0.048735
-0.086289
-0.115849
-0.141484
-0.146884
-0.136529
-0.124886
-0.101345
-0.056125
-0.014924
0.026714
0.067663
0.104131
0.117333
0.124695
0.115729
0.094411
0.063672
0.022613
-0.004838
-0.072009
-0.109117
-0.175214
-0.158293
-0.142332
-0.147694
-0.126817
-0.092656
-0.061300
-0.016717
0.035380
0.070858
0.094926
0.099051
0.103088
0.095676
0.091661
0.067162
0.025640
-0.020857
-0.063209
-0.108898
-0.140332
-0.164504
-0.174825
-0.165857
-0.138762
-0.117376
-0.074319
-0.038951
0.010641
0.043363
0.065587
0.083684
0.106153
0.105951
0.088931
0.061641
0.013849
-0.027855
-0.081279
-0.120361
-0.157778
-0.181252
-0.179808
-0.171355
-0.156845
-0.133811
-0.059258
0.007002
0.040472
0.037069
0.074958
0.106038
0.115220
0.109143
0.080669
0.030935
-0.000863
-0.028700
-0.053928
-0.091908
-0.133577
-0.153535
-0.169534
-0.177272
-0.156063
-0.130171
-0.080070
-0.031629
0.004489
0.046456
0.097288
0.105143
0.103313
0.089989
0.063123
0.041023
0.011208
-0.028223
-0.080488
-0.127092
-0.162197
-0.176524
-0.184434
-0.171669
-0.146594
-0.122210
-0.082972
-0.034004
0.018612
0.054295
0.088047
0.090113
0.101501
0.087324
0.057422
0.034731
0.001641
-0.040933
-0.085757
-0.121567
-0.146481
-0.170300
-0.179772
-0.183077
-0.154829
-0.122891
-0.077317
-0.038784
0.022708
0.065088
0.076494
0.094229
0.092463
0.080562
0.057828
0.028329
-0.026045
-0.061331
-0.079955
-0.107730
-0.143445
-0.171100
-0.176201
-0.178464
-0.160901
-0.134538
-0.101305
-0.053428
0.028157
0.059181
0.090306
0.102409
0.099735
0.085399
0.057939
0.048806
-0.024721
-0.048494
-0.082516
-0.116219
-0.159324
-0.185141
-0.203896
-0.196245
-0.180710
-0.150719
-0.077607
-0.013307
0.016569
0.056643
0.082103
0.096292
0.100933
0.098037
0.081850
0.067204
0.015539
-0.038465
-0.090485
-0.139101
-0.164898
-0.183173
-0.178264
-0.176549
-0.158072
-0.099126
-0.019529
0.041177
0.048107
0.087143
0.122813
0.133623
0.147089
0.138156
0.099170
0.067824
0.037683
-0.019347
-0.070574
-0.091967
-0.121599
-0.137588
-0.166111
-0.159788
-0.142951
-0.097032
-0.045463
0.000631
0.049604
0.091196
0.112509
0.138052
0.148011
0.148598
0.133943
0.096761
0.046104
0.009066
-0.036140
-0.082904
-0.114567
-0.138655
-0.146638
-0.143147
-0.109374
-0.077968
-0.024679
0.011758
0.051141
0.096719
0.134262
0.146327
0.151205
0.135814
0.092283
0.053101
0.012537
-0.031409
-0.067027
-0.122206
-0.160845
-0.170449
-0.176625
-0.167001
-0.156017
-0.123993
-0.091812
-0.040112
0.000456
0.021267
0.075828
0.119691
0.124264
0.125999
0.115318
0.061405
0.003722
-0.043615
-0.086759
-0.137454
-0.183302
-0.206091
-0.215377
-0.215724
-0.190265
-0.152904
-0.112887
-0.055640
-0.017589
0.034632
0.069084
0.104038
0.122770
0.096344
0.067030
0.022640
-0.018965
-0.067685
-0.119242
-0.168268
-0.203142
-0.231410
-0.234499
-0.232807
-0.221998
-0.165915
-0.099440
-0.050226
0.004449
0.039928
0.079572
0.094233
0.099840
0.095196
0.072308
0.041991
-0.008115
-0.055592
-0.106642
-0.160865
-0.200287
-0.221957
-0.229648
-0.225065
-0.209230
-0.172873
-0.120575
-0.081210
-0.035897
0.013997
0.066095
0.097993
0.114752
0.089938
0.038141
0.036996
0.009139
-0.041850
-0.079790
-0.137915
-0.190006
-0.222722
-0.250074
-0.245939
-0.212762
-0.162674
-0.116651
-0.057506
-0.025444
0.008023
0.051442
0.086742
0.098645
0.099263
0.073979
0.036783
-0.001869
-0.054637
-0.113045
-0.152690
-0.182480
-0.205493
-0.197546
-0.181752
-0.146405
-0.113713
-0.044853
0.024689
0.086664
0.149840
0.196148
0.225640
0.250025
0.265883
0.266444
0.255093
0.238896
0.221682
0.192638
0.177639
0.189795
0.217790
0.225160
0.254714
0.317685
0.375374
0.454942
0.548327
0.637652
0.739552
0.807248
0.863112
0.888288
0.919909
0.917093
0.879672
0.814158
0.767125
0.690939
0.628417
0.573321
0.517071
0.459808
0.388806
0.350065
0.314425
0.307534
0.294272
0.282041
0.278006
0.271080
0.281506
0.272298
0.257545
0.240687
0.211604
0.176074
0.101154
0.052057
0.003325
-0.041402
-0.070087
-0.101747
-0.110624
-0.103195
-0.073680
-0.041424
0.005511
0.035609
0.052531
0.093919
0.162190
0.169948
0.178696
0.164656
0.127346
0.080137
0.037909
-0.013935
-0.056645
-0.111784
-0.149796
-0.157283
-0.152577
-0.144250
-0.124305
-0.085489
-0.042745
0.000550
0.050943
0.098729
0.122950
0.153998
0.151835
0.119093
0.084718
0.049136
-0.003314
-0.035987
-0.082754
-0.130361
-0.171946
-0.180926
-0.168252
-0.155442
-0.146739
-0.069333
0.011943
0.050802
0.083420
0.098964
0.108477
0.141788
0.147350
0.125106
0.083175
0.038824
-0.005333
-0.035539
-0.071524
-0.120867
-0.153304
-0.164483
-0.132987
-0.123348
-0.100303
-0.066610
-0.017440
0.037795
0.076166
0.108078
0.125606
0.125397
0.115319
0.122909
0.106235
0.074804
0.043553
-0.001672
-0.044262
-0.088669
-0.122379
-0.124846
-0.119184
-0.092978
-0.066747
-0.027621
0.009461
0.060799
0.103166
0.139184
0.159834
0.175454
0.168713
0.155994
0.135484
0.087049
0.057390
0.013761
-0.033553
-0.065760
-0.084373
-0.088622
-0.089840
-0.086057
-0.030687
0.010855
0.053842
0.089047
0.135800
0.166858
0.187173
0.194395
0.190150
0.188182
0.168534
0.136855
0.073510
0.030233
-0.008180
-0.029910
-0.042787
-0.048433
-0.040405
-0.025581
-0.000748
0.040981
0.096413
0.130822
0.172233
0.200604
0.222471
0.228445
0.230314
0.196227
0.169966
0.140846
0.119976
0.082278
0.031671
-0.001428
-0.026659
-0.038193
-0.032148
-0.015294
0.005639
0.054826
0.101802
0.138813
0.177702
0.187462
0.187536
0.236693
0.245026
0.219946
0.192789
0.160551
0.109187
0.048939
0.008596
-0.014296
-0.017104
-0.025782
-0.024350
0.000464
0.037571
0.072339
0.122338
0.152604
0.206219
0.214366
0.209983
0.238329
0.243942
0.216430
0.165674
0.111531
0.066898
0.015709
-0.018818
-0.037688
-0.054333
-0.054316
-0.047738
-0.031989
-0.003769
0.008885
0.098613
0.139247
0.160126
0.184555
0.214637
0.218601
0.193627
0.170090
0.130079
0.090969
0.043812
-0.009901
-0.044482
-0.084870
-0.094883
-0.099835
-0.102880
-0.081631
-0.058100
-0.006620
0.039257
0.077490
0.110511
0.135833
0.158341
0.157248
0.149510
0.141233
0.099771
0.065316
0.017446
-0.048086
-0.091367
-0.134073
-0.167004
-0.152687
-0.132908
-0.104098
-0.073922
-0.032079
0.004016
0.047418
0.085259
0.105466
0.107432
0.126845
0.139964
0.121170
0.075490
0.034884
-0.023488
-0.070702
-0.112454
-0.138294
-0.161301
-0.168618
-0.167587
-0.134057
-0.096687
-0.056321
-0.017197
0.025284
0.074639
0.108615
0.125928
0.129422
0.125006
0.095376
0.065212
0.018519
-0.047494
-0.083193
-0.120663
-0.143090
-0.178119
-0.186748
-0.160617
-0.142226
-0.109679
-0.068785
-0.014018
0.033356
0.083675
0.115717
0.146299
0.144577
0.123752
0.097752
0.058312
0.015728
-0.020603
-0.077506
-0.124141
-0.151582
-0.163706
-0.145726
-0.125468
-0.128647
-0.108369
-0.062897
0.000140
0.050054
0.087013
0.115697
0.129981
0.161877
0.150169
0.111058
0.062802
0.033512
-0.020419
-0.077038
-0.123435
-0.163535
-0.147983
-0.163750
-0.169546
-0.135197
-0.104260
-0.062141
-0.002653
0.050879
0.085695
0.122597
0.135822
0.148622
0.154627
0.135187
0.090067
0.040935
-0.020722
-0.056731
-0.098796
-0.141025
-0.165195
-0.162932
-0.158008
-0.145122
-0.098463
-0.054216
0.001333
0.055267
0.069558
0.106417
0.136592
0.161355
0.162101
0.150979
0.081234
0.062825
0.020767
-0.038344
-0.078927
-0.131099
-0.171313
-0.191272
-0.174799
-0.150585
-0.097262
-0.058701
-0.009893
0.050787
0.097195
0.122515
0.140477
0.149107
0.150415
0.125565
0.092544
0.045991
-0.011871
-0.060188
-0.108721
-0.147103
-0.178782
-0.177150
-0.177260
-0.157213
-0.128813
-0.071294
-0.012663
0.030816
0.074301
0.111608
0.130098
0.141298
0.146864
0.128369
0.100489
0.049363
-0.002241
-0.050682
-0.100321
-0.144592
-0.181757
-0.193977
-0.186032
-0.171661
-0.129136
-0.090485
-0.047264
-0.008409
0.051570
0.112736
0.165288
0.171398
0.147716
0.119742
0.079833
0.042697
-0.003502
-0.062152
-0.102683
-0.140795
-0.182072
-0.187189
-0.168680
-0.152242
-0.125655
-0.106851
-0.024436
0.029620
0.068219
0.100121
0.119173
0.118537
0.113996
0.110937
0.074677
0.027326
-0.022073
-0.067637
-0.113961
-0.156237
-0.167801
-0.164480
-0.168339
-0.161078
-0.129940
-0.112241
-0.037735
0.010097
0.058155
0.092351
0.115206
0.131900
0.122307
0.105875
0.064654
0.034953
0.023018
-0.049744
-0.097083
-0.140376
-0.166144
-0.182926
-0.176618
-0.173524
-0.144926
-0.107084
-0.066126
-0.027088
0.035312
0.086421
0.134617
0.139692
0.117633
0.092598
0.066794
0.040907
-0.014001
-0.061791
-0.116178
-0.150781
-0.149771
-0.167039
-0.168502
-0.164476
-0.132588
-0.101211
-0.053727
-0.010323
0.034818
0.076848
0.096809
0.105939
0.115843
0.109835
0.086579
0.043231
-0.007760
-0.063529
-0.108348
-0.148211
-0.164683
-0.180182
-0.185930
-0.164309
-0.131986
-0.088177
-0.049959
0.004578
0.036456
0.073323
0.094509
0.114767
0.115642
0.078061
0.065436
0.042732
-0.001036
-0.059847
-0.101116
-0.140929
-0.157244
-0.180382
-0.180837
-0.165323
-0.125317
-0.091169
-0.051323
0.019260
0.071303
0.081208
0.084779
0.084629
0.098376
0.078538
0.071224
0.047054
0.016563
-0.031240
-0.081140
-0.123368
-0.148238
-0.153517
-0.150046
-0.124240
-0.093648
-0.067246
-0.024890
0.032023
0.086759
0.118590
0.134465
0.141838
0.126418
0.115200
0.087311
0.060349
0.024486
-0.009675
-0.045985
-0.095805
-0.116938
-0.130484
-0.131809
-0.114841
-0.093949
-0.072391
-0.032359
0.026488
0.089785
0.123547
0.132716
0.146670
0.151236
0.137435
0.107394
0.072335
0.028585
-0.011410
-0.051563
-0.088577
-0.113126
-0.120975
-0.107506
-0.078182
-0.037873
-0.018022
-0.027356
0.042170
0.091358
0.120126
0.136212
0.138063
0.141247
0.111520
0.077618
0.036103
-0.004261
-0.044059
-0.086708
-0.121727
-0.157484
-0.161157
-0.150874
-0.135599
-0.102546
-0.060427
-0.033032
0.016979
0.065506
0.085830
0.105409
0.111856
0.095931
0.075765
0.055167
0.016711
-0.030757
-0.083400
-0.119495
-0.159548
-0.182058
-0.184647
-0.163940
-0.147761
-0.104007
-0.067769
-0.035532
0.000770
0.041216
0.076945
0.090243
0.092386
0.076883
0.047420
0.008083
-0.025924
-0.055317
-0.099224
-0.134440
-0.176011
-0.190902
-0.209714
-0.201804
-0.172084
-0.124399
-0.080344
-0.037767
-0.010512
0.032634
0.061375
0.082849
0.086509
0.081974
0.051824
0.023086
-0.006988
-0.054380
-0.094030
-0.136596
-0.156683
-0.174889
-0.188492
-0.190070
-0.178071
-0.139635
-0.097803
-0.049554
-0.016217
0.000935
0.067338
0.118877
0.114432
0.092328
0.064691
0.000378
-0.001676
-0.045794
-0.085313
-0.125532
-0.161502
-0.189115
-0.201797
-0.194678
-0.162127
-0.120102
-0.087180
-0.047515
-0.004867
0.016763
0.044172
0.057807
0.072218
0.074094
0.045966
0.028037
0.002361
-0.045441
-0.088806
-0.130511
-0.161965
-0.170170
-0.163528
-0.139584
-0.104527
-0.052161
0.004375
0.060941
0.120552
0.156216
0.199089
0.227350
0.251497
0.249843
0.241176
0.238404
0.245074
0.241082
0.234033
0.213219
0.227087
0.247343
0.274163
0.306469
0.368988
0.436815
0.508941
0.586838
0.691337
0.770806
0.845558
0.882662
0.913611
0.916782
0.881202
0.844467
0.818990
0.747268
0.684574
0.629551
0.574298
0.519790
0.454359
0.391451
0.334270
0.313097
0.298798
0.309757
0.302250
0.286137
0.276029
0.279359
0.285370
0.278241
0.257905
0.202161
0.139694
0.068207
0.008713
-0.039638
-0.058652
-0.070295
-0.080878
-0.067982
-0.047491
-0.017887
0.017127
0.055258
0.101763
0.135194
0.167457
0.174712
0.172296
0.165724
0.133490
0.100826
0.053576
0.009640
-0.025978
-0.064006
-0.108488
-0.131923
-0.156680
-0.146356
-0.120511
-0.078203
-0.035731
-0.016630
0.067123
0.107626
0.147683
0.149704
0.150191
0.146991
0.119888
0.088728
0.024651
-0.030519
-0.067494
-0.098698
-0.126793
-0.139683
-0.139057
-0.123471
-0.115276
-0.089769
-0.052328
-0.005573
0.051682
0.102086
0.133824
0.160775
0.147400
0.146166
0.120212
0.092032
0.054124
0.008276
-0.043051
-0.090060
-0.132547
-0.166958
-0.142761
-0.123145
-0.109661
-0.074699
-0.044025
0.011461
0.068890
0.122687
0.145546
0.177013
0.192970
0.168283
0.135934
0.095394
0.052991
0.015980
-0.020777
-0.054903
-0.087269
-0.115184
-0.133155
-0.118791
-0.096820
-0.047343
0.004620
0.037674
0.099667
0.145657
0.178768
0.211301
0.222074
0.201293
0.175028
0.139226
0.101370
0.053005
0.000649
-0.047172
-0.074603
-0.099546
-0.096838
-0.082110
-0.036624
-0.025493
0.014741
0.059869
0.120448
0.167217
0.196165
0.213891
0.229258
0.273005
0.245874
0.206843
0.155973
0.109870
0.044129
-0.004657
-0.041122
-0.062527
-0.063801
-0.058107
-0.054228
0.000392
0.051368
0.106584
0.163593
0.203641
0.250567
0.270665
0.268367
0.257920
0.237722
0.225139
0.167597
0.124191
0.067411
0.010238
-0.015521
-0.036661
-0.048648
-0.036831
-0.021237
0.003467
0.047005
0.080409
0.173981
0.242706
0.289435
0.304847
0.300014
0.264386
0.234213
0.214268
0.181964
0.136375
0.076992
0.025393
-0.006439
-0.031256
-0.043061
-0.043793
0.000161
0.025388
0.066049
0.111236
0.148439
0.189298
0.229734
0.260710
0.279908
0.274040
0.247565
0.214422
0.165960
0.118129
0.047017
0.002306
-0.032779
-0.062380
-0.076397
-0.074566
-0.040179
0.000422
0.027587
0.081211
0.132999
0.176911
0.194831
0.233033
0.242658
0.227481
0.197849
0.153625
0.119365
0.084808
0.022394
-0.031445
-0.075086
-0.115198
-0.118768
-0.106917
-0.079190
-0.036011
-0.005499
0.032115
0.091902
0.138852
0.173699
0.198965
0.197351
0.190106
0.161542
0.120270
0.077164
0.027700
-0.025651
-0.078356
-0.112687
-0.147703
-0.154394
-0.136479
-0.122226
-0.085731
-0.041607
-0.003556
0.043696
0.084291
0.134764
0.174132
0.179461
0.161833
0.116507
0.095036
0.063738
0.018257
-0.035788
-0.086063
-0.121455
-0.155330
-0.163213
-0.155139
-0.133388
-0.094345
-0.044946
-0.004587
0.048872
0.091921
0.104332
0.144438
0.155048
0.147450
0.124581
0.097145
0.042226
-0.020022
-0.057008
-0.114708
-0.142161
-0.172268
-0.180605
-0.178664
-0.144119
-0.094943
-0.042835
0.005301
0.062532
0.100854
0.130730
0.145442
0.134462
0.133240
0.134156
0.122283
0.062704
-0.001797
-0.058562
-0.098210
-0.115240
-0.140131
-0.155079
-0.139885
-0.125352
-0.090585
-0.040932
-0.000485
0.026876
0.087298
0.129316
0.162505
0.184509
0.184685
0.140484
0.105965
0.055026
0.010025
-0.045125
-0.101258
-0.122226
-0.139113
-0.151946
-0.149377
-0.122592
-0.089519
-0.040971
-0.000928
0.047015
0.096264
0.135700
0.156765
0.153169
0.168781
0.147001
0.118564
0.055130
0.016850
-0.042212
-0.089700
-0.117144
-0.152173
-0.147985
-0.150473
-0.114875
-0.089214
-0.034716
0.011261
0.057196
0.097391
0.119010
0.170021
0.173364
0.166146
0.144504
0.109150
0.060021
0.025463
-0.033594
-0.078149
-0.117751
-0.135791
-0.154785
-0.151939
-0.130188
-0.090978
-0.043575
0.006707
0.044616
0.091889
0.137665
0.148851
0.159745
0.152222
0.124883
0.110927
0.057221
0.015154
-0.026017
-0.072740
-0.109652
-0.140654
-0.153188
-0.149507
-0.143083
-0.115976
-0.071641
-0.017052
0.010202
0.071559
0.112704
0.166504
0.177941
0.166332
0.151496
0.113542
0.062881
0.016091
-0.036699
-0.078111
-0.098128
-0.132545
-0.160655
-0.152851
-0.125033
-0.091257
-0.073463
-0.026224
0.031344
0.084105
0.111327
0.141604
0.164072
0.156244
0.116811
0.084841
0.041003
-0.003834
-0.049121
-0.085354
-0.114378
-0.140442
-0.163822
-0.162477
-0.155494
-0.119917
-0.075562
-0.024680
0.030231
0.075358
0.107518
0.129884
0.141651
0.144859
0.126271
0.091773
0.055605
-0.003349
-0.053534
-0.099816
-0.136353
-0.159698
-0.158801
-0.163911
-0.142092
-0.112737
-0.072663
-0.041394
0.002696
0.046966
0.122443
0.149030
0.152744
0.148817
0.131451
0.080196
0.039456
-0.016145
-0.034236
-0.080188
-0.128204
-0.149679
-0.163076
-0.171410
-0.161387
-0.105407
-0.043955
-0.007933
0.012683
0.049112
0.075186
0.096499
0.126494
0.127663
0.116657
0.101556
0.062318
0.023562
-0.042692
-0.101403
-0.137434
-0.155242
-0.155594
-0.147572
-0.138579
-0.116688
-0.069294
-0.020833
0.000691
0.032393
0.093941
0.118670
0.130631
0.123590
0.115456
0.091904
0.055768
0.000068
-0.036382
-0.076424
-0.112562
-0.137130
-0.157903
-0.158346
-0.157182
-0.122085
-0.077280
-0.033997
0.017033
0.052008
0.089477
0.106688
0.113766
0.108169
0.096583
0.066282
0.041144
0.000935
-0.024446
-0.043647
-0.099070
-0.139255
-0.145352
-0.147809
-0.125048
-0.084117
-0.054721
-0.007649
0.031752
0.077727
0.113621
0.158261
0.154287
0.161844
0.145278
0.104627
0.063161
0.029045
0.012981
-0.043940
-0.085180
-0.096887
-0.103539
-0.113881
-0.105472
-0.089761
-0.049374
0.028932
0.048145
0.076628
0.097577
0.137126
0.176217
0.149702
0.129730
0.120428
0.077471
0.032293
0.010697
-0.043941
-0.061291
-0.078183
-0.098924
-0.103160
-0.090212
-0.052691
-0.019937
0.034614
0.074925
0.138783
0.153071
0.153167
0.135908
0.159652
0.142895
0.119091
0.082454
0.049757
-0.005050
-0.055688
-0.093339
-0.102859
-0.115836
-0.126950
-0.091971
-0.070095
-0.031245
0.007558
0.045036
0.061848
0.103192
0.123396
0.137210
0.130192
0.094715
0.069584
0.044240
0.002808
-0.058155
-0.096827
-0.122805
-0.147938
-0.147590
-0.134426
-0.120910
-0.095507
-0.063962
-0.014040
0.037255
0.061652
0.092544
0.106544
0.118346
0.121205
0.075106
0.044615
-0.001018
-0.039801
-0.079100
-0.125020
-0.150059
-0.188970
-0.185201
-0.162559
-0.132223
-0.114900
-0.072745
-0.030330
-0.011201
0.043698
0.100324
0.108765
0.112360
0.106137
0.067917
0.037234
0.012427
-0.032037
-0.076314
-0.124047
-0.162911
-0.184678
-0.198815
-0.172063
-0.130303
-0.118731
-0.066802
-0.013256
0.030291
0.066379
0.085142
0.093958
0.103775
0.087817
0.069096
0.039832
0.003117
-0.043034
-0.073384
-0.116632
-0.152898
-0.173108
-0.182785
-0.166157
-0.143737
-0.109256
-0.072705
-0.026906
0.018141
0.069431
0.100261
0.105430
0.113955
0.094673
0.074993
0.044827
0.001096
-0.045360
-0.090473
-0.145290
-0.182453
-0.195635
-0.210414
-0.176963
-0.138011
-0.098650
-0.045962
0.004337
0.041554
0.096448
0.144493
0.169147
0.178537
0.185415
0.179590
0.166305
0.136326
0.101360
0.084050
0.067887
0.051430
0.060625
0.075279
0.119488
0.175215
0.244034
0.321964
0.406617
0.476393
0.554001
0.614536
0.662186
0.696830
0.729256
0.750924
0.765679
0.771297
0.738144
0.716124
0.679771
0.633599
0.609455
0.600396
0.592038
0.597538
0.624795
0.651442
0.652704
0.635679
0.616199
0.583712
0.535120
0.494878
0.437251
0.367537
0.279366
0.201791
0.131606
0.100215
0.057994
0.020734
-0.001695
-0.034234
-0.036474
-0.035675
0.022491
0.053424
0.084035
0.111725
0.153501
0.173151
0.205651
0.224577
0.213140
0.182680
0.142321
0.110607
0.053334
-0.007205
-0.052946
-0.097862
-0.121055
-0.146492
-0.120619
-0.087313
-0.051181
-0.010016
0.034022
0.079225
0.118930
0.153499
0.179416
0.176566
0.160715
0.138608
0.101082
0.067913
0.015972
-0.033426
-0.085413
-0.117855
-0.138807
-0.152690
-0.150517
-0.124840
-0.082906
-0.038991
0.010422
0.062826
0.106899
0.144653
0.167234
0.190220
0.169149
0.140973
0.102300
0.058203
0.005272
-0.044986
-0.070094
-0.113878
-0.129170
-0.143106
-0.125686
-0.093814
-0.068104
-0.021284
0.042055
0.081828
0.124157
0.159974
0.182613
0.190102
0.175924
0.155041
0.121385
0.087966
0.046431
0.003263
-0.031911
-0.093013
-0.123048
-0.124940
-0.117064
-0.093127
-0.057731
-0.017889
0.023532
0.068128
0.119633
0.184817
0.211743
0.208248
0.211245
0.211855
0.171467
0.129300
0.074752
0.019291
-0.021030
-0.057435
-0.073363
-0.087769
-0.084440
-0.073934
-0.036548
0.015998
0.047945
0.099465
0.165367
0.202994
0.231239
0.246937
0.277939
0.252708
0.203583
0.151453
0.105120
0.056228
0.017196
-0.024533
-0.049847
-0.059948
-0.058667
-0.042000
-0.017392
0.036848
0.095228
0.157059
0.206851
0.235876
0.272105
0.287145
0.278987
0.258631
0.222312
0.184199
0.139226
0.096566
0.040328
0.000814
-0.012345
-0.018704
-0.021367
-0.007552
0.021303
0.073377
0.128134
0.170428
0.205741
0.246251
0.284207
0.298928
0.280748
0.251967
0.229574
0.190059
0.146483
0.095752
0.048307
-0.005688
-0.020304
-0.032495
-0.034093
-0.005434
0.028018
0.059501
0.108089
0.159864
0.214948
0.245166
0.284080
0.300636
0.296594
0.272903
0.229657
0.184157
0.138747
0.087591
0.039423
0.010455
-0.030847
-0.041146
-0.036951
-0.027534
-0.029692
0.030312
0.088611
0.144233
0.181155
0.225081
0.240935
0.245732
0.229236
0.224022
0.198806
0.164855
0.111934
0.064284
0.016836
-0.042240
-0.079764
-0.084147
-0.063890
-0.048326
-0.034258
-0.000025
0.044134
0.102240
0.139135
0.182366
0.198180
0.225137
0.204391
0.176661
0.142625
0.097447
0.070969
0.013820
-0.026121
-0.068004
-0.103225
-0.115290
-0.111892
-0.096038
-0.068152
-0.034580
0.014283
0.063115
0.096683
0.133048
0.159435
0.167883
0.164612
0.148244
0.114746
0.074181
0.030094
-0.018046
-0.062866
-0.109676
-0.122539
-0.121327
-0.125282
-0.115674
-0.084724
-0.062997
-0.021097
0.042924
0.092227
0.129205
0.152115
0.166969
0.158445
0.141274
0.106037
0.070584
0.018444
-0.020644
-0.065983
-0.117489
-0.147218
-0.170352
-0.152554
-0.136283
-0.104584
-0.079367
-0.026293
0.009059
0.083126
0.150988
0.164987
0.179222
0.131224
0.124233
0.097028
0.058949
0.017169
-0.013525
-0.032647
-0.090474
-0.112916
-0.130834
-0.126450
-0.114379
-0.089768
-0.047160
-0.010020
0.056601
0.110814
0.131865
0.136559
0.145936
0.143486
0.137224
0.094153
0.070540
0.041875
-0.009216
-0.044125
-0.085680
-0.113195
-0.112442
-0.120056
-0.093500
-0.080558
-0.040925
-0.002010
0.042292
0.074516
0.112194
0.134333
0.146530
0.147991
0.149798
0.109950
0.043085
0.029542
-0.007792
-0.038993
-0.056731
-0.074101
-0.099648
-0.117281
-0.093161
-0.067632
-0.032530
0.010708
0.056784
0.095289
0.120678
0.148573
0.150789
0.147045
0.128173
0.106146
0.066678
0.023700
-0.011661
-0.039658
-0.080863
-0.093720
-0.122469
-0.118156
-0.117211
-0.098315
-0.044436
0.008119
0.063409
0.108134
0.118524
0.132721
0.146513
0.123201
0.107546
0.083841
0.060138
0.041295
0.006462
-0.021548
-0.077760
-0.098326
-0.102934
-0.103578
-0.081402
-0.060104
-0.028514
0.008063
0.054306
0.079387
0.122260
0.139673
0.135822
0.141215
0.128857
0.083422
0.044032
0.009451
-0.025229
-0.067399
-0.101142
-0.120130
-0.134537
-0.109978
-0.087921
-0.079130
-0.050105
0.006970
0.037314
0.071565
0.115903
0.152823
0.144407
0.144301
0.108965
0.065642
0.016815
-0.018595
-0.064529
-0.080663
-0.102086
-0.109705
-0.115613
-0.094887
-0.085492
-0.065705
-0.047362
0.001698
0.035638
0.073723
0.111798
0.129368
0.117345
0.133873
0.112019
0.078339
0.029451
-0.016216
-0.057252
-0.086834
-0.118326
-0.143003
-0.127431
-0.138979
-0.114357
-0.070293
-0.046549
-0.006661
0.040153
0.078666
0.109199
0.116064
0.133798
0.136607
0.112103
0.077023
0.025453
-0.022038
-0.057325
-0.076432
-0.121476
-0.126615
-0.156121
-0.136924
-0.113111
-0.086607
-0.045736
0.009414
0.055345
0.087475
0.119194
0.121122
0.127410
0.113492
0.105060
0.074766
0.035010
-0.012232
-0.057908
-0.075221
-0.120242
-0.159606
-0.163651
-0.156383
-0.124350
-0.079591
-0.035599
0.007737
0.060691
0.083737
0.108057
0.120067
0.121586
0.123486
0.092249
0.059353
0.018842
-0.011925
-0.043909
-0.089206
-0.118165
-0.142885
-0.145513
-0.159754
-0.125471
-0.092520
-0.041953
-0.001660
0.044141
0.070417
0.104933
0.129710
0.137524
0.135237
0.084356
0.059472
0.035835
-0.015079
-0.059219
-0.103387
-0.139458
-0.161086
-0.167872
-0.133325
-0.096904
-0.072578
-0.036872
0.015280
0.067387
0.106975
0.139420
0.161987
0.168214
0.152907
0.139334
0.106842
0.074918
0.028748
-0.031687
-0.070455
-0.106329
-0.139731
-0.132896
-0.107117
-0.093532
-0.064921
-0.007625
0.028887
0.076272
0.112054
0.160565
0.186231
0.181846
0.183437
0.159413
0.121016
0.079969
0.034913
-0.024602
-0.061357
-0.093687
-0.111037
-0.105224
-0.112672
-0.087799
-0.048930
-0.015050
0.034086
0.086064
0.119077
0.137423
0.180876
0.204223
0.197433
0.163905
0.124359
0.085957
0.067879
0.003645
-0.069822
-0.109796
-0.140673
-0.151090
-0.146382
-0.123770
-0.081767
-0.037275
0.018122
0.068294
0.096926
0.115299
0.140138
0.146353
0.152167
0.135696
0.098351
0.056025
-0.004146
-0.062653
-0.102925
-0.138511
-0.152324
-0.170675
-0.161268
-0.152583
-0.121366
-0.068361
-0.018486
0.032952
0.072131
0.091700
0.130529
0.147654
0.118751
0.103682
0.070993
0.015452
-0.036356
-0.083646
-0.123660
-0.165696
-0.182298
-0.191521
-0.190255
-0.161193
-0.121411
-0.093887
-0.058244
-0.030827
0.038415
0.090743
0.128906
0.129119
0.126765
0.091810
0.065085
0.032497
-0.023935
-0.087225
-0.135619
-0.171481
-0.197554
-0.202841
-0.190567
-0.165087
-0.130181
-0.067472
-0.040133
-0.011198
0.058963
0.088913
0.107776
0.108880
0.118025
0.123702
0.085624
0.028781
-0.030451
-0.080219
-0.133095
-0.162086
-0.196512
-0.196710
-0.180700
-0.170286
-0.146150
-0.093304
-0.035118
-0.008708
0.038667
0.087537
0.117460
0.113389
0.088704
0.077919
0.053876
0.011198
-0.040726
-0.090106
-0.123384
-0.155447
-0.185318
-0.180760
-0.180947
-0.164739
-0.140961
-0.099333
-0.036298
0.018831
0.084517
0.133185
0.173927
0.199498
0.209695
0.203869
0.182438
0.152802
0.121532
0.089864
0.068103
0.052340
0.038946
0.067111
0.103277
0.143396
0.200058
0.277827
0.354141
0.438310
0.522163
0.579288
0.634804
0.671230
0.712204
0.750856
0.745072
0.743655
0.725788
0.714747
0.696872
0.656133
0.610129
0.594388
0.580848
0.573263
0.578704
0.613115
0.622638
0.611402
0.593365
0.549242
0.508946
0.479405
0.428264
0.362167
0.312986
0.247098
0.173985
0.097983
0.044986
0.008060
-0.014703
-0.033525
-0.044025
-0.018295
0.000159
0.027984
0.055465
0.080616
0.125905
0.170279
0.187737
0.204357
0.182817
0.166692
0.139028
0.085782
0.036504
0.012157
-0.031066
-0.074213
-0.112536
-0.112337
-0.088151
-0.077722
-0.064509
-0.037611
0.011312
0.055898
0.095089
0.113122
0.125476
0.137218
0.152377
0.134035
0.116173
0.068508
0.021214
-0.028043
-0.071395
-0.103098
-0.113018
-0.108223
-0.109932
-0.097136
-0.082780
-0.040765
0.004226
0.048016
0.088809
0.108873
0.124970
0.135616
0.128283
0.113079
0.091824
0.054588
0.008620
-0.033236
-0.070761
-0.093795
-0.109007
-0.124969
-0.119206
-0.097065
-0.074686
-0.049888
0.011184
0.061096
0.104833
0.135424
0.158447
0.155785
0.137503
0.141160
0.092672
0.061969
0.024232
-0.008695
-0.044880
-0.071746
-0.083694
-0.084556
-0.077465
-0.069924
-0.044644
-0.005949
0.045321
0.081199
0.127411
0.148360
0.165445
0.163836
0.155944
0.127370
0.121900
0.087470
0.055620
0.014018
-0.020969
-0.048389
-0.089682
-0.088452
-0.088710
-0.048790
-0.014755
0.010507
0.073079
0.111136
0.154062
0.187406
0.210119
0.202754
0.196641
0.163928
0.136219
0.116488
0.066724
0.021745
-0.001760
-0.021152
-0.036261
-0.037358
-0.018549
-0.005302
0.020079
0.063855
0.100559
0.136568
0.183061
0.219510
0.256182
0.256542
0.241086
0.219261
0.189868
0.158558
0.110152
0.061172
0.020301
0.001798
-0.018250
-0.027881
-0.003240
0.018548
0.053182
0.089233
0.136582
0.179010
0.210903
0.221292
0.244080
0.267674
0.256552
0.237737
0.203039
0.156384
0.094113
0.048054
0.037184
0.038900
0.004908
-0.032087
-0.027838
0.003308
0.049742
0.102666
0.138989
0.174885
0.213546
0.237866
0.249763
0.267542
0.246712
0.228961
0.187431
0.143543
0.090190
0.038073
0.002218
-0.023978
-0.055553
-0.068838
-0.042993
-0.008971
0.022854
0.063336
0.107245
0.155971
0.191900
0.208152
0.235090
0.233986
0.229967
0.204601
0.160337
0.108671
0.053049
0.006720
-0.038710
-0.070095
-0.107132
-0.115378
-0.094739
-0.059467
-0.017525
0.013827
0.039470
0.088055
0.149486
0.192577
0.208393
0.193232
0.185231
0.162595
0.112531
0.062312
0.014611
0.023671
-0.056859
-0.104113
-0.134521
-0.130898
-0.108014
-0.083655
-0.053691
-0.018855
0.013942
0.054758
0.108304
0.142236
0.159640
0.155862
0.134998
0.110398
0.058162
0.038566
0.000484
-0.022946
-0.057472
-0.103389
-0.156037
-0.166623
-0.146360
-0.130237
-0.096940
-0.061123
-0.009875
0.032464
0.076899
0.113837
0.127969
0.135423
0.125579
0.105463
0.098387
0.062566
0.013015
-0.053236
-0.105820
-0.130317
-0.147216
-0.170757
-0.155180
-0.145580
-0.124871
-0.067977
-0.013527
0.035916
0.084539
0.111904
0.134256
0.145782
0.137915
0.114808
0.087131
0.054409
0.000264
-0.060471
-0.095360
-0.120312
-0.136764
-0.151369
-0.151577
-0.132296
-0.109115
-0.067751
-0.011721
0.038512
0.077140
0.114435
0.151206
0.154189
0.145088
0.134899
0.091583
0.065915
0.009191
-0.056089
-0.091663
-0.121725
-0.142115
-0.150190
-0.114069
-0.110921
-0.096727
-0.082017
-0.021635
0.049409
0.081539
0.113693
0.135928
0.149635
0.145548
0.127576
0.096385
0.057461
0.008078
-0.040886
-0.076620
-0.120892
-0.146164
-0.150599
-0.136225
-0.086689
-0.085419
-0.057601
0.000824
0.057238
0.090025
0.115771
0.146709
0.142694
0.141054
0.124580
0.088311
0.034916
0.008068
-0.036939
-0.070755
-0.116317
-0.119046
-0.136336
-0.137134
-0.121508
-0.089556
-0.052268
-0.003779
0.044577
0.078560
0.103243
0.126901
0.140740
0.134061
0.116423
0.086626
0.057442
0.031456
-0.024594
-0.077177
-0.109439
-0.133099
-0.145704
-0.145374
-0.132390
-0.101723
-0.070591
-0.024284
0.017257
0.060192
0.090656
0.109585
0.130601
0.134406
0.125189
0.091090
0.052469
-0.002839
-0.059507
-0.112505
-0.127087
-0.117193
-0.141053
-0.142148
-0.120901
-0.108827
-0.076639
-0.029501
0.016282
0.053851
0.100967
0.147510
0.156297
0.139386
0.105733
0.078521
0.033540
-0.019129
-0.062069
-0.096850
-0.129264
-0.159742
-0.167248
-0.167580
-0.134986
-0.106058
-0.086390
-0.035749
0.023977
0.062649
0.086164
0.117914
0.142220
0.130821
0.103589
0.070751
0.037505
0.000885
-0.042715
-0.100769
-0.144323
-0.149714
-0.160411
-0.155720
-0.139998
-0.111779
-0.074074
-0.034965
0.004678
0.047224
0.079536
0.102534
0.102970
0.107974
0.090865
0.056528
0.004182
-0.017295
-0.074488
-0.101050
-0.101461
-0.144406
-0.158569
-0.147238
-0.141378
-0.116719
-0.064758
-0.013534
0.001866
0.025057
0.041830
0.098058
0.120077
0.105130
0.091969
0.068614
0.023370
-0.022098
-0.050677
-0.085828
-0.139690
-0.157377
-0.165035
-0.162642
-0.143611
-0.119399
-0.094370
-0.045421
0.001074
0.043395
0.068876
0.085562
0.099913
0.106624
0.109222
0.077480
0.046583
-0.009841
-0.068509
-0.111885
-0.143563
-0.150747
-0.170948
-0.161493
-0.146322
-0.120699
-0.089298
-0.045208
-0.007796
0.039736
0.078700
0.097203
0.109265
0.108973
0.092591
0.071896
0.028184
-0.021960
-0.081256
-0.124863
-0.136840
-0.145301
-0.153925
-0.161061
-0.149589
-0.120000
-0.091017
-0.047468
-0.011178
0.023142
0.067000
0.107620
0.117783
0.096879
0.078371
0.042280
0.007436
-0.024026
-0.063833
-0.104266
-0.125992
-0.140183
-0.152778
-0.159768
-0.135472
-0.105062
-0.051147
-0.006486
0.026671
0.054359
0.100250
0.115988
0.132770
0.133418
0.111643
0.093244
0.054417
0.007205
-0.033902
-0.066844
-0.097670
-0.107890
-0.133594
-0.137683
-0.124042
-0.095518
-0.052073
0.016602
0.060596
0.080479
0.116056
0.136976
0.143701
0.134521
0.110370
0.066553
0.034672
-0.009619
-0.051415
-0.037855
-0.059626
-0.081009
-0.109664
-0.109593
-0.093164
-0.054108
-0.005208
0.041291
0.081125
0.086503
0.119250
0.146618
0.153546
0.130877
0.125833
0.093987
0.061471
0.034496
-0.032850
-0.086729
-0.123614
-0.116201
-0.133234
-0.139233
-0.127535
-0.099576
-0.061467
-0.020507
0.028470
0.064097
0.093567
0.096949
0.112768
0.102954
0.075034
0.041631
0.008876
-0.041446
-0.065893
-0.104779
-0.144886
-0.156083
-0.162965
-0.160086
-0.152645
-0.126111
-0.072998
-0.050974
0.004644
0.041041
0.056933
0.056779
0.087510
0.106406
0.069712
0.040271
-0.008843
-0.052648
-0.091874
-0.128807
-0.165899
-0.183505
-0.191582
-0.182239
-0.158286
-0.123315
-0.105690
-0.057252
-0.007310
0.027738
0.061486
0.071311
0.080997
0.080050
0.044523
0.007911
-0.031271
-0.067097
-0.105062
-0.143374
-0.156011
-0.171820
-0.195908
-0.182143
-0.158257
-0.126889
-0.080540
-0.050807
-0.007914
0.026546
0.055395
0.082559
0.094957
0.073148
0.039454
0.011358
-0.020793
-0.058171
-0.098516
-0.144045
-0.166365
-0.183177
-0.189579
-0.174411
-0.165151
-0.166350
-0.101357
-0.042172
-0.013593
0.006617
0.056696
0.112831
0.108586
0.085449
0.030366
0.028136
-0.017085
-0.064493
-0.110931
-0.139296
-0.164088
-0.196474
-0.198689
-0.195869
-0.168067
-0.115361
-0.072653
-0.005967
0.044336
0.090783
0.121288
0.154416
0.169922
0.186514
0.172018
0.145954
0.109850
0.089220
0.071443
0.048966
0.034362
0.042601
0.071370
0.111606
0.180540
0.267394
0.338122
0.410813
0.482733
0.556262
0.600475
0.647036
0.688113
0.719767
0.733306
0.740170
0.731579
0.712452
0.679512
0.643609
0.612090
0.606368
0.590152
0.566409
0.568420
0.571283
0.581386
0.573022
0.547996
0.539687
0.507153
0.473131
0.433911
0.370173
0.294825
0.228594
0.160065
0.101607
0.037819
-0.014171
-0.063593
-0.061491
-0.049744
-0.059869
-0.042728
-0.016920
0.034377
0.073783
0.106593
0.142012
0.175698
0.184081
0.186305
0.164897
0.148109
0.114435
0.062226
0.012176
-0.045953
-0.088408
-0.121997
-0.137548
-0.138009
-0.133522
-0.126447
-0.094412
-0.032896
0.015707
0.056349
0.093136
0.117674
0.159930
0.161366
0.159135
0.137793
0.092702
0.030433
-0.023130
-0.075424
-0.114729
-0.143327
-0.157824
-0.173955
-0.149997
-0.111578
-0.085865
-0.047158
-0.020554
0.036219
0.059244
0.142300
0.168313
0.158614
0.139690
0.109846
0.080347
0.037124
-0.017944
-0.059433
-0.102687
-0.140068
-0.156339
-0.151375
-0.142261
-0.123363
-0.093939
-0.054202
-0.006268
0.055211
0.110419
0.147208
0.163634
0.155521
0.157557
0.136341
0.097363
0.057031
0.007373
-0.039899
-0.077552
-0.117335
-0.138226
-0.136179
-0.126574
-0.101458
-0.087914
-0.043345
0.027438
0.084252
0.130658
0.158578
0.180755
0.191448
0.179392
0.162054
0.127507
0.082952
0.037107
-0.013344
-0.050823
-0.098383
-0.109983
-0.119475
-0.105419
-0.101546
-0.044985
0.008322
0.061812
0.121858
0.162480
0.196542
0.219550
0.227140
0.226842
0.192783
0.159029
0.122775
0.086474
0.025705
-0.025090
-0.054303
-0.075627
-0.081929
-0.076470
-0.051363
-0.020845
0.030231
0.074942
0.128945
0.183103
0.226206
0.250427
0.255913
0.249763
0.218893
0.190898
0.141849
0.101557
0.058849
0.007345
-0.011681
-0.044889
-0.048810
-0.047929
-0.022242
-0.000710
0.039798
0.089891
0.139780
0.188008
0.232300
0.259714
0.261490
0.256287
0.238559
0.204636
0.163538
0.114994
0.059192
0.005843
-0.021390
-0.044740
-0.045696
-0.022990
-0.006556
0.002114
0.033877
0.063902
0.130724
0.174054
0.202651
0.237135
0.252284
0.243059
0.235968
0.215197
0.178051
0.115813
0.066994
0.019704
-0.016179
-0.050389
-0.050922
-0.048165
-0.038742
-0.023481
0.027907
0.067741
0.106199
0.138152
0.181456
0.209644
0.221283
0.203714
0.168520
0.144733
0.112869
0.073804
0.040930
-0.019989
-0.047927
-0.090886
-0.098298
-0.097999
-0.080621
-0.053102
-0.013545
0.026500
0.072746
0.121779
0.144740
0.158600
0.159167
0.172285
0.150911
0.115357
0.078060
0.029606
-0.020838
-0.054955
-0.090875
-0.120372
-0.124017
-0.128010
-0.115192
-0.091276
-0.055350
-0.014899
0.030461
0.067794
0.095949
0.122832
0.131512
0.134789
0.118572
0.088558
0.044283
0.007221
-0.035901
-0.083210
-0.114662
-0.136524
-0.139345
-0.142524
-0.135652
-0.117284
-0.073471
-0.024495
0.018437
0.054075
0.087497
0.103362
0.114616
0.108075
0.095038
0.056061
0.018691
-0.019101
-0.061396
-0.094354
-0.145689
-0.163328
-0.153051
-0.155108
-0.144569
-0.111505
-0.076425
-0.038641
0.001470
0.050587
0.064906
0.087595
0.107283
0.151305
0.144251
0.085644
0.022913
0.013330
-0.048783
-0.076190
-0.121134
-0.147891
-0.135425
-0.154536
-0.127520
-0.096586
-0.082769
-0.023238
0.007734
0.049427
0.078858
0.101226
0.133922
0.140528
0.112549
0.080746
0.041945
-0.012432
-0.053938
-0.096385
-0.123717
-0.144711
-0.144110
-0.134411
-0.112252
-0.084969
-0.045730
-0.023892
0.018182
0.059612
0.086662
0.117317
0.124856
0.121674
0.097749
0.058785
0.023283
-0.011717
-0.056099
-0.081739
-0.114782
-0.126830
-0.132721
-0.132172
-0.116392
-0.095197
-0.067451
-0.022137
0.032570
0.058066
0.100199
0.124349
0.129182
0.124444
0.093327
0.054238
0.032296
0.002580
-0.053111
-0.117573
-0.123131
-0.119761
-0.123717
-0.127783
-0.112774
-0.081759
-0.051181
-0.011788
0.038997
0.072151
0.099205
0.118642
0.118868
0.099560
0.092864
0.063576
0.027635
-0.022537
-0.062463
-0.091168
-0.135866
-0.156903
-0.150206
-0.139299
-0.130500
-0.094358
-0.059401
-0.020087
0.020314
0.066416
0.102014
0.111809
0.118320
0.107857
0.076549
0.031369
0.017263
-0.023990
-0.092171
-0.142637
-0.136842
-0.147143
-0.149679
-0.155770
-0.141763
-0.115381
-0.084069
-0.031872
0.024964
0.059459
0.078957
0.105478
0.122265
0.123446
0.087614
0.053270
0.012061
-0.032496
-0.085064
-0.121579
-0.153973
-0.180206
-0.184682
-0.183580
-0.152859
-0.108506
-0.063754
-0.024643
0.019969
0.057565
0.086320
0.081224
0.088789
0.081928
0.082284
0.044730
-0.015442
-0.054149
-0.058852
-0.100935
-0.140312
-0.166321
-0.171852
-0.159391
-0.142812
-0.112201
-0.068978
-0.022791
0.027817
0.063053
0.087882
0.110718
0.100925
0.110181
0.097211
0.049866
-0.005814
-0.054229
-0.088211
-0.121090
-0.159220
-0.202102
-0.221553
-0.168162
-0.140948
-0.107079
-0.072925
-0.018365
0.029874
0.072784
0.094007
0.102129
0.111665
0.101239
0.073488
0.008134
-0.006099
-0.063012
-0.105691
-0.138483
-0.164462
-0.185657
-0.197474
-0.184109
-0.162093
-0.119812
-0.090894
-0.034135
0.012760
0.070772
0.096967
0.101716
0.112044
0.115054
0.091924
0.046437
-0.004376
-0.054570
-0.095284
-0.141090
-0.174490
-0.196994
-0.203938
-0.183242
-0.159668
-0.123443
-0.095333
-0.036852
0.012039
0.046968
0.086179
0.097890
0.098753
0.091688
0.080018
0.036589
0.018193
-0.041188
-0.106186
-0.144879
-0.167757
-0.191629
-0.202997
-0.196688
-0.172816
-0.121393
-0.101832
-0.029028
0.038809
0.080833
0.119562
0.137190
0.135842
0.120279
0.102959
0.063925
0.022582
-0.024463
-0.057136
-0.082648
-0.127845
-0.172267
-0.191639
-0.140013
-0.134102
-0.101958
-0.062943
-0.011940
0.038836
0.091725
0.138432
0.158806
0.148873
0.138418
0.111696
0.071764
0.033324
-0.013255
-0.045647
-0.104678
-0.142083
-0.164517
-0.178919
-0.149848
-0.133923
-0.101663
-0.058139
0.003630
0.050859
0.091066
0.130251
0.165881
0.168407
0.160832
0.133895
0.107020
0.069734
0.022060
-0.023997
-0.073805
-0.115055
-0.140865
-0.152369
-0.162845
-0.138736
-0.118976
-0.088322
-0.022933
0.023646
0.046906
0.081282
0.115949
0.159713
0.148680
0.116997
0.081073
0.027262
-0.013664
-0.064562
-0.109169
-0.156809
-0.187205
-0.192299
-0.186316
-0.168684
-0.140487
-0.102752
-0.045576
-0.019878
0.027020
0.065798
0.083801
0.065723
0.072109
0.080624
0.053451
0.029525
-0.026399
-0.087785
-0.143610
-0.169960
-0.184472
-0.198308
-0.186999
-0.188346
-0.154701
-0.120625
-0.083210
-0.029122
0.019224
0.052928
0.067637
0.082551
0.074859
0.065589
0.033632
-0.000713
-0.052088
-0.088192
-0.139099
-0.161113
-0.190944
-0.218163
-0.225036
-0.202702
-0.171345
-0.119387
-0.070437
-0.026616
-0.000610
0.026958
0.060084
0.095315
0.082065
0.073902
0.030595
-0.006508
-0.049563
-0.091247
-0.142170
-0.168196
-0.188390
-0.206800
-0.201372
-0.187489
-0.180032
-0.141391
-0.081147
-0.029866
0.016142
0.049731
0.065964
0.076522
0.068599
0.050502
0.019194
-0.022204
-0.073582
-0.116988
-0.127211
-0.152951
-0.201712
-0.213225
-0.205528
-0.174452
-0.143331
-0.124088
-0.078575
-0.045059
0.003209
0.053797
0.048952
0.051373
0.031892
0.053874
0.039142
0.017728
-0.010578
-0.036638
-0.059973
-0.083767
-0.083258
-0.102089
-0.074243
-0.045503
-0.000455
0.056780
0.105336
0.170686
0.240651
0.304846
0.355000
0.382377
0.438632
0.468278
0.465093
0.456169
0.453882
0.425661
0.437662
0.449258
0.475248
0.488172
0.518462
0.576277
0.636270
0.688668
0.727378
0.747321
0.796929
0.813467
0.810237
0.808422
0.794613
0.726339
0.652304
0.535431
0.426821
0.314126
0.261157
0.177197
0.106727
0.043412
0.019494
0.028274
0.030674
0.052525
0.097598
0.124478
0.156734
0.185055
0.192425
0.189396
0.172544
0.152852
0.108056
0.069470
0.034987
-0.013425
-0.053252
-0.084854
-0.100740
-0.114766
-0.103337
-0.100941
-0.066781
-0.038918
0.001237
0.051313
0.089641
0.113995
0.119818
0.124739
0.109500
0.098353
0.061052
0.016298
-0.009367
-0.052461
-0.091564
-0.125771
-0.147088
-0.146743
-0.127491
-0.119835
-0.098048
-0.060284
-0.025906
0.017184
0.053771
0.092381
0.110007
0.121097
0.105433
0.092083
0.057392
0.013993
-0.019754
-0.056478
-0.104620
-0.149546
-0.143741
-0.145830
-0.127964
-0.108007
-0.085841
-0.055468
-0.009115
0.025614
0.057071
0.085935
0.112900
0.119641
0.112897
0.091457
0.070209
0.032588
-0.007459
-0.048306
-0.096031
-0.118441
-0.128389
-0.132665
-0.126712
-0.107706
-0.063205
-0.009326
0.008998
0.052176
0.086140
0.101906
0.120116
0.131726
0.129203
0.113700
0.084149
0.044591
0.012065
-0.033830
-0.059804
-0.079498
-0.085267
-0.105702
-0.094154
-0.080976
-0.050640
0.004189
0.037072
0.062701
0.113896
0.164388
0.182819
0.179904
0.167297
0.144568
0.107659
0.069064
0.040782
0.025666
-0.016152
-0.056561
-0.093155
-0.088111
-0.060051
-0.049113
-0.035952
0.030870
0.079677
0.124098
0.158408
0.195535
0.212838
0.223792
0.202257
0.174732
0.140715
0.106614
0.071914
0.030893
-0.015490
-0.043588
-0.055784
-0.061164
-0.046217
-0.034716
-0.001161
0.063665
0.111901
0.159722
0.184532
0.214656
0.232330
0.228208
0.208150
0.188098
0.156692
0.114143
0.079592
0.054917
-0.000172
-0.024785
-0.038977
-0.041677
-0.042860
-0.020156
0.023481
0.073498
0.109484
0.142489
0.186443
0.214564
0.242947
0.248464
0.223400
0.200463
0.170033
0.107604
0.055303
0.015311
-0.027904
-0.027316
-0.027977
-0.028792
-0.009893
0.001128
0.022158
0.057969
0.093151
0.128687
0.160578
0.194834
0.217093
0.202889
0.184030
0.201319
0.161383
0.104013
0.054269
-0.006260
-0.040973
-0.059852
-0.073199
-0.090377
-0.076694
-0.053255
-0.019831
0.010677
0.057886
0.102551
0.114791
0.139553
0.207911
0.184946
0.136149
0.120490
0.119508
0.082645
0.014892
-0.035452
-0.078525
-0.100153
-0.123882
-0.146778
-0.117871
-0.092412
-0.068955
-0.027395
0.005694
0.053635
0.106986
0.135570
0.159829
0.157560
0.132750
0.080641
0.042939
0.002456
-0.042728
-0.075979
-0.108122
-0.138072
-0.149543
-0.143698
-0.126225
-0.117894
-0.087852
-0.046595
-0.007577
0.037357
0.074272
0.105228
0.120715
0.123257
0.110070
0.085362
0.039408
-0.003668
-0.050642
-0.090829
-0.128963
-0.160657
-0.177247
-0.183444
-0.166134
-0.139265
-0.110557
-0.068581
-0.013026
0.029105
0.068341
0.100862
0.117614
0.129223
0.113255
0.075722
0.053920
0.002597
-0.033850
-0.081658
-0.131325
-0.163934
-0.186054
-0.167199
-0.174182
-0.156125
-0.124901
-0.068973
-0.026024
0.022358
0.087822
0.117832
0.120742
0.135571
0.125152
0.093426
0.063788
0.005312
-0.049867
-0.091531
-0.126845
-0.145518
-0.158493
-0.160678
-0.142949
-0.120004
-0.108347
-0.060041
0.001863
0.049855
0.081708
0.103984
0.128110
0.139972
0.132072
0.086741
0.039753
-0.010567
-0.029747
-0.063965
-0.109334
-0.151960
-0.171373
-0.172001
-0.158306
-0.133658
-0.065547
-0.041307
-0.003728
0.043751
0.088620
0.115305
0.139503
0.138777
0.120756
0.102433
0.061512
0.018441
-0.036872
-0.087611
-0.136074
-0.164776
-0.179208
-0.168022
-0.157909
-0.139329
-0.105661
-0.055280
-0.007147
0.043127
0.086869
0.140746
0.183311
0.166025
0.123776
0.087364
0.057602
0.007091
-0.050842
-0.087771
-0.122630
-0.157589
-0.189004
-0.203965
-0.164402
-0.133790
-0.099884
-0.058334
-0.001790
0.048386
0.085001
0.105729
0.118798
0.138309
0.117603
0.086356
0.051736
0.017625
-0.016600
-0.066877
-0.114282
-0.150008
-0.179914
-0.178203
-0.181392
-0.154817
-0.106318
-0.060510
-0.010832
0.037166
0.066745
0.110952
0.127050
0.127244
0.121939
0.082838
0.058632
0.006441
-0.042137
-0.096474
-0.143206
-0.174790
-0.190177
-0.181056
-0.167140
-0.151504
-0.122009
-0.083894
-0.033123
0.009551
0.052933
0.089004
0.099541
0.137911
0.116146
0.072314
0.030712
-0.005011
-0.038201
-0.090005
-0.129213
-0.175430
-0.197676
-0.192799
-0.180023
-0.162197
-0.137984
-0.066217
0.004835
0.038113
0.065353
0.092241
0.108845
0.111250
0.104732
0.059305
0.031527
-0.017186
-0.058794
-0.099393
-0.145824
-0.185465
-0.218350
-0.208782
-0.207195
-0.154978
-0.133693
-0.070533
-0.016847
0.031075
0.063653
0.086965
0.107623
0.113432
0.100300
0.083082
0.034163
0.019572
-0.052300
-0.122717
-0.149747
-0.168369
-0.206095
-0.205241
-0.166940
-0.126973
-0.096131
-0.075119
-0.032673
-0.001341
0.056578
0.098041
0.115969
0.111487
0.098049
