0.072577
0.121890
0.155986
0.191700
0.199171
0.195993
0.191075
0.183047
0.148683
0.113753
0.062921
0.006829
-0.020461
-0.063182
-0.094926
-0.099645
-0.089482
-0.058661
-0.021044
0.015716
0.048238
0.105883
0.136805
0.184351
0.187977
0.196882
0.196396
0.162936
0.131974
0.096290
0.055479
0.004005
-0.025861
-0.061552
-0.099735
-0.112936
-0.118544
-0.105213
-0.071068
-0.031661
0.020785
0.063751
0.113603
0.144619
0.165946
0.206992
0.197347
0.148245
0.111559
0.078098
0.017794
-0.034794
-0.066427
-0.104305
-0.128032
-0.144233
-0.148764
-0.107152
-0.066438
-0.025034
0.000301
0.031295
0.068400
0.090104
0.112051
0.150706
0.144404
0.108844
0.051940
0.019469
-0.009057
-0.034296
-0.078889
-0.097756
-0.128907
-0.164212
-0.155842
-0.140632
-0.118939
-0.071040
-0.035648
-0.011741
0.021277
0.067627
0.102011
0.112096
0.071121
0.048113
0.014328
-0.044268
-0.056988
-0.084894
-0.113202
-0.148404
-0.182180
-0.188816
-0.193387
-0.154032
-0.104821
-0.065832
-0.034037
-0.005617
0.041459
0.045798
0.069470
0.084139
0.071411
0.055974
0.034476
-0.015467
-0.076476
-0.125549
-0.172364
-0.192176
-0.211639
-0.196458
-0.182528
-0.163174
-0.110296
-0.076064
-0.041269
0.011276
0.030729
0.049344
0.078724
0.088498
0.091180
0.061077
0.020901
-0.012439
-0.070550
-0.126294
-0.159269
-0.186809
-0.209079
-0.205742
-0.173761
-0.183881
-0.176364
-0.109900
-0.046681
0.004253
0.066500
0.081001
0.091767
0.094961
0.105294
0.070762
0.030012
-0.005486
-0.049714
-0.094527
-0.139904
-0.182920
-0.203928
-0.195618
-0.178376
-0.171946
-0.152008
-0.099269
-0.032004
0.028634
0.047455
0.081528
0.105153
0.086128
0.097480
0.057803
0.067748
-0.002457
-0.027944
-0.087107
-0.119223
-0.168766
-0.186285
-0.193633
-0.184922
-0.170260
-0.131159
-0.082784
-0.039312
-0.024255
-0.000277
0.065180
0.100795
0.115271
0.099297
0.086054
0.048959
0.004868
-0.041105
-0.074730
-0.121962
-0.172291
-0.210326
-0.190381
-0.191271
-0.167230
-0.149792
-0.115997
-0.067791
-0.024545
-0.004245
0.056495
0.093322
0.084168
0.081919
0.070145
0.039759
0.014041
-0.041860
-0.088278
-0.132912
-0.167089
-0.173512
-0.195387
-0.194706
-0.178110
-0.147722
-0.103834
-0.054107
-0.006589
0.024986
0.054192
0.060637
0.103433
0.095077
0.056436
0.022311
-0.045048
-0.086917
-0.121798
-0.155946
-0.183725
-0.198323
-0.212449
-0.204999
-0.188780
-0.170282
-0.132633
-0.077356
0.016967
0.085940
0.082256
0.070986
0.074623
0.021901
-0.011394
-0.032047
-0.072511
-0.097215
-0.116799
-0.139843
-0.180990
-0.221177
-0.182157
-0.163825
-0.154560
-0.136797
-0.070247
-0.017920
0.019931
0.052413
0.096894
0.102778
0.110260
0.104686
0.065691
0.026436
-0.022919
-0.061987
-0.116145
-0.133269
-0.162478
-0.176932
-0.184958
-0.175442
-0.148428
-0.124064
-0.077936
-0.024415
0.003773
0.037078
0.080356
0.096467
0.122639
0.112089
0.077746
0.042681
-0.005329
-0.061558
-0.111113
-0.141711
-0.157593
-0.168606
-0.189483
-0.182986
-0.127421
-0.087524
-0.057366
-0.016675
0.031563
0.087321
0.106459
0.127260
0.129275
0.128272
0.099838
0.059088
-0.005050
-0.005059
-0.044511
-0.116252
-0.164616
-0.180946
-0.173971
-0.164634
-0.145189
-0.109476
-0.069699
-0.050425
-0.026505
-0.011547
0.049410
0.094753
0.078802
0.049653
0.034760
0.011832
-0.035292
-0.075067
-0.099864
-0.135664
-0.178432
-0.215992
-0.225676
-0.219176
-0.205896
-0.177221
-0.140699
-0.087952
-0.101271
-0.056938
0.015428
0.053671
0.057953
0.038155
0.024155
-0.014237
-0.049437
-0.094469
-0.137112
-0.166338
-0.207369
-0.229277
-0.238363
-0.242239
-0.228124
-0.198098
-0.174293
-0.124651
-0.092049
-0.049586
0.010866
0.029229
0.004553
0.022382
0.035184
0.012209
-0.026453
-0.082489
-0.143058
-0.172847
-0.223757
-0.220690
-0.234960
-0.233283
-0.210140
-0.183135
-0.149532
-0.104184
-0.065297
-0.020619
-0.002105
0.026351
0.020515
0.007369
-0.004741
-0.030277
-0.068678
-0.108966
-0.142489
-0.172783
-0.197489
-0.227050
-0.268595
-0.247876
-0.210723
-0.182417
-0.139124
-0.086763
-0.072634
-0.034673
-0.000944
0.023081
0.030416
0.006462
-0.027679
-0.054496
-0.091601
-0.130516
-0.154074
-0.210406
-0.247764
-0.263301
-0.257982
-0.241227
-0.206040
-0.160912
-0.120687
-0.068671
-0.001837
0.047695
0.106641
0.142179
0.149472
0.150317
0.153709
0.114538
0.082070
0.057663
0.023298
0.003867
-0.010822
0.023359
0.026306
0.052643
0.119143
0.214656
0.287356
0.349834
0.420351
0.495419
0.555437
0.612898
0.656156
0.687367
0.701764
0.699364
0.663449
0.679101
0.626645
0.572463
0.551395
0.527955
0.494770
0.474730
0.494148
0.525612
0.501954
0.473647
0.464278
0.420630
0.395142
0.367065
0.343279
0.302802
0.226358
0.145518
0.083077
0.009649
-0.021169
-0.069395
-0.102135
-0.117624
-0.141713
-0.150929
-0.137273
-0.091299
-0.047718
-0.027155
0.009943
0.049990
0.066897
0.086002
0.105023
0.103773
0.114569
0.061365
0.009870
-0.052165
-0.081831
-0.142441
-0.191101
-0.195840
-0.195475
-0.202900
-0.186701
-0.162604
-0.115240
-0.073467
0.006536
0.055592
0.069829
0.051831
0.049546
0.061123
0.033882
0.003864
-0.032412
-0.083180
-0.130262
-0.147890
-0.189630
-0.215694
-0.210439
-0.188510
-0.186638
-0.153492
-0.103595
-0.062886
-0.019034
0.028322
0.044133
0.042821
0.023984
0.021384
0.008489
-0.030982
-0.053886
-0.090464
-0.141035
-0.169202
-0.197816
-0.194503
-0.161640
-0.154917
-0.153084
-0.129626
-0.098142
-0.045973
-0.016800
0.014002
0.035657
0.060629
0.057470
0.059077
0.054048
0.008682
-0.042234
-0.071094
-0.119524
-0.157856
-0.176298
-0.208841
-0.206525
-0.195958
-0.155534
-0.128668
-0.090101
-0.018727
0.022753
0.062935
0.081087
0.092583
0.087152
0.089083
0.076098
0.054623
0.004058
-0.054226
-0.103179
-0.139330
-0.172627
-0.187224
-0.193808
-0.168222
-0.146132
-0.117530
-0.058926
-0.021024
0.043605
0.103143
0.101086
0.135353
0.170889
0.154348
0.123352
0.065241
0.022522
-0.046165
-0.044746
-0.069437
-0.100846
-0.137051
-0.155089
-0.133650
-0.115518
-0.078756
-0.045058
0.015205
0.084229
0.133832
0.143245
0.163751
0.170179
0.161332
0.113605
0.077004
0.064462
0.020293
-0.027769
-0.068558
-0.116100
-0.152478
-0.153715
-0.143563
-0.121368
-0.080424
-0.035417
-0.001286
0.044889
0.093706
0.127077
0.154992
0.188632
0.179795
0.157241
0.129954
0.068512
-0.012818
-0.049091
-0.077736
-0.132121
-0.160934
-0.144817
-0.143744
-0.125388
-0.080446
-0.027915
0.001950
0.029127
0.063418
0.109589
0.144070
0.163532
0.141180
0.125783
0.088358
0.046094
0.009042
-0.037002
-0.085737
-0.110959
-0.143032
-0.156837
-0.163717
-0.147855
-0.127003
-0.081161
-0.042489
0.003503
0.047524
0.080350
0.104155
0.106938
0.104996
0.089833
0.078309
0.049977
-0.043494
-0.108155
-0.128907
-0.137381
-0.183614
-0.165686
-0.166320
-0.157960
-0.106376
-0.059816
-0.026738
-0.015874
0.006395
0.012073
0.039154
0.078513
0.104992
0.085729
0.056988
-0.010957
-0.047839
-0.095846
-0.150935
-0.158223
-0.183527
-0.181358
-0.194370
-0.199740
-0.155019
-0.118366
-0.084549
-0.035574
0.023571
0.065819
0.073702
0.049031
0.021976
-0.010354
-0.027040
-0.031004
-0.070593
-0.123556
-0.166149
-0.184136
-0.206556
-0.212213
-0.196844
-0.202559
-0.161023
-0.105816
-0.064829
-0.014447
0.006246
0.030900
0.052021
0.050543
0.039887
0.015401
-0.022547
-0.046974
-0.098955
-0.148221
-0.179330
-0.196865
-0.220494
-0.225428
-0.232900
-0.193024
-0.139431
-0.096857
-0.046236
-0.005377
0.015000
0.046272
0.074381
0.076229
0.065713
0.027861
-0.016103
-0.054370
-0.097473
-0.127005
-0.150395
-0.194090
-0.224898
-0.216266
-0.216903
-0.194052
-0.154881
-0.086604
-0.055313
-0.021753
0.032620
0.057825
0.075627
0.082330
0.080042
0.078868
0.025213
-0.032653
-0.076075
-0.118194
-0.162112
-0.204875
-0.231150
-0.243878
-0.238258
-0.201824
-0.116315
-0.077228
-0.047944
-0.016833
0.026969
0.074058
0.097897
0.101542
0.107389
0.079632
0.043573
-0.007969
-0.063747
-0.098276
-0.136469
-0.181131
-0.190291
-0.219529
-0.222308
-0.186291
-0.157453
-0.132504
-0.081297
-0.005644
0.054947
0.076355
0.077610
0.095683
0.082457
0.079733
0.042662
-0.018488
-0.061172
-0.102057
-0.124012
-0.151156
-0.209384
-0.231897
-0.219157
-0.190231
-0.178965
-0.133929
-0.071830
-0.030048
0.007916
0.040622
0.066925
0.082740
0.089426
0.054405
0.018371
-0.026877
-0.088001
-0.145887
-0.160303
-0.165128
-0.189293
-0.192372
-0.219327
-0.178071
-0.160316
-0.131638
-0.089358
-0.039312
0.019273
0.060747
0.062916
0.053055
0.051169
0.038714
0.023210
-0.011806
-0.054635
-0.091757
-0.142732
-0.167201
-0.187773
-0.210122
-0.211351
-0.187774
-0.154636
-0.121045
-0.062484
-0.032557
0.005825
0.040424
0.049786
0.068848
0.056273
0.031685
0.016000
-0.029143
-0.053851
-0.104951
-0.145825
-0.177980
-0.202628
-0.189895
-0.183471
-0.147707
-0.113895
-0.076970
-0.033989
0.020076
0.036824
0.037980
0.059492
0.076088
0.090193
0.065923
0.039433
0.008342
-0.037988
-0.086481
-0.131736
-0.155506
-0.184739
-0.174344
-0.182498
-0.134130
-0.111934
-0.079730
-0.045106
-0.005314
0.023345
0.050689
0.089561
0.093463
0.084661
0.059453
0.034874
0.001801
-0.067860
-0.078903
-0.110389
-0.134626
-0.151099
-0.172457
-0.144336
-0.120554
-0.113311
-0.067468
-0.026183
0.038379
0.077517
0.098072
0.117499
0.121693
0.099058
0.084250
0.038421
-0.004106
-0.048793
-0.112286
-0.175984
-0.196196
-0.220811
-0.229787
-0.221922
-0.158492
-0.122312
-0.094790
-0.054839
-0.009114
0.038672
0.094807
0.100088
0.071491
0.059162
0.058214
0.012973
-0.038600
-0.097751
-0.131896
-0.187891
-0.242447
-0.230935
-0.242822
-0.237498
-0.236149
-0.202109
-0.142358
-0.077046
-0.030513
0.011594
0.038365
0.035795
0.053198
0.045082
0.007143
-0.020687
-0.069096
-0.120189
-0.173781
-0.212412
-0.244026
-0.258771
-0.273604
-0.261823
-0.234891
-0.198112
-0.150628
-0.118540
-0.072887
-0.022606
0.008545
0.033427
0.043226
0.049768
0.023048
-0.013678
-0.042960
-0.093896
-0.140100
-0.180191
-0.218688
-0.250073
-0.260358
-0.266707
-0.237378
-0.201858
-0.162865
-0.117166
-0.064857
-0.032933
-0.006967
0.001463
0.029871
0.026049
0.031771
-0.014687
-0.052037
-0.108010
-0.151834
-0.163015
-0.187784
-0.221909
-0.250023
-0.232033
-0.249991
-0.220429
-0.181666
-0.153329
-0.083643
-0.009371
-0.003727
0.030055
0.035419
0.027505
0.017635
0.006783
-0.040972
-0.049469
-0.078265
-0.099640
-0.108610
-0.120551
-0.119307
-0.116432
-0.063663
-0.020154
0.047112
0.096465
0.140506
0.209244
0.275204
0.321254
0.343357
0.372013
0.392338
0.393386
0.402191
0.378604
0.352761
0.337373
0.377065
0.379194
0.416429
0.447959
0.507091
0.571357
0.648996
0.700413
0.730443
0.768673
0.804574
0.787247
0.766006
0.750519
0.706708
0.609196
0.498856
0.397849
0.291645
0.168995
0.107331
0.058812
0.011478
-0.020239
-0.032776
-0.012828
0.016684
0.039440
0.092841
0.126071
0.164933
0.186040
0.162750
0.154454
0.126511
0.092633
0.035636
-0.029724
-0.075960
-0.117301
-0.153055
-0.156771
-0.167989
-0.177688
-0.152820
-0.116827
-0.059036
-0.027189
-0.005188
0.042801
0.072366
0.106581
0.103243
0.097119
0.086861
0.041841
-0.015735
-0.070050
-0.121291
-0.168933
-0.183511
-0.217137
-0.233286
-0.219305
-0.197154
-0.153946
-0.100265
-0.057836
-0.008317
0.036370
0.074391
0.072699
0.036783
0.080222
0.059123
0.019070
-0.033854
-0.060213
-0.080999
-0.143140
-0.187320
-0.174572
-0.192575
-0.198373
-0.186718
-0.158900
-0.108059
-0.063747
-0.016440
0.026241
0.056352
0.096484
0.127760
0.106479
0.084329
0.039055
-0.015395
-0.057388
-0.081581
-0.120996
-0.159071
-0.195933
-0.203938
-0.208734
-0.180343
-0.167814
-0.104277
-0.043281
0.008366
0.037287
0.074223
0.091832
0.115599
0.082532
0.075304
0.039586
0.009733
-0.028341
-0.061090
-0.121276
-0.116955
-0.127118
-0.125194
-0.146343
-0.153874
-0.123708
-0.075084
-0.025947
0.021826
0.068355
0.095767
0.100393
0.121825
0.111547
0.102735
0.072333
0.030205
-0.028640
-0.066105
-0.064652
-0.089887
-0.121395
-0.126715
-0.133202
-0.115805
-0.076473
-0.037609
0.022835
0.070484
0.102998
0.115330
0.129329
0.134866
0.141177
0.118207
0.078824
0.056016
0.010483
-0.006780
-0.035963
-0.090531
-0.098680
-0.101382
-0.110808
-0.076471
-0.031705
0.018540
0.068397
0.069713
0.128598
0.160698
0.178405
0.187113
0.183001
0.155750
0.068639
0.072433
0.046660
-0.007859
-0.088493
-0.114637
-0.096932
-0.091996
-0.097282
-0.077722
-0.034826
0.014381
0.072848
0.106930
0.139833
0.172610
0.171517
0.155713
0.159072
0.145362
0.114735
0.086905
0.029379
-0.026382
-0.070048
-0.114746
-0.119443
-0.131258
-0.127636
-0.103875
-0.078544
-0.026661
0.021423
0.048421
0.089278
0.133266
0.170679
0.182618
0.165531
0.133988
0.107603
0.055306
-0.015012
-0.053120
-0.099046
-0.130408
-0.150496
-0.171392
-0.161196
-0.138971
-0.102361
-0.069757
-0.026920
0.024368
0.058061
0.094292
0.125548
0.135781
0.125508
0.098707
0.067831
0.046124
0.002490
-0.063702
-0.119716
-0.167588
-0.194400
-0.192771
-0.191703
-0.171604
-0.117370
-0.074809
-0.020163
0.003855
0.013443
0.055761
0.098483
0.085411
0.093078
0.076455
0.045791
0.005108
-0.047184
-0.091913
-0.135457
-0.172000
-0.173784
-0.176614
-0.190242
-0.155838
-0.147116
-0.108356
-0.039822
-0.014780
0.026646
0.070176
0.080188
0.067710
0.066838
0.083224
0.064156
0.004115
-0.054699
-0.092873
-0.140737
-0.177594
-0.167015
-0.179434
-0.188650
-0.173671
-0.115124
-0.097135
-0.062886
-0.039401
0.014067
0.078826
0.088082
0.081568
0.074545
0.059016
0.013578
-0.013699
-0.047666
-0.080770
-0.123066
-0.159226
-0.167989
-0.175285
-0.163889
-0.149693
-0.088145
-0.065930
-0.021459
0.011888
0.052955
0.077160
0.085078
0.085666
0.104554
0.079710
0.052973
0.005308
-0.058327
-0.100349
-0.127720
-0.159107
-0.175666
-0.189267
-0.175917
-0.154017
-0.101636
-0.057766
-0.012647
0.030770
0.068556
0.082025
0.117600
0.123243
0.108162
0.084654
0.046285
0.004487
-0.045102
-0.101851
-0.139211
-0.168889
-0.169653
-0.167774
-0.159796
-0.150136
-0.117001
-0.071807
-0.018735
0.027606
0.068517
0.117281
0.120070
0.117752
0.118839
0.080174
0.045419
-0.006295
-0.078369
-0.113075
-0.131311
-0.145587
-0.168288
-0.163434
-0.179676
-0.148625
-0.102035
-0.089407
-0.026449
0.022636
0.059597
0.085737
0.110252
0.123508
0.114260
0.091042
0.063226
0.011587
-0.042098
-0.080976
-0.134428
-0.183796
-0.218251
-0.197162
-0.191556
-0.186183
-0.144432
-0.110119
-0.052312
0.000779
0.028133
0.080696
0.098220
0.123229
0.113903
0.076204
0.060226
0.037969
-0.016016
-0.077211
-0.114945
-0.141061
-0.167305
-0.193978
-0.174532
-0.149577
-0.128760
-0.092480
-0.045923
-0.000626
0.034435
0.063229
0.090525
0.096704
0.064034
0.067811
0.046495
0.002605
-0.039154
-0.105636
-0.152141
-0.123475
-0.114106
-0.154178
-0.185364
-0.198869
-0.140853
-0.097862
-0.055187
-0.017143
0.017679
0.055151
0.054588
0.067298
0.088309
0.079305
0.034196
-0.022759
-0.069352
-0.106904
-0.149597
-0.162854
-0.167659
-0.170036
-0.165824
-0.155405
-0.128845
-0.118533
-0.059777
-0.021580
0.014711
0.068850
0.101902
0.107766
0.093657
0.070050
0.040746
-0.008870
-0.051713
-0.092434
-0.127647
-0.163094
-0.168185
-0.152805
-0.163542
-0.144788
-0.104672
-0.057101
0.010208
0.061881
0.105051
0.118981
0.106087
0.111481
0.137208
0.113359
0.052373
0.006464
-0.019195
-0.048104
-0.095087
-0.141044
-0.154161
-0.170821
-0.174569
-0.149298
-0.111445
-0.066755
-0.013553
0.045221
0.111407
0.135878
0.147298
0.127411
0.109895
0.100260
0.069349
0.029384
0.012324
-0.022251
-0.101752
-0.140528
-0.151390
-0.147759
-0.148698
-0.133953
-0.087999
-0.049107
0.010935
0.046348
0.072319
0.106999
0.131646
0.159056
0.148715
0.100882
0.057432
0.012961
-0.032351
-0.076097
-0.131627
-0.178460
-0.213794
-0.216875
-0.201309
-0.170991
-0.138703
-0.101602
-0.057128
0.004244
0.054427
0.075220
0.087022
0.086602
0.079009
0.048936
0.047185
0.007039
-0.024582
-0.058140
-0.145265
-0.211546
-0.200844
-0.185235
-0.153110
-0.154059
-0.158346
-0.113528
-0.079338
-0.025930
0.005295
0.015054
0.045610
0.057343
0.041909
0.040114
0.011051
-0.036988
-0.052799
-0.107227
-0.160943
-0.200436
-0.204624
-0.204241
-0.183157
-0.178074
-0.183880
-0.124508
-0.068401
-0.034717
0.012458
0.042989
0.072475
0.081341
0.047594
0.009362
-0.021005
-0.035063
-0.073385
-0.129545
-0.169921
-0.210708
-0.223270
-0.211235
-0.149640
-0.153147
-0.147131
-0.121915
-0.081123
-0.024737
0.014419
0.035152
0.043476
0.055410
0.055562
0.032793
-0.013559
-0.042433
-0.062037
-0.095520
-0.147214
-0.187380
-0.210097
-0.220035
-0.228924
-0.226027
-0.158570
-0.107857
-0.050455
0.021971
0.062698
0.093863
0.109421
0.074161
0.067600
0.059038
0.036623
0.006480
-0.049505
-0.058934
-0.055458
-0.075905
-0.084068
-0.069725
-0.068365
-0.021007
0.028924
0.087878
0.164163
0.230882
0.307560
0.376767
0.415140
0.432940
0.471595
0.478820
0.463504
0.451967
0.437793
0.427799
0.401659
0.428494
0.441477
0.471338
0.541596
0.610989
0.668053
0.710430
0.757494
0.802759
0.813606
0.821599
0.835835
0.825792
0.767220
0.692753
0.577079
0.492561
0.393652
0.289405
0.184736
0.082809
0.019377
-0.024989
-0.017413
-0.041975
-0.020147
0.036231
0.091309
0.133069
0.161515
0.199726
0.201570
0.196490
0.206803
0.169009
0.133279
0.117421
0.077280
0.011306
-0.038317
-0.080993
-0.115444
-0.168350
-0.169848
-0.121624
-0.089334
-0.051387
-0.003070
0.035272
0.061779
0.088970
0.108940
0.123912
0.128455
0.114776
0.068818
0.033117
0.003204
-0.054421
-0.104780
-0.139861
-0.187394
-0.187408
-0.170156
-0.141911
-0.094936
-0.052033
-0.040327
0.000224
0.028052
0.051363
0.080094
0.097191
0.092693
0.092001
0.067803
0.026577
-0.018453
-0.056953
-0.104911
-0.144692
-0.133827
-0.144093
-0.135972
-0.113418
-0.063572
-0.038862
-0.013834
0.035759
0.056208
0.081722
0.111184
0.104628
0.093442
0.067997
0.037996
0.015624
-0.021119
-0.025283
-0.067909
-0.123268
-0.153908
-0.124375
-0.117700
-0.112151
-0.080267
-0.038478
0.005454
0.051839
0.098864
0.122544
0.132553
0.128738
0.152075
0.132450
0.086706
0.025150
-0.022025
-0.051120
-0.093974
-0.120347
-0.129514
-0.100157
-0.092740
-0.080782
-0.058408
-0.019563
0.005156
0.015888
0.088133
0.160026
0.199845
0.205143
0.192935
0.176120
0.134025
0.073850
0.014383
-0.037838
-0.047128
-0.071593
-0.092735
-0.103624
-0.093660
-0.062244
-0.036952
-0.025600
0.014296
0.117519
0.155073
0.193281
0.191938
0.217500
0.209148
0.212529
0.177904
0.133277
0.063806
0.022956
0.001983
-0.040629
-0.084322
-0.071519
-0.044133
-0.028275
-0.010053
0.023027
0.064639
0.139368
0.188990
0.232678
0.230370
0.238220
0.255487
0.220935
0.187446
0.142521
0.083199
0.045005
0.003585
-0.022635
-0.057521
-0.066891
-0.049598
-0.020819
-0.004387
0.013971
0.056250
0.117051
0.164648
0.185580
0.201396
0.206742
0.212308
0.206743
0.162969
0.124558
0.070616
0.014000
-0.027605
-0.070166
-0.080062
-0.074120
-0.082401
-0.084172
-0.043930
0.053109
0.081411
0.103470
0.129794
0.166104
0.182023
0.191352
0.188080
0.170702
0.142498
0.110602
0.048334
-0.005241
-0.053046
-0.075326
-0.032787
-0.051946
-0.082013
-0.088201
-0.059308
-0.001583
0.044981
0.075842
0.118753
0.151167
0.159127
0.148971
0.142807
0.127763
0.106634
0.053180
-0.001344
-0.044050
-0.081386
-0.103143
-0.111965
-0.133489
-0.117400
-0.094444
-0.074194
-0.030471
0.017909
0.052110
0.084259
0.114678
0.106779
0.097262
0.114885
0.102969
0.073210
0.004824
-0.032698
-0.074212
-0.094036
-0.143838
-0.173187
-0.150589
-0.115315
-0.092099
-0.083292
-0.052216
-0.012404
0.028750
0.062132
0.089546
0.099372
0.104455
0.120293
0.097965
0.059267
0.020855
-0.031841
-0.079460
-0.140694
-0.151560
-0.163677
-0.141937
-0.143246
-0.130642
-0.109852
-0.079387
-0.023044
0.037086
0.068232
0.138758
0.158162
0.163415
0.137223
0.110579
0.060924
0.012752
-0.017737
-0.047623
-0.081458
-0.154025
-0.160447
-0.147378
-0.149735
-0.133425
-0.106832
-0.058428
-0.002067
0.037397
0.089537
0.132378
0.146029
0.149138
0.135562
0.104798
0.090567
0.054138
0.016359
-0.018378
-0.082216
-0.104727
-0.153707
-0.158892
-0.166171
-0.145485
-0.108698
-0.090569
0.003349
0.044779
0.079624
0.134815
0.163318
0.159494
0.162154
0.145550
0.112991
0.068616
-0.004045
-0.037440
-0.070578
-0.103423
-0.141480
-0.163604
-0.171106
-0.116654
-0.085028
-0.048457
0.023381
0.058878
0.085735
0.101709
0.092832
0.081052
0.091704
0.122876
0.107202
0.045962
-0.020075
-0.075115
-0.086648
-0.110168
-0.101718
-0.089999
-0.095319
-0.095251
-0.071226
-0.044867
-0.009333
0.036403
0.040945
0.091765
0.118597
0.127123
0.130996
0.103434
0.073348
0.024720
-0.019234
-0.065701
-0.100520
-0.124720
-0.137771
-0.150279
-0.142397
-0.125252
-0.094027
-0.023113
0.028169
0.063683
0.087378
0.117006
0.142952
0.155138
0.130944
0.116756
0.074529
0.007579
-0.060522
-0.082255
-0.091282
-0.122834
-0.150119
-0.156229
-0.143590
-0.105478
-0.075341
-0.078209
-0.034095
0.032567
0.098598
0.133329
0.136109
0.118762
0.114527
0.138181
0.064570
0.024012
-0.035439
-0.093289
-0.136679
-0.147189
-0.148077
-0.171158
-0.169379
-0.132000
-0.087569
-0.051921
0.006835
0.041750
0.084620
0.120915
0.150921
0.155438
0.132239
0.102112
0.058352
0.029324
-0.032756
-0.089077
-0.119653
-0.159275
-0.178317
-0.189287
-0.160092
-0.122315
-0.107877
-0.075770
-0.018071
0.013494
0.042638
0.080359
0.105552
0.118978
0.111546
0.082237
0.081249
0.030873
-0.023772
-0.056186
-0.041463
-0.051820
-0.105167
-0.192257
-0.188943
-0.168311
-0.135736
-0.104938
-0.052141
-0.010186
0.033295
0.092763
0.162798
0.147549
0.115361
0.075368
0.067199
0.052835
-0.001506
-0.036753
-0.068136
-0.100711
-0.117340
-0.142812
-0.167248
-0.116989
-0.065968
-0.023583
0.026799
0.062804
0.096924
0.101361
0.117860
0.136527
0.141133
0.138046
0.107135
0.061901
0.011612
-0.028778
-0.060344
-0.102938
-0.124371
-0.122816
-0.105302
-0.094826
-0.061824
-0.023480
0.007831
0.045759
0.082341
0.118007
0.131327
0.148481
0.146129
0.136153
0.114679
0.062485
0.026148
-0.020142
-0.054614
-0.087646
-0.089964
-0.089558
-0.073689
-0.063224
-0.018306
0.002981
0.029295
0.064787
0.105988
0.117106
0.169099
0.168025
0.128474
0.104194
0.076772
0.025099
-0.029982
-0.064840
-0.101045
-0.125165
-0.139366
-0.133343
-0.127572
-0.122505
-0.100090
-0.040569
-0.001448
0.037260
0.098500
0.120277
0.155610
0.093641
0.109118
0.099703
0.058174
0.013747
-0.048728
-0.089076
-0.116750
-0.141051
-0.162584
-0.177620
-0.173826
-0.164556
-0.137918
-0.080783
-0.030158
0.023148
0.064473
0.106827
0.116999
0.119688
0.112451
0.099749
0.066758
0.016247
-0.039929
-0.092339
-0.138249
-0.170048
-0.201750
-0.219502
-0.211295
-0.185696
-0.136001
-0.095327
-0.040004
0.003508
0.036804
0.079428
0.073753
0.092443
0.105925
0.079032
0.047026
0.019485
-0.028870
-0.077342
-0.132433
-0.159938
-0.181386
-0.210910
-0.208969
-0.175191
-0.137632
-0.096565
-0.048536
-0.003029
0.031331
0.068863
0.079748
0.115443
0.118010
0.077528
0.050541
-0.005949
-0.056963
-0.088318
-0.126431
-0.150491
-0.184547
-0.178798
-0.189244
-0.167789
-0.133267
-0.102880
-0.057130
-0.023783
0.001674
0.054192
0.071930
0.076973
0.077613
0.071801
0.049844
0.015014
-0.031338
-0.063611
-0.094033
-0.118078
-0.141154
-0.111159
-0.075469
-0.053860
-0.016324
0.035322
0.083363
0.113098
0.180961
0.244162
0.287590
0.329049
0.341814
0.347493
0.358412
0.363874
0.343196
0.333798
0.330215
0.338747
0.366135
0.393554
0.421886
0.493300
0.576087
0.657206
0.736036
0.805542
0.862791
0.888914
0.898790
0.904005
0.859278
0.803723
0.757133
0.735816
0.648838
0.527047
0.421926
0.337224
0.258737
0.200193
0.168774
0.166275
0.132267
0.144209
0.185107
0.212305
0.244341
0.270752
0.283115
0.271708
0.257064
0.213672
0.162454
0.106106
0.061250
-0.002773
-0.059307
-0.084940
-0.099648
-0.100906
-0.115872
-0.083974
-0.067153
-0.025112
0.015073
0.072206
0.104179
0.141921
0.153032
0.157278
0.157794
0.133692
0.088750
0.045778
-0.021433
-0.059396
-0.100413
-0.135891
-0.150182
-0.163929
-0.165010
-0.146163
-0.120003
-0.081592
-0.010448
0.026892
0.065858
0.123347
0.139124
0.121455
0.135591
0.132595
0.086445
0.047396
-0.005244
-0.053998
-0.092964
-0.143474
-0.148469
-0.168864
-0.178114
-0.130453
-0.091232
-0.105775
-0.046142
0.011776
0.050937
0.065384
0.106603
0.096301
0.148634
0.118946
0.101495
0.097227
0.030475
-0.023825
-0.076536
-0.105063
-0.110288
-0.143970
-0.143507
-0.127076
-0.082489
-0.048605
0.006188
0.042302
0.079267
0.126385
0.162727
0.145681
0.135496
0.112719
0.093827
0.055515
0.013910
-0.027145
-0.086841
-0.126322
-0.124029
-0.107834
-0.075935
-0.067617
-0.039257
-0.042949
0.007682
0.102086
0.119641
0.138427
0.156601
0.144550
0.143360
0.100517
0.084095
0.078834
0.042975
0.006582
-0.047947
-0.075723
-0.096327
-0.098435
-0.106962
-0.077211
-0.030582
0.018286
0.067418
0.114138
0.149546
0.180704
0.201228
0.207708
0.198684
0.169131
0.136591
0.089301
0.043206
0.002441
-0.033730
-0.065849
-0.076518
-0.071267
-0.072687
-0.041764
-0.005264
0.055761
0.108721
0.139823
0.179169
0.194835
0.207567
0.232348
0.238578
0.243602
0.237302
0.155038
0.093305
0.021957
-0.022690
-0.038971
-0.040975
-0.056865
-0.063234
-0.053518
-0.017092
0.027836
0.071334
0.126388
0.164327
0.205622
0.235786
0.244890
0.228640
0.204436
0.170066
0.120662
0.076538
0.023688
-0.012301
-0.046790
-0.074338
-0.087348
-0.074140
-0.067504
-0.045738
0.012478
0.053829
0.095312
0.152910
0.172453
0.183536
0.193175
0.183284
0.162272
0.139779
0.099325
0.057907
0.011676
-0.020610
-0.053738
-0.075998
-0.105634
-0.119765
-0.106389
-0.047448
-0.009557
0.025337
0.055132
0.089967
0.111234
0.133800
0.147773
0.156503
0.131517
0.081335
0.042785
-0.007949
-0.052369
-0.089204
-0.121393
-0.137984
-0.151199
-0.145406
-0.120778
-0.078456
-0.045925
-0.008577
0.045918
0.077815
0.093146
0.095287
0.103766
0.103104
0.068712
0.051980
0.019281
-0.041216
-0.125324
-0.143769
-0.153634
-0.173565
-0.177373
-0.167925
-0.139675
-0.119969
-0.082891
-0.031195
0.011499
0.041515
0.074092
0.086738
0.087468
0.080207
0.054168
0.025664
-0.011224
-0.087504
-0.162438
-0.172779
-0.189880
-0.166527
-0.170093
-0.197429
-0.181558
-0.129446
-0.052522
-0.008412
-0.001021
0.036435
0.099748
0.111253
0.105056
0.076041
0.066259
0.057553
0.015375
-0.065674
-0.103563
-0.138035
-0.174766
-0.200923
-0.194477
-0.196259
-0.189504
-0.149493
-0.126729
-0.038495
0.010607
0.049083
0.079556
0.104550
0.105354
0.103746
0.081434
0.050987
0.000670
-0.039625
-0.101830
-0.148185
-0.171590
-0.184485
-0.197526
-0.194141
-0.178467
-0.141680
-0.113758
-0.062217
-0.018946
0.018278
0.065681
0.090757
0.118002
0.114492
0.092427
0.039702
0.004309
-0.036029
-0.090197
-0.130520
-0.174638
-0.184080
-0.179733
-0.179221
-0.174611
-0.150767
-0.114921
-0.078411
-0.035057
0.005534
0.039361
0.056998
0.088436
0.082572
0.054816
0.079889
0.033375
-0.043992
-0.103607
-0.137614
-0.156882
-0.196310
-0.205519
-0.204930
-0.197520
-0.159054
-0.095611
-0.042185
-0.021532
0.016363
0.046133
0.039580
0.087586
0.090422
0.044499
0.020023
0.004887
-0.032577
-0.070708
-0.134782
-0.185839
-0.215941
-0.202453
-0.179110
-0.161205
-0.142944
-0.115208
-0.076409
-0.038634
0.000066
0.026320
0.046761
0.043412
0.041111
0.024543
0.006073
-0.063530
-0.095137
-0.119924
-0.151403
-0.188177
-0.213636
-0.231288
-0.227523
-0.187689
-0.143765
-0.089348
-0.044926
-0.006206
0.013423
0.029901
0.040606
0.045091
0.038425
0.026618
-0.017379
-0.081391
-0.124192
-0.147986
-0.196514
-0.218177
-0.227472
-0.231838
-0.216340
-0.208780
-0.180096
-0.144960
-0.089122
-0.030345
0.000389
0.037725
0.040822
0.051764
0.048657
0.036231
-0.004922
-0.066364
-0.121664
-0.170041
-0.203641
-0.243132
-0.278393
-0.248976
-0.261404
-0.243256
-0.199550
-0.130548
-0.092626
-0.047970
0.000396
0.018063
-0.009149
0.025934
0.067266
0.071587
0.011343
-0.044215
-0.103615
-0.170181
-0.221200
-0.244128
-0.250343
-0.247135
-0.231771
-0.235327
-0.216531
-0.164027
-0.111086
-0.073767
-0.037599
0.000162
0.013427
0.026758
0.011661
0.000259
-0.015249
-0.059287
-0.106909
-0.151344
-0.203549
-0.228989
-0.231813
-0.250170
-0.251898
-0.222060
-0.197877
-0.170728
-0.147345
-0.094421
-0.038467
-0.013464
0.008028
0.014798
0.005582
-0.021494
-0.061439
-0.084978
-0.090701
-0.118773
-0.166090
-0.204782
-0.227706
-0.246698
-0.254774
-0.222305
-0.181152
-0.140741
-0.094226
-0.057152
-0.018924
0.001697
0.040583
0.042861
0.027319
-0.004390
-0.019792
-0.074261
-0.085189
-0.118514
-0.158067
-0.189391
-0.222188
-0.234956
-0.236807
-0.217162
-0.158668
-0.138563
-0.099985
-0.037917
-0.024156
-0.006361
0.040244
0.030261
0.030365
0.023588
-0.007736
-0.060309
-0.112021
-0.157349
-0.194855
-0.207724
-0.227244
-0.226068
-0.191799
-0.169866
-0.170367
-0.114070
-0.053342
-0.010368
0.021462
0.057348
0.069659
0.066058
0.050193
0.024099
-0.018150
-0.065906
-0.114704
-0.176037
-0.226149
-0.240856
-0.240166
-0.261705
-0.268955
-0.244745
-0.199989
-0.151973
-0.109246
-0.051803
-0.019233
0.001085
-0.005656
0.025652
0.002463
-0.014592
-0.043659
-0.071815
-0.128132
-0.191551
-0.236428
-0.262722
-0.294167
-0.299211
-0.311663
-0.305994
-0.267888
-0.200304
-0.158658
-0.092618
-0.068878
-0.031040
-0.015745
-0.013876
-0.017662
-0.050339
-0.098241
-0.131507
-0.196005
-0.216419
-0.253597
-0.292577
-0.297965
-0.299824
-0.309964
-0.285310
-0.239029
-0.218640
-0.176944
-0.139756
-0.097825
-0.058054
-0.044342
-0.026336
-0.021656
-0.048886
-0.094513
-0.141949
-0.190887
-0.221210
-0.254049
-0.286327
-0.280037
-0.307491
-0.317772
-0.301981
-0.287680
-0.250343
-0.190614
-0.165627
-0.149403
-0.118159
-0.084457
-0.025876
0.001298
-0.038092
-0.118167
-0.147992
-0.174319
-0.225342
-0.273723
-0.295917
-0.312202
-0.333342
-0.297157
-0.274219
-0.257885
-0.227170
-0.178684
-0.167954
-0.134869
-0.091889
-0.075785
-0.061517
-0.069641
-0.094313
-0.119655
-0.153099
-0.214802
-0.255996
-0.293771
-0.303396
-0.318253
-0.319048
-0.309140
-0.276981
-0.247698
-0.197910
-0.123625
-0.077556
-0.038363
0.001004
0.068482
0.093843
0.112411
0.133789
0.095585
0.052433
0.030882
0.021366
0.002694
0.001144
0.009019
0.046307
0.107294
0.158442
0.232025
0.308358
0.370251
0.468151
0.546032
0.605139
0.683646
0.718558
0.760780
0.751307
0.720966
0.656365
0.594721
0.531828
0.479085
0.435440
0.385995
0.348573
0.289890
0.256037
0.223200
0.201575
0.203980
0.174146
0.199880
0.223058
0.230031
0.203485
0.158139
0.126004
0.054583
-0.007908
-0.070125
-0.089435
-0.121070
-0.186692
-0.257184
-0.256040
-0.251349
-0.237201
-0.186299
-0.153327
-0.120756
-0.085689
-0.060125
-0.025274
0.006989
-0.002067
-0.017703
-0.044468
-0.057417
-0.072216
-0.174127
-0.172841
-0.211211
-0.243362
-0.257868
-0.257689
-0.267480
-0.290290
-0.262729
-0.213499
-0.160317
-0.114959
-0.096657
-0.050071
-0.061314
-0.050086
-0.050935
-0.044842
-0.069978
-0.139970
-0.180438
-0.207490
-0.253678
-0.291490
-0.303711
-0.306825
-0.298071
-0.285374
-0.244566
-0.213688
-0.157764
-0.121170
-0.094894
-0.064057
-0.038684
-0.047084
-0.048648
-0.055149
-0.077339
-0.135044
-0.209052
-0.232961
-0.266217
-0.278010
-0.295806
-0.293648
-0.291984
-0.259005
-0.234137
-0.200299
-0.155162
-0.113867
-0.087574
-0.025050
-0.010930
-0.026153
-0.049266
-0.075885
-0.108622
-0.108083
-0.144651
-0.204997
-0.250252
-0.267966
-0.300678
-0.300275
-0.277636
-0.259128
-0.225761
-0.173744
-0.115943
-0.057094
-0.025147
-0.007925
-0.002517
0.010871
-0.006632
-0.032669
-0.068062
-0.078902
-0.110318
-0.179009
-0.210578
-0.264834
-0.275642
-0.267984
-0.247169
-0.243582
-0.207220
-0.160746
-0.107071
-0.057087
-0.019467
0.011583
0.043689
0.035193
0.035125
0.013700
-0.010409
-0.049992
-0.107034
-0.158757
-0.207602
-0.217505
-0.241484
-0.251573
-0.251404
-0.232126
-0.202344
-0.143600
-0.079643
-0.021462
0.042437
0.067418
0.067306
0.073997
0.067387
0.055201
0.030161
-0.010954
-0.051789
-0.114660
-0.154993
-0.189060
-0.228210
-0.226804
-0.227555
-0.206448
-0.167640
-0.120187
-0.075899
-0.034500
0.003473
0.037882
0.048655
0.074305
0.059109
0.046429
0.015655
-0.016756
-0.076354
-0.121735
-0.174068
-0.197135
-0.196941
-0.213976
-0.199186
-0.191695
-0.167856
-0.131881
-0.088306
-0.050538
-0.015477
0.023692
0.033369
0.034507
0.034509
0.015771
-0.010757
-0.049876
-0.103846
-0.142577
-0.174352
-0.204331
-0.233357
-0.236811
-0.234593
-0.211824
-0.183839
-0.147374
-0.107216
-0.068865
-0.023483
0.004091
0.012899
-0.004724
-0.004209
-0.037760
-0.055068
-0.092363
-0.138435
-0.182901
-0.242463
-0.267500
-0.269011
-0.274215
-0.277388
-0.255723
-0.212756
-0.176487
-0.134754
-0.093457
-0.074727
-0.024498
-0.017931
-0.020875
-0.036711
-0.044972
-0.107661
-0.176633
-0.210569
-0.254778
-0.290103
-0.273583
-0.267681
-0.287290
-0.281406
-0.268361
-0.220065
-0.187622
-0.176391
-0.129660
-0.095224
-0.063512
-0.052796
-0.035712
-0.044053
-0.068979
-0.104358
-0.136143
-0.186933
-0.245694
-0.300277
-0.325454
-0.355350
-0.346633
-0.333609
-0.299142
-0.251956
-0.217712
-0.186210
-0.141783
-0.093464
-0.056240
-0.023782
-0.030262
-0.025989
-0.050887
-0.075601
-0.131961
-0.184051
-0.216691
-0.244795
-0.311445
-0.348398
-0.362534
-0.355284
-0.332783
-0.274626
-0.224226
-0.184331
-0.134923
-0.088746
-0.061166
-0.044745
-0.023572
-0.006752
-0.009423
-0.041272
-0.114007
-0.169213
-0.220311
-0.259462
-0.299572
-0.319338
-0.331185
-0.312180
-0.285386
-0.254964
-0.210417
-0.146815
-0.121227
-0.082145
-0.063700
-0.059123
-0.055251
-0.074431
-0.062571
-0.073243
-0.085904
-0.151508
-0.209169
-0.240486
-0.273507
-0.290199
-0.315347
-0.308294
-0.260864
-0.224387
-0.205469
-0.163456
-0.139961
-0.131039
-0.063476
-0.043110
-0.029709
-0.046229
-0.064577
-0.100558
-0.127829
-0.164663
-0.222286
-0.255062
-0.281064
-0.289575
-0.284727
-0.281916
-0.258657
-0.236794
-0.219990
-0.155929
-0.109897
-0.072693
-0.059825
-0.044136
-0.042502
-0.028122
-0.064000
-0.105537
-0.143249
-0.204286
-0.259917
-0.276279
-0.280916
-0.279612
-0.290613
-0.283005
-0.257253
-0.228181
-0.198747
-0.181191
-0.119484
-0.068979
-0.027342
-0.017178
-0.022470
-0.028499
-0.046726
-0.088238
-0.129280
-0.206070
-0.240652
-0.288308
-0.325994
-0.338109
-0.335319
-0.318001
-0.286323
-0.261607
-0.213995
-0.167129
-0.111478
-0.066026
-0.044874
-0.025530
-0.020752
-0.022542
-0.041709
-0.096029
-0.128984
-0.177209
-0.236573
-0.290516
-0.328879
-0.333435
-0.338305
-0.343577
-0.319593
-0.268457
-0.177068
-0.124692
-0.117317
-0.092118
-0.059187
-0.034554
0.001761
-0.020296
-0.044657
-0.084421
-0.139371
-0.177832
-0.205691
-0.259187
-0.293433
-0.318843
-0.355660
-0.351384
-0.328153
-0.310337
-0.252626
-0.198873
-0.162054
-0.123319
-0.081537
-0.047202
-0.025312
-0.043214
-0.053299
-0.077520
-0.104721
-0.159192
-0.222270
-0.246456
-0.268912
-0.305942
-0.322019
-0.305636
-0.314294
-0.307046
-0.242620
-0.184388
-0.167258
-0.127462
-0.079128
-0.049191
-0.039102
-0.037844
-0.048990
-0.079176
-0.120418
-0.168515
-0.203950
-0.260378
-0.294158
-0.318790
-0.324695
-0.304596
-0.284431
-0.262116
-0.214495
-0.170913
-0.135604
-0.112949
-0.064032
-0.062267
-0.065284
-0.067461
-0.098708
-0.106814
-0.139191
-0.182040
-0.217938
-0.237731
-0.264915
-0.299379
-0.301326
-0.280387
-0.247078
-0.214971
-0.180664
-0.137444
-0.100849
-0.065228
-0.028870
-0.002809
0.005194
-0.022770
-0.048924
-0.079579
-0.110460
-0.149102
-0.174981
-0.232089
-0.272641
-0.283453
-0.293667
-0.285068
-0.249114
-0.203138
-0.159126
-0.110900
-0.085421
-0.063674
-0.034686
-0.005971
-0.001542
0.001718
-0.013739
-0.046695
-0.093863
-0.146187
-0.180800
-0.212526
-0.246157
-0.252662
-0.269265
-0.282717
-0.261457
-0.204692
-0.138398
-0.074401
-0.038139
0.033683
0.056903
0.049123
0.054616
0.035032
-0.021376
-0.067834
-0.082692
-0.110782
-0.200751
-0.244986
-0.273024
-0.273204
-0.272486
-0.280790
-0.271503
-0.252819
-0.198052
-0.147487
-0.085384
-0.037592
-0.000622
-0.010486
-0.002070
-0.012129
-0.036712
-0.061498
-0.114399
-0.178131
-0.214434
-0.260970
-0.289696
-0.302577
-0.320607
-0.318493
-0.299975
-0.265107
-0.224001
-0.184273
-0.136110
-0.090910
-0.046416
-0.031668
-0.042279
-0.058694
-0.085208
-0.125744
-0.140541
-0.179678
-0.208281
-0.265354
-0.304328
-0.302663
-0.300351
-0.304670
-0.277387
-0.252816
-0.212754
-0.165657
-0.132875
-0.108037
-0.072528
-0.055137
-0.027476
-0.034421
-0.065930
-0.100267
-0.131281
-0.172281
-0.218305
-0.262008
-0.291474
-0.293895
-0.306157
-0.300800
-0.284713
-0.249057
-0.213091
-0.174212
-0.127311
-0.086722
-0.056329
-0.044125
-0.044453
-0.071481
-0.096158
-0.116274
-0.121524
-0.161800
-0.198788
-0.254764
-0.296465
-0.304553
-0.284131
-0.276529
-0.258071
-0.210611
-0.196168
-0.143834
-0.108016
-0.087892
-0.047331
-0.032943
-0.032612
-0.036306
-0.071392
-0.104368
-0.154905
-0.199367
-0.233975
-0.279818
-0.306679
-0.290422
-0.283783
-0.261872
-0.223517
-0.158606
-0.095926
-0.055046
0.003458
0.053204
0.088054
0.094763
0.147614
0.148225
0.149825
0.127307
0.089731
0.061418
0.031329
0.063307
0.078889
0.096589
0.127657
0.180107
0.232859
0.277372
0.352405
0.464536
0.569384
0.645604
0.708088
0.761065
0.790621
0.791163
0.780237
0.736359
0.685700
0.614289
0.556347
0.491923
0.422785
0.365412
0.289164
0.225422
0.189729
0.167809
0.161548
0.174359
0.178078
0.142396
0.162565
0.182810
0.181523
0.170754
0.140587
0.094529
0.057684
0.013565
-0.037502
-0.091131
-0.130110
-0.161377
-0.171190
-0.181103
-0.168276
-0.141193
-0.118509
-0.069497
-0.036404
0.002861
0.037437
0.068451
0.071330
0.057069
0.039983
0.025701
-0.022925
-0.078234
-0.125724
-0.162985
-0.198435
-0.211748
-0.216212
-0.227074
-0.215114
-0.187921
-0.148544
-0.102839
-0.049710
-0.019292
0.003545
0.026355
0.019446
0.043010
0.031153
-0.012383
-0.055409
-0.115704
-0.143643
-0.180879
-0.221687
-0.233921
-0.246207
-0.206203
-0.184400
-0.158258
-0.110135
-0.069561
-0.026644
0.002697
0.034468
0.044471
0.038248
0.030174
-0.007167
-0.016012
-0.065108
-0.114840
-0.134391
-0.150995
-0.194107
-0.202751
-0.216531
-0.200086
-0.202165
-0.164205
-0.105179
-0.083701
-0.071193
-0.036686
0.034720
0.109276
0.156154
0.122576
0.091855
0.069282
-0.000458
-0.095561
-0.151773
-0.182849
-0.177871
-0.181652
-0.194578
-0.184633
-0.190363
-0.168435
-0.060290
0.012345
0.013893
0.049846
0.083911
0.110084
0.120019
0.113178
0.096714
0.063420
0.010628
-0.041975
-0.093257
-0.125248
-0.153503
-0.168564
-0.173910
-0.165248
-0.142405
-0.109792
-0.062715
-0.010030
0.045352
0.092347
0.121216
0.146805
0.167747
0.158131
0.137787
0.110454
0.060679
0.012547
-0.028116
-0.076445
-0.104294
-0.116503
-0.108064
-0.114141
-0.098179
-0.067342
-0.020175
0.019876
0.052938
0.105328
0.156965
0.178809
0.180007
0.167903
0.161362
0.138548
0.100385
0.041298
-0.014862
-0.037250
-0.064577
-0.077091
-0.087708
-0.098949
-0.089491
-0.044373
0.001619
0.055585
0.081938
0.127469
0.138373
0.148298
0.179155
0.166024
0.157325
0.119247
0.085162
0.045669
0.001389
-0.054925
-0.080122
-0.083346
-0.093280
-0.081610
-0.061357
-0.037216
0.002213
0.040936
0.085245
0.113797
0.144630
0.159614
0.166591
0.162309
0.140222
0.095652
0.045001
-0.016509
-0.051171
-0.068037
-0.088492
-0.095715
-0.097505
-0.071545
-0.069125
-0.065761
-0.042390
0.053451
0.081758
0.083916
0.118122
0.140907
0.138280
0.127454
0.106490
0.057846
0.014341
-0.035069
-0.065712
-0.098404
-0.132642
-0.149106
-0.149703
-0.141103
-0.130414
-0.088563
-0.058427
-0.013214
0.020371
0.047493
0.096669
0.111710
0.138185
0.131704
0.066618
0.042758
0.006666
-0.047821
-0.080654
-0.119212
-0.162761
-0.196580
-0.212230
-0.191473
-0.178898
-0.141641
-0.107382
-0.053858
0.003586
0.053216
0.087607
0.099813
0.112199
0.099309
0.076729
0.049262
0.001954
-0.042383
-0.069991
-0.131483
-0.181100
-0.202888
-0.205162
-0.205441
-0.188666
-0.168603
-0.110035
-0.048593
-0.004129
0.044874
0.086513
0.101315
0.096924
0.080506
0.069926
0.058005
0.022530
-0.031290
-0.094043
-0.137526
-0.168132
-0.181434
-0.189563
-0.174646
-0.163646
-0.129771
-0.082559
-0.042544
0.002887
0.040228
0.068455
0.091112
0.101992
0.082729
0.054994
0.028922
-0.011608
-0.055269
-0.071190
-0.103860
-0.133828
-0.152263
-0.174121
-0.165461
-0.136016
-0.104446
-0.064862
-0.019331
0.012430
0.076394
0.106198
0.092843
0.076195
0.073047
0.069250
0.041791
0.003656
-0.043974
-0.095699
-0.151272
-0.176985
-0.136482
-0.127339
-0.109147
-0.118768
-0.105818
-0.049615
-0.009657
0.030166
0.057715
0.087921
0.115138
0.114003
0.099862
0.092876
0.055376
-0.003324
-0.062538
-0.115131
-0.120371
-0.158321
-0.169544
-0.168975
-0.158383
-0.134432
-0.114450
-0.027907
0.011922
0.028968
0.069500
0.130708
0.133701
0.126407
0.122302
0.075790
0.007558
-0.021277
-0.041766
-0.083478
-0.139249
-0.170919
-0.180796
-0.184029
-0.182899
-0.142187
-0.109157
-0.083328
-0.022182
0.020017
0.060500
0.102906
0.120838
0.110999
0.106919
0.073977
0.053199
0.012026
-0.030486
-0.079297
-0.140692
-0.175531
-0.203487
-0.210976
-0.179607
-0.148583
-0.122394
-0.099401
-0.058849
0.000426
0.049738
0.102896
0.120398
0.115770
0.113756
0.090623
0.045355
-0.003753
-0.050608
-0.081441
-0.120416
-0.146390
-0.168357
-0.184176
-0.190319
-0.171299
-0.158882
-0.105388
-0.029097
0.005843
0.027819
0.040060
0.096580
0.134757
0.141476
0.114789
0.063524
0.013404
-0.025214
-0.060750
-0.119625
-0.152523
-0.167238
-0.164213
-0.160575
-0.149468
-0.133331
-0.096761
-0.053181
-0.013791
0.007930
0.053619
0.091880
0.106231
0.103234
0.092648
0.028414
-0.011902
-0.038684
-0.065532
-0.118575
-0.171005
-0.210988
-0.186661
-0.176436
-0.147602
-0.101963
-0.062835
-0.034975
0.006774
0.057696
0.085879
0.095254
0.102573
0.092990
0.054018
-0.001833
-0.030523
-0.048667
-0.060873
-0.120628
-0.172924
-0.150249
-0.136420
-0.139625
-0.143662
-0.084147
-0.047549
-0.006647
0.032287
0.101810
0.134459
0.125699
0.103711
0.088938
0.063569
0.040616
0.007860
-0.026338
-0.067334
-0.101881
-0.114370
-0.138455
-0.153398
-0.131320
-0.110532
-0.068923
-0.030365
0.001488
0.051289
0.102874
0.102038
0.150066
0.135515
0.109224
0.098164
0.086160
0.051570
0.010528
-0.031922
-0.075568
-0.111150
-0.127107
-0.126048
-0.104264
-0.088657
-0.063884
-0.026281
0.017528
0.076229
0.119676
0.134136
0.166258
0.192246
0.165332
0.141565
0.090949
0.038601
-0.006482
-0.036327
-0.081182
-0.112945
-0.150609
-0.175502
-0.169799
-0.152672
-0.118073
-0.070779
-0.036704
0.015621
0.056189
0.100578
0.122173
0.137489
0.124349
0.096948
0.070275
0.021390
-0.047399
-0.094081
-0.127764
-0.137311
-0.164410
-0.195310
-0.192874
-0.186652
-0.136111
-0.096930
-0.053070
-0.040675
0.018597
0.093609
0.097050
0.080595
0.080165
0.061954
0.021769
-0.002666
-0.061170
-0.092307
-0.124471
-0.169670
-0.196525
-0.212916
-0.206582
-0.180537
-0.156030
-0.129946
-0.064632
-0.018591
0.028064
0.055196
0.064732
0.052975
0.053279
0.055929
0.032532
-0.004669
-0.050978
-0.078596
-0.122647
-0.191835
-0.204610
-0.194899
-0.186289
-0.167971
-0.130941
-0.097308
-0.050348
-0.016362
0.031628
0.064513
0.062372
0.055708
0.037676
0.039405
0.041997
-0.000352
-0.073695
-0.100352
-0.105314
-0.144042
-0.167271
-0.191064
-0.186842
-0.192655
-0.186797
-0.138557
-0.040193
-0.004838
0.033102
0.043321
0.065655
0.083031
0.057862
0.039981
-0.002833
-0.046788
-0.095385
-0.105170
-0.139388
-0.152066
-0.149338
-0.143916
-0.132521
-0.100665
-0.076544
-0.017940
0.059116
0.121219
0.188726
0.188954
0.221589
0.251382
0.279591
0.269491
0.237336
0.221589
0.205079
0.191399
0.182353
0.193019
0.204725
0.229527
0.280013
0.316700
0.381435
0.466454
0.553418
0.639743
0.703775
0.762008
0.833586
0.875110
0.869136
0.837915
0.795722
0.753294
0.694754
0.630572
0.566339
0.490575
0.426320
0.342168
0.268454
0.228694
0.218958
0.221591
0.243446
0.234658
0.217560
0.252010
0.251925
0.262326
0.226183
0.183498
0.169053
0.124715
0.055846
-0.022972
-0.083201
-0.114257
-0.109795
-0.092711
-0.080019
-0.084656
-0.063463
-0.026888
0.024751
0.065270
0.090805
0.122444
0.161851
0.162030
0.147862
0.122314
0.090739
0.059720
0.005309
-0.051059
-0.096398
-0.132011
-0.154904
-0.154085
-0.142296
-0.135740
-0.113077
-0.072403
-0.014827
0.009093
0.055652
0.075568
0.100711
0.121302
0.120207
0.101340
0.063713
0.025099
-0.016674
-0.068282
-0.106777
-0.133961
-0.149570
-0.157659
-0.161070
-0.152105
-0.114856
-0.076577
-0.024721
0.044506
0.076699
0.091920
0.106568
0.120410
0.117440
0.100197
0.066596
0.016375
-0.015502
-0.060966
-0.087945
-0.115380
-0.122936
-0.116344
-0.102464
-0.097967
-0.073068
-0.029380
0.007745
0.016293
0.047347
0.121703
0.128927
0.133991
0.120729
0.093011
0.054100
0.034666
0.035640
-0.019807
-0.082292
-0.097867
-0.101569
-0.131136
-0.111071
-0.079804
-0.062358
-0.012083
0.028065
0.063233
0.106591
0.144981
0.162719
0.169579
0.152963
0.121701
0.078192
0.051322
0.024375
-0.003138
-0.039228
-0.075045
-0.104161
-0.122038
-0.099721
-0.060263
-0.030172
0.014556
0.065964
0.111794
0.151702
0.178540
0.156109
0.196876
0.227154
0.187773
0.150181
0.100031
0.050302
-0.000433
-0.017028
-0.049346
-0.085045
-0.079821
-0.059176
-0.060497
-0.011321
0.031812
0.086156
0.133208
0.169431
0.198188
0.204539
0.228710
0.241884
0.235195
0.181960
0.141916
0.089210
0.058087
0.020233
-0.025918
-0.050251
-0.056237
-0.061737
-0.045288
-0.004542
0.024574
0.084223
0.124961
0.173290
0.204744
0.221826
0.233841
0.215261
0.212920
0.183413
0.149363
0.098683
0.043632
-0.016599
-0.041935
-0.067167
-0.074333
-0.061294
-0.055223
-0.052231
-0.001353
0.060624
0.119491
0.170873
0.205206
0.191742
0.210493
0.213773
0.185476
0.148092
0.118340
0.058350
0.017309
-0.034709
-0.071680
-0.075160
-0.083254
-0.064245
-0.065625
-0.043858
-0.008869
0.044198
0.078116
0.117923
0.165039
0.165559
0.160505
0.160439
0.138459
0.109171
0.073121
0.049174
-0.013833
-0.077904
-0.109858
-0.121729
-0.129976
-0.123976
-0.125175
-0.027310
0.008581
0.036019
0.026816
0.062348
0.100618
0.124373
0.132846
0.134027
0.110807
0.076132
0.031559
-0.026883
-0.062515
-0.146071
-0.135291
-0.157642
-0.162324
-0.095110
-0.087010
-0.079701
-0.050745
-0.020266
0.021653
0.061850
0.132577
0.140889
0.114883
0.110276
0.092662
0.052669
0.008075
-0.045479
-0.095171
-0.135589
-0.170250
-0.176678
-0.185406
-0.179282
-0.141733
-0.113126
-0.070673
-0.023368
0.024073
0.079524
0.099657
0.096265
0.089513
0.113062
0.092819
0.057382
0.031356
-0.009365
-0.082178
-0.138267
-0.177692
-0.181060
-0.185620
-0.185166
-0.146837
-0.118383
-0.085954
-0.033265
0.029849
0.058935
0.107455
0.136930
0.140965
0.129210
0.094966
0.055236
0.031676
-0.028506
-0.080595
-0.127023
-0.153420
-0.171003
-0.178733
-0.169750
-0.140306
-0.120187
-0.071661
-0.014188
0.026360
0.067971
0.103170
0.119950
0.128071
0.107160
0.102189
0.068989
0.028328
-0.019637
-0.065664
-0.101958
-0.135398
-0.159860
-0.171157
-0.195463
-0.186868
-0.138483
-0.053008
0.004406
0.037913
0.072407
0.081736
0.095395
0.102532
0.112865
0.108927
0.060111
0.023296
-0.023369
-0.056264
-0.094741
-0.118277
-0.136096
-0.158977
-0.158555
-0.144407
-0.103086
-0.082536
-0.040449
-0.022320
0.016418
0.081570
0.102485
0.095629
0.079115
0.065552
0.047919
0.029991
-0.025916
-0.084183
-0.103523
-0.131949
-0.162944
-0.188607
-0.157791
-0.137843
-0.107207
-0.068506
-0.025907
-0.003881
0.036299
0.076363
0.110945
0.101713
0.082770
0.062560
0.028451
0.022154
-0.024353
-0.084323
-0.141247
-0.178650
-0.193532
-0.198726
-0.174418
-0.144215
-0.108481
-0.077611
-0.038741
0.006894
0.030409
0.073732
0.078747
0.067999
0.061326
0.048454
0.024452
-0.017851
-0.068833
-0.116006
-0.141526
-0.161758
-0.206057
-0.201392
-0.193912
-0.170270
-0.124106
-0.061228
-0.028646
0.011780
0.063930
0.055421
0.076349
0.096848
0.077300
0.052371
0.011105
-0.028207
-0.073310
-0.117011
-0.157900
-0.202422
-0.220881
-0.222585
-0.211974
-0.175359
-0.131402
-0.090368
-0.041812
-0.010096
0.029946
0.080051
0.108329
0.089006
0.086396
0.053147
0.005300
-0.027486
-0.076082
-0.089689
-0.136959
-0.192954
-0.196782
-0.188399
-0.220058
-0.212511
-0.162322
-0.118174
-0.061688
0.001825
0.048969
0.070493
0.082977
0.105059
0.110539
0.095958
0.059269
0.009470
-0.041582
-0.093814
-0.141993
-0.178035
-0.167120
-0.168670
-0.171932
-0.151618
-0.125935
-0.067488
-0.035169
0.016593
0.066510
0.093612
0.107871
0.117569
0.110467
0.077344
0.048149
0.026553
-0.034031
-0.084640
-0.114058
-0.156550
-0.190665
-0.191277
-0.178508
-0.151758
-0.112221
-0.083259
-0.040109
0.004384
0.043143
0.100359
0.121146
0.122324
0.103960
0.124981
0.093148
0.047367
-0.019113
-0.045102
-0.090686
-0.135109
-0.146329
-0.155928
-0.155848
-0.120589
-0.119135
-0.112555
-0.073614
0.000403
0.035443
0.057931
0.067823
0.080830
0.092219
0.061093
0.035797
-0.001518
-0.059568
-0.103667
-0.164954
-0.182160
-0.194218
-0.204936
-0.198421
-0.183188
-0.160058
-0.117548
-0.080602
-0.047691
-0.003896
0.022612
0.026744
0.044598
0.026093
-0.003822
-0.045569
-0.068462
-0.098446
-0.139251
-0.189915
-0.194409
-0.201228
-0.210416
-0.211121
-0.186208
-0.160778
-0.135620
-0.095371
-0.064969
-0.020141
0.003010
0.029186
0.021748
0.023581
0.003241
-0.036097
-0.067528
-0.111463
-0.139897
-0.199869
-0.211823
-0.239520
-0.244369
-0.225766
-0.217085
-0.164142
-0.121887
-0.055809
-0.033331
-0.049579
0.001884
0.033539
0.045435
-0.005699
-0.025248
-0.000716
-0.059332
-0.139605
-0.176356
-0.207925
-0.237270
-0.269247
-0.264120
-0.254770
-0.210770
-0.153834
-0.122319
-0.089174
-0.056264
-0.015856
0.019243
0.053749
0.047949
0.029162
-0.005895
-0.017355
-0.053232
-0.105474
-0.162625
-0.206520
-0.242918
-0.263945
-0.289354
-0.287444
-0.223027
-0.192439
-0.145642
-0.102651
-0.038035
0.029627
0.079642
0.086087
0.125985
0.139116
0.109795
0.091352
0.070193
0.035232
-0.004756
-0.027378
-0.042115
-0.045840
-0.024452
0.014094
0.043306
0.093080
0.171681
0.241105
0.307399
0.368992
0.432275
0.517860
0.585642
0.610748
0.656724
0.676031
0.641525
0.609042
0.601122
0.588521
0.559131
0.549599
0.534389
0.525662
0.524028
0.559102
0.577042
0.561216
0.578409
0.539051
0.496322
0.442885
0.405462
0.361739
0.296340
0.226984
0.128105
0.070995
0.023043
-0.026181
-0.075273
-0.104411
-0.123705
-0.131609
-0.101207
-0.093953
-0.063858
-0.018649
0.010599
0.058559
0.095233
0.117538
0.105090
0.094283
0.102128
0.060056
0.000544
-0.049256
-0.067497
-0.112256
-0.149914
-0.189249
-0.181091
-0.166004
-0.153493
-0.136974
-0.094698
-0.076714
-0.027971
0.008644
0.037065
0.050640
0.040300
0.018025
0.011132
-0.009372
-0.050644
-0.075883
-0.122506
-0.176487
-0.188715
-0.200123
-0.195179
-0.175520
-0.158695
-0.143004
-0.126229
-0.055303
-0.035116
0.017691
0.011842
0.064862
0.062937
0.077205
0.050346
-0.005333
-0.052394
-0.101495
-0.143589
-0.173984
-0.202322
-0.221947
-0.224072
-0.219841
-0.195120
-0.134906
-0.088659
-0.029719
0.011482
0.030497
0.064815
0.083941
0.084088
0.072506
0.046683
0.015443
-0.031056
-0.078472
-0.124081
-0.173964
-0.190409
-0.208072
-0.210778
-0.192696
-0.168195
-0.131292
-0.107920
-0.040209
-0.004391
0.048241
0.076507
0.097683
0.108198
0.106731
0.091521
0.052169
0.002465
-0.043121
-0.105007
-0.150027
-0.173147
-0.180989
-0.172121
-0.171552
-0.132539
-0.103705
-0.071731
-0.022778
0.040232
0.082654
0.108474
0.126414
0.155109
0.141570
0.116531
0.074855
0.042632
-0.003988
-0.049973
-0.097960
-0.129377
-0.148660
-0.154620
-0.152300
-0.135407
-0.097375
-0.054418
-0.003015
0.042474
0.097742
0.143131
0.149514
0.168643
0.163944
0.146900
0.120329
0.099752
0.038666
-0.012525
-0.052055
-0.085577
-0.104363
-0.132130
-0.119618
-0.108337
-0.069274
-0.026521
0.026204
0.080996
0.108566
0.124450
0.152642
0.147747
0.155162
0.163468
0.140986
0.094576
0.045534
-0.004933
-0.052720
-0.091932
-0.113488
-0.134560
-0.141327
-0.123460
-0.040993
-0.011485
0.001521
0.052483
0.106834
0.136254
0.147199
0.154130
0.146522
0.137560
0.099249
0.077766
0.016303
-0.041550
-0.080851
-0.119877
-0.129905
-0.120673
-0.108295
-0.086487
-0.054707
-0.033431
0.015643
0.046442
0.073305
0.080597
0.102314
0.106874
0.099430
0.089593
0.071748
0.030474
-0.050277
-0.056482
-0.108014
-0.148370
-0.160029
-0.167702
-0.170876
-0.139872
-0.116964
-0.087551
-0.032688
0.011728
0.066862
0.090481
0.117432
0.125330
0.084899
0.047749
0.013652
-0.027257
-0.070581
-0.119015
-0.171780
-0.189328
-0.202842
-0.212593
-0.221860
-0.186184
-0.120323
-0.091456
-0.059703
-0.005715
0.038873
0.068506
0.073252
0.070340
0.051595
0.021962
0.000351
-0.054184
-0.105549
-0.124608
-0.166158
-0.205981
-0.225535
-0.234791
-0.228253
-0.197085
-0.164381
-0.120029
-0.062523
-0.019876
0.025256
0.055469
0.088312
0.091919
0.066364
0.061550
0.032626
-0.033322
-0.080627
-0.124389
-0.170795
-0.219370
-0.245064
-0.261846
-0.233285
-0.204253
-0.167808
-0.132426
-0.094606
-0.057288
0.029690
0.068842
0.083682
0.096143
0.085985
0.059679
0.018348
-0.005690
-0.064056
-0.109377
-0.168352
-0.172975
-0.194197
-0.214513
-0.211914
-0.210752
-0.171554
-0.117335
-0.070614
-0.033882
0.002181
0.023078
0.046515
0.079752
0.071688
0.061779
0.036778
-0.005535
-0.050002
-0.087882
-0.113651
-0.156811
-0.196871
-0.214551
-0.190964
-0.182161
-0.166249
-0.108094
-0.061069
-0.021287
0.012153
0.053319
0.077103
0.078269
0.077683
0.060754
0.015146
-0.020586
-0.037458
-0.064113
-0.111793
-0.184126
-0.204445
-0.207831
-0.193571
-0.182483
-0.150379
-0.116228
-0.060728
-0.015348
0.031846
0.062548
0.051589
0.061872
0.059625
0.038796
0.005750
-0.028097
-0.064373
-0.107231
-0.145322
-0.172866
-0.201031
-0.195642
-0.195190
-0.171939
-0.137245
-0.090971
-0.046230
-0.008275
0.029348
0.045980
0.056039
0.062018
0.045515
0.033610
0.003993
-0.031179
-0.076978
-0.113868
-0.161841
-0.190075
-0.191416
-0.202871
-0.210966
-0.185865
-0.150089
-0.103192
-0.053858
-0.017652
0.005411
0.030119
0.053764
0.064667
0.048038
0.026987
0.019996
-0.035289
-0.060722
-0.113082
-0.178852
-0.230124
-0.240442
-0.225746
-0.239606
-0.187725
-0.152768
-0.107010
-0.050861
0.013865
0.074739
0.053567
0.050946
0.049162
0.046383
0.050044
0.020048
-0.027715
-0.085748
-0.125571
-0.187944
-0.228584
-0.245540
-0.234490
-0.221010
-0.221660
-0.163892
-0.119889
-0.078436
-0.032242
0.017416
0.051038
0.076911
0.075140
0.058538
0.036627
0.022365
-0.028599
-0.074462
-0.124815
-0.157906
-0.189664
-0.213068
-0.220538
-0.208483
-0.194368
-0.154137
-0.095320
-0.080390
-0.025375
0.035984
0.055462
0.072620
0.086595
0.089818
0.080412
0.055104
-0.002524
-0.065073
-0.112495
-0.103793
-0.130297
-0.168553
-0.224627
-0.207782
-0.165491
-0.131522
-0.079396
-0.040889
-0.004387
0.011398
0.039725
0.060465
0.086196
0.073708
0.060636
0.044200
0.015387
-0.042253
-0.090524
-0.121781
-0.144699
-0.161194
-0.177457
-0.168796
-0.146507
-0.129666
-0.087151
-0.032806
0.003790
0.051979
0.078597
0.102939
0.114422
0.099031
0.088756
0.058670
0.025782
-0.025880
-0.073817
-0.104613
-0.153234
-0.182752
-0.177646
-0.140436
-0.127372
-0.103758
-0.072894
-0.048026
-0.012240
0.002462
0.041238
0.063368
0.065083
0.051535
0.029160
0.023900
-0.007123
-0.063019
-0.118804
-0.152303
-0.176210
-0.195031
-0.201813
-0.197139
-0.185393
-0.155002
-0.136325
-0.074491
-0.031895
0.006925
0.035092
0.037804
0.020504
0.028159
-0.004147
-0.043662
-0.100194
-0.131135
-0.150512
-0.175698
-0.202954
-0.215876
-0.244221
-0.228534
-0.188841
-0.150257
-0.100787
-0.062018
-0.045899
-0.026985
0.036627
0.059057
0.025251
0.017924
-0.010257
-0.036250
-0.068782
-0.104909
-0.146314
-0.195193
-0.218362
-0.239161
-0.252727
-0.238227
-0.226396
-0.187134
-0.149152
-0.080535
-0.031295
-0.006907
0.022511
0.058176
0.055979
0.037052
0.025868
-0.026032
-0.071197
-0.117630
-0.158941
-0.198292
-0.222863
-0.249132
-0.263189
-0.242962
-0.220834
-0.185214
-0.155113
-0.101971
-0.058201
-0.018445
0.019110
0.049260
0.055827
0.047844
0.011928
-0.031776
-0.075235
-0.114633
-0.160894
-0.229561
-0.243314
-0.245438
-0.240946
-0.242210
-0.224178
-0.190472
-0.122434
-0.058572
-0.002915
0.101807
0.142257
0.159754
0.180709
0.193367
0.190075
0.149054
0.143316
0.115405
0.077966
0.031596
0.019563
0.039670
0.071100
0.117935
0.185689
0.249074
0.319772
0.384091
0.437582
0.511122
0.617100
0.677557
0.716757
0.750500
0.765030
0.778522
0.766285
0.712212
0.652225
0.615777
0.570338
0.525470
0.492665
0.465839
0.455881
0.424498
0.392159
0.365384
0.334287
0.353369
0.344386
0.315412
0.276650
0.245795
0.209609
0.159136
0.097173
0.048651
-0.000290
-0.052817
-0.072981
-0.098623
-0.107658
-0.112258
-0.094332
-0.056485
-0.029803
0.016279
0.039432
0.068726
0.097718
0.116314
0.106006
0.090448
0.076987
0.047176
-0.009615
-0.019904
-0.062129
-0.099298
-0.132315
-0.165288
-0.188581
-0.189735
-0.170867
-0.117793
-0.085928
-0.061688
-0.021297
0.008609
0.049860
0.058061
0.066708
0.082371
0.062640
0.004133
-0.018925
-0.064921
-0.124625
-0.147920
-0.168377
-0.182664
-0.201580
-0.172634
-0.147232
-0.111096
-0.081021
-0.035201
0.008402
0.025824
0.047399
0.059257
0.074245
0.096202
0.067396
0.016455
-0.008499
-0.057771
-0.112790
-0.136693
-0.146762
-0.169275
-0.190096
-0.174849
-0.155507
-0.116949
-0.065930
-0.032287
0.035619
0.063784
0.084198
0.093987
0.099196
0.093432
0.083600
0.055794
-0.000050
-0.048428
-0.087011
-0.127815
-0.167035
-0.175861
-0.168742
-0.172824
-0.138086
-0.086078
-0.047097
-0.007402
0.039002
0.085510
0.113983
0.146073
0.146540
0.138838
0.128778
0.091050
0.026736
-0.028157
-0.058805
-0.095794
-0.140547
-0.147604
-0.143178
-0.130789
-0.115554
-0.083183
-0.039935
0.003626
0.054200
0.108355
0.141096
0.162302
0.174921
0.170975
0.146255
0.124672
0.072742
0.043515
-0.011657
-0.067441
-0.089200
-0.101417
-0.108454
-0.107235
-0.092266
-0.055252
-0.008940
0.045819
0.095346
0.137789
0.174085
0.217327
0.229744
0.214393
0.184259
0.147290
0.114065
0.081690
0.031913
-0.022393
-0.063049
-0.093477
-0.095396
-0.078046
-0.077558
-0.052696
0.027615
0.060380
0.099913
0.134315
0.181485
0.218058
0.230255
0.212027
0.180111
0.133066
0.093949
0.078377
0.038389
-0.006172
-0.050107
-0.065720
-0.075299
-0.081227
-0.080834
-0.042721
0.009236
0.052966
0.087675
0.118219
0.151966
0.168761
0.159965
0.157460
0.167465
0.140103
0.094270
0.057210
0.015834
-0.027362
-0.059107
-0.079267
-0.097887
-0.089863
-0.089804
-0.062931
-0.004927
0.043282
0.077072
0.097500
0.101013
0.138840
0.161412
0.158263
0.134554
0.089927
0.037598
0.001843
-0.049899
-0.073962
-0.104989
-0.110684
-0.111584
-0.117604
-0.107656
-0.083792
-0.040800
-0.010625
0.034277
0.075470
0.093365
0.107185
0.108994
0.099290
0.083488
0.049443
-0.003256
-0.039026
-0.070917
-0.122070
-0.157638
-0.179874
-0.173577
-0.159489
-0.132443
-0.109233
-0.080160
-0.037336
0.015760
0.063198
0.074494
0.125520
0.137405
0.105664
0.050788
0.040883
0.007394
-0.051638
-0.127970
-0.143982
-0.163807
-0.194208
-0.203843
-0.188533
-0.157165
-0.128680
-0.084684
-0.039496
0.009710
0.063547
0.101294
0.118906
0.116659
0.079587
0.087315
0.037132
0.000824
-0.053042
-0.107798
-0.144494
-0.162524
-0.182909
-0.202330
-0.199848
-0.166108
-0.136485
-0.092515
-0.037174
0.005773
0.050886
0.084644
0.116645
0.116559
0.114618
0.108830
0.076787
0.033858
-0.054813
-0.117096
-0.161486
-0.189264
-0.171565
-0.162113
-0.176455
-0.167672
-0.127489
-0.083155
-0.027742
0.019275
0.070010
0.080756
0.087802
0.105889
0.126127
0.106373
0.059805
0.023775
-0.013444
-0.066530
-0.094723
-0.115020
-0.138165
-0.166112
-0.149377
-0.137686
-0.118748
-0.094509
-0.059805
-0.006724
0.050848
0.085486
0.102282
0.097044
0.103679
0.094178
0.081334
0.049670
0.002052
-0.045947
-0.102672
-0.129781
-0.146664
-0.159628
-0.153336
-0.166859
-0.145167
-0.103804
-0.007303
0.024355
0.034274
0.060783
0.107191
0.107540
0.076451
0.073056
0.066762
-0.002121
-0.040873
-0.065512
-0.085732
-0.121485
-0.163156
-0.162195
-0.154995
-0.150580
-0.119080
-0.078404
-0.045915
0.005718
0.049022
0.079423
0.095194
0.105622
0.095104
0.086271
0.042080
0.001846
-0.038742
-0.081516
-0.116445
-0.140482
-0.159160
-0.169454
-0.156645
-0.140949
-0.119339
-0.084835
-0.023517
0.012928
0.047302
0.076259
0.091123
0.088781
0.083263
0.072658
0.039093
-0.010551
-0.041577
-0.078401
-0.135048
-0.173338
-0.197987
-0.179849
-0.144170
-0.130699
-0.110780
-0.062744
-0.002434
0.032523
0.052135
0.079626
0.106615
0.094705
0.108489
0.092960
0.048185
-0.012414
-0.083001
-0.117383
-0.110598
-0.141096
-0.166957
-0.183700
-0.177704
-0.176092
-0.142010
-0.093421
-0.039013
0.008063
0.060557
0.098059
0.120705
0.132580
0.119461
0.102505
0.068562
-0.006562
-0.051898
-0.069606
-0.102554
-0.137782
-0.165798
-0.183787
-0.103170
-0.099410
-0.091214
-0.047798
-0.006061
0.032679
0.070215
0.089344
0.119636
0.128191
0.134189
0.143197
0.102082
0.053362
-0.007816
-0.066074
-0.091101
-0.134701
-0.168610
-0.171121
-0.159039
-0.151596
-0.129202
-0.089202
-0.061752
0.010243
0.082289
0.124858
0.156632
0.187715
0.155775
0.150966
0.118680
0.070230
0.027334
-0.018422
-0.061630
-0.087949
-0.099974
-0.129235
-0.131131
-0.122047
-0.090082
-0.046369
-0.018233
0.026809
0.069842
0.094813
0.116822
0.126893
0.109904
0.082344
0.054249
0.021676
-0.021438
-0.066695
-0.107984
-0.157464
-0.188365
-0.162573
-0.139527
-0.139095
-0.100697
-0.079684
-0.042193
-0.012979
0.025555
0.056641
0.067151
0.069948
0.060613
0.047554
0.017173
-0.032018
-0.066590
-0.101902
-0.141787
-0.179804
-0.201346
-0.191242
-0.170652
-0.162415
-0.152637
-0.109085
-0.076250
-0.038066
-0.018330
0.024715
0.061894
0.073496
0.050857
0.035928
-0.000750
-0.024456
-0.058710
-0.113785
-0.159938
-0.194900
-0.199598
-0.212303
-0.221573
-0.190674
-0.135741
-0.095394
-0.049097
-0.014599
-0.003270
0.054174
0.065883
0.074368
0.053205
0.015869
0.006744
-0.038614
-0.097948
-0.151778
-0.169871
-0.175697
-0.200318
-0.208069
-0.223612
-0.209154
-0.143181
-0.089182
-0.061349
-0.004668
0.025835
0.070910
0.077835
0.081759
0.058178
0.039103
0.005843
-0.033537
-0.072434
-0.126415
-0.175427
-0.214967
-0.235426
-0.236541
-0.231535
-0.201399
-0.184239
-0.124534
-0.075710
-0.025275
0.026960
0.053042
0.101019
0.123329
0.146809
0.108211
0.085983
0.044709
0.009378
-0.022029
-0.046154
-0.059847
-0.082109
-0.072096
-0.039292
-0.009812
0.045535
0.124266
0.209143
0.291272
0.353107
0.422505
0.480854
0.528247
0.552792
0.578493
0.577065
0.558174
0.551699
0.549304
0.542847
0.544856
0.519130
0.554825
0.591267
0.585198
0.638845
0.671863
0.701948
0.733515
0.771246
0.776742
0.768274
0.707116
0.638988
0.541321
0.450368
0.371664
0.268058
0.165483
0.096757
0.055100
0.007423
-0.030380
-0.050056
-0.021119
0.014286
0.034791
0.032114
0.077286
0.116122
0.117253
0.146348
0.153777
0.145539
0.164404
0.130294
0.093066
0.027075
-0.006052
-0.070468
-0.106366
-0.137921
-0.148514
-0.145413
-0.131966
-0.091393
-0.085327
-0.057420
0.000355
0.043494
0.061973
0.079514
0.104545
0.102116
0.084143
0.048518
0.003326
-0.034838
-0.077045
-0.114827
-0.149919
-0.166342
-0.169867
-0.170192
-0.147012
-0.105861
-0.080238
-0.039314
-0.006669
0.039728
0.058254
0.083992
0.097070
0.082936
0.080219
0.048642
-0.003440
-0.055564
-0.087940
-0.123810
-0.146430
-0.146576
-0.167938
-0.167392
-0.131532
-0.096298
-0.046077
-0.022993
0.003995
0.046362
0.074053
0.094091
0.089732
0.108126
0.080400
0.039903
0.006312
-0.034323
-0.086885
-0.115033
-0.132984
-0.152784
-0.158004
-0.137364
-0.115120
-0.088620
-0.059073
0.013128
0.074767
0.091761
0.126636
0.119250
0.129198
0.136467
0.117262
0.070916
0.005790
-0.013234
-0.066981
-0.107487
-0.137141
-0.146678
-0.147236
-0.131796
-0.106488
-0.075544
-0.027120
0.019731
0.067048
0.101004
0.127507
0.159775
0.178934
0.169669
0.158818
0.113800
0.057612
0.012550
-0.034062
-0.072740
-0.089483
-0.119322
-0.106408
-0.078399
-0.059184
-0.037847
0.012993
0.041975
0.106162
0.141240
0.166421
0.187969
0.216245
0.223671
0.195603
0.129741
0.100932
0.057877
0.001982
-0.034791
-0.103824
-0.082534
-0.081916
-0.089037
-0.067955
-0.028489
0.038503
0.088786
0.142016
0.162336
0.199401
0.217589
0.227349
0.228507
0.214559
0.173072
0.122265
0.089103
0.029943
-0.000433
-0.029327
-0.074367
-0.083981
-0.086338
-0.064085
-0.041110
0.003424
0.069598
0.130883
0.156763
0.186753
0.216840
0.217143
0.195063
0.186251
0.156816
0.116183
0.069121
0.016700
-0.025171
-0.064544
-0.085335
-0.100440
-0.112191
-0.086223
-0.059244
-0.017082
0.035607
0.079559
0.093839
0.128732
0.169037
0.183800
0.184103
0.161248
0.118811
0.069382
0.014738
0.006404
-0.033922
-0.110473
-0.143024
-0.136515
-0.132485
-0.121080
-0.103469
-0.041371
-0.000755
0.032856
0.092282
0.126257
0.133750
0.131232
0.131775
0.117859
0.081863
0.037305
-0.033357
-0.076765
-0.117238
-0.142448
-0.177289
-0.145811
-0.151428
-0.153814
-0.147541
-0.097559
-0.048898
0.009773
0.061823
0.084120
0.097065
0.100524
0.094929
0.050067
0.046525
0.035310
-0.045228
-0.082502
-0.134534
-0.172309
-0.182530
-0.182590
-0.183448
-0.153816
-0.107453
-0.064679
-0.030749
-0.007140
0.061516
0.073267
0.080259
0.092271
0.049327
0.027010
0.007986
-0.032873
-0.078412
-0.114797
-0.133573
-0.149981
-0.198440
-0.223857
-0.189734
-0.153285
-0.115492
-0.085889
-0.036385
0.000325
0.043618
0.079441
0.102323
0.100591
0.088912
0.055488
0.019171
-0.030356
-0.077977
-0.095342
-0.128975
-0.159447
-0.195123
-0.198897
-0.196954
-0.156833
-0.126989
-0.092856
-0.040970
0.026184
0.073729
0.084036
0.103823
0.107302
0.104714
0.084494
0.036653
-0.014181
-0.060051
-0.105031
-0.128765
-0.169589
-0.202338
-0.215116
-0.210749
-0.143173
-0.113646
-0.063858
-0.027800
0.037960
0.066715
0.095054
0.124080
0.120912
0.082482
0.066768
0.035370
-0.022126
-0.077751
-0.106602
-0.139687
-0.154191
-0.201280
-0.218258
-0.208241
-0.188389
-0.165505
-0.083662
-0.007255
0.018051
0.077967
0.099792
0.116471
0.146362
0.122526
0.088839
0.053992
0.039038
-0.033130
-0.113200
-0.149148
-0.178485
-0.201473
-0.209183
-0.192399
-0.158322
-0.121928
-0.089596
-0.052330
-0.010762
0.049816
0.073063
0.094118
0.102253
0.112316
0.101724
0.062946
-0.006586
-0.059428
-0.092828
-0.134351
-0.164966
-0.192034
-0.195673
-0.195772
-0.180411
-0.147118
-0.103285
-0.054501
-0.008884
0.034588
0.069073
0.084618
0.092596
0.098208
0.067687
0.045227
0.025367
-0.030356
-0.107095
-0.154223
-0.172391
-0.203810
-0.204077
-0.201795
-0.175056
-0.136373
-0.112339
-0.077085
-0.029271
0.017834
0.053949
0.069704
0.096586
0.074689
0.051633
0.030583
-0.034420
-0.058287
-0.099019
-0.132024
-0.163775
-0.186252
-0.197982
-0.207736
-0.199392
-0.139099
-0.096699
-0.060986
-0.016313
0.029235
0.057492
0.060908
0.053633
0.048470
0.046028
0.030713
-0.013585
-0.062344
-0.106659
-0.129099
-0.161154
-0.176001
-0.192423
-0.191414
-0.168319
-0.109391
-0.075659
-0.024497
0.019631
0.044893
0.075349
0.102573
0.136928
0.120971
0.069903
0.026857
-0.012553
-0.059475
-0.099614
-0.107737
-0.130053
-0.161383
-0.147129
-0.141732
-0.143481
-0.111793
-0.062805
-0.024483
0.022436
0.093177
0.102329
0.102340
0.107658
0.112463
0.092609
0.054400
0.014312
-0.030108
-0.071729
-0.138449
-0.140928
-0.136252
-0.133485
-0.154966
-0.132555
-0.093913
-0.044446
0.005802
0.059574
0.095327
0.121820
0.133398
0.128141
0.124866
0.082715
0.048314
0.001963
-0.040970
-0.084247
-0.128075
-0.154505
-0.163555
-0.189206
-0.199635
-0.173843
-0.139584
-0.099912
-0.054142
-0.001550
0.043505
0.060409
0.085548
0.092103
0.086991
0.066315
0.034567
-0.019054
-0.068093
-0.119338
-0.179122
-0.206002
-0.218265
-0.222972
-0.219472
-0.194589
-0.172023
-0.128366
-0.083265
-0.050280
-0.012510
0.027803
0.065285
0.069521
0.046626
0.022816
-0.015540
-0.050109
-0.089662
-0.137491
-0.176082
-0.210953
-0.246079
-0.252034
-0.250556
-0.215342
-0.186691
-0.142618
-0.103801
-0.054544
-0.021883
0.012664
0.045147
0.058255
0.042248
0.036685
0.008813
-0.038385
-0.093531
-0.150307
-0.189068
-0.186135
-0.234347
-0.232437
-0.232508
-0.226591
-0.182303
-0.153710
-0.106378
-0.060543
-0.030602
0.017299
0.035740
0.020249
0.032902
0.038518
0.009672
-0.056454
-0.089793
-0.142633
-0.181249
-0.177633
-0.231678
-0.241428
-0.237991
-0.208908
-0.186431
-0.153188
-0.112870
-0.079927
-0.032488
0.013321
0.026627
0.028031
0.010035
-0.002407
-0.027716
-0.065540
-0.118508
-0.157718
-0.141958
-0.165995
-0.177853
-0.185353
-0.178066
-0.144872
-0.098829
-0.043768
0.002767
0.060225
0.108914
0.144606
0.187816
0.214601
0.222604
0.231824
0.237289
0.215455
0.213726
0.190833
0.194388
0.233281
0.248897
0.272201
0.291241
0.354304
0.426032
0.520203
0.613274
0.681377
0.769071
0.803997
0.857162
0.884840
0.885866
0.835399
0.810419
0.739187
0.688347
0.623849
0.551747
0.482930
0.401191
0.323713
0.260097
0.228116
0.191262
0.194660
0.204306
0.189053
0.219672
0.246865
0.254150
0.261615
0.231103
0.187897
0.143882
0.090011
0.022874
-0.060503
-0.079034
-0.114646
-0.148986
-0.158348
-0.150279
-0.122524
-0.090839
-0.050804
-0.016964
0.038491
0.063398
0.089842
0.105795
0.114648
0.093558
0.079165
0.043928
-0.000569
-0.055449
-0.098283
-0.152145
-0.187055
-0.211934
-0.236128
-0.256643
-0.193394
-0.163984
-0.133509
-0.102087
-0.036955
0.040887
0.079671
0.117008
0.117823
0.101173
0.063451
0.021826
-0.012100
-0.049287
-0.089406
-0.133514
-0.175568
-0.211628
-0.203245
-0.213113
-0.208456
-0.173299
-0.116684
-0.060441
-0.026463
0.019802
0.052810
0.086830
0.108276
0.101831
0.078695
0.034130
-0.022431
-0.044919
-0.089579
-0.124238
-0.149124
-0.180408
-0.192141
-0.189548
-0.171524
-0.139104
-0.099092
-0.055984
-0.015806
0.026240
0.052220
0.070825
0.072775
0.091951
0.074671
0.050412
0.012541
-0.024016
-0.069745
-0.121156
-0.122419
-0.153472
-0.147072
-0.151489
-0.139642
-0.116521
-0.080503
-0.046679
-0.005348
0.066584
0.100419
0.109501
0.088576
0.093039
0.090442
0.069588
0.033371
-0.016918
-0.068992
-0.100995
-0.119981
-0.136069
-0.160602
-0.149256
-0.113967
-0.069858
-0.018943
0.020586
0.050342
0.078587
0.107531
0.135094
0.139724
0.138321
0.124343
0.080102
0.053494
0.026212
-0.025808
-0.077622
-0.078844
-0.098771
-0.093983
-0.098637
-0.088027
-0.054782
-0.014134
0.026778
0.066790
0.139466
0.189907
0.212019
0.210436
0.191948
0.158305
0.123487
0.074809
0.037444
0.000791
-0.033515
-0.073461
-0.080055
-0.060705
-0.057987
-0.056495
-0.040389
0.011477
0.062411
0.098986
0.130940
0.150254
0.178229
0.176167
0.166771
0.117389
0.127387
0.083927
0.027728
0.004400
-0.037975
-0.087027
-0.116583
-0.111432
-0.109770
-0.077597
-0.035872
0.004325
0.025907
0.074654
0.133096
0.142510
0.159809
0.191336
0.174789
0.120369
0.076123
0.042655
-0.001059
-0.026876
-0.080155
-0.136710
-0.138175
-0.145124
-0.144133
-0.126238
-0.091243
-0.043197
0.007637
0.045943
0.074802
0.123987
0.140676
0.139285
0.130933
0.113636
0.080893
0.023602
-0.032973
-0.073782
-0.121707
-0.155966
-0.184618
-0.181130
-0.179084
-0.172134
-0.148878
-0.096106
-0.043143
0.013123
0.047072
0.081992
0.090236
0.112451
0.104264
0.097977
0.048301
-0.007522
-0.056714
-0.110797
-0.139602
-0.177376
-0.224202
-0.235006
-0.222383
-0.191115
-0.200579
-0.134513
-0.057861
-0.009464
0.023854
0.049799
0.085754
0.097177
0.088992
0.061314
0.036057
-0.001784
-0.053293
-0.099058
-0.139132
-0.183719
-0.212668
-0.208391
-0.201403
-0.181128
-0.161420
-0.127670
-0.074435
-0.017663
0.021871
0.044723
0.076128
0.082220
0.083842
0.057876
0.034590
-0.008615
-0.047058
-0.110219
-0.169037
-0.177411
-0.191640
-0.196040
-0.188567
-0.160918
-0.157713
-0.125884
-0.069442
-0.017959
-0.001795
0.034404
0.065971
0.055090
0.064219
0.045847
0.008020
-0.034516
-0.073076
-0.107431
-0.143303
-0.158881
-0.168907
-0.169713
-0.167674
-0.176267
-0.138384
-0.061245
-0.037397
-0.005445
0.043411
0.056131
0.059368
0.067196
0.060042
0.037793
0.015778
-0.021766
-0.058695
-0.110679
-0.149556
-0.179223
-0.196388
-0.188738
-0.174599
-0.169676
-0.138342
-0.103400
-0.045621
0.015468
0.053008
0.069835
0.083886
0.077212
0.069964
0.059845
0.026285
-0.046124
-0.082403
-0.118829
-0.147583
-0.182660
-0.185956
-0.200929
-0.189481
-0.154557
-0.122345
-0.087259
-0.048734
0.006168
0.041819
0.044029
0.059373
0.075095
0.079976
0.037863
0.026899
-0.013949
-0.047232
-0.074309
-0.138477
-0.190095
-0.213940
-0.218934
-0.213314
-0.179718
-0.150238
-0.113437
-0.063700
-0.033859
0.032581
0.063549
0.082279
0.095761
0.099484
0.068442
0.019729
-0.038365
-0.083301
-0.134901
-0.174854
-0.210206
-0.234806
-0.228065
-0.203647
-0.181249
-0.141774
-0.109871
-0.054897
-0.000175
0.036227
0.055327
0.070597
0.076063
0.065763
0.069397
0.062304
0.016260
-0.043909
-0.109606
-0.154035
-0.174440
-0.181177
-0.198213
-0.199673
-0.172747
-0.122224
-0.077652
-0.015141
0.002702
0.033875
0.078183
0.111313
0.127874
0.113965
0.092136
0.058757
0.011585
-0.013756
-0.058043
-0.101738
-0.137514
-0.177650
-0.217912
-0.210200
-0.186498
-0.151647
-0.111858
-0.050293
0.013080
0.055307
0.082736
0.103190
0.123534
0.125997
0.096559
0.061689
0.033363
-0.003270
-0.053685
-0.115095
-0.149287
-0.206288
-0.147247
-0.159597
-0.157189
-0.103982
-0.066379
-0.027960
0.002447
0.038951
0.084334
0.103556
0.108605
0.079331
0.059064
0.027981
-0.009787
-0.063972
-0.088227
-0.145393
-0.174552
-0.202219
-0.211696
-0.197812
-0.153987
-0.125805
-0.080148
-0.080220
-0.057657
-0.023373
0.027865
0.040653
0.046659
0.045036
0.029428
-0.007238
-0.059609
-0.094674
-0.137288
-0.163741
-0.174982
-0.232364
-0.231232
-0.234331
-0.222084
-0.182047
-0.143240
-0.098896
-0.070422
-0.033907
-0.002907
0.040532
0.049126
0.024924
-0.006316
-0.029339
-0.070337
-0.109793
-0.178843
-0.205775
-0.207924
-0.229145
-0.242919
-0.248786
-0.205824
-0.166135
-0.137388
-0.087434
-0.050492
-0.008051
0.008751
0.015746
0.024655
0.011683
-0.030856
-0.054848
-0.070247
-0.110232
-0.147736
-0.197700
-0.241913
-0.262655
-0.235463
-0.224997
-0.216306
-0.189871
-0.159743
-0.087921
-0.036948
-0.000398
0.011919
0.026224
0.036606
0.046026
0.022353
-0.022071
-0.087506
-0.136779
-0.173217
-0.202959
-0.239159
-0.254455
-0.275995
-0.266080
-0.240289
-0.210349
-0.177363
-0.143410
-0.057028
-0.025859
0.016497
0.046130
0.045696
0.061081
0.044372
0.006793
-0.008473
-0.037509
-0.089819
-0.115126
-0.128213
-0.151316
-0.167590
-0.142575
-0.107954
-0.035598
0.049667
0.128042
0.209161
0.292774
0.352592
0.390189
0.433983
0.471257
0.503989
0.517688
0.503328
0.497336
0.509939
0.511366
0.511400
0.514398
0.530780
0.585147
0.631349
0.650862
0.698880
0.747845
0.761708
0.773844
0.788632
0.794082
0.775444
0.707934
0.614634
0.515360
0.428028
0.349438
0.240197
0.139563
0.049060
-0.023853
-0.030127
-0.028062
-0.019828
-0.002401
0.027377
0.048276
0.074399
0.098566
0.118616
0.130769
0.126676
0.136013
0.126633
0.104125
0.043705
-0.003827
-0.039245
-0.097586
-0.163770
-0.178029
-0.167530
-0.149799
-0.150288
-0.154970
-0.091001
-0.044217
-0.011529
0.016912
0.041519
0.065859
0.077010
0.066087
0.055390
0.014322
-0.014124
-0.059472
-0.102295
-0.153336
-0.179765
-0.190974
-0.197434
-0.203043
-0.189268
-0.161397
-0.110007
-0.064514
-0.014432
0.009201
0.042945
0.062629
0.071051
0.066600
0.026181
0.008090
-0.032406
-0.078703
-0.120969
-0.155908
-0.170733
-0.197247
-0.207356
-0.203730
-0.182767
-0.152312
-0.081435
-0.047657
-0.002994
0.034533
0.071161
0.088249
0.073028
0.047894
0.037300
0.023509
-0.008476
-0.054079
-0.104580
-0.155681
-0.195605
-0.217516
-0.205216
-0.180940
-0.157392
-0.128202
-0.084349
-0.054755
-0.018595
0.050295
0.067056
0.112172
0.144097
0.161840
0.113496
0.048935
-0.011104
-0.065032
-0.093363
-0.111319
-0.143188
-0.187366
-0.196831
-0.171920
-0.129876
-0.100876
-0.061437
0.006403
0.061810
0.092995
0.110286
0.128151
0.141183
0.147385
0.122261
0.089344
0.033100
-0.003009
-0.052757
-0.093856
-0.115439
-0.139730
-0.154852
-0.141930
-0.114901
-0.081307
-0.043600
0.017524
0.069355
0.104325
0.132808
0.158943
0.170764
0.156578
0.142692
0.129123
0.086351
0.024519
-0.023683
-0.056875
-0.072771
-0.106595
-0.132823
-0.129634
-0.108030
-0.079467
-0.044747
0.013395
0.101697
0.153570
0.149776
0.174293
0.187534
0.180604
0.182939
0.139367
0.089912
0.052276
0.000408
-0.044140
-0.064793
-0.096833
-0.097111
-0.106057
-0.101607
-0.061905
-0.019770
0.017877
0.065810
0.082619
0.122459
0.152113
0.143323
0.161449
0.168812
0.150377
0.086473
0.031336
-0.024593
-0.064792
-0.087887
-0.096219
-0.113067
-0.129412
-0.101382
-0.049551
-0.011269
0.003395
0.037473
0.069189
0.100342
0.108818
0.108270
0.091781
0.091647
0.088722
0.076596
0.018827
-0.019747
-0.068354
-0.109537
-0.125762
-0.140548
-0.163117
-0.129995
-0.110842
-0.078578
-0.020659
0.027894
0.069478
0.098214
0.106052
0.091669
0.102640
0.083311
0.047597
-0.012872
-0.058311
-0.087766
-0.119011
-0.160123
-0.200611
-0.191540
-0.154395
-0.149802
-0.126857
-0.080191
-0.024072
-0.000342
0.034564
0.079709
0.072134
0.090330
0.088316
0.053617
0.002058
-0.034782
-0.067961
-0.122236
-0.162394
-0.186840
-0.207914
-0.198489
-0.184625
-0.155807
-0.153805
-0.108999
-0.058864
-0.023710
0.007074
0.043601
0.071716
0.079077
0.074487
0.064095
0.018585
-0.027727
-0.063705
-0.104747
-0.139729
-0.174559
-0.203006
-0.206452
-0.216310
-0.189909
-0.143360
-0.100902
-0.057739
-0.008877
0.028170
0.070722
0.090661
0.099932
0.094463
0.092062
0.044290
-0.012298
-0.059485
-0.100511
-0.144455
-0.180451
-0.202140
-0.219427
-0.216746
-0.189268
-0.147786
-0.122385
-0.038862
-0.003284
0.034042
0.045447
0.089863
0.095984
0.083143
0.081778
0.054521
0.010051
-0.049854
-0.083165
-0.119455
-0.163909
-0.193022
-0.201335
-0.198680
-0.174023
-0.154100
-0.128712
-0.067440
-0.004062
0.040349
0.070067
0.079510
0.091798
0.085651
0.067717
0.086987
0.030396
-0.036509
-0.094913
-0.127565
-0.160058
-0.159089
-0.157529
-0.171604
-0.165278
-0.135278
-0.095301
-0.052788
-0.026586
0.021235
0.040164
0.072056
0.077065
0.085811
0.068158
0.034347
0.005314
-0.039327
-0.062430
-0.107230
-0.148183
-0.174224
-0.195763
-0.190753
-0.166043
-0.130871
-0.084558
-0.051399
-0.010051
0.016535
0.055021
0.060207
0.096764
0.066534
0.050902
0.036262
0.022060
-0.018391
-0.093087
-0.154348
-0.176416
-0.192974
-0.198535
-0.188259
-0.148588
-0.127067
-0.104173
-0.056495
-0.018894
0.020209
0.070836
0.099914
0.073359
0.064629
0.031776
-0.017206
-0.029988
-0.069194
-0.128492
-0.171503
-0.185736
-0.194068
-0.185062
-0.197427
-0.178384
-0.142061
-0.094880
-0.049422
-0.018316
0.043731
0.064182
0.085101
0.083064
0.072643
0.038224
-0.002622
-0.043722
-0.080566
-0.122937
-0.161762
-0.189239
-0.218920
-0.218764
-0.208960
-0.197259
-0.134504
-0.084039
-0.044285
0.003865
0.031368
0.079149
0.114795
0.112515
0.098895
0.076221
0.033719
-0.012942
-0.049854
-0.083007
-0.120380
-0.148727
-0.176639
-0.181269
-0.180981
-0.168469
-0.117463
-0.070229
-0.018389
0.029642
0.071336
0.087303
0.103773
0.120045
0.120756
0.088185
0.077795
0.013454
-0.023029
-0.078911
-0.120618
-0.156413
-0.174014
-0.195193
-0.200092
-0.151439
-0.115999
-0.053149
-0.035999
0.000565
0.041259
0.102310
0.131314
0.137945
0.142948
0.121256
0.079350
0.039691
-0.027279
-0.079099
-0.137737
-0.126080
-0.135381
-0.150594
-0.151613
-0.121879
-0.092192
-0.076269
-0.038129
0.002647
0.039129
0.081096
0.088074
0.100668
0.098792
0.047162
0.027519
-0.023678
-0.082800
-0.113141
-0.123221
-0.136657
-0.161586
-0.193354
-0.208030
-0.170282
-0.146068
-0.107395
-0.059681
-0.029360
0.003362
0.036039
0.041794
0.046839
0.048181
0.027410
0.002811
-0.029131
-0.081464
-0.126769
-0.162013
-0.198236
-0.225231
-0.233557
-0.222442
-0.211694
-0.175722
-0.129437
-0.094886
-0.052344
0.008415
0.042733
0.026747
0.013675
0.025920
0.003935
-0.028549
-0.048021
-0.090303
-0.143353
-0.188010
-0.226317
-0.242450
-0.245522
-0.234077
-0.206963
-0.186932
-0.148678
-0.088750
-0.041321
0.009321
0.033391
0.051431
0.052962
0.044017
0.006080
-0.034607
-0.057839
-0.083541
-0.125474
-0.175757
-0.232545
-0.242997
-0.258513
-0.255821
-0.238718
-0.172736
-0.124848
-0.067350
-0.043185
0.001362
0.027624
0.053060
0.054651
0.048258
0.048332
0.007408
-0.045899
-0.103789
-0.156014
-0.196551
-0.226545
-0.249842
-0.265014
-0.262180
-0.228116
-0.197534
-0.137168
-0.094500
-0.042846
-0.008697
0.046534
0.079970
0.104424
0.114193
0.126669
0.127241
0.081906
0.016216
-0.033201
-0.058037
-0.064101
-0.062797
-0.048034
-0.020988
0.040279
0.112292
0.177594
0.253526
0.336375
0.403894
0.473737
0.549600
0.591186
0.617276
0.638621
0.654560
0.655104
0.655907
0.638780
0.613829
0.606657
0.583855
0.568323
0.582973
0.591340
0.614747
0.630566
0.647420
0.665701
0.654522
0.616290
0.554879
0.480795
0.443993
0.389607
0.315733
0.235240
0.166825
0.096852
0.038603
0.001271
-0.017443
-0.042604
-0.058608
-0.060689
-0.024206
-0.005647
0.030908
0.070937
0.095824
0.112461
0.139362
0.138956
0.126354
0.096968
0.044520
0.020195
-0.015225
-0.063103
-0.109474
-0.127986
-0.147463
-0.157197
-0.157624
-0.128662
-0.097521
-0.070224
-0.050238
-0.003215
0.025695
0.067463
0.083298
0.085870
0.046534
0.065028
0.035818
-0.021275
-0.074024
-0.091828
-0.133564
-0.167544
-0.190022
-0.210033
-0.202483
-0.166250
-0.129798
-0.088413
-0.028025
0.003736
0.045987
0.070324
0.091235
0.093002
0.084071
0.066899
0.019872
-0.021573
-0.062157
-0.105558
-0.149062
-0.171226
-0.188354
-0.190984
-0.194376
-0.175011
-0.143087
-0.085857
-0.032100
0.023745
0.072103
0.099854
0.109629
0.106542
0.111960
0.092172
0.067732
-0.014729
-0.064069
-0.111306
-0.141766
-0.164565
-0.182734
-0.205410
-0.189791
-0.155161
-0.106344
-0.064118
-0.026622
0.031756
0.057489
0.102654
0.135986
0.151017
0.151833
0.129711
0.097480
0.018391
-0.026028
-0.059138
-0.096499
-0.158144
-0.172491
-0.157697
-0.164519
-0.139727
-0.090204
-0.049697
-0.004595
0.048818
0.098798
0.137237
0.152025
0.158037
0.156584
0.136769
0.091130
0.042671
0.009994
-0.061750
-0.085427
-0.067435
-0.074635
-0.105326
-0.120289
-0.111233
-0.064733
-0.030115
0.026843
0.066244
0.101177
0.149564
0.187220
0.213627
0.214548
0.180035
0.151379
0.094681
0.053008
0.013509
-0.034749
-0.081762
-0.088465
-0.089187
-0.094693
-0.083895
-0.047627
0.002203
0.047715
0.089457
0.127887
0.164899
0.186758
0.184608
0.176893
0.173839
0.141995
0.099678
0.076535
0.016083
-0.026944
-0.048858
-0.073631
-0.081868
-0.077783
-0.068953
-0.042906
0.002991
0.054508
0.095775
0.123159
0.145074
0.170267
0.177381
0.164810
0.134416
0.087735
0.063186
0.048835
-0.015523
-0.056148
-0.062664
-0.098266
-0.112209
-0.102439
-0.074425
-0.044258
-0.007389
0.021795
0.057766
0.085140
0.127469
0.150787
0.164256
0.152774
0.121695
0.086876
0.057381
0.003416
-0.046778
-0.094136
-0.137016
-0.157733
-0.148123
-0.136521
-0.116770
-0.073821
-0.040836
0.000462
0.040243
0.069340
0.099269
0.117922
0.121386
0.126815
0.090885
0.036677
-0.001749
-0.043003
-0.106412
-0.141588
-0.160055
-0.175306
-0.169658
-0.163562
-0.146773
-0.115568
-0.064470
-0.029072
-0.007128
0.043386
0.108418
0.116398
0.112524
0.100991
0.087647
0.029910
-0.022773
-0.072744
-0.093155
-0.126154
-0.160396
-0.205719
-0.219515
-0.198792
-0.171881
-0.159116
-0.097413
-0.045130
0.004578
0.046154
0.078408
0.097111
0.119692
0.100527
0.075574
0.037955
-0.021175
-0.043304
-0.094592
-0.167901
-0.183523
-0.186307
-0.208942
-0.202782
-0.164939
-0.151582
-0.116872
-0.018814
0.035323
0.063413
0.071239
0.089201
0.105249
0.103525
0.080357
0.046204
0.016563
-0.030663
-0.075114
-0.115003
-0.154394
-0.183610
-0.196921
-0.182189
-0.164414
-0.132223
-0.102907
-0.069949
-0.021049
0.018393
0.065024
0.105199
0.125462
0.118137
0.095502
0.064001
0.019814
-0.028033
-0.068057
-0.108099
-0.130451
-0.156439
-0.167109
-0.167610
-0.159339
-0.124172
-0.085450
-0.040722
0.000979
0.035084
0.065746
0.089434
0.109026
0.098657
0.061139
0.029605
0.002981
-0.023995
-0.063485
-0.103731
-0.147613
-0.163684
-0.177652
-0.147266
-0.120620
-0.105842
-0.093679
-0.051179
-0.003386
0.039821
0.068874
0.068750
0.081685
0.109630
0.072990
0.031190
-0.008039
-0.062755
-0.083392
-0.103170
-0.129974
-0.157123
-0.177366
-0.173280
-0.147338
-0.118717
-0.089325
-0.023606
0.021199
0.068769
0.077550
0.062781
0.044368
0.064319
0.046112
0.022425
-0.002435
-0.071827
-0.127849
-0.128599
-0.162375
-0.182425
-0.185272
-0.173675
-0.148768
-0.115869
-0.075544
-0.054895
-0.007151
0.048370
0.071751
0.078908
0.078717
0.085928
0.059396
0.016148
-0.037489
-0.090092
-0.124490
-0.174028
-0.165643
-0.165232
-0.160979
-0.179790
-0.169020
-0.147570
-0.115287
-0.055993
-0.017148
0.019936
0.071196
0.105949
0.095544
0.107260
0.063462
0.010970
-0.044279
-0.066638
-0.107335
-0.148481
-0.196594
-0.218245
-0.222266
-0.216034
-0.191156
-0.150742
-0.112391
-0.063835
-0.015270
0.026180
0.055757
0.095956
0.097266
0.062926
0.052267
0.016210
-0.016992
-0.061075
-0.098380
-0.131903
-0.177944
-0.222092
-0.239276
-0.229100
-0.197937
-0.148345
-0.132043
-0.081943
-0.010962
0.029793
0.062347
0.118620
0.127719
0.112348
0.094478
0.055768
0.015133
-0.029373
-0.066181
-0.124960
-0.169501
-0.181969
-0.207525
-0.200828
-0.177726
-0.139033
-0.084432
-0.043181
-0.007433
0.034588
0.086821
0.113003
0.135412
0.122838
0.096591
0.053114
0.022283
-0.020785
-0.079036
-0.106220
-0.161451
-0.184728
-0.175261
-0.171232
-0.146325
-0.108831
-0.089445
-0.042449
0.012050
0.060807
0.097522
0.112002
0.126065
0.120534
0.110998
0.080867
0.052387
-0.010439
-0.069974
-0.038987
-0.098619
-0.141020
-0.162864
-0.163848
-0.152284
-0.123475
-0.087502
-0.050440
-0.023890
0.015542
0.058793
0.082428
0.095928
0.083618
0.076006
0.033230
-0.008210
-0.070110
-0.136591
-0.157278
-0.169148
-0.220538
-0.226356
-0.201223
-0.170278
-0.132345
-0.097666
-0.059434
-0.038889
0.000280
0.020180
0.036423
0.039002
0.044309
0.009754
-0.023868
-0.048390
-0.073251
-0.140651
-0.169031
-0.189320
-0.208446
-0.236061
-0.231167
-0.210933
-0.171904
-0.125589
-0.086428
-0.053663
-0.036053
-0.007177
0.030615
0.043690
0.029866
-0.014728
-0.038776
-0.087147
-0.080352
-0.117762
-0.175553
-0.222308
-0.245806
-0.243809
-0.213542
-0.201216
-0.160051
-0.115151
-0.068900
-0.029315
-0.013468
0.012847
0.031783
0.044736
0.044588
-0.018633
-0.058427
-0.082397
-0.094092
-0.131148
-0.170720
-0.219343
-0.221186
-0.239667
-0.237738
-0.205582
-0.171478
-0.156104
-0.105616
-0.048902
-0.015834
0.013421
0.021024
0.027743
0.032943
0.041485
-0.000210
-0.053750
-0.105688
-0.143435
-0.187964
-0.229871
-0.267385
-0.275047
-0.261684
-0.230658
-0.197226
-0.167032
-0.121690
-0.061214
-0.001675
0.069777
0.087578
0.100028
0.118514
0.115521
0.089055
0.039669
-0.010410
-0.017276
-0.040355
-0.074440
-0.051998
-0.052176
-0.011047
0.025018
0.110516
0.181498
0.226091
0.320085
0.430249
0.479227
0.538981
0.568247
0.592524
0.623657
0.627666
0.616631
0.611103
0.597436
0.593924
0.587514
0.545886
0.514639
0.546454
0.527966
0.540021
0.592969
0.611426
0.653937
0.632036
0.593609
0.538243
0.483285
0.420527
0.356883
0.287644
0.195304
0.107519
0.085805
0.046903
-0.010030
-0.054735
-0.087161
-0.102276
-0.106027
-0.088645
-0.040646
0.035993
0.066859
0.084018
0.087664
0.090196
0.109825
0.115552
0.099899
0.064020
0.041026
-0.010526
-0.073206
-0.121024
-0.148042
-0.160261
-0.155460
-0.167769
-0.158447
-0.145849
-0.103727
-0.058210
-0.020753
0.010333
0.035601
0.060833
0.072351
0.051621
0.024278
-0.007287
-0.059957
-0.081674
-0.122227
-0.155597
-0.188327
-0.177017
-0.186506
-0.184561
-0.173165
-0.152600
-0.110476
-0.063093
-0.018544
-0.005061
0.051868
0.076218
0.080909
0.050829
0.013954
0.006165
-0.014968
-0.066791
-0.128614
-0.159553
-0.167355
-0.153592
-0.181193
-0.173620
-0.173420
-0.148697
-0.104938
-0.039594
-0.001440
0.024229
0.055686
0.079249
0.075508
0.092317
0.087390
0.013452
-0.047219
-0.095432
-0.157097
-0.173638
-0.171037
-0.183708
-0.178016
-0.168596
-0.174323
-0.123609
-0.074819
-0.036073
0.003866
0.042699
0.067126
0.088582
0.124476
0.121055
0.081661
0.030086
0.007587
-0.040708
-0.062656
-0.098593
-0.157266
-0.186420
-0.173054
-0.157684
-0.139617
-0.101224
-0.066588
-0.034877
0.007500
0.053770
0.102783
0.137939
0.139717
0.134422
0.126793
0.110464
0.054333
0.002916
-0.050001
-0.111795
-0.122399
-0.122188
-0.137140
-0.135735
-0.104590
-0.048579
0.001128
0.032626
0.076663
0.111486
0.145743
0.209826
0.216622
0.179148
0.155755
0.134606
0.088078
0.036093
-0.014625
-0.056108
-0.096572
-0.123772
-0.129557
-0.120987
-0.092165
-0.050684
-0.024737
0.017741
0.065081
0.110300
0.133360
0.161588
0.188904
0.186276
0.168142
0.141024
0.109367
0.066419
0.015558
-0.017516
-0.076148
-0.101016
-0.124128
-0.125637
-0.107545
-0.059178
-0.006729
0.013924
0.032748
0.082544
0.112520
0.150673
0.165382
0.166202
0.117378
0.072976
0.053341
0.006822
-0.027852
-0.037734
-0.060808
-0.071200
-0.089390
-0.091735
-0.097435
-0.071271
-0.041928
0.000180
0.034092
0.067465
0.106566
0.130833
0.123689
0.119194
0.105203
0.076644
0.030629
-0.007889
-0.023786
-0.084279
-0.091000
-0.139323
-0.154589
-0.132979
-0.128520
-0.118791
-0.070789
-0.028205
0.001533
0.037867
0.077877
0.094570
0.109897
0.097523
0.068677
0.025310
-0.021515
-0.054315
-0.089104
-0.131608
-0.157125
-0.170810
-0.190535
-0.188033
-0.159126
-0.112911
-0.091607
-0.048038
-0.004796
0.034366
0.055233
0.066480
0.067156
0.059806
0.054789
0.013959
-0.036375
-0.097481
-0.138561
-0.169336
-0.191503
-0.191229
-0.202463
-0.204058
-0.180973
-0.157468
-0.114435
-0.076290
-0.043305
-0.008075
0.066909
0.091976
0.076275
0.058197
0.046067
0.022224
-0.025959
-0.088883
-0.128717
-0.152281
-0.183664
-0.222840
-0.249627
-0.242921
-0.210502
-0.137485
-0.128751
-0.040796
0.011048
0.040243
0.061495
0.082629
0.090107
0.074813
0.062841
0.019127
-0.034771
-0.081012
-0.122381
-0.140743
-0.164764
-0.197184
-0.222277
-0.205959
-0.178450
-0.131072
-0.101335
-0.049831
0.007269
0.049304
0.069727
0.082354
0.087672
0.079700
0.057787
0.027611
-0.016101
-0.058329
-0.101921
-0.151491
-0.194229
-0.230107
-0.229071
-0.216961
-0.189584
-0.158622
-0.114269
-0.064376
-0.018476
0.040312
0.074137
0.104484
0.122473
0.106417
0.075376
0.038065
0.009075
-0.050594
-0.126894
-0.168689
-0.186685
-0.198903
-0.223690
-0.219329
-0.190835
-0.145592
-0.129794
-0.090999
-0.036509
0.008746
0.052647
0.094847
0.101133
0.073309
0.062933
0.031900
-0.011467
-0.064519
-0.096410
-0.124063
-0.163088
-0.187108
-0.205917
-0.235183
-0.200977
-0.162006
-0.139047
-0.127485
-0.071959
0.018718
0.053109
0.083158
0.101455
0.086141
0.047410
0.013671
-0.015339
-0.058476
-0.101861
-0.157050
-0.193708
-0.199318
-0.207906
-0.204682
-0.193263
-0.154964
-0.111244
-0.076627
-0.045885
-0.010375
0.006711
0.036834
0.061628
0.061003
0.044743
-0.002469
-0.034499
-0.080924
-0.125514
-0.162368
-0.184932
-0.203688
-0.209379
-0.214530
-0.194023
-0.157321
-0.128809
-0.087975
-0.029909
0.003564
0.031068
0.042085
0.047810
0.036806
0.027435
-0.001134
-0.049540
-0.102615
-0.140358
-0.168963
-0.198812
-0.212272
-0.217499
-0.210985
-0.186411
-0.154161
-0.121628
-0.087859
-0.045907
-0.002213
0.025431
0.062032
0.057188
0.032103
0.016890
-0.004023
-0.044163
-0.089057
-0.146246
-0.189676
-0.205176
-0.228410
-0.245901
-0.239823
-0.193835
-0.163259
-0.122203
-0.086794
-0.041324
0.007460
0.055771
0.069054
0.072574
0.056099
0.045019
0.013267
-0.021649
-0.060461
-0.097661
-0.166938
-0.188274
-0.207226
-0.220418
-0.216070
-0.178574
-0.145389
-0.118409
-0.052372
0.012906
0.053268
0.072969
0.093329
0.106557
0.085920
0.057990
0.030556
-0.027413
-0.081810
-0.109054
-0.157425
-0.186796
-0.203504
-0.228927
-0.220771
-0.189755
-0.153873
-0.092946
-0.032923
0.024065
0.055782
0.098737
0.138502
0.143519
0.125802
0.118322
0.089947
0.039381
-0.015613
-0.085895
-0.124228
-0.158290
-0.174363
-0.207401
-0.220090
-0.179286
-0.140340
-0.084561
-0.038159
-0.022175
0.001361
0.025355
0.069504
0.091019
0.087150
0.043145
0.051653
-0.015765
-0.087478
-0.123089
-0.175738
-0.206856
-0.232799
-0.245731
-0.219709
-0.203813
-0.183809
-0.158087
-0.086986
-0.037600
-0.024485
0.011703
0.053843
0.048856
0.022731
0.005361
-0.018412
-0.059126
-0.102629
-0.155212
-0.193870
-0.229477
-0.245045
-0.256290
-0.246791
-0.235881
-0.208453
-0.158092
-0.134047
-0.095010
-0.053596
-0.007124
0.018857
0.023521
0.012148
-0.011869
-0.044367
-0.090125
-0.141175
-0.173298
-0.177962
-0.177110
-0.209681
-0.261622
-0.236851
-0.215286
-0.190923
-0.133881
-0.084780
-0.069325
-0.036073
0.002489
0.011387
0.012519
0.042187
-0.005856
-0.042601
-0.063187
-0.098409
-0.147289
-0.198017
-0.231190
-0.250902
-0.244285
-0.222759
-0.208114
-0.179375
-0.150860
-0.111771
-0.071800
-0.039148
-0.004306
0.015364
0.016620
0.018340
-0.008949
-0.040279
-0.094354
-0.127888
-0.188344
-0.227708
-0.225544
-0.252647
-0.258091
-0.237782
-0.217530
-0.178653
-0.161223
-0.099554
-0.041869
0.019333
0.060631
0.082284
0.095167
0.084125
0.077620
0.045476
0.030394
0.020287
-0.031800
-0.059067
-0.065428
-0.073355
-0.042833
-0.003000
0.059886
0.114355
0.171032
0.257818
0.340231
0.399089
0.443750
0.492481
0.527929
0.580250
0.589997
0.576296
0.584172
0.542296
0.536995
0.509438
0.518048
0.484646
0.467346
0.499865
0.504714
0.519780
0.551239
0.583145
0.589494
0.564561
0.532522
0.499844
0.446844
0.377774
0.314443
0.231237
0.148768
0.096589
0.054067
-0.049132
-0.115098
-0.143278
-0.157795
-0.164057
-0.132231
-0.100767
-0.056002
-0.023722
0.020525
0.058529
0.101618
0.123494
0.124023
0.107248
0.074487
0.047703
0.016124
-0.023310
-0.078205
-0.124449
-0.177526
-0.212112
-0.227505
-0.214772
-0.205235
-0.171877
-0.122725
-0.067681
-0.019957
0.011417
0.043777
0.064461
0.082989
0.076931
0.045587
0.015241
-0.013583
-0.057722
-0.076044
-0.157216
-0.213085
-0.243478
-0.224862
-0.219750
-0.208554
-0.161453
-0.124599
-0.118280
-0.029135
0.038734
0.062478
0.059772
0.066620
0.053836
0.046339
0.020683
-0.007403
-0.056705
-0.104930
-0.134233
-0.161122
-0.186231
-0.206550
-0.186973
-0.191505
-0.181584
-0.142134
-0.085648
-0.047471
-0.002466
0.030768
0.042601
0.070195
0.064768
0.053102
0.007644
0.005904
-0.025816
-0.076622
-0.117682
-0.149891
-0.172010
-0.188661
-0.185485
-0.168802
-0.139206
-0.100145
-0.051004
-0.013116
0.027354
0.063208
0.089510
0.090079
0.100837
0.079774
0.058783
0.022005
-0.018600
-0.070672
-0.113026
-0.141962
-0.165107
-0.154410
-0.127381
-0.125623
-0.112927
-0.080941
-0.030282
0.024493
0.068883
0.106000
0.132469
0.136496
0.131781
0.105463
0.050613
0.018989
-0.006819
-0.052434
-0.095323
-0.107740
-0.121278
-0.124381
-0.133206
-0.091317
-0.045638
-0.002351
0.029681
0.069136
0.090273
0.094842
0.123009
0.151145
0.132676
0.120051
0.130687
0.089870
0.016036
-0.026903
-0.054873
-0.088616
-0.108185
-0.104338
-0.095178
-0.068923
-0.054220
-0.021559
0.029088
0.075167
0.106007
0.125074
0.163542
0.164699
0.186087
0.170281
0.119267
0.066703
-0.002130
-0.010456
-0.024893
-0.060336
-0.120669
-0.106639
-0.095298
-0.055715
-0.010528
0.027720
0.057287
0.092409
0.135192
0.147326
0.139560
0.159873
0.165836
0.131434
0.103972
0.071232
0.023377
-0.020718
-0.070709
-0.131450
-0.131726
-0.136053
-0.129018
-0.125372
-0.081507
-0.031879
-0.000602
0.078336
0.134264
0.132073
0.136275
0.141363
0.147850
0.114202
0.097241
0.044807
-0.007852
-0.059193
-0.097360
-0.135808
-0.176514
-0.165436
-0.162691
-0.161096
-0.111742
-0.068431
-0.018545
0.011034
0.080893
0.114495
0.135939
0.150680
0.129184
0.089749
0.055437
0.023568
-0.024000
-0.080426
-0.102009
-0.164288
-0.175614
-0.201381
-0.195156
-0.147837
-0.106670
-0.083600
-0.040624
-0.005454
0.027370
0.061829
0.101005
0.102274
0.086313
0.073353
0.046032
0.003141
-0.051509
-0.095321
-0.145408
-0.169791
-0.201112
-0.222957
-0.214868
-0.208065
-0.158917
-0.134494
-0.070351
-0.002668
0.030864
0.076265
0.079040
0.090662
0.105977
0.074298
0.033927
0.011632
-0.049361
-0.095812
-0.146721
-0.174664
-0.190790
-0.200374
-0.203207
-0.185257
-0.159232
-0.122139
-0.070502
-0.023056
0.024100
0.050678
0.080934
0.077296
0.067382
0.076951
0.049849
0.023512
-0.039041
-0.075221
-0.125520
-0.153254
-0.171475
-0.199174
-0.188135
-0.179166
-0.162032
-0.108795
-0.050951
-0.019187
0.022330
0.062531
0.097915
0.113626
0.118890
0.085255
0.057294
0.007759
-0.053184
-0.090947
-0.086245
-0.137193
-0.172393
-0.177283
-0.174208
-0.159295
-0.131126
-0.101542
-0.067694
-0.038796
0.019770
0.041380
0.065977
0.090766
0.098860
0.088452
0.051219
0.004548
-0.029004
-0.066516
-0.114509
-0.136784
-0.155979
-0.150949
-0.142204
-0.157869
-0.139848
-0.078570
-0.063317
-0.018954
0.025357
0.064636
0.082874
0.067030
0.086159
0.096089
0.049767
-0.021608
-0.064778
-0.081104
-0.123743
-0.142379
-0.176558
-0.182274
-0.183560
-0.163300
-0.145186
-0.098709
-0.049782
-0.016661
0.044926
0.084091
0.101108
0.096561
0.093878
0.068173
0.011215
-0.022138
-0.062186
-0.111811
-0.141739
-0.168398
-0.182146
-0.186736
-0.205098
-0.176535
-0.135368
-0.089980
-0.039661
-0.004714
0.037730
0.056682
0.078246
0.077798
0.071384
0.063414
0.029429
-0.017797
-0.070416
-0.107853
-0.161531
-0.175166
-0.191889
-0.194837
-0.200099
-0.178990
-0.138723
-0.108464
-0.047305
-0.013280
0.032291
0.068158
0.091546
0.081733
0.069471
0.048805
-0.003106
-0.003256
-0.059984
-0.105681
-0.150220
-0.177982
-0.217673
-0.237610
-0.204246
-0.171742
-0.142773
-0.107547
-0.052830
0.019382
0.061246
0.079274
0.089986
0.115643
0.147446
0.101145
0.032688
-0.025040
-0.086028
-0.124535
-0.159131
-0.163414
-0.164025
-0.177763
-0.197192
-0.184144
-0.149969
-0.074863
-0.027754
0.020769
0.080272
0.114685
0.119019
0.133860
0.147941
0.112791
0.065393
0.018004
-0.037497
-0.070458
-0.117441
-0.175760
-0.189814
-0.202436
-0.198243
-0.165816
-0.125763
-0.092972
-0.045845
0.010815
0.074890
0.126253
0.147485
0.150460
0.147200
0.124130
0.093325
0.045363
-0.002302
-0.032704
-0.061033
-0.101647
-0.152720
-0.159639
-0.148258
-0.131517
-0.117968
-0.083702
-0.047822
-0.004929
0.040899
0.065426
0.087729
0.103410
0.133072
0.092085
0.040180
-0.016954
-0.020115
-0.050243
-0.098309
-0.151274
-0.173478
-0.193580
-0.217083
-0.190558
-0.148927
-0.105713
-0.060980
-0.036369
0.006988
0.051164
0.081965
0.105554
0.079511
0.056138
0.006340
-0.014628
-0.062307
-0.114587
-0.147709
-0.186515
-0.211779
-0.215919
-0.208238
-0.207585
-0.161868
-0.138304
-0.115453
-0.059603
-0.020485
0.028730
0.062101
0.069113
0.055495
0.071226
0.021496
-0.045488
-0.107102
-0.138191
-0.177157
-0.214830
-0.226845
-0.224175
-0.213633
-0.184616
-0.191606
-0.164305
-0.090533
-0.032501
-0.003874
0.032649
0.054883
0.047380
0.050149
0.039099
0.005208
-0.028390
-0.082971
-0.128795
-0.154414
-0.190202
-0.216837
-0.230693
-0.215377
-0.206551
-0.179274
-0.137802
-0.096172
-0.054158
0.000999
0.032940
0.050555
0.052142
0.034194
-0.010791
-0.025443
-0.035758
-0.083704
-0.118157
-0.165950
-0.207381
-0.219053
-0.217018
-0.214540
-0.210065
-0.172760
-0.142684
-0.082518
-0.027611
0.013584
0.041009
0.082253
0.093307
0.096945
0.072452
0.028450
0.000640
-0.006738
-0.021300
-0.035769
-0.048326
-0.053399
-0.052886
-0.028367
0.001269
0.043252
0.107651
0.193273
0.256219
0.345952
0.420144
0.443599
0.467874
0.499817
0.494545
0.506345
0.496955
0.494050
0.488185
0.481845
0.501174
0.512778
0.533296
0.555960
0.615407
0.649380
0.657668
0.695341
0.696775
0.715502
0.745177
0.734519
0.662483
0.578910
0.509940
0.413124
0.334413
0.209843
0.133397
0.054366
0.004362
-0.026064
-0.037790
-0.064562
-0.053515
-0.025158
-0.001989
0.046688
0.089614
0.132161
0.166970
0.170425
0.151191
0.163540
0.152004
0.093738
0.045904
-0.015815
-0.049734
-0.065547
-0.106030
-0.160587
-0.176256
-0.168855
-0.135704
-0.108520
-0.056576
-0.009806
0.033811
0.071112
0.112822
0.117542
0.117366
0.103571
0.078373
0.043039
0.004079
-0.036655
-0.090519
-0.147459
-0.175325
-0.206110
-0.208187
-0.193636
-0.171317
-0.131138
-0.086914
-0.039012
0.003421
0.049185
0.086357
0.108289
0.112760
0.102667
0.071763
0.066912
0.026518
-0.026719
-0.077420
-0.132351
-0.181425
-0.209985
-0.200247
-0.174541
-0.148189
-0.135549
-0.100416
-0.040331
0.007539
0.050418
0.087318
0.117257
0.119768
0.122599
0.098625
0.077610
0.033654
-0.019281
-0.063286
-0.113809
-0.134117
-0.170583
-0.175728
-0.163901
-0.146420
-0.110798
-0.063677
-0.020416
0.027468
0.075113
0.094240
0.118670
0.145968
0.130830
0.098902
0.082154
0.062819
0.011630
-0.023885
-0.067719
-0.115527
-0.135645
-0.149531
-0.137804
-0.130111
-0.112192
-0.073420
-0.029601
0.058249
0.113195
0.149044
0.179132
0.182616
0.147615
0.123786
0.107495
0.111360
0.046974
0.010732
-0.037336
-0.085176
-0.090305
-0.087768
-0.085907
-0.055852
-0.039806
-0.008536
0.027347
0.052872
0.081624
0.140775
0.181698
0.199984
0.188068
0.171160
0.141838
0.095458
0.038872
0.004532
-0.010049
-0.005931
-0.054778
-0.066826
-0.061923
-0.036479
0.017161
0.042419
0.046286
0.094367
0.135880
0.174089
0.187503
0.201975
0.195335
0.171416
0.129347
0.100550
0.057376
0.015976
-0.022521
-0.047121
-0.059551
-0.072458
-0.066086
-0.048198
-0.012205
0.020150
0.059107
0.109645
0.165195
0.193081
0.191112
0.165576
0.192040
0.163197
0.130812
0.085425
0.039906
-0.005821
-0.040739
-0.072650
-0.096784
-0.110534
-0.093654
-0.077011
-0.036861
0.004594
0.047411
0.093790
0.145131
0.168592
0.178782
0.185648
0.180422
0.152696
0.110256
0.056979
0.005016
-0.036388
-0.093205
-0.127804
-0.134769
-0.148260
-0.155012
-0.121934
-0.079911
-0.031399
0.015157
0.056748
0.122648
0.161837
0.151487
0.158793
0.148106
0.119273
0.099572
0.041594
-0.029100
-0.060552
-0.091726
-0.136633
-0.175763
-0.163518
-0.157996
-0.146659
-0.112904
-0.069665
-0.026984
0.019090
0.052058
0.089331
0.122855
0.131352
0.140052
0.118232
0.068415
0.035859
-0.036330
-0.063803
-0.107239
-0.165124
-0.181996
-0.198890
-0.199326
-0.170682
-0.141493
-0.105851
-0.056272
-0.031824
0.051101
0.093248
0.110027
0.125307
0.114832
0.081524
0.051879
0.031335
-0.011849
-0.065469
-0.108683
-0.142423
-0.166223
-0.175269
-0.169743
-0.152367
-0.122078
-0.091233
-0.048913
-0.010088
0.046047
0.076482
0.118136
0.118966
0.109900
0.098787
0.094472
0.057746
0.015349
-0.023412
-0.084842
-0.136427
-0.159435
-0.166587
-0.152456
-0.139369
-0.118549
-0.099190
-0.052586
-0.005081
0.042499
0.075191
0.104297
0.116369
0.106863
0.078125
0.052288
0.008163
-0.014404
-0.050835
-0.093859
-0.112725
-0.138595
-0.150073
-0.139225
-0.120675
-0.102041
-0.067485
-0.019348
0.022605
0.060967
0.105671
0.091756
0.085366
0.112675
0.074148
0.039507
0.021425
-0.022869
-0.055238
-0.103648
-0.137160
-0.141957
-0.132416
-0.140059
-0.133084
-0.060354
-0.059617
-0.033068
0.008526
0.050603
0.085447
0.107594
0.111293
0.099208
0.078849
0.061033
0.019508
-0.028018
-0.079054
-0.118573
-0.127231
-0.151828
-0.156230
-0.149043
-0.105541
-0.075761
-0.036731
-0.009371
0.023324
0.065093
0.087929
0.115807
0.118473
0.104219
0.079680
0.035602
-0.014070
-0.048987
-0.076494
-0.117399
-0.151195
-0.173851
-0.198927
-0.184095
-0.144083
-0.107596
-0.070727
-0.014421
0.044022
0.083611
0.090226
0.110463
0.113862
0.119763
0.081632
0.044100
0.013276
-0.029672
-0.088369
-0.129829
-0.171174
-0.197729
-0.196302
-0.170548
-0.146957
-0.125281
-0.078310
-0.015588
0.011523
0.048528
0.091476
0.098324
0.094911
0.102823
0.092718
0.040096
0.002818
-0.052585
-0.102908
-0.160076
-0.153026
-0.180652
-0.201749
-0.200077
-0.176778
-0.142544
-0.105604
-0.064427
-0.010318
0.033867
0.073711
0.100797
0.119154
0.125120
0.112568
0.079637
0.023316
-0.033639
-0.083460
-0.134552
-0.182329
-0.203804
-0.193835
-0.192450
-0.159570
-0.134258
-0.086035
-0.030064
0.013462
0.067967
0.135587
0.158290
0.117910
0.093961
0.076273
0.042883
0.024551
-0.019648
-0.045047
-0.079636
-0.118648
-0.153533
-0.172592
-0.171614
-0.140502
-0.092335
-0.057348
-0.019422
0.027341
0.079671
0.110255
0.126469
0.137081
0.142624
0.108185
0.104011
0.045104
-0.022923
-0.038572
-0.087958
-0.118735
-0.134155
-0.144289
-0.148127
-0.106006
-0.095724
-0.068931
-0.026297
0.027727
0.075069
0.108451
0.139572
0.133112
0.131609
0.126423
0.099719
0.056122
0.029755
-0.001643
-0.071603
-0.093294
-0.118025
-0.145603
-0.130272
-0.102080
-0.087885
-0.062934
-0.018766
0.021618
0.052342
0.075508
0.100813
0.106404
0.104652
0.092532
0.047482
0.005268
-0.048581
-0.072530
-0.120921
-0.153034
-0.178358
-0.168031
-0.150094
-0.133902
-0.113900
-0.074133
-0.053182
-0.030525
-0.007131
0.019638
0.069812
0.095234
0.111433
0.086286
0.024411
-0.023952
-0.065809
-0.119593
-0.160918
-0.183197
-0.183218
-0.190176
-0.185318
-0.161149
-0.140127
-0.099988
-0.056915
-0.026116
0.003405
0.051401
0.078876
0.072390
0.062632
0.035557
-0.004641
-0.041960
-0.086828
-0.135907
-0.160254
-0.174875
-0.205388
-0.213530
-0.217063
-0.187722
-0.130252
-0.108690
-0.055092
0.004222
0.042813
0.068851
0.079859
0.085982
0.076678
0.056970
0.031788
-0.035354
-0.094640
-0.127894
-0.177024
-0.191127
-0.237683
-0.237538
-0.211699
-0.187967
-0.158265
-0.110445
-0.053806
-0.027009
0.015179
0.053799
0.088005
0.085246
0.072790
0.045419
0.010570
-0.036592
-0.083758
-0.135285
-0.166445
-0.202392
-0.237915
-0.249020
-0.251918
-0.211916
-0.159310
-0.110148
-0.056889
-0.006754
0.053655
0.084889
0.125120
0.152031
0.148464
0.126950
0.116421
0.084056
0.049875
0.019919
-0.021817
-0.040204
-0.038149
-0.028245
0.000562
0.046274
0.112839
0.182973
0.269632
0.346931
0.418163
0.482642
0.577508
0.615557
0.634843
0.627978
0.655261
0.673394
0.652592
0.615186
0.633068
0.652389
0.606956
0.594867
0.596359
0.622401
0.638150
0.665273
0.657357
0.658429
0.659633
0.644034
0.615165
0.566069
0.502724
0.448325
0.371230
0.274020
0.171014
0.111583
0.058054
0.015870
-0.010213
-0.031277
-0.047382
-0.031503
-0.012611
0.016401
0.028171
0.055233
0.103294
0.158800
0.174565
0.155968
0.148254
0.117876
0.088937
0.068941
0.029685
-0.026635
-0.064339
-0.094277
-0.123635
-0.138014
-0.146339
-0.113284
-0.110500
-0.077307
-0.030392
0.008055
0.050526
0.096091
0.105000
0.108039
0.106027
0.089433
0.060928
0.024796
-0.012602
-0.073981
-0.115341
-0.130790
-0.144886
-0.134998
-0.151729
-0.155910
-0.116167
-0.062609
-0.046264
-0.019187
0.016803
0.059799
0.101739
0.111332
0.105794
0.075255
0.062132
0.023525
-0.021561
-0.071905
-0.114378
-0.142127
-0.159811
-0.147459
-0.132530
-0.110735
-0.087634
-0.062693
-0.025872
0.020635
0.059688
0.112862
0.125556
0.119556
0.106346
0.092709
0.068625
0.013058
-0.023313
-0.063285
-0.092273
-0.141481
-0.143081
-0.139200
-0.124855
-0.095894
-0.071856
-0.039168
-0.004371
0.046440
0.094486
0.132952
0.155746
0.144537
0.133577
0.130341
0.087352
0.037233
0.014867
-0.011985
-0.077910
-0.124050
-0.133697
-0.124233
-0.133974
-0.092875
-0.056470
-0.017044
0.028320
0.098087
0.145223
0.172285
0.179021
0.172560
0.161802
0.132652
0.121722
0.112376
0.068151
-0.001587
-0.058679
-0.072731
-0.114077
-0.088467
-0.085156
-0.054167
-0.023935
0.002273
0.060274
0.117971
0.153386
0.201353
0.205334
0.219613
0.225260
0.193954
0.177699
0.162195
0.098600
0.036251
-0.003427
-0.033685
-0.063689
-0.058795
-0.059579
-0.046507
-0.011367
0.037507
0.078840
0.115418
0.160227
0.214398
0.232596
0.223024
0.228011
0.211109
0.174131
0.177157
0.098418
0.052384
0.017876
-0.015779
-0.039888
-0.066382
-0.057711
-0.061243
-0.020938
0.029931
0.069046
0.107918
0.139247
0.191154
0.234271
0.224535
0.187632
0.168397
0.165944
0.146845
0.088748
0.027642
0.001450
-0.028267
-0.055392
-0.082822
-0.064912
-0.041442
-0.021730
0.002063
0.044147
0.078086
0.128757
0.158288
0.176291
0.188895
0.183888
0.164861
0.128843
0.091998
0.048106
0.003833
-0.039272
-0.078264
-0.100254
-0.106582
-0.087974
-0.079609
-0.064818
-0.013261
0.013661
0.064464
0.098206
0.124951
0.138088
0.141690
0.135429
0.119846
0.076785
0.043061
-0.006288
-0.044619
-0.078059
-0.107851
-0.127717
-0.134527
-0.133499
-0.120152
-0.084314
-0.045725
-0.027536
0.031434
0.088255
0.107962
0.106344
0.122251
0.106915
0.089161
0.061305
0.018816
-0.016622
-0.057782
-0.114840
-0.139153
-0.147209
-0.161830
-0.158841
-0.125190
-0.088726
-0.057911
-0.017906
0.035057
0.076960
0.116509
0.115607
0.115799
0.110408
0.090158
0.061152
0.006151
-0.032187
-0.092139
-0.131993
-0.157650
-0.160672
-0.128430
-0.140770
-0.148201
-0.121059
-0.059324
-0.013405
0.046696
0.073371
0.108371
0.126140
0.109649
0.130740
0.128189
0.108584
0.035463
-0.022463
-0.061508
-0.124292
-0.147517
-0.159900
-0.178405
-0.171647
-0.159382
-0.105411
-0.065378
-0.017872
0.032156
0.081946
0.104450
0.146857
0.175443
0.139327
0.113833
0.093746
0.045838
-0.002827
-0.055134
-0.099205
-0.135712
-0.169138
-0.168824
-0.158446
-0.132275
-0.110296
-0.053221
-0.016433
0.042734
0.082763
0.113198
0.139394
0.126479
0.144436
0.124258
0.091209
0.066945
0.036328
-0.022456
-0.076500
-0.112610
-0.134440
-0.138680
-0.149904
-0.137542
-0.108540
-0.062147
-0.015501
0.044414
0.073924
0.105466
0.121082
0.138306
0.143200
0.124514
0.113209
0.063719
0.025773
-0.033891
-0.074549
-0.126610
-0.144263
-0.148385
-0.135223
-0.138513
-0.096708
-0.053694
-0.009829
0.030626
0.064797
0.101341
0.118229
0.121551
0.116472
0.094109
0.074915
0.029831
-0.016177
-0.058045
-0.098909
-0.134727
-0.163845
-0.131798
-0.118713
-0.125225
-0.105430
-0.093085
-0.051512
0.025242
0.077608
0.103803
0.129230
0.117455
0.118299
0.102367
0.063677
0.013836
0.003504
-0.045846
-0.085548
-0.117318
-0.139443
-0.149545
-0.134413
-0.127094
-0.114908
-0.079949
-0.054467
0.022816
0.061044
0.074563
0.120362
0.133789
0.137144
0.102216
0.056991
0.008386
-0.018494
-0.055999
-0.091127
-0.131442
-0.165746
-0.180480
-0.171939
-0.125866
-0.085442
-0.039614
-0.008262
0.047014
0.069786
0.104657
0.115071
0.116242
0.114353
0.092987
0.055761
0.006542
-0.029873
-0.080820
-0.125638
-0.145294
-0.157623
-0.163325
-0.163291
-0.147423
-0.121781
-0.072800
-0.011729
0.059952
0.084149
0.118214
0.123089
0.116649
0.119204
0.087046
0.060467
0.039243
-0.003482
-0.059088
-0.111111
-0.138025
-0.152055
-0.164270
-0.148803
-0.119528
-0.090101
-0.047723
0.019590
0.057442
0.087837
0.131470
0.168807
0.175296
0.159480
0.124260
0.102240
0.054473
-0.002829
-0.053516
-0.088767
-0.116936
-0.141955
-0.138208
-0.121729
-0.109724
-0.082367
-0.035590
0.036927
0.079982
0.095117
0.128806
0.148314
0.156618
0.144317
0.131666
0.110761
0.069654
0.020132
-0.013148
-0.053724
-0.078084
-0.122474
-0.106825
-0.090328
-0.089568
-0.061113
-0.024033
0.005110
0.056331
0.119543
0.164658
0.185389
0.166234
0.172773
0.110667
0.082500
0.040340
0.009140
-0.032889
-0.070869
-0.110612
-0.145166
-0.157969
-0.171396
-0.158434
-0.114336
-0.086250
-0.023144
0.037779
0.077283
0.121092
0.133755
0.144983
0.119055
0.106388
0.072374
0.037051
0.001288
-0.053605
-0.093788
-0.124787
-0.163874
-0.180792
-0.185180
-0.169046
-0.148666
-0.108468
-0.075172
-0.025194
0.024054
0.084073
0.100938
0.111384
0.103426
0.069954
0.053009
0.024091
-0.018978
-0.062542
-0.102082
-0.124465
-0.153293
-0.194409
-0.204375
-0.178211
-0.141286
-0.098970
-0.057848
-0.030510
0.021192
0.068211
0.077421
0.087710
0.086790
0.066915
0.047298
0.005261
-0.023590
-0.069009
-0.115995
-0.150140
-0.168115
-0.177327
-0.176869
-0.162429
-0.131696
-0.091176
-0.044189
-0.019286
0.001791
0.070948
0.107127
0.112334
0.086475
0.042861
0.033898
-0.003600
-0.059862
-0.090841
-0.133769
-0.158455
-0.166949
-0.174440
-0.163475
-0.150075
-0.123010
-0.079339
-0.024972
0.013738
0.030119
0.054377
0.075670
0.084082
0.091775
0.056329
0.027264
-0.003958
-0.056550
-0.078919
-0.098887
-0.106292
-0.116098
-0.110387
-0.104983
-0.061744
-0.012374
0.039577
0.094414
0.169316
0.225133
0.285537
0.312389
0.359065
0.376892
0.367457
0.364442
0.380081
0.373751
0.356658
0.337980
0.340429
0.353387
0.387579
0.440159
0.491304
0.568471
0.663906
0.732961
0.824920
0.877420
0.908574
0.910388
0.959310
0.938166
0.870494
0.813277
0.768124
0.683566
0.580678
0.467748
0.352707
0.284709
0.218836
0.171915
0.128112
0.092682
0.111514
0.154541
0.223479
0.297156
0.308365
0.301871
0.284955
0.274396
0.262057
0.207584
0.148423
0.105121
0.040179
0.000164
-0.051771
-0.083135
-0.095964
-0.092392
-0.093706
-0.051508
-0.000492
0.022788
0.058792
0.099780
0.140701
0.158089
0.165815
0.157523
0.140002
0.122264
0.083842
0.042889
-0.008572
-0.047525
-0.089239
-0.119503
-0.142328
-0.117573
-0.103205
-0.073882
-0.032142
-0.004254
0.040425
0.088547
0.132556
0.156186
0.156201
0.153391
0.109559
0.092601
0.063683
0.028699
-0.003846
-0.045703
-0.085228
-0.112166
-0.125521
-0.112838
-0.112073
-0.090031
-0.042553
0.011325
0.070314
0.092425
0.127500
0.142280
0.146244
0.139441
0.137055
0.105809
0.060986
0.042401
-0.016289
-0.066902
-0.086798
-0.107138
-0.103788
-0.093665
-0.059156
-0.031073
0.007063
0.040877
0.085698
0.127388
0.157053
0.170908
0.174438
0.159968
0.126653
0.100420
0.089779
0.031372
-0.011992
-0.044457
-0.067466
-0.091155
-0.099933
-0.045695
-0.021549
-0.004144
0.012718
0.072399
0.114495
0.150116
0.182832
0.209675
0.214302
0.212065
0.195727
0.164908
0.117719
0.075187
0.027144
-0.018223
-0.054073
-0.062725
-0.064551
-0.057470
-0.047503
0.004551
0.042704
0.092578
0.135995
0.193283
0.217246
0.238164
0.260153
0.250257
0.208191
0.180333
0.141933
0.127418
0.100107
0.047732
-0.015602
-0.039743
-0.044527
-0.032737
-0.019153
0.022226
0.087027
0.121563
0.166928
0.211775
0.245638
0.274153
0.299675
0.287989
0.252733
0.211575
0.181674
0.153852
0.101797
0.051575
0.006659
-0.021646
-0.041063
-0.016160
0.003162
0.036082
0.070138
0.100141
0.152439
0.193078
0.236536
0.253529
0.261898
0.271422
0.282169
0.245891
0.197113
0.160224
0.112233
0.059289
0.019223
-0.015641
-0.040050
-0.032213
0.005672
0.031905
0.050669
0.086154
0.144232
0.192632
0.230729
0.240309
0.254295
0.256255
0.243779
0.208824
0.161522
0.113638
0.059954
0.007337
-0.022083
-0.040081
-0.056388
-0.046144
-0.054461
-0.028389
0.031129
0.074751
0.107390
0.137638
0.159321
0.200436
0.193511
0.184415
0.155924
0.151086
0.125984
0.087902
0.035256
-0.019356
-0.043122
-0.065066
-0.101168
-0.089595
-0.053817
-0.015562
0.014325
0.030775
0.101257
0.115848
0.140806
0.165797
0.174779
0.163777
0.144370
0.112658
0.079456
0.042989
0.003323
-0.050188
-0.087686
-0.098743
-0.098076
-0.088923
-0.084892
-0.059576
-0.011548
0.019556
0.062680
0.095596
0.146531
0.163841
0.142505
0.144490
0.134645
0.101076
0.046890
-0.011053
-0.038078
-0.052678
-0.095231
-0.154260
-0.156262
-0.102324
-0.066987
-0.026048
-0.018506
0.016903
0.061724
0.094866
0.139560
0.179466
0.153668
0.143509
0.152158
0.121245
0.075876
0.034795
-0.030147
-0.071096
-0.120788
-0.140739
-0.161810
-0.127052
-0.090659
-0.053507
-0.012866
0.022367
0.067577
0.115518
0.154919
0.169694
0.175008
0.172270
0.154170
0.124689
0.084576
0.039576
-0.012745
-0.065820
-0.105915
-0.125317
-0.141495
-0.120431
-0.100169
-0.052883
0.013912
0.048368
0.075130
0.099571
0.134178
0.179038
0.189342
0.182835
0.157766
0.131889
0.083967
0.042204
0.001971
-0.061525
-0.099516
-0.129353
-0.126801
-0.124859
-0.114873
-0.065916
-0.006086
0.018464
0.053862
0.106248
0.152680
0.167767
0.179598
0.173311
0.156833
0.130393
0.109188
0.064870
0.007506
-0.036247
-0.071083
-0.107808
-0.135351
-0.129393
-0.115268
-0.053443
-0.036654
0.016760
0.066594
0.102693
0.130793
0.167864
0.181612
0.164235
0.145116
0.114681
0.070029
0.034784
-0.008981
-0.054118
-0.091433
-0.111495
-0.123225
-0.117950
-0.100010
-0.065541
-0.016231
0.028728
0.065214
0.089964
0.129986
0.152348
0.172916
0.164515
0.142533
0.105857
0.056000
0.024034
-0.032897
-0.064662
-0.100224
-0.124980
-0.121722
-0.114532
-0.097688
-0.080819
-0.032471
0.026542
0.062223
0.089577
0.132539
0.153539
0.162359
0.140570
0.099828
0.085164
0.033254
0.001769
-0.024849
-0.054583
-0.086006
-0.108651
-0.115774
-0.108903
-0.100327
-0.065011
-0.020210
0.013437
0.051795
0.083326
0.121790
0.135956
0.138897
0.134296
0.115683
0.078344
0.023892
-0.005762
-0.052835
-0.081448
-0.069666
-0.113565
-0.139230
-0.131858
-0.112826
-0.096844
-0.053381
-0.017222
0.048344
0.119600
0.154628
0.148850
0.177961
0.160673
0.138879
0.096226
0.047997
-0.010125
-0.054545
-0.114657
-0.146744
-0.153120
-0.149558
-0.112828
-0.093794
-0.074294
-0.043977
0.010859
0.063442
0.109576
0.145142
0.171010
0.166303
0.160264
0.142438
0.107106
0.064555
0.024439
-0.026612
-0.069251
-0.105487
-0.126856
-0.124523
-0.116933
-0.075992
-0.045147
-0.009999
0.041371
0.099344
0.132489
0.172920
0.207763
0.201069
0.183583
0.172186
0.144006
0.114915
0.052173
-0.012265
-0.046620
-0.076356
-0.111456
-0.128339
-0.126317
-0.105018
-0.066994
-0.039835
0.012772
0.073046
0.126009
0.163366
0.189727
0.205729
0.199595
0.198400
0.167656
0.125888
0.079525
0.031981
-0.003338
-0.034034
-0.066555
-0.097459
-0.095319
-0.076319
-0.060469
-0.018696
0.023322
0.060045
0.122715
0.144704
0.160512
0.163407
0.188986
0.174735
0.120278
0.089706
0.052829
-0.019028
-0.070126
-0.100175
-0.112387
-0.135198
-0.141297
-0.107696
-0.044691
-0.012321
0.020696
0.053674
0.084946
0.117166
0.131735
0.151015
0.133753
0.137716
0.118576
0.071312
-0.004127
-0.052207
-0.068982
-0.097452
-0.126524
-0.145318
-0.128422
-0.113369
-0.093484
-0.050773
-0.014464
0.024496
0.056472
0.082790
0.105136
0.120105
0.105558
0.091890
0.047138
0.020957
-0.023050
-0.063132
-0.094112
-0.119440
-0.147909
-0.154930
-0.136453
-0.110394
-0.093193
-0.065183
-0.038161
-0.006631
0.028293
0.106583
0.134509
0.131487
0.100220
0.091992
0.057824
0.019262
-0.040615
-0.081116
-0.108282
-0.132528
-0.139272
-0.140518
-0.143390
-0.118586
-0.093638
-0.064033
-0.010055
0.042793
0.087656
0.110101
0.120874
0.121705
0.109690
0.084050
0.064362
0.027758
-0.011194
-0.059854
-0.110286
-0.159843
-0.185087
-0.164256
-0.146397
-0.132451
-0.101321
-0.065813
-0.019855
0.024430
0.059602
0.090078
0.130570
0.137230
0.149784
0.132291
0.091154
0.052772
0.028023
-0.010318
-0.033835
-0.054532
-0.060497
-0.052895
-0.037430
0.010074
0.063381
0.120445
0.176590
0.252937
0.346983
0.397123
0.466373
0.519784
0.525391
0.514304
0.480023
0.527864
0.539953
0.527688
0.520618
0.516383
0.523912
0.542072
0.575764
0.643272
0.703250
0.721943
0.768092
0.828161
0.851146
0.866448
0.900210
0.889776
0.844629
0.754936
0.662874
0.551184
0.455753
0.361022
0.264201
0.181262
0.100898
0.051460
0.045574
0.061655
0.068428
0.087878
0.147620
0.194975
0.226478
0.262935
0.273161
0.229962
0.214575
0.224689
0.183409
0.146634
0.086698
0.042657
0.002504
-0.030147
-0.076466
-0.100196
-0.095890
-0.083060
-0.046262
-0.006335
0.025686
0.076647
0.123253
0.135973
0.161457
0.171504
0.166168
0.146937
0.114923
0.082666
0.042284
0.006108
-0.038828
-0.068605
-0.086495
-0.101483
-0.081495
-0.083148
-0.082297
-0.032108
-0.001942
0.044230
0.084529
0.126800
0.149889
0.148979
0.137690
0.124073
0.102627
0.064104
0.031888
-0.014188
-0.047751
-0.090521
-0.107543
-0.120866
-0.096056
-0.091626
-0.055462
-0.012615
0.027168
0.063126
0.106846
0.148182
0.164320
0.156143
0.155761
0.137179
0.101653
0.081902
0.031611
-0.011876
-0.040203
-0.058983
-0.075530
-0.095309
-0.087968
-0.065501
-0.044654
-0.002348
0.059404
0.104687
0.135442
0.170958
0.220971
0.220719
0.181771
0.161745
0.135416
0.097302
0.044295
-0.005010
-0.049179
-0.094025
-0.102664
-0.087300
-0.059594
-0.044295
0.009064
0.024940
0.070009
0.138633
0.224863
0.231227
0.204600
0.234493
0.235806
0.209747
0.179663
0.135510
0.093379
0.033569
-0.025513
-0.051314
-0.058983
-0.065940
-0.047847
-0.021517
0.039914
0.063929
0.110385
0.164389
0.211835
0.254200
0.276140
0.277615
0.258004
0.259836
0.213810
0.167363
0.119569
0.071204
0.033708
-0.004877
-0.020843
-0.037867
-0.021641
0.006965
0.027537
0.069897
0.110193
0.161365
0.217492
0.262845
0.292433
0.297006
0.294985
0.277056
0.241813
0.187582
0.148553
0.110464
0.069479
0.024892
-0.014341
-0.031647
-0.040758
0.009540
0.052215
0.090615
0.126786
0.172748
0.214475
0.234253
0.261129
0.280216
0.273604
0.258768
0.212530
0.182430
0.140267
0.090060
0.041742
0.012892
-0.009390
-0.019848
-0.020666
-0.011371
0.033167
0.056337
0.097235
0.141169
0.180217
0.218444
0.249151
0.252070
0.237022
0.214945
0.201441
0.158412
0.098231
0.061210
0.020248
0.001527
-0.035455
-0.072362
-0.017499
-0.036446
-0.012184
0.012333
0.065270
0.078157
0.167457
0.199350
0.190902
0.213960
0.211035
0.192356
0.157675
0.113638
0.054969
0.005933
-0.019366
-0.048873
-0.065146
-0.061179
-0.054391
-0.050237
-0.021853
0.000530
0.053891
0.086920
0.123260
0.148872
0.177198
0.171144
0.145974
0.121659
0.079907
0.084142
0.061732
0.022246
-0.032180
-0.098776
-0.109824
-0.082696
-0.092285
-0.087486
-0.056951
-0.011523
0.031218
0.093069
0.120161
0.129957
0.148795
0.159680
0.165076
0.150786
0.128011
0.058871
0.008287
-0.031581
-0.073738
-0.106259
-0.116728
-0.125132
-0.112401
-0.082784
-0.032041
0.010257
0.042734
0.080668
0.118625
0.152726
0.176473
0.181547
0.171735
0.141488
0.103107
0.070614
0.026570
-0.028078
-0.075390
-0.117533
-0.128352
-0.120614
-0.119075
-0.090675
-0.035772
-0.004305
0.047654
0.090201
0.133577
0.168451
0.191164
0.211989
0.181984
0.157841
0.119602
0.074120
0.039476
0.000528
-0.057212
-0.092668
-0.111503
-0.117419
-0.106819
-0.082240
-0.041600
-0.021774
0.029365
0.095829
0.137271
0.177711
0.195579
0.184580
0.175719
0.162537
0.121497
0.088538
0.044582
0.024114
-0.034465
-0.077528
-0.098125
-0.111180
-0.096208
-0.076862
-0.060043
-0.031717
0.033527
0.075911
0.115943
0.158273
0.186320
0.184916
0.186997
0.181314
0.135727
0.111580
0.051583
-0.015703
-0.050542
-0.067447
-0.109013
-0.136796
-0.133456
-0.115449
-0.066566
-0.020437
0.011345
0.054625
0.101465
0.166613
0.196986
0.191576
0.151102
0.146529
0.143590
0.125778
0.069516
0.000095
-0.040647
-0.089025
-0.126379
-0.134758
-0.114583
-0.089397
-0.076566
-0.047103
0.006390
0.050312
0.110178
0.129489
0.156694
0.169306
0.165263
0.157697
0.128660
0.098596
0.038132
-0.013761
-0.057221
-0.102130
-0.126509
-0.114276
-0.121722
-0.119393
-0.074180
-0.059154
0.003838
0.061648
0.102508
0.122368
0.137060
0.157218
0.171823
0.156874
0.118452
0.075081
0.025714
-0.013686
-0.060346
-0.094571
-0.128242
-0.140583
-0.133923
-0.101362
-0.065338
-0.022331
0.008514
0.025391
0.080342
0.124218
0.132203
0.131586
0.131039
0.112767
0.082693
0.057148
0.033221
-0.000095
-0.052568
-0.088214
-0.111196
-0.124911
-0.113417
-0.094023
-0.065006
-0.026425
-0.004954
0.055175
0.091165
0.120728
0.138547
0.166125
0.141366
0.118559
0.078426
0.024813
-0.001895
-0.040394
-0.077721
-0.111935
-0.133743
-0.129529
-0.112910
-0.097108
-0.069468
-0.035420
0.012464
0.056924
0.091415
0.119196
0.144106
0.160750
0.156006
0.119642
0.082429
0.039000
-0.000781
-0.041369
-0.090808
-0.124864
-0.125126
-0.125446
-0.129699
-0.104349
-0.062362
-0.040422
0.008162
0.023826
0.053807
0.123146
0.138463
0.156815
0.160514
0.147377
0.119242
0.072942
0.020013
-0.028812
-0.074473
-0.113294
-0.125456
-0.136330
-0.121658
-0.097868
-0.075800
-0.036355
0.020667
0.072781
0.117691
0.169885
0.183979
0.194458
0.193794
0.163984
0.134146
0.092101
0.057200
0.008554
-0.047704
-0.080517
-0.104960
-0.120950
-0.111604
-0.094851
-0.061646
-0.009307
0.032940
0.084598
0.132241
0.173674
0.190325
0.200459
0.193430
0.172934
0.135531
0.124324
0.080525
0.037272
-0.022476
-0.062426
-0.087158
-0.087487
-0.084254
-0.075340
-0.043816
0.002343
0.041940
0.094037
0.139298
0.172956
0.169795
0.209642
0.225829
0.169019
0.135469
0.100423
0.079629
0.005363
-0.051338
-0.087135
-0.114566
-0.116611
-0.113955
-0.103942
-0.062832
-0.028672
0.008035
0.027502
0.065733
0.079104
0.107382
0.130885
0.133613
0.129936
0.121896
0.082556
0.006449
-0.023682
-0.069442
-0.109325
-0.140735
-0.144234
-0.144336
-0.133262
-0.091506
-0.073029
-0.038502
0.046803
0.098143
0.108608
0.109030
0.091390
