-0.041348
0.005268
0.061437
0.094824
0.111256
0.125355
0.111352
0.079304
0.056872
0.015353
-0.048006
-0.094328
-0.127267
-0.160935
-0.185837
-0.194664
-0.177259
-0.145277
-0.118066
-0.082202
-0.029529
0.015468
0.054780
0.082291
0.116974
0.125466
0.120162
0.094948
0.057057
0.004788
-0.042787
-0.083348
-0.112609
-0.156252
-0.180836
-0.191903
-0.182988
-0.153494
-0.131861
-0.093665
-0.023191
0.045454
0.070963
0.104100
0.113146
0.110337
0.100752
0.089235
0.052038
0.013457
-0.037345
-0.078409
-0.097066
-0.130465
-0.169273
-0.181962
-0.175105
-0.154165
-0.121437
-0.070661
-0.020016
0.026470
0.053285
0.069202
0.119469
0.130176
0.113143
0.079556
0.041931
-0.005988
-0.044988
-0.093504
-0.125865
-0.152813
-0.166632
-0.180627
-0.149014
-0.130396
-0.097210
-0.065321
-0.013371
0.042671
0.092579
0.115134
0.115115
0.132594
0.106775
0.067720
-0.002467
-0.031768
-0.053588
-0.116523
-0.144849
-0.160184
-0.175555
-0.199723
-0.168450
-0.134696
-0.105990
-0.057028
-0.014230
0.038222
0.076658
0.101505
0.117743
0.132829
0.088913
0.044610
0.008924
-0.004474
-0.047259
-0.098690
-0.136621
-0.160647
-0.194718
-0.196310
-0.196317
-0.171347
-0.125623
-0.098501
-0.050743
-0.002223
0.031807
0.073800
0.103028
0.114481
0.109362
0.092499
0.055396
0.006246
-0.032352
-0.093038
-0.132380
-0.164816
-0.189950
-0.210506
-0.216150
-0.196024
-0.146369
-0.090748
-0.047670
0.002333
0.031181
0.073620
0.098934
0.090468
0.092181
0.079096
0.052155
-0.011492
-0.061306
-0.102957
-0.118661
-0.177817
-0.200093
-0.189753
-0.160858
-0.170083
-0.141193
-0.098283
-0.053457
0.002579
0.024513
0.028559
0.052284
0.092881
0.091599
0.071239
0.031101
-0.013031
-0.059202
-0.107248
-0.139594
-0.169389
-0.188965
-0.196711
-0.182978
-0.162980
-0.126866
-0.088126
-0.047710
-0.004295
0.019341
0.045165
0.101739
0.122201
0.086049
0.068000
0.036677
0.000066
-0.040179
-0.097987
-0.139814
-0.168964
-0.172183
-0.170696
-0.175010
-0.138894
-0.104556
-0.063232
-0.007000
0.050139
0.077375
0.097842
0.097858
0.117063
0.115353
0.091608
0.061795
0.015539
-0.037186
-0.080440
-0.118166
-0.149340
-0.171277
-0.170459
-0.153390
-0.129913
-0.097235
-0.051386
-0.001358
0.037326
0.062515
0.111381
0.122279
0.142469
0.138075
0.116530
0.081835
0.038159
0.000369
-0.054183
-0.093018
-0.118608
-0.138510
-0.144065
-0.135324
-0.119098
-0.105133
-0.059434
-0.012285
0.036836
0.063081
0.091768
0.111158
0.118368
0.104329
0.085764
0.048554
0.016466
-0.027498
-0.093613
-0.124338
-0.153905
-0.174920
-0.194437
-0.191418
-0.163812
-0.130045
-0.088795
-0.050538
-0.007460
0.032133
0.061578
0.095059
0.092279
0.077412
0.065357
0.039614
-0.026842
-0.070480
-0.113383
-0.152190
-0.195112
-0.214108
-0.221421
-0.217326
-0.204303
-0.169197
-0.110218
-0.061829
-0.018606
0.015431
0.029850
0.053331
0.068154
0.059973
0.029341
0.001488
-0.032588
-0.087140
-0.132057
-0.172015
-0.203038
-0.224545
-0.227119
-0.218873
-0.211423
-0.165276
-0.091123
-0.036561
-0.028624
-0.025977
0.033603
0.055264
0.067320
0.042255
0.032749
0.007901
-0.044700
-0.102274
-0.162793
-0.191406
-0.220764
-0.228674
-0.231887
-0.216598
-0.196895
-0.167660
-0.120238
-0.077807
-0.035708
-0.008946
0.032690
0.070128
0.082748
0.068021
0.044671
0.011758
-0.027161
-0.079522
-0.122563
-0.161703
-0.200638
-0.228151
-0.237296
-0.236125
-0.209131
-0.174907
-0.132947
-0.105068
-0.050341
0.004896
0.022356
0.039999
0.021687
0.020527
0.007937
-0.019901
-0.041460
-0.057615
-0.101759
-0.141375
-0.162841
-0.166986
-0.154633
-0.132765
-0.102033
-0.042690
0.022354
0.069708
0.122331
0.184413
0.239096
0.277822
0.313837
0.326567
0.333076
0.326674
0.319653
0.318125
0.298277
0.273163
0.268422
0.278752
0.318031
0.369938
0.417131
0.473813
0.547217
0.631706
0.715916
0.781662
0.812024
0.858114
0.859111
0.821533
0.765375
0.751945
0.694814
0.603687
0.509915
0.376085
0.255734
0.203370
0.138433
0.110300
0.097251
0.075681
0.056003
0.101475
0.134097
0.169999
0.195375
0.200286
0.200456
0.185740
0.142519
0.105672
0.067064
0.006756
-0.047504
-0.086788
-0.130759
-0.146568
-0.144827
-0.132333
-0.118309
-0.090019
-0.057060
0.019109
0.079815
0.098147
0.119989
0.132109
0.137388
0.124249
0.098366
0.072410
0.023455
-0.017760
-0.074163
-0.111893
-0.144141
-0.178902
-0.175165
-0.167995
-0.154600
-0.119490
-0.070747
-0.040124
-0.008515
0.044184
0.091731
0.102453
0.124599
0.116852
0.088770
0.063164
0.001993
-0.043945
-0.090177
-0.143975
-0.165568
-0.189218
-0.195852
-0.193910
-0.169032
-0.116284
-0.081947
-0.034721
0.022684
0.063656
0.094135
0.115733
0.122202
0.113232
0.093467
0.054992
0.017443
-0.032510
-0.088820
-0.128202
-0.145496
-0.165319
-0.190875
-0.178931
-0.139161
-0.105946
-0.056480
-0.011702
0.035990
0.072580
0.102821
0.132277
0.137750
0.123479
0.108311
0.083983
0.061347
-0.017516
-0.084183
-0.120855
-0.157183
-0.151168
-0.156828
-0.153107
-0.118238
-0.077321
-0.014998
0.046081
0.063661
0.111970
0.141007
0.165154
0.149657
0.110510
0.089445
0.081461
0.048418
0.010741
-0.023304
-0.064774
-0.098790
-0.112473
-0.118188
-0.103542
-0.075799
-0.042598
0.012719
0.072458
0.093147
0.129499
0.170074
0.149367
0.169909
0.180417
0.143010
0.124740
0.092078
0.046229
-0.006090
-0.046003
-0.079544
-0.097022
-0.096368
-0.085519
-0.057817
-0.026425
0.023927
0.073367
0.109256
0.157780
0.188392
0.217251
0.231199
0.216731
0.204944
0.171237
0.118090
0.065874
0.024185
-0.023826
-0.061596
-0.073803
-0.076849
-0.071054
-0.045259
-0.018992
0.012014
0.065562
0.119024
0.154535
0.188829
0.214122
0.221797
0.207795
0.190700
0.153165
0.119301
0.065206
0.020866
-0.029792
-0.059159
-0.084758
-0.101829
-0.079264
-0.062120
-0.021135
0.025213
0.066193
0.101887
0.149564
0.134494
0.173929
0.179819
0.171588
0.164075
0.126747
0.081940
0.043705
-0.009324
-0.055635
-0.085424
-0.107876
-0.103346
-0.090172
-0.059055
-0.043029
0.001880
0.036355
0.078141
0.107744
0.123747
0.145210
0.158738
0.154174
0.133190
0.090380
0.059691
0.014979
-0.047959
-0.080366
-0.118533
-0.124208
-0.137367
-0.140599
-0.164936
-0.124292
-0.044128
0.023575
0.060016
0.091930
0.112494
0.144349
0.158956
0.160947
0.110940
-0.001768
-0.025522
-0.059105
-0.092072
-0.133219
-0.157998
-0.183262
-0.194038
-0.183572
-0.154955
-0.122949
-0.088575
-0.054158
0.001057
0.051769
0.100009
0.125326
0.125004
0.114635
0.091321
0.053849
0.006339
-0.049308
-0.092197
-0.130350
-0.173129
-0.181933
-0.182644
-0.185225
-0.148284
-0.144540
-0.097250
-0.044170
0.013001
0.060403
0.088211
0.096130
0.101794
0.098252
0.086568
0.048667
0.004162
-0.042765
-0.090007
-0.134289
-0.163453
-0.179017
-0.186100
-0.189984
-0.157107
-0.133219
-0.097350
-0.033844
0.001864
0.031428
0.084428
0.103198
0.105069
0.086888
0.069822
0.050693
0.014896
-0.030743
-0.060552
-0.092172
-0.163356
-0.195633
-0.180903
-0.210788
-0.170942
-0.126322
-0.100554
-0.012676
0.065302
0.037334
0.063565
0.100050
0.101402
0.088436
0.064961
0.028374
-0.002092
-0.037326
-0.084483
-0.113684
-0.146972
-0.149038
-0.139824
-0.135811
-0.152335
-0.105583
-0.126615
-0.089644
-0.012270
0.069210
0.073188
0.090441
0.125055
0.132796
0.106307
0.059045
0.013718
-0.051373
-0.084521
-0.127500
-0.155117
-0.169175
-0.165962
-0.163706
-0.150342
-0.116722
-0.074966
-0.050494
0.011959
0.079367
0.104630
0.106293
0.111519
0.112764
0.095726
0.071294
0.028747
-0.040799
-0.089342
-0.116172
-0.150180
-0.176098
-0.181427
-0.166281
-0.146455
-0.119150
-0.082309
-0.031249
0.019356
0.054299
0.077770
0.102568
0.115437
0.111050
0.099755
0.056030
-0.001486
-0.031400
-0.062332
-0.107733
-0.140255
-0.120613
-0.133353
-0.195916
-0.233407
-0.179738
-0.107121
-0.032236
-0.002396
0.041442
0.081468
0.102544
0.115671
0.103816
0.080229
0.046010
0.006339
-0.037612
-0.067849
-0.118651
-0.164024
-0.189169
-0.179596
-0.179372
-0.172562
-0.140006
-0.106657
-0.042506
0.007506
0.045514
0.078976
0.075411
0.086604
0.092407
0.098613
0.072446
0.006833
-0.054954
-0.091262
-0.157278
-0.192300
-0.200600
-0.202435
-0.194758
-0.162811
-0.113732
-0.085987
-0.031764
0.009046
0.059624
0.082381
0.106921
0.121235
0.131286
0.096760
0.086067
0.033666
-0.017419
-0.108442
-0.168257
-0.220260
-0.219410
-0.214120
-0.169762
-0.195797
-0.190140
-0.103895
-0.055122
-0.005116
0.023466
0.075188
0.088334
0.098203
0.093684
0.074334
0.038542
-0.000149
-0.043086
-0.085014
-0.120489
-0.143674
-0.172822
-0.232434
-0.196884
-0.182620
-0.153820
-0.109444
-0.057203
-0.014926
0.031946
0.076592
0.085575
0.092820
0.096536
0.094126
0.047173
0.011316
-0.035441
-0.094738
-0.147987
-0.164639
-0.183918
-0.182574
-0.171950
-0.149707
-0.118429
-0.070039
-0.010367
0.031558
0.085099
0.117085
0.123727
0.123982
0.128454
0.114984
0.083520
0.048758
-0.005462
-0.051941
-0.086978
-0.127214
-0.156619
-0.208295
-0.192620
-0.127731
-0.104097
-0.072669
-0.010948
0.040011
0.080710
0.117111
0.140266
0.112141
0.113040
0.112846
0.075196
0.036126
-0.006243
-0.048188
-0.082940
-0.120096
-0.138778
-0.140313
-0.125043
-0.095964
-0.064136
-0.014346
0.044154
0.075837
0.102793
0.106609
0.121292
0.153230
0.117147
0.075457
0.041990
-0.004713
-0.044058
-0.089275
-0.125623
-0.162004
-0.186131
-0.188183
-0.162029
-0.152824
-0.120203
-0.072473
-0.012054
0.010279
0.034986
0.069364
0.091197
0.101743
0.089122
0.077885
0.045911
-0.013399
-0.063718
-0.117170
-0.167920
-0.185906
-0.205447
-0.207925
-0.204866
-0.191667
-0.159918
-0.112145
-0.058093
-0.029913
0.017096
0.051428
0.064243
0.076911
0.058921
0.041586
0.019321
-0.029171
-0.080878
-0.131363
-0.174981
-0.207052
-0.233636
-0.245337
-0.238142
-0.211036
-0.175655
-0.110520
-0.067576
-0.019233
0.011919
0.044191
0.062585
0.083514
0.087608
0.057606
0.024353
-0.010564
-0.071174
-0.119275
-0.160001
-0.189381
-0.226875
-0.239834
-0.217134
-0.209684
-0.178943
-0.127019
-0.074797
-0.016543
0.002438
0.035436
0.075719
0.076941
0.072417
0.053496
0.010335
-0.026765
-0.080761
-0.121574
-0.160405
-0.195884
-0.197647
-0.209138
-0.216375
-0.198621
-0.172461
-0.128411
-0.079766
-0.052291
-0.032549
0.034404
0.051287
0.052838
0.042684
0.024906
-0.007037
-0.048699
-0.096949
-0.142187
-0.170208
-0.186562
-0.194777
-0.190593
-0.169034
-0.144159
-0.087531
-0.019803
0.035496
0.103559
0.161022
0.199848
0.214140
0.243353
0.263771
0.265958
0.259155
0.244666
0.223152
0.209109
0.220411
0.220282
0.211673
0.240420
0.277606
0.329370
0.389852
0.485600
0.566479
0.668104
0.735068
0.792807
0.838118
0.867984
0.868197
0.830724
0.797672
0.763793
0.690278
0.610439
0.562010
0.504528
0.429668
0.348766
0.288094
0.234283
0.239819
0.221874
0.228146
0.235559
0.229342
0.242128
0.254186
0.251711
0.225746
0.202633
0.170377
0.109607
0.043248
-0.012510
-0.038895
-0.086481
-0.131260
-0.126594
-0.107553
-0.092162
-0.056330
-0.013289
0.027429
0.078692
0.111114
0.143897
0.138466
0.135059
0.130049
0.107903
0.081919
0.038639
-0.028967
-0.073278
-0.111476
-0.144321
-0.160633
-0.160755
-0.169900
-0.161502
-0.136148
-0.090531
-0.050515
0.002218
0.042081
0.099037
0.121377
0.123899
0.112387
0.094445
0.067798
0.027685
-0.038990
-0.090333
-0.124200
-0.166232
-0.182779
-0.176021
-0.167911
-0.149558
-0.117026
-0.080942
-0.028159
0.026760
0.064693
0.088038
0.114344
0.131858
0.123626
0.098677
0.065156
0.024218
-0.031304
-0.080887
-0.112265
-0.143803
-0.157830
-0.156309
-0.157814
-0.143325
-0.114500
-0.071965
-0.022366
0.026814
0.063702
0.093478
0.146874
0.142608
0.104074
0.106678
0.077596
0.032682
-0.017460
-0.059867
-0.100487
-0.127567
-0.146949
-0.139952
-0.135211
-0.110256
-0.073726
-0.026719
0.017305
0.070399
0.113631
0.134217
0.158221
0.162243
0.147768
0.110537
0.075834
0.040213
-0.000209
-0.033855
-0.070488
-0.104704
-0.120829
-0.128182
-0.120989
-0.087851
-0.049121
-0.009197
0.028825
0.085261
0.134484
0.166989
0.204684
0.202961
0.209321
0.167734
0.129030
0.100193
0.056013
0.001779
-0.033893
-0.063381
-0.099599
-0.093969
-0.080898
-0.061349
-0.019898
0.019552
0.065911
0.113887
0.158988
0.194215
0.219470
0.215197
0.209443
0.179957
0.143039
0.112340
0.080102
0.032932
-0.020797
-0.041856
-0.076411
-0.082222
-0.066585
-0.037592
-0.007173
0.026591
0.077977
0.141602
0.169594
0.189177
0.233180
0.240232
0.220986
0.201179
0.170230
0.115327
0.060638
0.015643
-0.030441
-0.057769
-0.082965
-0.081426
-0.077375
-0.048277
-0.026614
0.012458
0.070333
0.114452
0.154816
0.186466
0.203167
0.205800
0.205040
0.177706
0.145201
0.107652
0.052726
0.001632
-0.041156
-0.075357
-0.104260
-0.107234
-0.098657
-0.079269
-0.043916
-0.009586
0.030157
0.078730
0.121343
0.141994
0.167064
0.165081
0.147397
0.134628
0.099965
0.051089
0.008016
-0.038327
-0.086574
-0.126360
-0.153406
-0.145000
-0.140130
-0.117309
-0.088780
-0.044974
-0.009277
0.032145
0.073267
0.111687
0.129482
0.133431
0.124564
0.110265
0.078161
0.023786
-0.013160
-0.077824
-0.132892
-0.158187
-0.162921
-0.177697
-0.167124
-0.141658
-0.106792
-0.058343
-0.015876
0.020208
0.062143
0.098287
0.109559
0.116938
0.108533
0.082199
0.041158
0.004119
-0.043961
-0.105866
-0.147899
-0.189270
-0.205890
-0.199249
-0.181041
-0.148030
-0.119043
-0.078203
-0.038217
0.009977
0.068702
0.117196
0.125700
0.126153
0.068126
0.055193
0.027295
0.002457
-0.042349
-0.094204
-0.154753
-0.159404
-0.185489
-0.196336
-0.213284
-0.184675
-0.151147
-0.088026
-0.051868
-0.010603
0.046350
0.083748
0.101266
0.102172
0.102941
0.086000
0.057975
0.002296
-0.044654
-0.082273
-0.131269
-0.167559
-0.182198
-0.194873
-0.190655
-0.157621
-0.126913
-0.094617
-0.032175
0.009459
0.040900
0.076590
0.094002
0.107866
0.097924
0.079453
0.050323
0.007854
-0.033233
-0.074858
-0.136816
-0.168605
-0.192029
-0.190382
-0.184613
-0.149149
-0.119601
-0.076479
-0.018880
0.022236
0.058325
0.082442
0.118742
0.108785
0.097776
0.084289
0.070353
0.022049
-0.030654
-0.094559
-0.137331
-0.164363
-0.172677
-0.179042
-0.200705
-0.163553
-0.118951
-0.081837
-0.031433
0.029101
0.070888
0.101179
0.116796
0.117092
0.110321
0.086806
0.068204
0.018975
-0.020882
-0.069970
-0.143549
-0.167915
-0.183971
-0.193558
-0.173592
-0.148796
-0.113645
-0.076030
-0.040535
0.007704
0.055065
0.097115
0.126065
0.127348
0.105750
0.082539
0.059002
0.006999
-0.057368
-0.099256
-0.135031
-0.172347
-0.176003
-0.193434
-0.185411
-0.145962
-0.139521
-0.120750
-0.081349
-0.029968
0.044349
0.092979
0.124704
0.147215
0.120434
0.086702
0.061732
0.014478
-0.039348
-0.088120
-0.141720
-0.153086
-0.170675
-0.194371
-0.187888
-0.180259
-0.145020
-0.096692
-0.045570
0.014140
0.060594
0.083734
0.111565
0.128830
0.096652
0.072809
0.031555
0.002752
-0.106755
-0.120138
-0.141747
-0.171318
-0.188769
-0.201135
-0.191063
-0.170622
-0.140616
-0.099916
-0.051200
-0.011938
0.031203
0.066097
0.090976
0.091420
0.088538
0.071624
0.036551
0.003770
-0.044621
-0.094886
-0.137424
-0.171223
-0.219582
-0.218408
-0.206515
-0.172610
-0.128504
-0.089113
-0.050078
-0.027128
0.020419
0.057639
0.078463
0.091300
0.078825
0.057625
0.025826
-0.024592
-0.057609
-0.103143
-0.153808
-0.188566
-0.205683
-0.212088
-0.195872
-0.183330
-0.160656
-0.109105
-0.047287
0.012406
0.032979
0.064153
0.090555
0.107163
0.080962
0.066750
0.025595
-0.020073
-0.059135
-0.108624
-0.151748
-0.176526
-0.201786
-0.210755
-0.197907
-0.165940
-0.141114
-0.103787
-0.051558
-0.013345
0.053043
0.101344
0.122394
0.132690
0.129327
0.092342
0.049828
0.004795
-0.026764
-0.085069
-0.129769
-0.168754
-0.168905
-0.179449
-0.174191
-0.158590
-0.113120
-0.057547
-0.024319
0.025439
0.062801
0.094845
0.119289
0.139083
0.131563
0.093937
0.066874
0.026253
-0.024115
-0.077677
-0.114168
-0.128446
-0.148190
-0.162659
-0.156694
-0.130034
-0.097259
-0.063257
-0.016611
0.034047
0.076685
0.126178
0.149178
0.152844
0.134610
0.117428
0.080499
0.031736
-0.023582
-0.066354
-0.122794
-0.153425
-0.184667
-0.200713
-0.179661
-0.155968
-0.122756
-0.080605
-0.035266
0.009889
0.053281
0.085324
0.087293
0.087718
0.074791
0.047600
0.026966
-0.021884
-0.065562
-0.111951
-0.155924
-0.189373
-0.206882
-0.220972
-0.202503
-0.190847
-0.158432
-0.117507
-0.075320
-0.035206
0.015552
0.045272
0.065573
0.070217
0.088573
0.070147
0.001046
-0.061285
-0.104437
-0.163957
-0.200426
-0.214785
-0.235962
-0.245958
-0.238040
-0.214758
-0.183889
-0.145793
-0.093306
-0.045652
-0.009236
0.024254
0.042024
0.052599
0.053852
0.040021
0.005179
-0.049549
-0.086149
-0.129561
-0.188640
-0.215789
-0.233416
-0.238186
-0.235034
-0.213872
-0.176199
-0.138851
-0.088690
-0.040567
-0.000678
0.028536
0.060887
0.063633
0.057691
0.024889
-0.011235
-0.039265
-0.082467
-0.150096
-0.182274
-0.227244
-0.243327
-0.249477
-0.239039
-0.228147
-0.189027
-0.144151
-0.097206
-0.069137
0.004889
0.030691
0.049272
0.068918
0.049505
0.027312
-0.003393
-0.043414
-0.098327
-0.151292
-0.206770
-0.237810
-0.250201
-0.260036
-0.256599
-0.237189
-0.197895
-0.152894
-0.095656
-0.029592
0.027077
0.069884
0.100962
0.128276
0.141230
0.128748
0.116312
0.083613
0.034345
0.023650
0.008817
-0.016831
-0.019200
0.000909
0.036583
0.086042
0.174610
0.235811
0.313997
0.396527
0.478941
0.551605
0.567233
0.619416
0.661411
0.675045
0.670078
0.687775
0.658461
0.644806
0.626253
0.616032
0.582688
0.574133
0.571181
0.583085
0.590137
0.614525
0.640220
0.645807
0.605717
0.581931
0.540499
0.476282
0.424236
0.350756
0.255410
0.166196
0.093605
0.037565
-0.000918
-0.050492
-0.075152
-0.092469
-0.081124
-0.067778
-0.048553
-0.023280
0.033145
0.073826
0.120836
0.147810
0.161395
0.173082
0.158062
0.135711
0.078190
0.042262
-0.018001
-0.072646
-0.118146
-0.160436
-0.179810
-0.192760
-0.184691
-0.152266
-0.120914
-0.093848
-0.036654
0.005750
0.049258
0.081978
0.095922
0.103022
0.112995
0.090383
0.054601
0.008149
-0.043857
-0.094467
-0.137174
-0.171441
-0.190008
-0.200358
-0.199956
-0.171510
-0.145513
-0.094935
-0.050466
-0.022607
0.023555
0.051481
0.091637
0.114337
0.092531
0.076456
0.041523
-0.002805
-0.045431
-0.088271
-0.114489
-0.171316
-0.203039
-0.202515
-0.183113
-0.158091
-0.129991
-0.098603
-0.046425
0.004824
0.060891
0.085208
0.105125
0.108066
0.112115
0.087966
0.052047
0.009740
-0.040413
-0.082929
-0.119371
-0.161407
-0.178722
-0.179893
-0.183117
-0.145919
-0.098675
-0.083409
-0.039721
0.027178
0.062177
0.107842
0.134455
0.123762
0.128976
0.103351
0.068437
0.031083
-0.008257
-0.057433
-0.081261
-0.110830
-0.146573
-0.165771
-0.156076
-0.111648
-0.081830
-0.044917
0.006858
0.056096
0.104986
0.149509
0.165636
0.176068
0.173608
0.148796
0.117204
0.064329
0.007660
-0.036640
-0.062853
-0.101999
-0.102549
-0.106550
-0.119039
-0.099295
-0.070662
-0.013948
0.041327
0.101791
0.148028
0.180781
0.193826
0.202783
0.191644
0.172940
0.137563
0.101545
0.051955
0.019352
-0.041065
-0.079166
-0.080486
-0.088782
-0.100985
-0.063253
-0.022540
0.000864
0.057586
0.105708
0.159483
0.190109
0.203833
0.210783
0.215507
0.182596
0.147740
0.106467
0.064056
0.017833
-0.026168
-0.057502
-0.088212
-0.106241
-0.091207
-0.058347
-0.031618
0.018503
0.057749
0.103043
0.141206
0.170683
0.185617
0.184379
0.182351
0.169317
0.143333
0.096690
0.047875
0.000079
-0.039666
-0.090852
-0.100337
-0.110807
-0.128977
-0.106406
-0.076110
-0.021120
0.036209
0.072822
0.095281
0.139968
0.179977
0.185918
0.170217
0.149522
0.110898
0.056918
0.016940
-0.023774
-0.088055
-0.105797
-0.132932
-0.149660
-0.154203
-0.127227
-0.086727
-0.043195
-0.014141
0.034278
0.066730
0.089547
0.111677
0.129114
0.118317
0.095032
0.064007
0.021235
-0.032670
-0.102462
-0.133254
-0.151928
-0.167401
-0.180747
-0.180804
-0.151045
-0.128625
-0.084963
-0.047728
-0.002578
0.032494
0.071007
0.103600
0.105391
0.094852
0.074307
0.052706
-0.001218
-0.054353
-0.110169
-0.141501
-0.164775
-0.198078
-0.209403
-0.203178
-0.187138
-0.160913
-0.108426
-0.052245
-0.008210
0.044000
0.071934
0.081904
0.105013
0.088441
0.064978
0.039370
-0.011819
-0.061779
-0.115511
-0.162508
-0.194637
-0.214232
-0.221158
-0.219465
-0.192272
-0.150251
-0.116538
-0.079632
-0.027201
0.014291
0.054426
0.072081
0.081714
0.070976
0.058103
0.017249
-0.002034
-0.043244
-0.101425
-0.141079
-0.170371
-0.200011
-0.210013
-0.176945
-0.174558
-0.146700
-0.106353
-0.064644
0.003471
0.049328
0.082963
0.100687
0.102014
0.089745
0.063089
0.028581
-0.000665
-0.046726
-0.095091
-0.155916
-0.176853
-0.214830
-0.227696
-0.202782
-0.179522
-0.157231
-0.131856
-0.077351
-0.003477
0.048589
0.087391
0.114481
0.114472
0.115608
0.085112
0.051430
-0.010521
-0.040368
-0.091158
-0.137613
-0.157642
-0.187729
-0.195431
-0.197956
-0.180817
-0.138043
-0.084300
-0.041060
0.014387
0.047827
0.073071
0.111092
0.119502
0.105142
0.087974
0.042157
0.000293
-0.043274
-0.094286
-0.131518
-0.168160
-0.208742
-0.207980
-0.197923
-0.160395
-0.120333
-0.077265
-0.038451
0.009983
0.042814
0.078899
0.105557
0.105479
0.083141
0.065463
0.034405
-0.002537
-0.033661
-0.094166
-0.146309
-0.180364
-0.201273
-0.208140
-0.193212
-0.171386
-0.138778
-0.101143
-0.048923
0.001014
0.041482
0.084404
0.107044
0.108766
0.097898
0.077596
0.034821
-0.010633
-0.066264
-0.110911
-0.152430
-0.193785
-0.201899
-0.223289
-0.206462
-0.183684
-0.149929
-0.101007
-0.060988
-0.009419
0.037945
0.064631
0.088103
0.096416
0.097282
0.064969
0.020923
-0.021944
-0.061507
-0.105434
-0.141501
-0.176678
-0.210627
-0.217325
-0.215674
-0.198778
-0.151186
-0.111001
-0.065161
-0.021058
0.000822
0.045576
0.068992
0.078595
0.072029
0.073526
0.055358
0.007334
-0.054250
-0.122928
-0.163746
-0.191758
-0.221261
-0.216888
-0.209937
-0.193630
-0.176740
-0.145563
-0.083357
-0.028964
0.022997
0.052973
0.091949
0.096505
0.072873
0.051135
0.027153
-0.011939
-0.049360
-0.109307
-0.150887
-0.185360
-0.227782
-0.223021
-0.213707
-0.208309
-0.171158
-0.131987
-0.085798
-0.041521
0.000421
0.036479
0.070824
0.075975
0.065811
0.049731
0.019054
-0.011820
-0.059520
-0.115060
-0.154392
-0.190694
-0.208072
-0.217532
-0.217527
-0.198957
-0.145230
-0.104386
-0.056722
-0.013620
0.038649
0.078347
0.109800
0.118755
0.098083
0.073329
0.031715
-0.006927
-0.050343
-0.090092
-0.149419
-0.175540
-0.184045
-0.194533
-0.185210
-0.164713
-0.124419
-0.074237
-0.028389
0.026275
0.077764
0.107853
0.125350
0.129396
0.109805
0.088337
0.047857
-0.001589
-0.031418
-0.081214
-0.117778
-0.156552
-0.173339
-0.181906
-0.171000
-0.154771
-0.113069
-0.060005
-0.008177
0.037278
0.086026
0.124771
0.136536
0.141653
0.134928
0.118694
0.091450
0.043562
0.000870
-0.048856
-0.096166
-0.139607
-0.173101
-0.196430
-0.193611
-0.182241
-0.136960
-0.095571
-0.047994
-0.001439
0.039257
0.073247
0.086820
0.078168
0.075373
0.068515
0.043308
-0.008067
-0.067057
-0.126070
-0.162627
-0.190764
-0.233092
-0.250069
-0.222582
-0.190718
-0.161061
-0.123033
-0.081110
-0.027369
0.005818
0.045164
0.056884
0.059851
0.046438
0.030084
0.013930
-0.037518
-0.091503
-0.131417
-0.172985
-0.209962
-0.236192
-0.240361
-0.237135
-0.228329
-0.195599
-0.156820
-0.107274
-0.053747
-0.008698
0.013490
0.034756
0.058288
0.054866
0.041021
-0.001517
-0.053107
-0.099893
-0.140039
-0.174494
-0.199436
-0.212016
-0.223597
-0.234216
-0.216719
-0.177922
-0.138343
-0.080803
-0.047062
-0.017749
0.018173
0.041077
0.060519
0.051215
0.028104
-0.013572
-0.047276
-0.079813
-0.127624
-0.187471
-0.235436
-0.258042
-0.257089
-0.246021
-0.231360
-0.194857
-0.165217
-0.116695
-0.067396
-0.022975
0.024423
0.070384
0.063062
0.052221
0.024445
0.018427
-0.022266
-0.092833
-0.122982
-0.163971
-0.226562
-0.268346
-0.265976
-0.267370
-0.255891
-0.213243
-0.163347
-0.101021
-0.059938
-0.009699
0.030185
0.071489
0.093747
0.091249
0.080820
0.049035
0.023384
-0.011257
-0.044679
-0.053189
-0.078792
-0.088799
-0.072653
-0.057102
-0.002782
0.059112
0.122861
0.184370
0.267022
0.334304
0.406486
0.472420
0.516231
0.528631
0.531676
0.534369
0.529531
0.513736
0.525069
0.527873
0.528382
0.534888
0.566242
0.590091
0.604867
0.635937
0.685881
0.722043
0.738249
0.761393
0.774518
0.757469
0.728039
0.654727
0.565978
0.450782
0.347301
0.254379
0.159596
0.080092
0.020736
-0.012566
-0.044218
-0.029820
0.004196
0.018739
0.048159
0.077765
0.104983
0.140626
0.159738
0.158959
0.162028
0.158637
0.154328
0.113734
0.056973
-0.008885
-0.066322
-0.105916
-0.142509
-0.165893
-0.164270
-0.152851
-0.135375
-0.120191
-0.080956
-0.054107
0.002799
0.041650
0.065084
0.085617
0.113235
0.107016
0.071281
0.029234
-0.016860
-0.052323
-0.102963
-0.170935
-0.220234
-0.240287
-0.247501
-0.228587
-0.179441
-0.119790
-0.082357
-0.024247
0.018433
0.041086
0.042788
0.069526
0.106037
0.118651
0.104802
0.067874
0.008762
-0.018985
-0.078829
-0.142438
-0.195777
-0.227792
-0.221293
-0.219525
-0.200255
-0.164260
-0.130874
-0.056125
0.016680
0.098499
0.101673
0.099614
0.119188
0.104508
0.095023
0.063110
0.023657
-0.013797
-0.063399
-0.122422
-0.177766
-0.185745
-0.194176
-0.179939
-0.134879
-0.097996
-0.061263
-0.000907
0.042735
0.092436
0.110648
0.144538
0.151052
0.134467
0.117450
0.085884
0.038000
-0.010319
-0.045892
-0.110584
-0.135715
-0.119753
-0.142398
-0.146904
-0.100583
-0.085277
-0.073728
-0.017454
0.037258
0.099173
0.139259
0.190259
0.207637
0.188527
0.121479
0.092398
0.052616
0.015972
-0.058664
-0.101634
-0.115840
-0.097063
-0.105577
-0.138553
-0.139872
-0.074547
-0.025482
0.010873
0.048555
0.091438
0.144195
0.179363
0.209714
0.227858
0.200485
0.142274
0.072040
0.055343
0.046003
0.018716
-0.038279
-0.045035
-0.037721
-0.012983
-0.030458
-0.028369
0.039579
0.088907
0.136694
0.179218
0.214243
0.242818
0.229895
0.231434
0.211715
0.148398
0.106876
0.045556
0.052789
0.016787
-0.019457
-0.045310
-0.060220
-0.049986
-0.033146
-0.000190
0.032823
0.076573
0.115867
0.149147
0.191319
0.253037
0.279165
0.276282
0.255552
0.201358
0.128429
0.061664
0.045796
0.053309
0.005247
-0.034481
-0.065406
-0.068092
-0.059168
-0.022221
0.012480
0.042982
0.104420
0.141529
0.177090
0.190739
0.184712
0.173783
0.147466
0.104629
0.040821
-0.003807
-0.043159
-0.069153
-0.071389
-0.081203
-0.109045
-0.119947
-0.097490
-0.064525
-0.012112
0.029580
0.062464
0.087696
0.096703
0.144823
0.188235
0.218683
0.185394
0.125214
0.055308
0.002950
-0.052089
-0.112891
-0.150464
-0.180923
-0.203547
-0.167077
-0.133749
-0.101205
-0.031853
0.000273
0.017131
0.065959
0.091749
0.108519
0.079410
0.061750
0.033364
0.024303
-0.021562
-0.081414
-0.110620
-0.177631
-0.218909
-0.193100
-0.137417
-0.130574
-0.120510
-0.070994
-0.068746
-0.065037
-0.011153
0.038951
0.091350
0.134089
0.151670
0.172736
0.198145
0.135684
0.052219
-0.045058
-0.098201
-0.130556
-0.154534
-0.205205
-0.210346
-0.199320
-0.164527
-0.125793
-0.062637
-0.012074
0.051677
0.084335
0.135894
0.131100
0.146790
0.126400
0.067505
0.020305
-0.008358
-0.035844
-0.047875
-0.073284
-0.122218
-0.156574
-0.155899
-0.163497
-0.150835
-0.143017
-0.108318
-0.052100
0.000207
0.069807
0.113757
0.133318
0.146068
0.139630
0.125291
0.071452
0.024377
-0.036396
-0.088424
-0.106694
-0.144407
-0.212972
-0.251906
-0.232045
-0.198047
-0.154213
-0.144901
-0.100725
-0.041869
0.031955
0.126213
0.196294
0.161257
0.125990
0.086748
0.024066
-0.023280
-0.084927
-0.137326
-0.154286
-0.164212
-0.155083
-0.123567
-0.150841
-0.120250
-0.067415
-0.044819
-0.014899
0.057411
0.118776
0.132673
0.153691
0.189484
0.187290
0.155557
0.117029
0.068142
-0.000110
-0.043481
-0.080071
-0.129952
-0.146484
-0.142457
-0.127777
-0.102683
-0.082269
-0.067678
-0.046771
0.021197
0.052266
0.094061
0.150489
0.177905
0.166301
0.133273
0.103681
0.047557
-0.015794
-0.060014
-0.105622
-0.141749
-0.150759
-0.172163
-0.168065
-0.152169
-0.104820
-0.072657
-0.034682
0.008342
0.048306
0.081711
0.100840
0.111731
0.120204
0.106782
0.075237
-0.009573
-0.008384
-0.040005
-0.078290
-0.128163
-0.163160
-0.195561
-0.185750
-0.147607
-0.124179
-0.077291
-0.050932
0.000167
0.041327
0.073515
0.100440
0.165660
0.218595
0.159490
0.072109
0.016596
-0.043273
-0.096640
-0.138536
-0.161289
-0.175105
-0.166287
-0.159406
-0.131345
-0.110153
-0.081791
-0.025326
0.016587
0.043319
0.131994
0.159689
0.154359
0.133411
0.088224
0.066958
0.048773
0.002194
-0.013712
-0.059088
-0.120101
-0.174507
-0.184082
-0.182609
-0.134368
-0.111473
-0.077429
-0.044643
-0.000776
0.024593
0.047352
0.078947
0.090349
0.096353
0.058229
0.040851
0.008327
-0.028342
-0.040160
-0.036124
-0.070961
-0.147229
-0.201277
-0.178707
-0.127187
-0.093795
-0.045910
0.019061
0.035390
0.066733
0.087723
0.103111
0.109030
0.107589
0.078785
0.036884
-0.023820
-0.094676
-0.134786
-0.145170
-0.108264
-0.113388
-0.138041
-0.151589
-0.160832
-0.137357
-0.085660
-0.006467
0.040896
0.061507
0.112492
0.132929
0.119667
0.117120
0.089603
0.029217
-0.017395
-0.083795
-0.129779
-0.131642
-0.144677
-0.123295
-0.084736
-0.118536
-0.078524
-0.063589
-0.046508
0.020582
0.064663
0.082986
0.115874
0.103801
0.106393
0.118065
0.122359
0.068746
0.026742
-0.024728
-0.052933
-0.055355
-0.060249
-0.056497
-0.072456
-0.106306
-0.118984
-0.094065
-0.065707
0.012240
0.077308
0.124614
0.187770
0.191776
0.129035
0.093574
0.084474
0.050097
0.010206
-0.027950
-0.041649
-0.055636
-0.055565
-0.102821
-0.116055
-0.132766
-0.112225
-0.042880
0.020451
0.063515
0.121143
0.134492
0.175949
0.220998
0.238901
0.208837
0.186220
0.160033
0.081636
0.013783
-0.031792
-0.084099
-0.123323
-0.147529
-0.178028
-0.174062
-0.152490
-0.134122
-0.100814
-0.058752
-0.016561
0.022561
0.086175
0.126167
0.154832
0.135246
0.102438
0.087928
0.059682
0.000310
-0.049898
-0.090356
-0.109935
-0.115824
-0.164521
-0.174265
-0.137314
-0.107822
-0.070150
-0.016910
0.045318
0.108797
0.142216
0.147185
0.121988
0.101397
0.063360
0.016848
-0.027190
-0.087662
-0.111942
-0.142049
-0.188641
-0.178941
-0.192895
-0.199479
-0.240425
-0.217938
-0.131898
-0.052726
-0.007713
0.104036
0.172098
0.154696
0.121028
0.104239
0.120410
0.105393
0.036763
-0.026834
-0.081885
-0.119445
-0.124034
-0.142682
-0.156581
-0.171932
-0.168737
-0.134702
-0.077067
-0.048783
-0.022286
0.026057
0.058560
0.096969
0.119676
0.098125
0.081419
0.048524
-0.000087
-0.038616
-0.082904
-0.140679
-0.173307
-0.180377
-0.170794
-0.165076
-0.163205
-0.140122
-0.100060
-0.072600
-0.041940
0.002797
0.073058
0.129347
0.098460
0.064813
0.034459
0.011156
-0.016828
-0.068158
-0.110054
-0.149622
-0.177841
-0.164900
-0.131395
-0.140993
-0.101577
-0.067587
-0.023609
0.045550
0.120067
0.127000
0.147658
0.165827
0.185256
0.182710
0.193478
0.192154
0.180052
0.146141
0.145715
0.171139
0.188292
0.156965
0.180218
0.227624
0.269536
0.356042
0.447754
0.504726
0.585180
0.669728
0.756059
0.800127
0.836889
0.855470
0.869867
0.862409
0.849171
0.796372
0.744809
0.684168
0.623308
0.592665
0.560733
0.504472
0.453938
0.421912
0.400276
0.391411
0.382207
0.369959
0.345274
0.338982
0.329158
0.336066
0.292052
0.244347
0.199307
0.141284
0.060091
-0.009390
-0.059529
-0.065938
-0.076761
-0.076586
-0.053499
-0.039644
-0.045714
-0.014807
0.027366
0.085406
0.121734
0.133279
0.193840
0.289519
0.278201
0.197273
0.113877
0.032294
-0.012390
-0.068074
-0.121247
-0.142234
-0.160145
-0.185727
-0.189276
-0.188039
-0.139076
-0.027531
0.095519
0.185546
0.238698
0.205207
0.192691
0.193169
0.147626
0.120712
0.084805
0.030369
-0.040762
-0.099767
-0.116065
-0.111069
-0.136946
-0.141212
-0.143711
-0.112468
-0.057633
0.004989
0.058362
0.117852
0.179088
0.212650
0.191613
0.178323
0.170517
0.149541
0.086739
0.036620
-0.025655
-0.088700
-0.152200
-0.216702
-0.219952
-0.202191
-0.184297
-0.143187
-0.060473
0.022894
0.153083
0.176776
0.157552
0.181099
0.204195
0.200622
0.174212
0.119642
0.098599
0.073108
0.002380
-0.055911
-0.101299
-0.153351
-0.168895
-0.162380
-0.133437
-0.106172
-0.073067
-0.040148
0.024059
0.129105
0.212699
0.209450
0.214391
0.228107
0.207782
0.192926
0.154752
0.097568
0.029588
-0.024947
-0.070046
-0.099281
-0.123859
-0.101113
-0.085610
-0.042808
0.020345
0.106086
0.176417
0.198409
0.217075
0.252886
0.252463
0.224571
0.198131
0.170651
0.139205
0.099515
0.059773
0.057954
0.001915
-0.056410
-0.049067
-0.031496
-0.002045
0.002384
0.021111
0.076886
0.157349
0.221452
0.265996
0.279820
0.264869
0.234409
0.208064
0.175422
0.130020
0.077272
0.018820
0.009784
0.008929
-0.020843
-0.035738
-0.036560
-0.014517
0.016370
0.082767
0.156174
0.179740
0.183996
0.229395
0.247820
0.258411
0.264058
0.250342
0.251398
0.211955
0.150149
0.093277
0.077656
0.046219
-0.011780
-0.026958
-0.025086
-0.018043
-0.006565
0.014852
0.038526
0.117901
0.169018
0.221222
0.248855
0.251120
0.277663
0.250691
0.224325
0.180994
0.120463
0.056306
0.021662
-0.044867
-0.082902
-0.107185
-0.075037
-0.038417
0.035124
0.122469
0.113542
0.127044
0.169914
0.211364
0.184815
0.178337
0.221936
0.235385
0.197229
0.153150
0.101158
0.043308
-0.002176
-0.063326
-0.133986
-0.154804
-0.152021
-0.122033
-0.082039
-0.008149
0.074346
0.126418
0.171244
0.202152
0.189344
0.183546
0.172208
0.141045
0.108680
0.049053
0.001193
-0.053374
-0.084954
-0.107429
-0.130168
-0.150281
-0.133227
-0.121171
-0.065408
-0.005788
0.054168
0.083769
0.129001
0.136345
0.171007
0.192980
0.165626
0.134534
0.099871
0.052149
-0.001853
-0.066096
-0.130056
-0.170208
-0.167610
-0.170586
-0.154198
-0.108989
-0.062351
-0.020757
0.009528
0.029304
0.065523
0.099517
0.129741
0.139459
0.131801
0.118342
0.119580
0.075508
-0.021882
-0.081112
-0.131983
-0.140226
-0.135462
-0.133355
-0.156263
-0.140034
-0.121073
-0.055635
-0.007070
0.027604
0.040431
0.080820
0.108542
0.133000
0.137029
0.121667
0.118117
0.111553
0.051350
-0.027091
-0.058548
-0.088204
-0.131774
-0.161429
-0.164207
-0.150103
-0.116943
-0.079128
0.012611
0.120534
0.168774
0.184972
0.171241
0.213223
0.232053
0.190651
0.138543
0.090739
0.036103
-0.030681
-0.083212
-0.119811
-0.140284
-0.139357
-0.161082
-0.142160
-0.087087
-0.038686
-0.007976
0.064194
0.120095
0.139023
0.133892
0.120686
0.116146
0.108556
0.079789
0.038550
0.008092
0.007649
-0.076403
-0.139539
-0.137569
-0.147462
-0.158583
-0.144673
-0.103460
-0.031356
0.011965
0.031472
0.068300
0.103152
0.109127
0.103966
0.095736
0.079421
0.067906
0.034443
0.020235
0.005127
-0.003993
-0.027036
-0.089816
-0.132882
-0.118305
-0.082838
-0.061430
-0.041874
0.005742
0.072447
0.119807
0.151506
0.175014
0.170700
0.174166
0.135593
0.081505
0.035087
-0.017886
-0.075275
-0.101480
-0.126670
-0.141680
-0.108403
-0.096469
-0.100941
-0.098466
-0.062698
-0.007319
0.065781
0.139077
0.197382
0.191932
0.166989
0.147487
0.124722
0.093443
0.050608
-0.000902
-0.053132
-0.109872
-0.135350
-0.140637
-0.154942
-0.159704
-0.148631
-0.122163
-0.055828
0.012676
0.059810
0.092871
0.142138
0.162882
0.171670
0.141423
0.100031
0.069303
-0.001597
-0.046026
-0.072949
-0.115168
-0.175452
-0.182377
-0.172236
-0.167856
-0.163828
-0.136613
-0.097941
-0.041950
0.005604
0.106254
0.210606
0.217248
0.162896
0.141592
0.138551
0.099343
0.034691
-0.044005
-0.084621
-0.119459
-0.163859
-0.158516
-0.135728
-0.133879
-0.116681
-0.085683
-0.009035
0.056500
0.079285
0.103568
0.116778
0.137052
0.137702
0.120921
0.100573
0.092908
0.041411
-0.010862
-0.046792
-0.096251
-0.118055
-0.140439
-0.156233
-0.147271
-0.126818
-0.103837
-0.063854
-0.011115
0.012355
0.058170
0.096931
0.093141
0.076161
0.079890
0.062876
0.053212
-0.015586
-0.074101
-0.105420
-0.170589
-0.207931
-0.246736
-0.267569
-0.244455
-0.182386
-0.125638
-0.026740
0.048874
0.092878
0.139275
0.165186
0.136442
0.144058
0.154968
0.156302
0.106495
0.048464
-0.014285
-0.066540
-0.114760
-0.145180
-0.157034
-0.150135
-0.126842
-0.126199
-0.109887
-0.076161
-0.013309
0.021547
0.078364
0.121272
0.129610
0.143488
0.156235
0.149915
0.104733
0.068380
0.023823
-0.032074
-0.088755
-0.140840
-0.175980
-0.193024
-0.165602
-0.104485
-0.036380
0.002272
0.022144
0.065406
0.104588
0.112809
0.168520
0.191396
0.199463
0.176096
0.116995
0.106128
0.056912
-0.013973
-0.080960
-0.127410
-0.156692
-0.160688
-0.168099
-0.148103
-0.131633
-0.066173
0.002541
0.076959
0.122685
0.169360
0.209258
0.238804
0.216726
0.153126
0.075280
0.020913
-0.000617
-0.015610
-0.032861
-0.034147
-0.048802
-0.068898
-0.072172
-0.095305
-0.077876
-0.076236
-0.048130
-0.001287
0.065852
0.117107
0.151275
0.164518
0.163253
0.115707
0.049000
0.005243
-0.006116
-0.027865
-0.053719
-0.074425
-0.119058
-0.193805
-0.164592
-0.130173
-0.121379
-0.087098
-0.028104
0.032920
0.068587
0.076596
0.087066
0.112527
0.109898
0.077229
0.042201
0.050422
0.013648
-0.043662
-0.110675
-0.150049
-0.176543
-0.183180
-0.187951
-0.182276
-0.127677
-0.077667
-0.036002
0.020653
0.068959
0.096006
0.113633
0.108211
0.073749
0.049376
-0.001637
-0.014820
-0.057935
-0.108877
-0.163905
-0.187837
-0.172233
-0.149230
-0.138071
-0.074112
-0.072204
-0.084755
-0.060447
-0.010778
0.037160
0.097792
0.121675
0.118157
0.115252
0.093872
0.071183
0.027927
-0.038734
-0.100466
-0.165631
-0.216471
-0.238697
-0.232341
-0.267432
-0.266255
-0.172944
-0.101097
-0.051408
-0.009200
0.035503
0.075586
0.157599
0.139741
0.072868
0.020159
0.004469
-0.007725
-0.046560
-0.110974
-0.173106
-0.171066
-0.178862
-0.160158
-0.162419
-0.176710
-0.158998
-0.115068
-0.074785
-0.029646
0.002508
0.062146
0.095552
0.112519
0.092927
0.087066
0.055870
0.024917
0.000738
-0.035234
-0.070161
-0.089472
-0.114254
-0.100072
-0.060569
-0.027804
0.002617
0.053485
0.099610
0.195140
0.272847
0.308857
0.328798
0.362697
0.419566
0.430804
0.418391
0.457865
0.422603
0.379950
0.374253
0.397865
0.416981
0.466842
0.517377
0.570961
0.636592
0.683877
0.741536
0.807542
0.874800
0.935958
0.909556
0.851404
0.835193
0.797721
0.746183
0.657717
0.542038
0.423591
0.312647
0.191231
0.127522
0.074419
0.021141
-0.006402
0.024299
0.061392
0.121090
0.201836
0.243594
0.224436
0.212772
0.244941
0.239357
0.203579
0.201645
0.156928
0.079173
0.018931
-0.036668
-0.089176
-0.116226
-0.128695
-0.139683
-0.144929
-0.092802
-0.024943
0.038604
0.067550
0.108336
0.131675
0.164968
0.154105
0.132464
0.130153
0.089204
0.097161
0.079913
0.020470
-0.076845
-0.163405
-0.211555
-0.205687
-0.154454
-0.104305
-0.087207
-0.060576
-0.021914
0.014196
0.068341
0.121451
0.135582
0.117245
0.098438
0.093517
0.065846
0.029659
-0.005330
-0.040015
-0.085978
-0.133469
-0.177948
-0.192829
-0.188938
-0.159014
-0.134652
-0.074813
-0.014011
0.056741
0.075225
0.083780
0.108944
0.152566
0.163740
0.134011
0.116578
0.102166
0.076126
-0.025940
-0.053305
-0.100401
-0.133710
-0.148879
-0.158994
-0.153519
-0.099353
-0.028100
0.014635
0.081104
0.120771
0.118620
0.146133
0.137661
0.178450
0.150693
0.096239
0.061109
0.005497
-0.055358
-0.070061
-0.101592
-0.101524
-0.117266
-0.124753
-0.097258
-0.070201
-0.018854
0.033414
0.105664
0.139057
0.146284
0.184821
0.193601
0.181230
0.123559
0.114237
0.102786
0.061010
-0.000819
-0.023938
-0.046190
-0.056334
-0.081681
-0.083331
-0.053736
-0.031505
-0.000864
0.027972
0.052068
0.081645
0.130250
0.186593
0.216975
0.197712
0.162201
0.140506
0.136253
0.070172
0.032377
-0.041501
-0.060895
-0.026925
-0.008580
-0.016284
-0.000377
0.020894
0.049321
0.083102
0.129063
0.164393
0.192514
0.188953
0.210642
0.252300
0.253961
0.218135
0.174751
0.107414
0.066616
0.020419
-0.038726
-0.051720
-0.069407
-0.059546
-0.021975
0.015860
0.033279
0.066093
0.087478
0.125816
0.175680
0.185927
0.168230
0.176922
0.185970
0.173783
0.130667
0.078446
0.034283
0.017968
0.002839
0.051546
0.017121
-0.024486
-0.028379
-0.005914
0.035805
0.064307
0.117808
0.149660
0.191170
0.210584
0.219692
0.217723
0.193166
0.149256
0.110118
0.073953
0.047849
0.009646
-0.043379
-0.102861
-0.124308
-0.094089
-0.071117
-0.056494
-0.007208
0.020875
0.060879
0.102110
0.141139
0.156530
0.138605
0.117198
0.075780
0.061503
0.036084
-0.020368
-0.060039
-0.085316
-0.078168
-0.117391
-0.149895
-0.123032
-0.093027
-0.086052
-0.042986
-0.002494
0.042416
0.084549
0.105112
0.124312
0.118084
0.124782
0.128891
0.112703
0.064375
0.019191
-0.058552
-0.111587
-0.147811
-0.170104
-0.182156
-0.196342
-0.159042
-0.102492
-0.040746
-0.019998
0.032484
0.041064
0.079364
0.097873
0.085436
0.087028
0.067632
0.031538
-0.007672
-0.037429
-0.068796
-0.095106
-0.117014
-0.134492
-0.197236
-0.233655
-0.224584
-0.184365
-0.152369
-0.105229
-0.034447
0.009838
0.023031
0.028158
0.071138
0.138286
0.161653
0.086199
0.045700
0.047858
-0.016187
-0.086049
-0.138004
-0.165421
-0.162451
-0.150897
-0.142452
-0.122624
-0.096029
-0.042210
-0.005010
0.040299
0.080189
0.093794
0.125630
0.108421
0.100429
0.059722
0.021942
-0.025299
-0.072176
-0.100248
-0.150945
-0.177200
-0.188882
-0.181569
-0.140555
-0.129381
-0.082501
-0.045041
-0.009099
0.030107
0.084520
0.136150
0.156600
0.126108
0.122201
0.100058
0.020242
-0.050554
-0.115189
-0.160029
-0.174446
-0.205743
-0.247212
-0.248465
-0.219901
-0.196041
-0.139437
-0.082818
0.051567
0.133216
0.170855
0.144524
0.145649
0.153525
0.142589
0.105355
0.046769
-0.005855
-0.045283
-0.113612
-0.165509
-0.178705
-0.202962
-0.207120
-0.164293
-0.114849
-0.083154
-0.033331
0.001998
0.046314
0.069586
0.061452
0.058688
0.043476
0.033280
0.052659
0.025343
0.009438
-0.010691
-0.061994
-0.126151
-0.120804
-0.159371
-0.172184
-0.136062
-0.096386
-0.061408
-0.021117
0.018209
0.035593
0.040315
0.045280
0.044547
0.036867
0.036605
0.023423
-0.022293
-0.063860
-0.077158
-0.105704
-0.128194
-0.168647
-0.203475
-0.176181
-0.132519
-0.094783
-0.051088
-0.022881
-0.005121
0.026023
0.055487
0.076684
0.090758
0.077716
0.036652
-0.007335
-0.021487
-0.032191
-0.063838
-0.113621
-0.158839
-0.139422
-0.158578
-0.172653
-0.188432
-0.175139
-0.145191
-0.121975
-0.039291
0.056406
0.104529
0.104710
0.114993
0.114115
0.092946
0.034292
-0.007140
-0.029860
-0.089159
-0.146538
-0.156852
-0.139668
-0.152010
-0.154284
-0.143039
-0.136020
-0.121991
-0.091485
-0.055398
-0.022042
0.004608
0.035794
0.017287
0.027285
0.033090
0.010427
-0.038845
-0.070153
-0.120401
-0.149075
-0.141822
-0.127876
-0.146141
-0.170999
-0.168841
-0.131364
-0.099110
-0.060013
-0.011912
0.036337
0.073078
0.095945
0.113409
0.104137
0.092441
0.046941
-0.015253
-0.063534
-0.113155
-0.148679
-0.178210
-0.240265
-0.259880
-0.252041
-0.214514
-0.180336
-0.140038
-0.075111
-0.026520
0.027140
0.050601
0.080549
0.104256
0.091204
0.071704
0.045704
0.015409
-0.022594
-0.074854
-0.108670
-0.125851
-0.194695
-0.217607
-0.238382
-0.257811
-0.227122
-0.186466
-0.150150
-0.098047
-0.028719
0.016457
0.051800
0.098182
0.107762
0.120841
0.088330
0.025933
-0.006436
-0.063071
-0.144001
-0.191999
-0.207206
-0.198463
-0.188626
-0.186738
-0.151737
-0.107157
-0.076154
-0.037485
0.008574
0.003891
0.005812
0.018039
0.029685
0.031091
0.016588
-0.009412
-0.048196
-0.108202
-0.096858
-0.073159
-0.103916
-0.151363
-0.178378
-0.152370
-0.123573
-0.091959
-0.052905
-0.014283
0.032976
0.086850
0.112428
0.113131
0.086780
0.070797
0.038384
-0.020852
-0.053903
-0.099142
-0.135298
-0.143471
-0.166566
-0.149043
-0.136003
-0.133325
-0.078784
-0.020180
0.063939
0.086954
0.107546
0.158901
0.134583
0.112548
0.112238
0.081230
0.023858
-0.013943
-0.017158
-0.075289
-0.166853
-0.190839
-0.158032
-0.170772
-0.161852
-0.137185
-0.117502
-0.088427
-0.044804
0.008258
0.040677
0.045891
0.020586
0.017533
0.047107
0.058067
-0.016954
-0.065314
-0.097162
-0.140498
-0.141328
-0.190627
-0.234686
-0.232641
-0.204619
-0.181320
-0.156365
-0.125333
-0.097158
-0.068800
-0.031745
-0.012286
-0.011460
0.016209
0.029887
0.046529
0.024453
-0.007011
-0.092101
-0.148835
-0.177450
-0.186001
-0.250131
-0.248160
-0.209911
-0.185841
-0.162873
-0.124198
-0.068626
-0.028353
-0.001898
0.035373
0.056306
0.047673
0.010763
-0.023641
-0.029020
-0.083513
-0.134115
-0.173555
-0.179819
-0.169114
-0.154712
-0.173962
-0.215832
-0.221784
-0.186105
-0.154461
-0.098692
-0.042998
0.025882
0.031998
0.019571
0.026208
0.014997
-0.027207
-0.062947
-0.098879
-0.158961
-0.168251
-0.174558
-0.192312
-0.189287
-0.237257
-0.249943
-0.239630
-0.209501
-0.164379
-0.130049
-0.084920
-0.047688
0.026981
0.022607
-0.002952
-0.043699
-0.067886
-0.114588
-0.163715
-0.191448
-0.198040
-0.268673
-0.285322
-0.213760
-0.125432
-0.147219
-0.144124
-0.130209
-0.110672
-0.054812
-0.003183
0.033719
0.071542
0.119415
0.151555
0.153308
0.139006
0.121909
0.096189
0.054303
0.034586
0.027326
0.003185
0.006823
0.019123
0.041968
0.080946
0.139209
0.199861
0.249354
0.311324
0.405791
0.486107
0.545239
0.584382
0.624682
0.645640
0.678190
0.700950
0.698831
0.716942
0.689554
0.637803
0.582500
0.563399
0.555858
0.552596
0.556545
0.557578
0.542359
0.516036
0.472803
0.459072
0.439588
0.402017
0.350087
0.287713
0.239188
0.189887
0.164816
0.131313
-0.001681
-0.080244
-0.091009
-0.081313
-0.072371
-0.072777
-0.047905
-0.011820
0.005463
0.021928
0.074405
0.139785
0.155449
0.145045
0.114968
0.071350
0.030112
-0.010556
-0.073852
-0.131628
-0.173824
-0.148395
-0.132286
-0.122602
-0.112980
-0.137283
-0.138378
-0.116563
-0.069173
-0.000581
0.066566
0.086157
0.115722
0.121046
0.100082
0.056687
0.041565
0.003511
-0.051619
-0.089750
-0.111198
-0.138683
-0.177803
-0.210675
-0.245858
-0.261064
-0.238490
-0.187879
-0.133618
-0.074192
-0.015518
0.099681
0.160746
0.169897
0.142355
0.062110
0.029031
-0.016292
-0.061634
-0.092381
-0.147078
-0.172915
-0.211016
-0.223584
-0.199874
-0.152468
-0.139035
-0.107800
-0.058249
-0.042753
-0.003533
0.065244
0.112869
0.104024
0.080853
0.043979
0.043605
0.021260
0.004157
-0.035341
-0.086301
-0.137343
-0.162923
-0.189179
-0.198826
-0.156560
-0.068442
-0.017844
0.036379
0.057647
0.072965
0.104963
0.132539
0.146372
0.130617
0.107356
0.079195
0.043438
0.001230
-0.040216
-0.085759
-0.140432
-0.168710
-0.175610
-0.167312
-0.132917
-0.096906
-0.048150
-0.008720
0.021511
0.064773
0.116873
0.154469
0.149909
0.142458
0.121777
0.086730
0.045099
0.027755
-0.024406
-0.093935
-0.133455
-0.134528
-0.137460
-0.120480
-0.123114
-0.065343
-0.025752
-0.022446
-0.020186
0.079174
0.121489
0.119595
0.164463
0.159792
0.150362
0.138968
0.123689
0.075404
0.031113
-0.022440
-0.064794
-0.086758
-0.088571
-0.065011
-0.066382
-0.032170
0.000909
0.062318
0.086644
0.117370
0.149263
0.168934
0.194971
0.195619
0.176310
0.157790
0.098016
0.069412
0.053841
0.026304
-0.013417
-0.036317
-0.048099
-0.039190
-0.039895
-0.050312
-0.016202
0.044600
0.087206
0.129902
0.176571
0.193880
0.205172
0.193630
0.160379
0.114094
0.049565
0.005827
-0.038406
-0.076579
-0.100857
-0.156255
-0.146187
-0.145017
-0.102847
-0.064914
-0.008599
0.021116
0.102285
0.126567
0.144290
0.135087
0.143522
0.127733
0.112857
0.094784
0.049273
-0.000792
-0.069369
-0.102764
-0.136150
-0.166769
-0.160965
-0.115653
-0.116627
-0.119236
-0.083702
-0.049959
-0.026289
0.014008
0.046141
0.059174
0.072659
0.101490
0.064353
0.038854
0.006125
-0.036794
-0.078883
-0.114603
-0.175856
-0.190450
-0.187884
-0.131936
-0.106751
-0.098229
-0.086587
-0.057157
-0.010375
0.012742
0.046080
0.064366
0.065717
0.063373
0.060461
0.005725
-0.045672
-0.101546
-0.138871
-0.164340
-0.165403
-0.178391
-0.162416
-0.153590
-0.155952
-0.130642
-0.078419
-0.054109
0.001295
0.043121
0.070418
0.082461
0.075750
0.060414
0.042940
0.017938
-0.019792
-0.070725
-0.121919
-0.160687
-0.178783
-0.205071
-0.230767
-0.244454
-0.208503
-0.156469
-0.090644
-0.045804
-0.015607
0.023813
0.039989
0.060645
0.042280
0.039556
0.005366
-0.037499
-0.062942
-0.113657
-0.171967
-0.259341
-0.290420
-0.280294
-0.275169
-0.186590
-0.118935
-0.076322
-0.018961
0.014362
0.022303
0.037209
0.071369
0.086348
0.086049
0.055000
0.050159
0.007025
-0.039158
-0.084190
-0.120768
-0.144599
-0.135476
-0.159826
-0.170914
-0.185860
-0.160870
-0.131495
-0.083656
-0.019428
0.011622
0.034475
0.052507
0.072276
0.101340
0.099112
0.068548
0.019389
-0.010478
-0.060525
-0.111719
-0.160021
-0.204649
-0.202102
-0.206011
-0.211626
-0.189156
-0.154772
-0.113996
-0.069079
-0.022207
0.021748
0.058599
0.045335
0.044397
0.022733
0.019640
0.005552
-0.026585
-0.088412
-0.142744
-0.145479
-0.169555
-0.173504
-0.142942
-0.110848
-0.142221
-0.134234
-0.059626
-0.011650
0.011248
0.041642
0.064235
0.097299
0.087669
0.071384
0.042648
0.012059
-0.058240
-0.123807
-0.175083
-0.190159
-0.229059
-0.252516
-0.256155
-0.221240
-0.188890
-0.092325
-0.020919
-0.009745
0.007476
0.042062
0.090684
0.102176
0.104324
0.091199
0.082274
0.041657
-0.003142
-0.071010
-0.143475
-0.174433
-0.202367
-0.221837
-0.224775
-0.209906
-0.174816
-0.109125
-0.080556
-0.064703
-0.061400
-0.044280
0.022745
0.072294
0.075782
0.066231
0.038328
0.005591
-0.025205
-0.051924
-0.109502
-0.162289
-0.186948
-0.197876
-0.200454
-0.235032
-0.252897
-0.225801
-0.153606
-0.111871
-0.051729
0.009671
0.057195
0.086884
0.127460
0.107080
0.090300
0.044377
-0.026482
-0.061770
-0.095080
-0.125796
-0.178339
-0.206862
-0.177479
-0.158273
-0.148123
-0.129983
-0.109852
-0.095481
-0.042353
0.002505
0.040661
0.063105
0.062658
0.068619
0.065341
0.021145
-0.019286
-0.051483
-0.098492
-0.143317
-0.178198
-0.201199
-0.200278
-0.216338
-0.193845
-0.152747
-0.102529
-0.071205
-0.014188
0.029100
0.070569
0.062765
0.055582
0.053830
0.038007
0.008658
-0.023404
-0.063524
-0.119394
-0.172948
-0.198783
-0.217881
-0.207805
-0.201466
-0.185399
-0.165941
-0.141360
-0.112473
-0.075852
-0.049108
0.001137
0.039055
0.052782
0.052328
0.059171
0.042775
0.008053
-0.034963
-0.091430
-0.126520
-0.153377
-0.181918
-0.181970
-0.188367
-0.165336
-0.115394
-0.077548
0.002959
0.057089
0.044772
0.089870
0.109314
0.106472
0.082880
0.034665
0.002332
-0.024690
-0.104920
-0.166265
-0.194501
-0.219722
-0.221446
-0.174428
-0.144962
-0.103635
-0.019707
0.001093
-0.005208
0.059208
0.087693
0.120948
0.132513
0.137898
0.139838
0.110708
0.078510
0.031628
-0.024592
-0.061884
-0.107872
-0.150977
-0.189060
-0.199165
-0.185175
-0.175032
-0.155749
-0.109186
-0.069673
-0.022912
0.009477
0.043869
0.048971
0.045066
0.022538
-0.001640
-0.033779
-0.065410
-0.093408
-0.120231
-0.159753
-0.180748
-0.188832
-0.189536
-0.205977
-0.212499
-0.200240
-0.145879
-0.078742
-0.040634
0.013654
0.048235
0.065668
0.046048
0.045850
0.043744
0.017810
-0.041384
-0.116105
-0.208878
-0.244873
-0.269888
-0.268076
-0.250117
-0.239956
-0.226207
-0.146121
-0.077142
-0.027892
-0.002059
0.040235
0.058839
0.066644
0.058473
0.061781
0.036422
-0.021138
-0.064602
-0.116182
-0.163256
-0.200883
-0.228384
-0.233399
-0.254251
-0.245246
-0.211123
-0.186095
-0.171062
-0.136264
-0.060686
-0.034141
0.010477
0.044067
0.040158
0.030154
-0.011261
-0.012316
-0.034717
-0.080357
-0.131017
-0.176064
-0.210379
-0.238681
-0.252439
-0.242862
-0.222623
-0.218561
-0.173960
-0.108075
-0.065852
-0.044746
-0.022566
-0.010095
0.001962
-0.002093
-0.022894
-0.017266
-0.041122
-0.083533
-0.151231
-0.211979
-0.249319
-0.273372
-0.289097
-0.292836
-0.258938
-0.205077
-0.171996
-0.158000
-0.091360
-0.029866
0.004617
0.001614
-0.009730
0.034984
0.030621
0.021466
-0.009052
-0.028996
-0.042998
-0.081479
-0.081318
-0.108323
-0.115122
-0.103779
-0.108687
-0.069027
-0.010159
0.055044
0.127259
0.250200
0.338721
0.392207
0.424946
0.451489
0.456561
0.443721
0.396601
0.403108
0.397335
0.393414
0.395322
0.421803
0.440530
0.468456
0.534161
0.625566
0.677070
0.735938
0.777563
0.788086
0.780047
0.791212
0.786778
0.747485
0.664747
0.587844
0.474748
0.380275
0.289690
0.214763
0.105226
0.049865
0.024357
-0.005261
-0.040981
-0.029255
-0.011143
0.042308
0.092232
0.109921
0.117907
0.130343
0.131182
0.124647
0.106827
0.067171
0.016879
-0.018799
-0.065429
-0.095670
-0.129004
-0.182329
-0.197921
-0.172519
-0.162572
-0.135661
-0.081295
-0.028632
0.033113
0.058962
0.065679
0.098495
0.105247
0.097119
0.071966
0.035212
-0.010901
-0.052196
-0.099385
-0.141622
-0.172680
-0.199281
-0.184008
-0.162512
-0.167803
-0.154585
-0.106365
-0.053063
-0.010571
0.030889
0.051654
0.063226
0.059443
0.037668
0.008282
-0.024328
-0.060443
-0.120718
-0.133751
-0.151018
-0.160870
-0.163753
-0.195927
-0.196676
-0.205423
-0.165956
-0.126859
-0.095077
-0.028049
0.024772
0.090582
0.124217
0.138461
0.108528
0.108671
0.050267
-0.035060
-0.060000
-0.092809
-0.133876
-0.140400
-0.178152
-0.209275
-0.184342
-0.151374
-0.112166
-0.083610
-0.063639
-0.002712
0.058167
0.092141
0.109653
0.098113
0.092541
0.092562
0.063429
0.019386
-0.035470
-0.073357
-0.129588
-0.167083
-0.203723
-0.221789
-0.202378
-0.169229
-0.134953
-0.093581
-0.027062
0.016424
0.053062
0.095314
0.116860
0.136781
0.142628
0.143209
0.104041
0.016361
-0.032214
-0.060570
-0.099654
-0.114355
-0.143832
-0.140232
-0.120840
-0.113456
-0.098038
-0.062863
-0.027550
0.021942
0.069786
0.103145
0.140838
0.145132
0.152003
0.156943
0.174165
0.122786
0.072373
0.018857
-0.027401
-0.059491
-0.087677
-0.119448
-0.108534
-0.079874
-0.021891
0.012707
0.048352
0.074099
0.124361
0.181304
0.212806
0.199145
0.190825
0.170636
0.131704
0.069741
0.028480
-0.019565
-0.060742
-0.087727
-0.093592
-0.100376
-0.101481
-0.099822
-0.059555
-0.015369
0.043191
0.084973
0.127559
0.182712
0.180666
0.185788
0.175774
0.147861
0.117275
0.068336
0.021171
-0.031430
-0.083289
-0.106341
-0.122780
-0.129047
-0.116477
-0.095853
-0.066681
-0.026633
0.005111
0.053614
0.092256
0.120893
0.128753
0.129798
0.120210
0.100345
0.080236
0.049837
0.007058
-0.038312
-0.094701
-0.136424
-0.163346
-0.177373
-0.173108
-0.173662
-0.139739
-0.091503
-0.029137
0.022594
0.067906
0.083698
0.102156
0.110038
0.111167
0.076859
0.037784
-0.012703
-0.052042
-0.092424
-0.147909
-0.191513
-0.235767
-0.269430
-0.276975
-0.249959
-0.214741
-0.180255
-0.138620
-0.099391
-0.057015
-0.004950
0.090796
0.115654
0.121929
0.102019
0.072710
0.028750
0.011335
-0.035220
-0.091287
-0.143088
-0.207248
-0.194996
-0.193099
-0.171015
-0.136786
-0.090085
-0.053766
0.001987
0.012626
0.065481
0.079884
0.090244
0.065080
0.052068
0.018540
-0.032114
-0.084762
-0.128059
-0.160899
-0.206746
-0.221735
-0.230635
-0.229646
-0.209720
-0.158366
-0.111081
-0.074005
-0.007748
0.033872
0.083889
0.102282
0.093539
0.060358
0.055990
0.002273
-0.043926
-0.081867
-0.108790
-0.158299
-0.185409
-0.217200
-0.218793
-0.215720
-0.195832
-0.155431
-0.122655
-0.086848
-0.030058
0.010850
0.038474
0.057878
0.064922
0.059552
0.055127
0.012573
-0.041798
-0.104201
-0.144368
-0.162950
-0.206905
-0.223796
-0.238304
-0.229187
-0.206127
-0.163734
-0.102699
-0.056965
-0.013102
0.009182
0.033034
0.056030
0.062121
0.050252
0.017293
-0.025492
-0.080055
-0.124196
-0.176124
-0.213939
-0.224773
-0.212854
-0.175319
-0.153405
-0.115983
-0.048244
-0.055922
-0.055683
-0.019318
0.044418
0.082118
0.083371
0.096680
0.084555
0.072749
0.009847
-0.024666
-0.072762
-0.112886
-0.141844
-0.189455
-0.210442
-0.215648
-0.220717
-0.198374
-0.158900
-0.118316
-0.057290
-0.014079
0.020255
0.068266
0.088045
0.092408
0.072636
0.063816
0.040501
-0.014959
-0.055657
-0.119239
-0.173525
-0.215252
-0.236137
-0.235390
-0.203983
-0.160666
-0.119715
-0.086037
-0.052145
-0.004422
0.041608
0.075629
0.086206
0.091615
0.083948
0.068984
0.033422
-0.012392
-0.060367
-0.108282
-0.145018
-0.185132
-0.194793
-0.210622
-0.206516
-0.182022
-0.154191
-0.113009
-0.062307
-0.022011
0.016522
0.045062
0.067333
0.079673
0.068693
0.040683
-0.011394
-0.049035
-0.094713
-0.140434
-0.171503
-0.201193
-0.220154
-0.244284
-0.240486
-0.215776
-0.181670
-0.141533
-0.089810
-0.025232
0.022369
0.036745
0.081023
0.083036
0.083715
0.065899
0.014429
-0.022825
-0.080383
-0.119278
-0.156771
-0.186837
-0.233437
-0.234907
-0.232344
-0.230208
-0.208253
-0.177010
-0.142468
-0.115878
-0.082531
-0.038892
-0.012781
0.016719
0.047064
0.065915
0.044905
-0.001408
-0.017110
-0.043398
-0.096854
-0.158363
-0.196033
-0.208445
-0.192371
-0.175637
-0.159801
-0.125291
-0.074031
-0.014513
0.017139
0.056759
0.068745
0.079037
0.065329
0.044377
0.034580
-0.000231
-0.053548
-0.106345
-0.161537
-0.191188
-0.217495
-0.234517
-0.236477
-0.209282
-0.174109
-0.143559
-0.088561
-0.042862
0.001196
0.068730
0.099227
0.125031
0.100458
0.050749
0.016951
-0.022738
-0.054226
-0.092231
-0.119921
-0.158288
-0.187581
-0.199588
-0.191091
-0.165153
-0.128424
-0.078212
-0.046862
-0.003829
0.045073
0.062824
0.076421
0.084314
0.078252
0.061183
0.044216
0.011138
-0.043525
-0.097097
-0.137836
-0.178635
-0.190921
-0.198065
-0.174658
-0.137958
-0.102493
-0.070489
-0.025940
0.006653
0.058371
0.082904
0.080798
0.090343
0.088908
0.063427
0.039720
-0.002985
-0.064387
-0.094343
-0.150182
-0.177239
-0.199272
-0.204868
-0.202133
-0.184590
-0.146975
-0.112845
-0.053691
-0.005209
0.027327
0.076565
0.101605
0.091340
0.059173
0.048084
0.001335
-0.044855
-0.086268
-0.139179
-0.160913
-0.189132
-0.228805
-0.217874
-0.199566
-0.177392
-0.153617
-0.126505
-0.078309
-0.044786
-0.014162
0.022682
0.035014
0.034362
0.025465
0.003972
-0.030434
-0.074766
-0.110139
-0.157197
-0.212244
-0.241875
-0.252757
-0.250907
-0.244911
-0.223289
-0.197581
-0.146163
-0.110976
-0.065071
-0.020502
0.004463
0.029294
0.038739
0.027236
0.012647
-0.024786
-0.073169
-0.121937
-0.146212
-0.200916
-0.237864
-0.260616
-0.270642
-0.255076
-0.238485
-0.212933
-0.167813
-0.120845
-0.084735
-0.040726
0.007709
0.021779
0.034673
0.037177
0.016675
-0.017859
-0.059223
-0.108465
-0.154172
-0.185752
-0.222726
-0.245115
-0.250185
-0.248572
-0.228775
-0.194136
-0.166877
-0.143635
-0.090770
-0.042225
-0.025195
0.000915
0.007428
0.002783
-0.002171
-0.018450
-0.062706
-0.111297
-0.161339
-0.193712
-0.232641
-0.249246
-0.268861
-0.251838
-0.229628
-0.211458
-0.192549
-0.138508
-0.115373
-0.054938
0.010861
0.038066
0.054738
0.057664
0.062724
0.050355
-0.006278
-0.028987
-0.050153
-0.100494
-0.100586
-0.095602
-0.062145
-0.025532
0.006985
0.077314
0.143189
0.200340
0.278944
0.349220
0.411869
0.451328
0.473147
0.493230
0.515722
0.511921
0.504108
0.504393
0.494848
0.490829
0.507494
0.519247
0.542825
0.556405
0.573364
0.602468
0.625275
0.659257
0.689742
0.721831
0.729460
0.710730
0.662341
0.592603
0.505269
0.417863
0.334244
0.233745
0.133062
0.033755
-0.016939
-0.071138
-0.097271
-0.096999
-0.090536
-0.052302
-0.012258
0.025993
0.063035
0.091704
0.116778
0.138649
0.144133
0.126082
0.107902
0.078342
0.030287
-0.024775
-0.070080
-0.122493
-0.150380
-0.182994
-0.195457
-0.184160
-0.158403
-0.141280
-0.100942
-0.067687
-0.012209
0.045753
0.055419
0.061875
0.064980
0.068525
0.033696
-0.010492
-0.047539
-0.077712
-0.142915
-0.173601
-0.213311
-0.241593
-0.229547
-0.228775
-0.207484
-0.179453
-0.141223
-0.095536
-0.026060
0.020232
0.052301
0.066643
0.064170
0.052111
0.042370
0.011364
-0.034479
-0.081401
-0.124721
-0.166265
-0.195050
-0.210296
-0.218095
-0.208415
-0.171732
-0.147487
-0.108859
-0.070164
-0.024437
0.007405
0.041065
0.056637
0.062051
0.055281
0.036252
0.019621
-0.022140
-0.071852
-0.127123
-0.154865
-0.194741
-0.221140
-0.205092
-0.222391
-0.209723
-0.155963
-0.108798
-0.069461
-0.009086
0.025800
0.071098
0.092947
0.083902
0.069818
0.054977
0.030453
-0.003039
-0.042464
-0.090405
-0.126921
-0.178165
-0.197906
-0.198402
-0.188530
-0.176703
-0.136776
-0.090795
-0.031790
0.022252
0.060393
0.085574
0.114589
0.114122
0.097927
0.074788
0.038082
-0.002958
-0.036405
-0.083525
-0.135876
-0.160506
-0.169385
-0.174600
-0.159267
-0.153495
-0.114912
-0.063918
-0.004987
0.044753
0.078037
0.117608
0.133676
0.115513
0.114186
0.087603
0.054370
0.024804
-0.014141
-0.058662
-0.080623
-0.114865
-0.119659
-0.130195
-0.116629
-0.122857
-0.078883
-0.045399
0.002917
0.041596
0.079053
0.111575
0.124190
0.143213
0.146267
0.122845
0.084908
0.053456
0.010623
-0.031364
-0.082111
-0.105891
-0.136875
-0.144526
-0.160914
-0.117690
-0.102339
-0.064742
-0.016625
0.040858
0.073804
0.113521
0.126338
0.121065
0.103288
0.075833
0.056773
0.016609
-0.016381
-0.078536
-0.101371
-0.128718
-0.158326
-0.151481
-0.146976
-0.125951
-0.089422
-0.053847
-0.017933
0.037829
0.057890
0.086551
0.102075
0.103350
0.094550
0.070862
0.032291
-0.003857
-0.048906
-0.112898
-0.146471
-0.169623
-0.194506
-0.203685
-0.199152
-0.184044
-0.151502
-0.111116
-0.060393
-0.019769
0.038432
0.061002
0.073598
0.070414
0.069101
0.043598
0.006918
-0.035662
-0.073702
-0.126487
-0.159693
-0.194323
-0.242874
-0.229056
-0.218341
-0.216399
-0.176534
-0.132337
-0.094709
-0.044646
-0.004194
0.020324
0.047717
0.048967
0.037311
0.014168
-0.025706
-0.062171
-0.111633
-0.158216
-0.175399
-0.210187
-0.224238
-0.214455
-0.204021
-0.193073
-0.163347
-0.128440
-0.086796
-0.049917
-0.003146
0.016093
0.040805
0.031872
0.029878
0.023686
-0.004841
-0.057987
-0.109236
-0.165140
-0.205212
-0.217800
-0.238972
-0.247842
-0.219137
-0.198870
-0.185944
-0.144532
-0.090080
-0.046824
-0.018068
0.030399
0.044810
0.043866
0.025522
-0.000647
-0.027750
-0.065024
-0.105487
-0.142805
-0.186387
-0.239014
-0.250136
-0.233811
-0.221911
-0.194656
-0.172724
-0.122351
-0.075412
-0.035733
0.008115
0.030524
0.055710
0.060982
0.052756
0.026009
-0.019274
-0.065385
-0.116623
-0.162370
-0.193030
-0.223434
-0.244763
-0.246115
-0.230511
-0.204036
-0.177842
-0.148108
-0.094101
-0.039842
0.011811
0.041825
0.041281
0.052183
0.046294
0.031751
0.001498
-0.032230
-0.073123
-0.128665
-0.176299
-0.196140
-0.225665
-0.237080
-0.234678
-0.202460
-0.188418
-0.139991
-0.082827
-0.032269
0.006800
0.041991
0.053291
0.077189
0.055909
0.040522
0.004801
-0.054805
-0.095535
-0.157022
-0.173743
-0.212199
-0.221100
-0.235075
-0.223704
-0.206568
-0.173378
-0.124895
-0.094805
-0.053719
-0.002322
0.030481
0.052318
0.063613
0.069990
0.048467
0.023389
-0.023670
-0.084075
-0.129399
-0.172939
-0.203350
-0.225900
-0.224303
-0.222690
-0.205712
-0.163963
-0.125008
-0.078968
-0.041706
-0.001293
0.038312
0.061675
0.057800
0.046779
0.021967
-0.001709
-0.039866
-0.087676
-0.120767
-0.151462
-0.197095
-0.215353
-0.230974
-0.210725
-0.211929
-0.185024
-0.151359
-0.100276
-0.053799
-0.006536
0.026211
0.044699
0.057429
0.028318
0.025856
-0.001653
-0.038679
-0.085210
-0.142403
-0.197614
-0.232699
-0.249326
-0.252540
-0.244376
-0.220207
-0.192166
-0.147181
-0.102593
-0.047293
-0.020696
0.007752
0.025722
0.042322
0.029191
0.001124
-0.031445
-0.045336
-0.081800
-0.139480
-0.197879
-0.233510
-0.238921
-0.247663
-0.233498
-0.210766
-0.176063
-0.152321
-0.091869
-0.064877
0.002770
0.035464
0.040906
0.046623
0.032209
0.008527
-0.027370
-0.066443
-0.118683
-0.156111
-0.189472
-0.207395
-0.226720
-0.251672
-0.223732
-0.223739
-0.182314
-0.152498
-0.105308
-0.069423
-0.032735
0.005954
0.025636
0.031242
0.016149
0.005734
-0.020309
-0.056388
-0.111543
-0.151690
-0.208706
-0.229741
-0.236142
-0.232077
-0.225408
-0.212530
-0.186050
-0.138337
-0.100449
-0.049103
0.007349
0.046669
0.060027
0.054988
0.046029
0.028855
-0.003052
-0.058409
-0.089498
-0.128133
-0.164920
-0.203763
-0.212790
-0.233554
-0.228840
-0.196414
-0.158870
-0.116665
-0.080831
-0.028371
0.021898
0.050484
0.077395
0.097956
0.073855
0.041886
0.007410
-0.022733
-0.073292
-0.114198
-0.156722
-0.194390
-0.207089
-0.213988
-0.195581
-0.179950
-0.135289
-0.096220
-0.066907
-0.010036
0.030866
0.056991
0.079012
0.093103
0.085044
0.068137
0.033328
-0.014152
-0.051475
-0.101650
-0.139814
-0.192451
-0.211668
-0.223271
-0.217314
-0.199207
-0.164393
-0.124075
-0.077096
-0.027607
0.002756
0.044936
0.055602
0.060625
0.038826
0.012554
-0.034313
-0.052146
-0.107280
-0.149267
-0.187444
-0.221871
-0.251771
-0.253209
-0.231960
-0.219288
-0.185169
-0.153698
-0.106921
-0.065275
-0.029592
-0.003027
0.006823
0.025225
0.012118
-0.008168
-0.043673
-0.091164
-0.126380
-0.160290
-0.206890
-0.233138
-0.250699
-0.272131
-0.261341
-0.246305
-0.210672
-0.176751
-0.130017
-0.083227
-0.041841
-0.020331
-0.001879
-0.002989
-0.001184
0.014660
-0.033792
-0.089205
-0.144470
-0.181516
-0.232772
-0.263616
-0.291339
-0.300312
-0.273883
-0.260955
-0.217283
-0.181930
-0.144881
-0.095399
-0.052818
-0.018282
0.009940
0.019300
-0.000709
-0.024709
-0.062583
-0.096643
-0.137248
-0.205510
-0.228689
-0.269082
-0.284902
-0.288066
-0.263353
-0.259141
-0.217933
-0.174156
-0.136416
-0.082948
-0.030736
-0.002732
0.028172
0.006966
0.000220
-0.017759
-0.040026
-0.081208
-0.135751
-0.170483
-0.219784
-0.273209
-0.283473
-0.304543
-0.293532
-0.272143
-0.231294
-0.195580
-0.150963
-0.104247
-0.051191
-0.009276
0.026094
0.049581
0.038146
0.027114
-0.004680
-0.040216
-0.043236
-0.082420
-0.110387
-0.119436
-0.140331
-0.131473
-0.102899
-0.061017
-0.025859
0.025875
0.095440
0.156321
0.213782
0.300337
0.358704
0.385334
0.413400
0.424861
0.414801
0.414222
0.397291
0.389238
0.383412
0.396252
0.409966
0.451863
0.502260
0.554845
0.606377
0.642135
0.671720
0.699713
0.722681
0.742079
0.766258
0.741103
0.690584
0.597046
0.500160
0.403788
0.294205
0.191905
0.107653
0.030001
-0.024335
-0.059890
-0.057955
-0.062895
-0.044106
-0.012910
0.036352
0.066422
0.107000
0.136869
0.163199
0.157227
0.123656
0.110959
0.066868
0.021563
-0.031895
-0.087714
-0.130450
-0.170366
-0.187569
-0.186399
-0.197820
-0.167856
-0.147850
-0.118391
-0.068680
-0.014765
0.014421
0.040904
0.062805
0.074728
0.067597
0.027229
-0.008449
-0.045010
-0.083431
-0.133213
-0.177698
-0.212229
-0.228355
-0.243085
-0.231741
-0.197289
-0.158207
-0.125812
-0.079462
-0.044855
-0.000848
0.023031
0.035811
0.047677
0.039586
0.016520
-0.013661
-0.044597
-0.101129
-0.143389
-0.161576
-0.218805
-0.237709
-0.228319
-0.227051
-0.207022
-0.181448
-0.140691
-0.091941
-0.048643
-0.018910
0.003903
0.026216
0.048723
0.042264
0.023260
-0.011589
-0.050419
-0.096116
-0.133333
-0.173052
-0.197899
-0.217513
-0.215499
-0.198781
-0.169121
-0.152568
-0.109206
-0.069578
-0.026180
0.032785
0.058006
0.075477
0.090884
0.082002
0.056883
0.032337
-0.025456
-0.074919
-0.121581
-0.161441
-0.207415
-0.222486
-0.223609
-0.208069
-0.152177
-0.134886
-0.102141
-0.057433
-0.020867
0.025749
0.057916
0.077310
0.103527
0.104611
0.078088
0.040805
0.003016
-0.030261
-0.095644
-0.126529
-0.155995
-0.178094
-0.183623
-0.189943
-0.154095
-0.118176
-0.075239
-0.022470
0.022134
0.066808
0.107696
0.129222
0.135919
0.137353
0.101015
0.062894
0.019949
-0.026711
-0.063078
-0.098837
-0.126273
-0.149549
-0.153305
-0.149941
-0.126463
-0.094444
-0.046373
-0.004354
0.035779
0.056966
0.107591
0.121640
0.137315
0.134522
0.087372
0.048513
0.018976
-0.035105
-0.071009
-0.097161
-0.131154
-0.162094
-0.165923
-0.158534
-0.125642
-0.089721
-0.052045
-0.012250
0.034494
0.069332
0.105529
0.130393
0.129642
0.118580
0.095674
0.065815
0.019804
-0.032937
-0.072650
-0.111322
-0.142598
-0.168723
-0.176596
-0.164387
-0.149914
-0.125754
-0.074988
-0.025367
0.003323
0.044794
0.075737
0.086775
0.099580
0.092667
0.059213
0.032280
-0.008721
-0.069550
-0.110129
-0.153437
-0.178320
-0.202833
-0.202356
-0.188452
-0.151091
-0.124341
-0.078259
-0.030930
0.011743
0.034546
0.063507
0.077002
0.086153
0.073448
0.050539
0.017828
-0.033440
-0.084642
-0.132588
-0.177804
-0.203845
-0.229727
-0.222863
-0.214599
-0.207621
-0.153126
-0.118334
-0.062811
-0.020124
0.013937
0.058608
0.063010
0.062706
0.062745
0.037460
0.005513
-0.037506
-0.091568
-0.134576
-0.167330
-0.207974
-0.215915
-0.234755
-0.225492
-0.201417
-0.171082
-0.135045
-0.088413
-0.045845
-0.008736
0.023712
0.060405
0.058118
0.046781
0.007128
-0.020171
-0.048890
-0.099757
-0.153152
-0.198967
-0.224898
-0.239967
-0.237752
-0.221282
-0.202818
-0.178236
-0.147856
-0.091114
-0.055390
0.003017
0.020120
0.033491
0.045159
0.043264
0.020992
-0.013125
-0.046710
-0.094664
-0.129643
-0.177859
-0.217571
-0.245619
-0.227084
-0.213187
-0.186841
-0.148255
-0.111565
-0.063939
-0.016590
0.005969
0.040887
0.054070
0.051215
0.056539
0.035185
0.001419
-0.042921
-0.082609
-0.140456
-0.203180
-0.238654
-0.232296
-0.238486
-0.227183
-0.212651
-0.163535
-0.128416
-0.073202
-0.026521
0.013274
0.042104
0.047194
0.071938
0.067680
0.041006
0.010614
-0.030332
-0.091908
-0.124462
-0.165187
-0.186737
-0.202466
-0.210803
-0.201838
-0.185954
-0.155732
-0.120172
-0.068570
-0.028400
0.021795
0.046031
0.081003
0.090662
0.081536
0.056342
0.004061
-0.038411
-0.081381
-0.115224
-0.158338
-0.192060
-0.214439
-0.220409
-0.214544
-0.186784
-0.166553
-0.121058
-0.069513
-0.031386
0.006438
0.057157
0.067658
0.079096
0.087785
0.054108
0.024772
-0.021373
-0.069102
-0.116779
-0.173269
-0.196155
-0.220362
-0.239208
-0.218929
-0.191128
-0.168131
-0.133064
-0.086174
-0.052585
-0.010448
0.025574
0.059401
0.072272
0.076654
0.063439
0.035586
-0.008753
-0.056339
-0.113111
-0.158274
-0.193998
-0.220336
-0.231968
-0.214146
-0.189051
-0.159106
-0.111142
-0.063926
-0.025222
0.025090
0.052194
0.063418
0.074332
0.066545
0.048653
0.017524
-0.021963
-0.078775
-0.116872
-0.164023
-0.198561
-0.221044
-0.213826
-0.220688
-0.187835
-0.152782
-0.115802
-0.072519
-0.038463
0.004693
0.032270
0.053073
0.064007
0.050410
0.035907
-0.011250
-0.048184
-0.087126
-0.144645
-0.181455
-0.213001
-0.236910
-0.253629
-0.227052
-0.210198
-0.169506
-0.123631
-0.076339
-0.019882
0.011839
0.048478
0.073177
0.067356
0.070635
0.039616
0.000415
-0.042786
-0.082359
-0.118865
-0.155026
-0.195740
-0.216750
-0.235809
-0.230516
-0.202952
-0.166676
-0.116742
-0.087835
-0.047438
-0.013805
0.014674
0.037983
0.056327
0.060351
0.034562
-0.003897
-0.058483
-0.091055
-0.133728
-0.176050
-0.208504
-0.223876
-0.234354
-0.237026
-0.220635
-0.180684
-0.137295
-0.086824
-0.045075
-0.005826
0.021498
0.052021
0.071381
0.052351
0.034643
-0.000197
-0.045448
-0.086181
-0.124650
-0.174512
-0.203397
-0.221265
-0.234327
-0.216641
-0.199390
-0.170163
-0.129357
-0.084098
-0.030398
0.010627
0.045677
0.071566
0.075645
0.057613
0.019229
-0.004691
-0.030883
-0.071251
-0.117453
-0.158520
-0.184596
-0.213478
-0.217584
-0.198685
-0.177659
-0.148281
-0.101794
-0.042454
0.005289
0.051463
0.094013
0.109016
0.118745
0.097276
0.084394
0.044852
0.005563
-0.037641
-0.098855
-0.138974
-0.165715
-0.201058
-0.199399
-0.195582
-0.185128
-0.137854
-0.101207
-0.042180
0.016727
0.048592
0.092889
0.120313
0.132402
0.145084
0.106353
0.044382
0.011550
-0.033560
-0.074831
-0.108250
-0.149009
-0.169515
-0.180884
-0.161754
-0.141748
-0.122109
-0.087200
-0.043806
0.002113
0.029413
0.055301
0.076943
0.086085
0.079975
0.056229
0.016715
-0.011206
-0.067638
-0.110581
-0.152483
-0.197133
-0.226700
-0.224431
-0.210711
-0.199633
-0.161967
-0.118057
-0.072717
-0.032101
0.011940
0.046483
0.071570
0.068675
0.053567
0.028479
-0.026874
-0.070892
-0.099980
-0.155230
-0.194914
-0.226564
-0.251237
-0.246583
-0.237196
-0.213583
-0.175532
-0.143050
-0.097834
-0.048658
-0.013508
0.032168
0.036835
0.051734
0.042177
0.025066
-0.020379
-0.063455
-0.115727
-0.162504
-0.189652
-0.220053
-0.260347
-0.257573
-0.246151
-0.221593
-0.186077
-0.146823
-0.093999
-0.043151
0.000629
0.035113
0.055658
0.049654
0.037842
0.017485
-0.017785
-0.064756
-0.119582
-0.173325
-0.194340
-0.232347
-0.248140
-0.249001
-0.246599
-0.231218
-0.198261
-0.149813
-0.111938
-0.070619
-0.036204
-0.010889
0.019884
0.040848
0.031594
0.022985
-0.011319
-0.064182
-0.101301
-0.140464
-0.182604
-0.214041
-0.233096
-0.238689
-0.238380
-0.227875
-0.195849
-0.147027
-0.104514
-0.057128
-0.029734
-0.006078
0.018100
0.019416
0.006008
-0.004834
-0.033589
-0.066980
-0.108432
-0.138079
-0.158067
-0.170229
-0.183667
-0.177143
-0.152044
-0.109104
-0.049248
0.000975
0.050196
0.120803
0.178162
0.231803
0.273059
0.302467
0.317511
0.325431
0.315713
0.317317
0.304192
0.287038
0.276520
0.265152
0.285102
0.319735
0.366389
0.419558
0.513194
0.583951
0.667838
0.755875
0.818206
0.855616
0.872413
0.876054
0.847435
0.810484
0.759242
0.699755
0.638959
0.536319
0.417699
0.305562
0.220418
0.157668
0.126800
0.101364
0.109693
0.099955
0.116500
0.153373
0.181001
0.211237
0.209680
0.206861
0.181624
0.158285
0.125075
0.071799
0.029089
-0.017467
-0.057603
-0.092608
-0.123246
-0.129240
-0.126045
-0.111726
-0.096401
-0.055246
-0.012943
0.033286
0.067973
0.098689
0.118294
0.120193
0.109594
0.079554
0.041222
-0.000536
-0.044928
-0.097927
-0.141220
-0.181262
-0.195494
-0.203830
-0.191745
-0.184074
-0.145596
-0.102388
-0.060227
-0.004805
0.032016
0.049977
0.082568
0.096331
0.084433
0.062092
0.037328
-0.009795
-0.055700
-0.110221
-0.141731
-0.176755
-0.193209
-0.204715
-0.198395
-0.171814
-0.132677
-0.088797
-0.052244
-0.000722
0.047809
0.077548
0.084414
0.086170
0.079922
0.070763
0.043887
0.004852
-0.059941
-0.099224
-0.135100
-0.173190
-0.184393
-0.188066
-0.181078
-0.144707
-0.113749
-0.068965
-0.030218
0.007762
0.051961
0.088165
0.117535
0.121390
0.112324
0.091965
0.047748
0.002826
-0.035146
-0.078136
-0.116569
-0.151217
-0.168955
-0.165331
-0.155602
-0.139817
-0.110077
-0.054294
-0.015654
0.046271
0.090735
0.117138
0.140092
0.139101
0.142464
0.117016
0.080364
0.033539
-0.007926
-0.057182
-0.090221
-0.119606
-0.134831
-0.154693
-0.141156
-0.115162
-0.084999
-0.040569
0.009160
0.064600
0.099288
0.132820
0.153232
0.161209
0.167518
0.142034
0.114738
0.059954
0.006584
-0.036165
-0.070414
-0.098400
-0.117048
-0.124629
-0.116466
-0.078606
-0.036811
0.003550
0.032088
0.070996
0.099192
0.144991
0.163085
0.189208
0.175792
0.163043
0.129857
0.085825
0.043172
-0.008519
-0.053993
-0.085710
-0.110565
-0.110895
-0.095672
-0.076684
-0.048550
-0.013423
0.043248
0.087296
0.122943
0.152142
0.165434
0.183539
0.181710
0.153924
0.115610
0.069530
0.038634
-0.008988
-0.056767
-0.083330
-0.107816
-0.113773
-0.106432
-0.094622
-0.054257
-0.006964
0.030974
0.081123
0.123737
0.146166
0.160107
0.170751
0.161047
0.136275
0.108732
0.060705
0.003357
-0.041198
-0.085611
-0.127743
-0.144585
-0.150665
-0.148238
-0.125231
-0.097451
-0.046314
-0.001707
0.037747
0.074326
0.118380
0.133962
0.143747
0.133016
0.108641
0.080822
0.029970
-0.025077
-0.071792
-0.104733
-0.130244
-0.159699
-0.165120
-0.164541
-0.138842
-0.108899
-0.059078
-0.016951
0.015475
0.059429
0.090219
0.111382
0.122353
0.111463
0.081763
0.033144
-0.014042
-0.046774
-0.091757
-0.126743
-0.169403
-0.195775
-0.196861
-0.180870
-0.165344
-0.124030
-0.087219
-0.040771
0.007502
0.042122
0.082073
0.103338
0.103279
0.108486
0.083330
0.046424
0.007702
-0.044645
-0.096926
-0.135073
-0.169869
-0.194141
-0.201196
-0.192577
-0.176760
-0.142150
-0.090539
-0.055067
-0.003515
0.036879
0.074426
0.092343
0.104965
0.092295
0.067643
0.045332
-0.000268
-0.044221
-0.081917
-0.124971
-0.155839
-0.183454
-0.187338
-0.180474
-0.155555
-0.130335
-0.078493
-0.037299
0.000694
0.048074
0.075142
0.083427
0.097616
0.090661
0.063259
0.039329
-0.001271
-0.039465
-0.082001
-0.131802
-0.158856
-0.166964
-0.174290
-0.166342
-0.140807
-0.123940
-0.071592
-0.029704
0.014115
0.057923
0.084609
0.110209
0.112202
0.102113
0.074524
0.058773
0.003796
-0.029265
-0.073192
-0.118503
-0.150591
-0.169847
-0.181122
-0.170307
-0.149165
-0.117919
-0.069947
-0.020469
0.021395
0.076957
0.098918
0.110330
0.117695
0.105738
0.085843
0.066863
0.009602
-0.034728
-0.077379
-0.123254
-0.145804
-0.170291
-0.172884
-0.168623
-0.140522
-0.102704
-0.043934
-0.012024
0.033865
0.078436
0.109239
0.128201
0.131562
0.113918
0.097973
0.070989
0.030220
-0.018391
-0.070024
-0.116207
-0.138937
-0.155822
-0.163092
-0.170322
-0.155601
-0.116251
-0.067430
-0.028757
0.017410
0.053051
0.089907
0.114485
0.116983
0.120275
0.098987
0.054609
0.010615
-0.025263
-0.067559
-0.106371
-0.142190
-0.168566
-0.169199
-0.172079
-0.154740
-0.116403
-0.069212
-0.022823
0.022365
0.055695
0.088671
0.112290
0.134233
0.121192
0.099476
0.062412
0.012206
-0.033532
-0.072301
-0.125387
-0.157879
-0.178993
-0.190725
-0.181763
-0.155431
-0.119500
-0.066163
-0.014312
0.029971
0.067361
0.097287
0.108017
0.116002
0.099137
0.077071
0.053556
0.012159
-0.042550
-0.087983
-0.133254
-0.150680
-0.167280
-0.174468
-0.170033
-0.146642
-0.110377
-0.071625
-0.028174
0.009657
0.046089
0.077032
0.108872
0.119589
0.112203
0.089587
0.049262
0.010986
-0.035323
-0.088598
-0.132625
-0.147348
-0.175216
-0.189881
-0.170197
-0.165555
-0.129518
-0.089304
-0.044028
0.006970
0.040337
0.086986
0.108749
0.108315
0.094350
0.064252
0.045110
0.011225
-0.035770
-0.078652
-0.122849
-0.151207
-0.183565
-0.189584
-0.185179
-0.170088
-0.145798
-0.099913
-0.047439
-0.001627
0.047034
0.080385
0.103870
0.112463
0.109580
0.093777
0.059092
0.010580
-0.041179
-0.081184
-0.118749
-0.142720
-0.172187
-0.183789
-0.175257
-0.165274
-0.135306
-0.094744
-0.047973
-0.008333
0.045581
0.074082
0.091203
0.105727
0.101808
0.072994
0.042193
0.012795
-0.038595
-0.077385
-0.118339
-0.155008
-0.183235
-0.189270
-0.176840
-0.157500
-0.122122
-0.082471
-0.029953
0.010268
0.044641
0.084802
0.105073
0.103427
0.095805
0.097383
0.053626
0.002902
-0.037013
-0.075948
-0.125828
-0.167394
-0.188036
-0.184075
-0.162689
-0.151990
-0.121589
-0.078130
-0.030490
0.013656
0.065412
0.106300
0.123743
0.127343
0.109824
0.094454
0.070215
0.034293
-0.007947
-0.053334
-0.091685
-0.128280
-0.142118
-0.140365
-0.139687
-0.110626
-0.075903
-0.030154
0.010293
0.052041
0.100283
0.147449
0.161040
0.155257
0.159004
0.126035
0.081590
0.050627
-0.000957
-0.057911
-0.096034
-0.119493
-0.134409
-0.142011
-0.131940
-0.104224
-0.059637
-0.021537
0.025012
0.071021
0.110531
0.137724
0.161574
0.175869
0.175062
0.143613
0.099814
0.051469
0.003659
-0.043733
-0.089534
-0.124634
-0.153893
-0.162533
-0.156703
-0.131699
-0.095871
-0.054675
-0.001290
0.040167
0.079315
0.114217
0.122921
0.121107
0.110810
0.093708
0.054440
0.011608
-0.038266
-0.076975
-0.123858
-0.163479
-0.188618
-0.191266
-0.181900
-0.151586
-0.123200
-0.087859
-0.042660
0.007401
0.047053
0.085639
0.100419
0.107414
0.118099
0.079730
0.040215
-0.011066
-0.067941
-0.121095
-0.165811
-0.190181
-0.216787
-0.222965
-0.202378
-0.176701
-0.154668
-0.113635
-0.063983
-0.026054
0.021103
0.068239
0.088705
0.106611
0.101543
0.073354
0.038618
-0.019902
-0.065143
-0.113315
-0.148054
-0.182398
-0.199872
-0.209726
-0.208344
-0.176243
-0.159206
-0.118310
-0.066289
-0.010862
0.022272
0.059865
0.088065
0.097482
0.086852
0.061179
0.024069
-0.019990
-0.069656
-0.106359
-0.145775
-0.179404
-0.198068
-0.205598
-0.210318
-0.183303
-0.143699
-0.096598
-0.047692
0.000154
0.029385
0.066549
0.085418
0.084209
0.074128
0.056378
0.027485
-0.026945
-0.070090
-0.114101
-0.149595
-0.196674
-0.223011
-0.233334
-0.219333
-0.191864
-0.155021
-0.113913
-0.056373
-0.024365
0.027558
0.072089
0.100561
0.111143
0.126010
0.130681
0.115802
0.078742
0.038633
0.032736
0.009081
-0.015676
-0.023329
-0.011563
0.014438
0.048686
0.101395
0.190865
0.283713
0.364033
0.436829
0.526279
0.576768
0.618102
0.646555
0.660776
0.659221
0.671957
0.666753
0.662014
0.644250
0.651651
0.677675
0.697070
0.701365
0.713843
0.734305
0.762946
0.795357
0.823800
0.852765
0.857285
0.825524
0.774593
0.688839
0.589979
0.488237
0.372665
0.274119
0.189323
0.105817
0.054038
0.035220
0.007817
0.012219
0.031760
0.048874
0.078251
0.113331
0.142715
0.176572
0.196815
0.211007
0.214682
0.207501
0.186173
0.143199
0.087367
0.035047
-0.018681
-0.067569
-0.102464
-0.123381
-0.140081
-0.128898
-0.096014
-0.059306
-0.026502
0.006140
0.046299
0.087598
0.120051
0.141082
0.161322
0.144585
0.118956
0.084479
0.042750
-0.006051
-0.045313
-0.094055
-0.135503
-0.160077
-0.159668
-0.152467
-0.134180
-0.090234
-0.042256
0.002904
0.042179
0.077423
0.125525
0.140580
0.150401
0.138035
0.099424
0.060258
0.031704
-0.005469
-0.048415
-0.094631
-0.127774
-0.149417
-0.167770
-0.156890
-0.126243
-0.102632
-0.057239
0.005821
0.046596
0.109739
0.144754
0.153988
0.153545
0.148453
0.117880
0.084129
0.039138
-0.003877
-0.044481
-0.081344
-0.112820
-0.143482
-0.158852
-0.134052
-0.110303
-0.074116
-0.027146
0.018959
0.069363
0.112428
0.149475
0.175869
0.173675
0.166459
0.145120
0.113985
0.079978
0.027466
-0.014292
-0.054191
-0.096619
-0.122106
-0.139494
-0.115895
-0.080875
-0.055929
0.001747
0.048892
0.093342
0.136806
0.175335
0.195096
0.212672
0.189946
0.171969
0.148724
0.104940
0.046367
0.019426
-0.019387
-0.050205
-0.067962
-0.081619
-0.073706
-0.057854
-0.032402
0.009376
0.067925
0.119985
0.168731
0.201623
0.224173
0.218032
0.210852
0.194946
0.165554
0.116652
0.070763
0.026519
-0.013174
-0.044406
-0.053717
-0.073326
-0.063432
-0.055420
-0.015284
0.033859
0.090461
0.149406
0.198749
0.226759
0.241063
0.241767
0.229550
0.208214
0.172703
0.126098
0.088996
0.030323
-0.000198
-0.019000
-0.048729
-0.053772
-0.042879
-0.027256
0.003593
0.049334
0.093293
0.149388
0.192624
0.215207
0.243269
0.235769
0.227493
0.198802
0.170264
0.134921
0.084371
0.035294
-0.014066
-0.040660
-0.061223
-0.071953
-0.070510
-0.054792
-0.027571
0.027718
0.064609
0.127946
0.163396
0.196158
0.230791
0.219937
0.212648
0.188498
0.151831
0.101575
0.048585
-0.001333
-0.050427
-0.091470
-0.114403
-0.123153
-0.102619
-0.088528
-0.064152
-0.019454
0.020142
0.072841
0.119276
0.156519
0.182477
0.176278
0.159413
0.140555
0.103444
0.080605
0.019166
-0.035337
-0.072768
-0.106373
-0.133678
-0.143746
-0.143823
-0.115092
-0.079318
-0.043679
0.004409
0.067223
0.094560
0.124954
0.153591
0.162673
0.146715
0.124282
0.085600
0.037635
-0.008767
-0.058820
-0.091726
-0.117735
-0.139531
-0.148412
-0.142298
-0.118428
-0.095257
-0.041295
0.001697
0.048824
0.098409
0.125355
0.144996
0.147982
0.131446
0.109177
0.076193
0.025953
-0.020025
-0.071069
-0.115087
-0.144621
-0.169646
-0.182207
-0.166073
-0.138592
-0.098305
-0.056698
-0.006443
0.052105
0.076402
0.109155
0.125420
0.140855
0.136053
0.107727
0.082993
0.050915
-0.002664
-0.063011
-0.102486
-0.128863
-0.143357
-0.143787
-0.135081
-0.124032
-0.096025
-0.047659
0.004527
0.050244
0.086343
0.137805
0.157766
0.160527
0.144270
0.124010
0.088857
0.041278
-0.005826
-0.061171
-0.090549
-0.129273
-0.150215
-0.147484
-0.136547
-0.120362
-0.071403
-0.022923
0.021731
0.059204
0.096319
0.131339
0.154946
0.162612
0.160810
0.134274
0.088483
0.041117
-0.003537
-0.045328
-0.082636
-0.123478
-0.151104
-0.144191
-0.136563
-0.118589
-0.090853
-0.036813
0.016973
0.060165
0.106820
0.137259
0.152582
0.159222
0.149806
0.124762
0.108000
0.064331
0.008111
-0.042443
-0.073670
-0.106333
-0.133582
-0.147864
-0.138434
-0.117139
-0.077788
-0.035189
0.010121
0.063257
0.102134
0.127869
0.141469
0.151513
0.149564
0.131699
0.098317
0.069011
0.018412
-0.036526
-0.083911
-0.122250
-0.139713
-0.138963
-0.133337
-0.113829
-0.082555
-0.038813
-0.004259
0.053258
0.091513
0.129495
0.157956
0.154970
0.143569
0.124376
0.091587
0.062480
0.012079
-0.048003
-0.087097
-0.116672
-0.150460
-0.154426
-0.144261
-0.123941
-0.097671
-0.041297
0.016769
0.067366
0.102775
0.122988
0.155322
0.150028
0.147483
0.122390
0.094017
0.051924
0.000038
-0.052031
-0.100578
-0.124417
-0.145209
-0.156878
-0.154887
-0.120460
-0.085535
-0.052453
-0.004056
0.042485
0.080844
0.108238
0.134295
0.150251
0.139176
0.119568
0.073812
0.029002
-0.006902
-0.053780
-0.099207
-0.131539
-0.156404
-0.156407
-0.163313
-0.134507
-0.097837
-0.047188
-0.003685
0.049580
0.090634
0.127944
0.148157
0.140298
0.134991
0.106613
0.085267
0.046526
-0.004209
-0.059364
-0.106211
-0.135962
-0.157853
-0.162112
-0.162750
-0.139406
-0.103782
-0.057798
-0.011755
0.037167
0.067281
0.095753
0.132321
0.136161
0.121199
0.105819
0.082992
0.033753
-0.015508
-0.065539
-0.105557
-0.144032
-0.157769
-0.161591
-0.151316
-0.129980
-0.104093
-0.063966
-0.008772
0.044951
0.086041
0.114365
0.137592
0.125065
0.120097
0.109432
0.066277
0.035650
-0.018867
-0.067364
-0.116111
-0.145932
-0.178434
-0.177383
-0.167226
-0.138879
-0.101946
-0.067026
-0.026133
0.034885
0.079462
0.117627
0.143368
0.153879
0.137455
0.115941
0.069073
0.021341
-0.025712
-0.062337
-0.113898
-0.144389
-0.167337
-0.162522
-0.152277
-0.130395
-0.094762
-0.051355
-0.013650
0.037438
0.085997
0.114528
0.140253
0.149636
0.136373
0.123042
0.100062
0.057913
0.008809
-0.052085
-0.101350
-0.120781
-0.147325
-0.147170
-0.132567
-0.101642
-0.066689
-0.027721
0.015699
0.062224
0.113419
0.148859
0.176573
0.187027
0.179362
0.148189
0.118873
0.073797
0.020469
-0.029773
-0.064231
-0.091326
-0.120204
-0.124190
-0.109766
-0.096734
-0.070439
-0.023513
0.030133
0.084626
0.132876
0.169506
0.193523
0.197856
0.193888
0.166150
0.129771
0.073869
0.041481
0.007215
-0.035374
-0.070425
-0.095323
-0.100784
-0.103283
-0.091804
-0.063042
-0.014499
0.027585
0.069111
0.097445
0.133922
0.151305
0.155439
0.148767
0.135497
0.092760
0.050264
0.002794
-0.043843
-0.083103
-0.120862
-0.145737
-0.149404
-0.143474
-0.124996
-0.096599
-0.058939
-0.008249
0.029995
0.085502
0.128523
0.135947
0.141296
0.123411
0.102775
0.063315
0.021970
-0.025234
-0.064068
-0.114607
-0.155496
-0.178601
-0.171454
-0.164780
-0.132686
-0.104522
-0.076388
-0.037670
0.004892
0.062393
0.087037
0.103044
0.118475
0.108416
0.083690
0.053492
0.015027
-0.041985
-0.088555
-0.140152
-0.164701
-0.176880
-0.185784
-0.179175
-0.156197
-0.122638
-0.086306
-0.030821
0.008724
0.060697
0.089250
0.113008
0.117103
0.107724
0.084110
0.058389
0.014571
-0.032262
-0.083316
-0.129169
-0.155264
-0.176615
-0.193849
-0.203285
-0.174671
-0.134703
-0.081482
-0.039137
0.002449
0.060730
0.091642
0.106282
0.115498
0.115059
0.075591
0.050356
0.006630
-0.037477
-0.080461
-0.132491
-0.163259
-0.179048
-0.187413
-0.184511
-0.167370
-0.137548
-0.099677
-0.061542
-0.003717
0.028481
0.070363
0.093193
0.097381
0.094806
0.078736
0.055498
0.021310
-0.015326
-0.059792
-0.109103
-0.118010
-0.129016
-0.136204
-0.105535
-0.049483
-0.011137
0.048293
0.107640
0.171777
0.239255
0.299813
0.350130
0.390638
0.404789
0.415750
0.426000
0.423496
0.410540
0.401378
0.396048
0.394975
0.419501
0.446303
0.508204
0.571800
0.642167
0.707879
0.791750
0.878939
0.941879
0.957079
0.960797
0.962069
0.931691
0.902356
0.860892
0.796483
0.707761
0.596740
0.478139
0.376955
0.292328
0.225964
0.180735
0.153828
0.134945
0.155232
0.199769
0.247575
0.277620
0.291255
0.299180
0.302899
0.276326
0.233768
0.190614
0.142672
0.090534
0.053184
-0.009424
-0.053833
-0.083445
-0.090647
-0.080643
-0.057349
-0.039862
0.001253
0.041025
0.095141
0.137535
0.159500
0.186350
0.188606
0.168228
0.152438
0.114246
0.066898
0.025507
-0.027554
-0.074685
-0.110015
-0.130212
-0.141476
-0.128077
-0.111031
-0.070034
-0.043848
-0.000243
0.044467
0.107269
0.129613
0.147729
0.154694
0.145767
0.130741
0.094814
0.047904
0.009294
-0.037730
-0.080557
-0.110093
-0.139620
-0.147780
-0.124920
-0.097496
-0.065706
-0.018932
0.020569
0.055264
0.102576
0.130959
0.157039
0.162884
0.159422
0.143582
0.105892
0.063604
0.005357
-0.033877
-0.068499
-0.114450
-0.135757
-0.138032
-0.126546
-0.104703
-0.065336
-0.014795
0.025837
0.070003
0.119882
0.157441
0.169323
0.179708
0.170299
0.146013
0.120523
0.075436
0.027785
-0.021144
-0.054592
-0.092147
-0.105846
-0.117686
-0.093009
-0.073397
-0.034867
0.003487
0.058919
0.103020
0.141743
0.163854
0.199881
0.211158
0.203934
0.185780
0.140052
0.099894
0.066973
0.017757
-0.030856
-0.068831
-0.083166
-0.071820
-0.059756
-0.058923
-0.013832
0.031081
0.084672
0.126403
0.174334
0.208894
0.228245
0.233679
0.228806
0.214227
0.184542
0.151706
0.101370
0.053637
0.011832
-0.016248
-0.038270
-0.052949
-0.045773
-0.023975
0.007887
0.057485
0.122196
0.164597
0.204482
0.238039
0.261202
0.264515
0.256135
0.229941
0.198766
0.152732
0.111246
0.080652
0.029149
-0.010779
-0.027541
-0.036852
-0.019053
-0.007831
0.039559
0.081041
0.118146
0.158513
0.195647
0.227748
0.251634
0.263296
0.258369
0.243979
0.200223
0.152641
0.104074
0.064374
0.020745
-0.014271
-0.039499
-0.057553
-0.044123
-0.017352
0.022602
0.063651
0.098733
0.142866
0.192640
0.223144
0.250546
0.254665
0.231541
0.208772
0.171824
0.135287
0.084848
0.034150
-0.012100
-0.052926
-0.073868
-0.083831
-0.073365
-0.052189
-0.031553
0.012310
0.057481
0.109271
0.145864
0.176697
0.207713
0.228732
0.209048
0.172542
0.133802
0.093687
0.046413
-0.008577
-0.045330
-0.085506
-0.102225
-0.106954
-0.097455
-0.086047
-0.052562
-0.018766
0.019934
0.076769
0.112573
0.164854
0.186055
0.184978
0.174400
0.148281
0.122419
0.078429
0.023982
-0.025398
-0.078082
-0.115716
-0.144168
-0.155194
-0.141655
-0.121588
-0.091694
-0.045181
0.005697
0.037927
0.089212
0.125373
0.154602
0.149158
0.144254
0.134730
0.097243
0.048485
0.002737
-0.037754
-0.093981
-0.119858
-0.149495
-0.155817
-0.151304
-0.132254
-0.091555
-0.049815
0.005883
0.053753
0.092604
0.127609
0.151354
0.151698
0.141493
0.123145
0.081846
0.042329
-0.009302
-0.049209
-0.101600
-0.130450
-0.145983
-0.155337
-0.148840
-0.128762
-0.097460
-0.056159
-0.007431
0.047087
0.092273
0.143956
0.170824
0.173769
0.154396
0.125308
0.085386
0.048766
-0.004008
-0.043561
-0.094884
-0.132759
-0.148364
-0.158384
-0.139529
-0.122079
-0.093821
-0.040378
0.009580
0.056814
0.097970
0.141149
0.154721
0.159721
0.145091
0.133216
0.102064
0.059688
0.004472
-0.053704
-0.096975
-0.137851
-0.144762
-0.147279
-0.134740
-0.110553
-0.079222
-0.039709
0.018673
0.065260
0.099075
0.141275
0.158366
0.160530
0.153612
0.123198
0.095908
0.069888
0.022431
-0.031535
-0.077761
-0.122974
-0.152467
-0.154697
-0.141784
-0.118213
-0.077279
-0.037604
0.006936
0.055014
0.096312
0.143818
0.154926
0.169655
0.161307
0.142432
0.103297
0.057921
0.013925
-0.042234
-0.092031
-0.127510
-0.137402
-0.139280
-0.142218
-0.123014
-0.077557
-0.037919
-0.005870
0.054776
0.095437
0.140408
0.160925
0.160054
0.156562
0.121158
0.096071
0.048309
0.011578
-0.040876
-0.088660
-0.133017
-0.145873
-0.138993
-0.140578
-0.127213
-0.103481
-0.035266
0.010742
0.053403
0.089813
0.129974
0.147874
0.158743
0.150871
0.121416
0.083172
0.052782
0.006264
-0.052129
-0.097495
-0.124904
-0.142614
-0.151604
-0.153405
-0.130307
-0.089463
-0.055133
0.006514
0.058840
0.089108
0.132830
0.143504
0.154412
0.143715
0.125918
0.087380
0.048039
-0.007633
-0.056566
-0.099004
-0.137194
-0.147827
-0.163764
-0.142520
-0.119466
-0.096503
-0.059634
-0.010719
0.035760
0.088906
0.129703
0.146057
0.146109
0.135650
0.110516
0.064370
0.020717
-0.015430
-0.060576
-0.090436
-0.138698
-0.164608
-0.169604
-0.157442
-0.135122
-0.092000
-0.050376
-0.000521
0.034488
0.074292
0.108687
0.144122
0.148339
0.145921
0.111653
0.074525
0.034089
-0.020743
-0.053993
-0.092135
-0.140833
-0.160571
-0.160531
-0.165314
-0.138945
-0.106681
-0.064113
-0.010003
0.045188
0.082153
0.118060
0.122705
0.137928
0.136487
0.110478
0.073506
0.040426
-0.014028
-0.059180
-0.103031
-0.133724
-0.155323
-0.163980
-0.160342
-0.126030
-0.088297
-0.055291
-0.005318
0.034393
0.077478
0.116894
0.141865
0.146267
0.132933
0.104402
0.077413
0.037184
-0.004944
-0.057594
-0.088148
-0.126999
-0.156142
-0.166172
-0.158327
-0.133642
-0.104090
-0.057168
-0.016759
0.019632
0.061371
0.099413
0.136189
0.149579
0.139421
0.110756
0.067365
0.034393
-0.008696
-0.045856
-0.093470
-0.142158
-0.160308
-0.164556
-0.156476
-0.116179
-0.096237
-0.050981
0.004879
0.053081
0.096968
0.140489
0.162686
0.170413
0.167777
0.140855
0.112546
0.073624
0.014899
-0.035787
-0.071341
-0.106659
-0.125335
-0.135246
-0.133909
-0.104762
-0.065870
-0.023939
0.025239
0.073477
0.114989
0.140718
0.169960
0.182108
0.174009
0.155421
0.111064
0.066286
0.016598
-0.032661
-0.059354
-0.093426
-0.110724
-0.120259
-0.124254
-0.088033
-0.039069
0.009289
0.047879
0.102448
0.148391
0.190267
0.215910
0.222321
0.198446
0.159082
0.125684
0.067451
0.022519
-0.027236
-0.066688
-0.099070
-0.118382
-0.123394
-0.126926
-0.103547
-0.069224
-0.032462
0.008553
0.050917
0.093859
0.118557
0.142376
0.159425
0.153598
0.126760
0.082109
0.036956
-0.004380
-0.057076
-0.106497
-0.138517
-0.150175
-0.150701
-0.155820
-0.128885
-0.099406
-0.055916
-0.021395
0.022487
0.061412
0.088371
0.117022
0.122571
0.122781
0.094546
0.052006
0.016183
-0.024427
-0.068291
-0.119553
-0.162233
-0.188872
-0.196051
-0.176950
-0.152102
-0.107262
-0.074550
-0.033705
0.015907
0.066553
0.105929
0.137997
0.136064
0.116743
0.097940
0.050261
0.004520
-0.034401
-0.080027
-0.122378
-0.163182
-0.179014
-0.180946
-0.176832
-0.155578
-0.127329
-0.089564
-0.038326
-0.002195
0.054306
0.100818
0.127887
0.125488
0.107580
0.085702
0.054271
0.013067
-0.036073
-0.079204
-0.119344
-0.153140
-0.183184
-0.189330
-0.191549
-0.176805
-0.141238
-0.088677
-0.031351
0.021167
0.071224
0.095772
0.108504
0.112324
0.111218
0.093483
0.058333
0.009214
-0.031078
-0.084553
-0.132918
-0.175246
-0.210198
-0.207807
-0.183181
-0.160886
-0.125762
-0.077467
-0.021833
0.041070
0.089174
0.132072
0.173260
0.199325
0.211976
0.194624
0.169528
0.148975
0.109085
0.075142
0.056667
0.044539
0.048502
0.072666
0.105298
0.162717
0.235747
0.314549
0.380108
0.456742
0.542969
0.604347
0.647685
0.693496
0.736528
0.762706
0.762705
0.761162
0.749120
0.732488
0.699570
0.668520
0.626620
0.627760
0.613318
0.616291
0.637072
0.654384
0.666248
0.654180
0.628863
0.599508
0.562123
0.527479
0.475210
0.397759
0.313358
0.241264
0.185994
0.113582
0.066364
0.028920
-0.009850
-0.036392
-0.045446
-0.022603
0.012208
0.044492
0.084261
0.125674
0.168206
0.210508
0.237923
0.223902
0.211859
0.184922
0.157464
0.098248
0.046094
-0.008412
-0.047337
-0.079742
-0.115802
-0.118432
-0.111245
-0.099886
-0.072349
-0.021891
0.021214
0.067457
0.115173
0.139556
0.157021
0.174618
0.171909
0.143728
0.120116
0.068726
0.025821
-0.024699
-0.079484
-0.103977
-0.131510
-0.138846
-0.135774
-0.114875
-0.079578
-0.034250
0.023603
0.070749
0.110833
0.135963
0.156120
0.162109
0.153864
0.130837
0.098661
0.067710
0.028430
-0.026281
-0.072931
-0.101365
-0.127187
-0.130236
-0.122437
-0.111475
-0.065281
-0.027627
0.022034
0.076204
0.119547
0.145153
0.182945
0.175797
0.173000
0.148209
0.117851
0.080356
0.037497
-0.016509
-0.059502
-0.093567
-0.120641
-0.119273
-0.106838
-0.075372
-0.037877
0.005955
0.042575
0.101231
0.135794
0.171629
0.190694
0.210935
0.190601
0.170464
0.134676
0.090028
0.045227
-0.006040
-0.039680
-0.058788
-0.077771
-0.065417
-0.063619
-0.049759
-0.015566
0.022929
0.071977
0.130720
0.172039
0.197600
0.225951
0.224602
0.222573
0.204824
0.162252
0.131767
0.079398
0.028026
-0.013785
-0.040421
-0.049217
-0.058131
-0.056367
-0.035274
0.008237
0.054934
0.105897
0.154623
0.206245
0.242894
0.271551
0.272863
0.255775
0.249811
0.213321
0.170624
0.123532
0.077665
0.043678
0.005616
-0.029555
-0.044563
-0.031502
-0.008757
0.031533
0.066574
0.124230
0.182651
0.216540
0.250798
0.277612
0.279543
0.275268
0.253848
0.221955
0.172625
0.131067
0.087729
0.042376
0.007604
-0.022435
-0.027533
-0.018391
0.001463
0.036323
0.085127
0.129170
0.175619
0.219048
0.243554
0.255555
0.268712
0.257180
0.244265
0.210135
0.169951
0.120214
0.075125
0.029077
0.003780
-0.034332
-0.042796
-0.050569
-0.028220
0.006882
0.041476
0.095728
0.143551
0.182232
0.214708
0.239263
0.236637
0.231109
0.208467
0.168855
0.133900
0.083180
0.017757
-0.014211
-0.049693
-0.077433
-0.079330
-0.073614
-0.066939
-0.037465
0.010277
0.055752
0.097450
0.143407
0.169136
0.188936
0.189892
0.174993
0.161826
0.127421
0.080425
0.028161
-0.019527
-0.055120
-0.087820
-0.117552
-0.125845
-0.115664
-0.094488
-0.067163
-0.028081
0.016988
0.068727
0.109920
0.146426
0.176266
0.180694
0.175455
0.155766
0.099029
0.051141
0.009447
-0.033208
-0.077584
-0.123367
-0.150123
-0.151102
-0.148247
-0.128625
-0.087095
-0.046923
-0.002140
0.054175
0.088716
0.128268
0.153795
0.167678
0.156265
0.134382
0.094232
0.058714
0.000299
-0.040603
-0.072918
-0.111779
-0.134964
-0.154660
-0.144195
-0.128958
-0.098011
-0.056463
-0.006502
0.046713
0.077076
0.113907
0.144171
0.147753
0.143819
0.132017
0.103987
0.053167
-0.008161
-0.049750
-0.085013
-0.123026
-0.145939
-0.151224
-0.144442
-0.129709
-0.093712
-0.044171
-0.003948
0.052144
0.098319
0.133505
0.157774
0.160237
0.148946
0.142802
0.100166
0.050814
0.000941
-0.032261
-0.074465
-0.111253
-0.133735
-0.139611
-0.132125
-0.107587
-0.073825
-0.034740
0.020012
0.063272
0.098612
0.137435
0.150579
0.159377
0.148774
0.140942
0.099061
0.052612
0.020284
-0.020713
-0.068054
-0.105773
-0.122612
-0.141116
-0.134244
-0.115768
-0.076296
-0.029859
0.016350
0.067099
0.115345
0.144349
0.166487
0.174869
0.165627
0.145033
0.110974
0.067654
0.002666
-0.048531
-0.077602
-0.108460
-0.137185
-0.142577
-0.141148
-0.117491
-0.083280
-0.039399
0.012342
0.061008
0.107353
0.146797
0.161689
0.175153
0.160547
0.137913
0.096903
0.051583
0.001271
-0.038996
-0.080497
-0.108179
-0.137244
-0.138984
-0.142084
-0.130566
-0.091738
-0.041354
0.009585
0.049343
0.097030
0.127721
0.152156
0.172213
0.153647
0.128558
0.096442
0.062268
0.025421
-0.037324
-0.077897
-0.120453
-0.146765
-0.165901
-0.153808
-0.119607
-0.091485
-0.048352
0.002132
0.044944
0.091235
0.119526
0.146185
0.160246
0.153605
0.117906
0.088816
0.039740
-0.002550
-0.042784
-0.087767
-0.127469
-0.149708
-0.160028
-0.151557
-0.133083
-0.100328
-0.051000
-0.005894
0.041664
0.088866
0.121182
0.135204
0.146672
0.135663
0.107497
0.074823
0.035907
-0.010955
-0.046507
-0.091615
-0.134649
-0.152744
-0.165637
-0.149307
-0.129126
-0.103642
-0.062101
-0.019012
0.030805
0.078046
0.120554
0.144194
0.158871
0.141762
0.118473
0.090013
0.051196
-0.009933
-0.055162
-0.101481
-0.139222
-0.152149
-0.170095
-0.162277
-0.132335
-0.095732
-0.051641
0.000616
0.030995
0.070727
0.106114
0.134663
0.146674
0.131186
0.097311
0.098136
0.050345
-0.004794
-0.059336
-0.093059
-0.142345
-0.154634
-0.162695
-0.166126
-0.137002
-0.100301
-0.054959
-0.008759
0.037664
0.081206
0.121078
0.135123
0.149464
0.132797
0.104458
0.086677
0.056369
0.010991
-0.044281
-0.091140
-0.126595
-0.142569
-0.157510
-0.145473
-0.112057
-0.087172
-0.054045
-0.000504
0.050332
0.096021
0.135422
0.155910
0.163636
0.166723
0.149156
0.122487
0.074654
0.024170
-0.018212
-0.064159
-0.102711
-0.126349
-0.146902
-0.138059
-0.114093
-0.075163
-0.019702
0.032383
0.060812
0.101657
0.145066
0.166329
0.182119
0.187839
0.153522
0.126241
0.080824
0.041086
-0.006254
-0.037257
-0.073488
-0.093778
-0.111598
-0.094791
-0.071275
-0.047539
0.008998
0.050616
0.105390
0.138994
0.172188
0.171920
0.183204
0.170957
0.153671
0.112121
0.070369
0.023264
-0.032850
-0.080966
-0.111838
-0.141304
-0.161637
-0.145794
-0.122147
-0.092410
-0.042324
0.009911
0.049965
0.088576
0.112307
0.135328
0.152581
0.145309
0.114068
0.077916
0.033152
-0.018728
-0.060331
-0.112276
-0.140383
-0.173111
-0.189978
-0.182248
-0.155073
-0.126852
-0.071972
-0.027305
0.020503
0.057647
0.098341
0.115698
0.131120
0.113147
0.086142
0.061353
0.006547
-0.046222
-0.087730
-0.127619
-0.156744
-0.175506
-0.187712
-0.180110
-0.160834
-0.140013
-0.097539
-0.035313
0.024634
0.056532
0.080991
0.110223
0.121419
0.108027
0.081217
0.053527
0.014034
-0.039132
-0.080894
-0.125914
-0.164183
-0.187942
-0.192977
-0.179383
-0.162511
-0.124025
-0.076041
-0.031571
0.008043
0.050507
0.080380
0.104519
0.113664
0.110016
0.084471
0.057401
0.009428
-0.037045
-0.084834
-0.129728
-0.162506
-0.187165
-0.204799
-0.190741
-0.169681
-0.132591
-0.083489
-0.034477
0.007897
0.058576
0.091333
0.110101
0.122306
0.111696
0.093785
0.054171
-0.001790
-0.049025
-0.101354
-0.138575
-0.173051
-0.180349
-0.184980
-0.173634
-0.131192
-0.087862
-0.026018
0.040951
0.098507
0.153263
0.210202
0.232520
0.250196
0.259438
0.266397
0.246408
0.241426
0.225219
0.197204
0.185439
0.185918
0.196635
0.208753
0.259179
0.313548
0.366416
0.435391
0.500905
0.605888
0.698217
0.775763
0.828537
0.878320
0.892235
0.892140
0.851363
0.798206
0.766029
0.697292
0.643181
0.588457
0.543207
0.491926
0.443406
0.409681
0.374191
0.350596
0.349016
0.353646
0.348272
0.333891
0.337147
0.343868
0.321755
0.280064
0.255720
0.196623
0.135241
0.074890
0.019671
-0.027606
-0.057589
-0.074254
-0.066349
-0.044955
-0.019716
0.020093
0.065267
0.100245
0.135158
0.172055
0.187642
0.191719
0.192625
0.164592
0.134026
0.086509
0.025334
-0.022918
-0.063667
-0.104771
-0.135212
-0.138854
-0.130246
-0.110278
-0.082806
-0.038116
0.002269
0.059140
0.100775
0.131474
0.168273
0.174239
0.161236
0.136121
0.101071
0.042208
-0.003676
-0.038960
-0.074297
-0.116306
-0.149408
-0.152556
-0.141011
-0.114546
-0.097578
-0.048906
-0.002812
0.045995
0.090278
0.136565
0.156259
0.162162
0.153217
0.147596
0.108373
0.065789
0.017850
-0.027101
-0.067163
-0.097302
-0.119948
-0.128906
-0.127900
-0.107702
-0.076095
-0.033536
0.021460
0.061459
0.103363
0.140905
0.169356
0.167575
0.175850
0.152287
0.116150
0.076179
0.034824
-0.009843
-0.053520
-0.081244
-0.106336
-0.113881
-0.115269
-0.100349
-0.057304
-0.009739
0.027590
0.083612
0.134010
0.168880
0.189173
0.194819
0.204736
0.184603
0.145684
0.105324
0.059911
0.009785
-0.026286
-0.050556
-0.064196
-0.077738
-0.071211
-0.056168
-0.021887
0.020974
0.064223
0.110519
0.165187
0.197359
0.228785
0.250272
0.235447
0.209343
0.184886
0.146941
0.106133
0.041857
-0.001589
-0.027863
-0.054074
-0.046800
-0.044671
-0.014097
0.019376
0.051474
0.105826
0.158409
0.196882
0.230120
0.250854
0.258869
0.261735
0.230288
0.196417
0.156015
0.107660
0.052821
0.017615
-0.011816
-0.021420
-0.027104
-0.018603
0.001695
0.031338
0.061341
0.113455
0.173194
0.209819
0.240061
0.261795
0.269819
0.275131
0.249074
0.205852
0.174338
0.131309
0.077818
0.029460
-0.006390
-0.031725
-0.036867
-0.029569
-0.022022
0.008398
0.063565
0.104252
0.155762
0.204102
0.240793
0.257927
0.260046
0.249620
0.225650
0.195392
0.162145
0.115946
0.056948
0.005423
-0.024690
-0.055930
-0.065436
-0.068098
-0.044187
-0.019510
0.020981
0.065322
0.113176
0.163806
0.196240
0.218455
0.220345
0.210396
0.188442
0.150186
0.112569
0.066231
0.005630
-0.034270
-0.068259
-0.095978
-0.116649
-0.124666
-0.095807
-0.058971
-0.025281
0.035811
0.084105
0.114355
0.153253
0.184578
0.187997
0.174827
0.145680
0.113191
0.070215
0.012131
-0.038499
-0.069444
-0.107480
-0.138392
-0.141181
-0.142828
-0.123788
-0.082849
-0.036516
0.013737
0.064251
0.097457
0.119611
0.152487
0.149107
0.154405
0.131293
0.106419
0.064206
0.003556
-0.054845
-0.097439
-0.117600
-0.142001
-0.156291
-0.160397
-0.127012
-0.099249
-0.047457
-0.001427
0.041086
0.083996
0.112071
0.130635
0.136210
0.154951
0.134478
0.095367
0.046748
-0.000999
-0.054401
-0.099197
-0.136549
-0.166705
-0.170397
-0.163904
-0.137637
-0.092489
-0.066088
-0.008086
0.048370
0.086391
0.115256
0.136913
0.152735
0.147053
0.126161
0.087103
0.057926
0.003395
-0.049971
-0.095203
-0.110177
-0.141969
-0.147700
-0.152772
-0.136778
-0.093280
-0.059456
-0.004910
0.046628
0.086912
0.128933
0.148125
0.152989
0.145992
0.130227
0.099801
0.054563
-0.007568
-0.042114
-0.081412
-0.120638
-0.144227
-0.151215
-0.141899
-0.126538
-0.104773
-0.060415
0.003900
0.058054
0.092038
0.129389
0.160869
0.183869
0.169264
0.145385
0.104941
0.058300
0.004734
-0.039104
-0.083340
-0.119067
-0.137058
-0.149300
-0.138467
-0.118708
-0.083687
-0.037838
0.017394
0.060848
0.103427
0.129668
0.146435
0.156215
0.156441
0.133479
0.107515
0.056943
0.004329
-0.034106
-0.080937
-0.112568
-0.142511
-0.147085
-0.150462
-0.127877
-0.076210
-0.039227
0.002036
0.062019
0.091381
0.127588
0.144010
0.154403
0.144306
0.129562
0.099654
0.053829
0.002178
-0.050730
-0.095324
-0.122109
-0.147972
-0.156164
-0.149655
-0.128547
-0.100104
-0.040114
0.001173
0.042014
0.086521
0.124704
0.146446
0.144393
0.140512
0.131314
0.095418
0.059146
0.009797
-0.041673
-0.094471
-0.131581
-0.141394
-0.158236
-0.156511
-0.135126
-0.094343
-0.050172
0.000175
0.030706
0.081884
0.128011
0.139031
0.138203
0.136651
0.109796
0.074698
0.042075
-0.004863
-0.051141
-0.087081
-0.128345
-0.151364
-0.161502
-0.161350
-0.132560
-0.091675
-0.058581
-0.013846
0.028790
0.072175
0.109487
0.138031
0.131281
0.123684
0.112371
0.087739
0.053090
0.004026
-0.043278
-0.095814
-0.134136
-0.158294
-0.163174
-0.161890
-0.143843
-0.106507
-0.065028
-0.014041
0.031784
0.079399
0.110762
0.131240
0.131940
0.126968
0.111259
0.076361
0.030272
-0.016522
-0.055809
-0.107837
-0.140527
-0.159644
-0.167796
-0.166488
-0.147131
-0.098056
-0.056190
-0.009143
0.038262
0.077321
0.098897
0.117456
0.132692
0.133583
0.108646
0.085221
0.043592
-0.002181
-0.055317
-0.095359
-0.112080
-0.139065
-0.149307
-0.144966
-0.120634
-0.080844
-0.041015
0.011928
0.063642
0.104816
0.141225
0.167659
0.185162
0.184589
0.176762
0.140945
0.091555
0.039535
-0.007881
-0.048107
-0.075375
-0.098538
-0.106050
-0.104387
-0.082285
-0.049833
0.003332
0.036401
0.070607
0.119904
0.156623
0.187641
0.199778
0.194065
0.176520
0.146116
0.108182
0.069130
0.023125
-0.016595
-0.056466
-0.080993
-0.090040
-0.082652
-0.057465
-0.030960
0.016952
0.067623
0.107221
0.141859
0.162034
0.182825
0.191030
0.184141
0.167297
0.138596
0.088827
0.037100
-0.010393
-0.057244
-0.089185
-0.121238
-0.134803
-0.140841
-0.124642
-0.081570
-0.035578
0.010383
0.068415
0.097079
0.132897
0.141820
0.153967
0.146327
0.121595
0.089727
0.052196
0.006772
-0.038626
-0.083179
-0.121140
-0.147119
-0.164401
-0.157277
-0.135289
-0.099895
-0.060529
-0.020760
0.025296
0.064850
0.086617
0.107633
0.128627
0.131195
0.107042
0.061257
0.017665
-0.022677
-0.065357
-0.112572
-0.136453
-0.166870
-0.175688
-0.177443
-0.168319
-0.119007
-0.069143
-0.032409
0.011931
0.059462
0.086865
0.097989
0.113854
0.104188
0.097664
0.065011
0.022940
-0.023347
-0.066363
-0.111866
-0.147215
-0.171669
-0.182001
-0.178706
-0.162745
-0.130245
-0.081056
-0.030850
0.011760
0.054282
0.080803
0.103556
0.108067
0.099454
0.082970
0.053215
0.004450
-0.038330
-0.075527
-0.123853
-0.162540
-0.177937
-0.182262
-0.177167
-0.156029
-0.116317
-0.082032
-0.032704
0.013183
0.047959
0.079503
0.093649
0.106084
0.096336
0.073432
0.037222
0.007025
-0.040413
-0.090549
-0.125276
-0.158384
-0.173187
-0.181655
-0.166222
-0.136184
-0.083308
-0.017708
0.041019
0.103603
0.161874
0.195132
0.228359
0.271780
0.293393
0.294285
0.284979
0.265126
0.243583
0.226513
0.206799
0.208080
0.222128
0.242367
0.285006
0.327588
0.382782
0.456213
0.538453
0.630594
0.714487
0.779944
0.838350
0.875038
0.889730
0.870135
0.841237
0.808696
0.743598
0.684086
0.619570
0.563263
0.512452
0.434982
0.360378
0.321963
0.303404
0.300535
0.287842
0.287153
0.288385
0.296145
0.300259
0.288187
0.274495
0.262799
0.218031
0.162427
0.106384
0.048927
-0.002276
-0.050692
-0.086118
-0.097407
-0.090869
-0.075986
-0.050695
-0.007655
0.046225
0.080985
0.125026
0.151240
0.174894
0.180183
0.166163
0.139563
0.103793
0.058805
0.008995
-0.033960
-0.085394
-0.119256
-0.141081
-0.156067
-0.149450
-0.134613
-0.099253
-0.048113
-0.018961
0.024776
0.064086
0.098505
0.115170
0.133061
0.135433
0.111950
0.077207
0.031679
-0.010816
-0.057115
-0.106897
-0.130789
-0.147183
-0.171555
-0.165529
-0.140856
-0.111868
-0.070798
-0.030752
0.023642
0.063934
0.104031
0.126255
0.130953
0.112104
0.109595
0.083446
0.040168
-0.007856
-0.063094
-0.102563
-0.139721
-0.161813
-0.162481
-0.162407
-0.147639
-0.103399
-0.062230
-0.017637
0.026091
0.064025
0.118767
0.151041
0.156721
0.143918
0.124460
0.089686
0.034682
0.001888
-0.033353
-0.068629
-0.112997
-0.139064
-0.148939
-0.134897
-0.128855
-0.100388
-0.046155
0.001871
0.058883
0.096157
0.138036
0.154129
0.156176
0.151358
0.132783
0.111241
0.076919
0.026872
-0.026901
-0.065745
-0.097781
-0.116993
-0.124782
-0.120946
-0.088683
-0.052928
-0.015625
0.024880
0.072074
0.121188
0.166029
0.181897
0.191123
0.180190
0.172353
0.138787
0.102718
0.047820
0.007675
-0.041474
-0.074196
-0.102363
-0.092718
-0.092622
-0.077128
-0.044990
0.012124
0.051367
0.100517
0.146084
0.183113
0.202524
0.212037
0.207879
0.202200
0.158180
0.103683
0.060107
0.015826
-0.022384
-0.058138
-0.087734
-0.095148
-0.080558
-0.070196
-0.029911
0.007324
0.056898
0.108655
0.155196
0.188807
0.210807
0.222471
0.212407
0.192470
0.156910
0.100726
0.054896
0.013896
-0.030251
-0.080662
-0.111124
-0.114683
-0.090268
-0.062509
-0.034916
-0.003495
0.038369
0.083077
0.126910
0.161800
0.182447
0.195809
0.185359
0.171722
0.126957
0.089170
0.050227
0.000782
-0.047571
-0.083429
-0.118216
-0.135584
-0.134636
-0.117560
-0.083956
-0.042295
0.007918
0.058786
0.087244
0.113987
0.145781
0.144423
0.134866
0.114852
0.080559
0.036014
-0.019165
-0.068061
-0.110050
-0.148825
-0.167522
-0.178443
-0.174340
-0.153494
-0.130651
-0.093579
-0.050136
-0.004559
0.037866
0.074534
0.091430
0.091994
0.084628
0.066032
0.037065
-0.006718
-0.049655
-0.094872
-0.151012
-0.184671
-0.206384
-0.213336
-0.210872
-0.202392
-0.171478
-0.127952
-0.090653
-0.032713
0.000315
0.046101
0.059933
0.066359
0.059385
0.040878
0.009380
-0.039819
-0.087785
-0.138034
-0.182778
-0.215074
-0.236871
-0.239606
-0.225649
-0.195082
-0.164375
-0.129945
-0.084360
-0.043753
-0.007361
0.025844
0.050140
0.057789
0.054731
0.031985
0.001605
-0.035613
-0.082820
-0.134798
-0.178931
-0.221395
-0.242222
-0.240934
-0.226454
-0.206313
-0.182303
-0.142512
-0.100561
-0.055542
-0.019930
0.007302
0.039516
0.045303
0.052497
0.033904
-0.004509
-0.039244
-0.080206
-0.128347
-0.167324
-0.219292
-0.241402
-0.248663
-0.242471
-0.207617
-0.176448
-0.138864
-0.097220
-0.046849
0.000551
0.029904
0.040709
0.053557
0.050022
0.025836
-0.000457
-0.041185
-0.092108
-0.129552
-0.181689
-0.225043
-0.245176
-0.242981
-0.239074
-0.217714
-0.192042
-0.146364
-0.094430
-0.042382
-0.001652
0.028507
0.046014
0.044757
0.037656
0.018232
-0.003138
-0.040490
-0.080550
-0.135023
-0.179248
-0.221414
-0.249625
-0.256128
-0.253330
-0.229030
-0.190901
-0.161420
-0.113353
-0.050668
-0.011004
0.028275
0.057339
0.063556
0.046676
0.024688
-0.003287
-0.048737
-0.091341
-0.150569
-0.186262
-0.219562
-0.241299
-0.259030
-0.258159
-0.228193
-0.204347
-0.151687
-0.111449
-0.066600
-0.015736
0.017495
0.039821
0.035363
0.023314
-0.005599
-0.015063
-0.048394
-0.103164
-0.146040
-0.195550
-0.224723
-0.253249
-0.259128
-0.259755
-0.239174
-0.213284
-0.166430
-0.115360
-0.065868
-0.026034
0.007599
0.024063
0.026452
0.022496
-0.002100
-0.031445
-0.069324
-0.120110
-0.171018
-0.210256
-0.237885
-0.255439
-0.268880
-0.261554
-0.241689
-0.221305
-0.174547
-0.130742
-0.075899
-0.037836
-0.012825
0.000117
0.015975
0.012568
-0.009875
-0.035151
-0.082757
-0.134467
-0.182009
-0.217333
-0.250299
-0.281927
-0.285221
-0.281554
-0.261606
-0.236389
-0.185565
-0.153308
-0.104601
-0.066025
-0.024306
0.000469
0.005854
-0.004939
-0.032281
-0.048454
-0.082503
-0.129665
-0.175815
-0.229424
-0.260288
-0.269608
-0.285464
-0.283969
-0.270694
-0.248087
-0.202558
-0.155208
-0.107441
-0.056783
-0.020880
-0.001042
0.004794
-0.005444
-0.024761
-0.058403
-0.099899
-0.147691
-0.196607
-0.238725
-0.275835
-0.295461
-0.306661
-0.296301
-0.276295
-0.247464
-0.202659
-0.153387
-0.091368
-0.057862
-0.026653
-0.004616
-0.001098
0.001257
-0.018518
-0.041773
-0.086524
-0.130534
-0.170595
-0.211551
-0.248533
-0.272769
-0.278966
-0.266915
-0.251437
-0.219154
-0.191604
-0.154023
-0.102075
-0.051024
-0.009337
0.021167
0.031904
0.024616
0.001724
-0.023622
-0.065055
-0.111895
-0.159413
-0.200838
-0.244229
-0.268370
-0.283335
-0.282622
-0.264570
-0.238230
-0.191107
-0.131190
-0.082891
-0.039664
-0.000583
0.015067
0.027186
0.033021
0.025455
0.002583
-0.043889
-0.103005
-0.150210
-0.186839
-0.213875
-0.242935
-0.251144
-0.245635
-0.225267
-0.203843
-0.176493
-0.117710
-0.076638
-0.035696
-0.008356
0.005549
0.010075
0.000255
-0.023124
-0.045534
-0.095735
-0.137849
-0.181199
-0.233798
-0.271360
-0.294628
-0.304839
-0.308102
-0.286427
-0.254872
-0.209707
-0.163415
-0.119674
-0.087468
-0.057430
-0.026014
-0.018163
-0.024771
-0.047377
-0.087804
-0.136031
-0.178822
-0.223477
-0.267894
-0.310123
-0.334645
-0.337000
-0.335372
-0.322639
-0.292215
-0.238174
-0.191495
-0.149277
-0.106556
-0.065083
-0.048383
-0.050705
-0.053867
-0.071824
-0.103059
-0.150663
-0.201402
-0.241626
-0.291911
-0.326973
-0.350965
-0.360723
-0.361296
-0.328317
-0.299726
-0.252516
-0.207737
-0.161453
-0.111506
-0.076475
-0.057268
-0.046075
-0.059523
-0.082982
-0.107826
-0.148088
-0.188935
-0.230589
-0.274319
-0.314852
-0.341196
-0.346866
-0.353161
-0.328949
-0.299085
-0.254251
-0.206874
-0.164620
-0.110284
-0.078959
-0.054524
-0.054310
-0.076142
-0.080761
-0.111853
-0.156412
-0.203572
-0.240451
-0.283914
-0.314905
-0.334809
-0.345359
-0.350558
-0.326823
-0.295210
-0.251413
-0.221087
-0.182463
-0.127207
-0.096033
-0.076185
-0.068888
-0.079711
-0.089320
-0.117192
-0.138083
-0.175201
-0.212613
-0.251288
-0.277946
-0.283069
-0.270487
-0.253591
-0.209105
-0.165212
-0.128700
-0.063332
0.015048
0.077003
0.120081
0.168578
0.204069
0.224837
0.240566
0.238329
0.231453
0.202019
0.182938
0.182304
0.175973
0.189955
0.217053
0.261519
0.326681
0.382447
0.454739
0.544955
0.619735
0.671820
0.690708
0.716551
0.726669
0.712197
0.673273
0.619034
0.550312
0.466161
0.346609
0.240105
0.156998
0.068788
0.005656
-0.030013
-0.056425
-0.067923
-0.054114
-0.023280
0.020241
0.065486
0.092897
0.105524
0.100818
0.086283
0.058097
0.011421
-0.038535
-0.099774
-0.142843
-0.187029
-0.227525
-0.252932
-0.268445
-0.261244
-0.238121
-0.210880
-0.183976
-0.140170
-0.095388
-0.065602
-0.026407
-0.001087
0.003714
-0.007332
-0.028835
-0.061197
-0.105549
-0.152402
-0.196747
-0.241752
-0.282172
-0.300860
-0.314614
-0.301519
-0.278069
-0.265782
-0.231648
-0.187933
-0.141023
-0.090015
-0.053981
-0.032680
-0.018493
-0.021618
-0.038205
-0.077268
-0.115620
-0.159118
-0.205798
-0.244944
-0.279135
-0.300151
-0.313510
-0.314445
-0.283564
-0.249489
-0.223070
-0.176917
-0.121944
-0.076866
-0.039694
-0.026178
-0.023360
-0.028507
-0.042716
-0.065900
-0.109503
-0.157205
-0.200171
-0.238864
-0.276155
-0.291605
-0.299206
-0.295723
-0.275646
-0.241626
-0.204086
-0.144365
-0.100152
-0.059280
-0.023302
0.009863
0.007552
-0.004437
-0.026641
-0.059972
-0.093754
-0.137404
-0.184602
-0.232565
-0.263556
-0.275660
-0.277383
-0.266767
-0.254148
-0.218316
-0.177115
-0.126147
-0.079875
-0.031870
-0.001003
0.024351
0.034186
0.017482
-0.000878
-0.034459
-0.072006
-0.120557
-0.167946
-0.196699
-0.238103
-0.260188
-0.264336
-0.255626
-0.229926
-0.195353
-0.149197
-0.103805
-0.036572
0.001500
0.026366
0.062726
0.073220
0.066070
0.045845
0.010890
-0.013557
-0.066287
-0.113665
-0.165774
-0.201887
-0.217303
-0.222612
-0.213087
-0.189721
-0.162313
-0.124486
-0.086953
-0.026098
0.015998
0.051715
0.073699
0.081960
0.076076
0.069399
0.034866
0.006092
-0.044156
-0.096332
-0.143260
-0.168267
-0.200475
-0.207072
-0.208232
-0.181156
-0.150496
-0.120644
-0.072748
-0.024290
0.019002
0.048304
0.066511
0.074072
0.080063
0.059599
0.029227
-0.001364
-0.059163
-0.115007
-0.166147
-0.191924
-0.208972
-0.212509
-0.210590
-0.190246
-0.155377
-0.128584
-0.089053
-0.038785
0.005545
0.048752
0.072671
0.075485
0.060405
0.033450
0.000617
-0.036501
-0.088895
-0.132216
-0.184830
-0.216989
-0.250459
-0.257756
-0.251300
-0.226357
-0.196616
-0.161408
-0.119223
-0.074939
-0.030127
0.009712
0.030237
0.034598
0.021161
-0.007879
-0.042696
-0.083909
-0.135440
-0.183668
-0.225394
-0.268771
-0.284353
-0.283026
-0.281051
-0.262557
-0.238529
-0.199088
-0.144259
-0.095441
-0.065750
-0.038197
-0.017717
-0.012614
-0.015910
-0.034808
-0.075900
-0.115498
-0.171367
-0.207433
-0.251448
-0.290456
-0.318900
-0.332879
-0.326350
-0.306464
-0.264329
-0.218951
-0.173570
-0.136170
-0.099940
-0.063637
-0.027618
-0.009500
-0.007665
-0.045355
-0.087498
-0.131321
-0.185580
-0.232505
-0.265341
-0.290663
-0.311257
-0.319889
-0.318417
-0.311243
-0.276162
-0.237350
-0.185107
-0.132860
-0.096353
-0.055344
-0.041144
-0.037404
-0.042580
-0.058021
-0.089620
-0.123714
-0.175006
-0.221059
-0.262196
-0.300881
-0.324140
-0.330151
-0.325169
-0.301878
-0.262436
-0.222814
-0.178190
-0.128728
-0.085345
-0.048073
-0.036019
-0.028237
-0.034619
-0.064290
-0.097936
-0.130352
-0.170974
-0.205259
-0.239421
-0.284490
-0.308704
-0.318888
-0.309788
-0.290663
-0.262776
-0.224458
-0.180370
-0.127781
-0.088486
-0.057849
-0.029860
-0.022120
-0.028681
-0.054053
-0.073367
-0.103342
-0.155849
-0.198484
-0.237901
-0.281940
-0.302835
-0.304580
-0.306050
-0.289026
-0.253456
-0.211106
-0.167749
-0.123328
-0.084182
-0.041167
-0.018092
-0.010180
-0.023687
-0.046828
-0.074564
-0.113232
-0.159834
-0.210481
-0.250971
-0.280240
-0.302377
-0.316620
-0.301021
-0.279881
-0.241593
-0.210923
-0.160354
-0.108977
-0.067260
-0.022492
-0.014774
-0.013188
-0.020107
-0.048121
-0.076304
-0.114215
-0.171154
-0.211015
-0.244763
-0.278753
-0.300991
-0.310717
-0.311479
-0.281728
-0.254151
-0.206957
-0.163689
-0.115477
-0.086504
-0.049813
-0.013835
-0.015530
-0.020901
-0.042667
-0.077635
-0.113784
-0.155055
-0.200455
-0.246598
-0.278013
-0.302813
-0.312674
-0.315382
-0.290719
-0.250965
-0.212907
-0.165450
-0.121892
-0.082726
-0.042111
-0.011435
-0.010022
-0.022135
-0.038782
-0.072691
-0.108003
-0.153367
-0.204315
-0.247211
-0.289287
-0.321030
-0.327780
-0.322463
-0.300574
-0.257588
-0.216272
-0.182977
-0.137530
-0.093215
-0.056000
-0.027474
-0.018236
-0.027187
-0.047277
-0.068554
-0.114598
-0.163408
-0.219614
-0.261588
-0.298828
-0.308837
-0.322980
-0.311625
-0.295204
-0.268697
-0.234228
-0.183471
-0.132339
-0.082585
-0.050187
-0.036610
-0.028537
-0.032837
-0.053337
-0.078444
-0.113839
-0.159882
-0.209598
-0.245286
-0.278026
-0.307240
-0.321853
-0.314242
-0.287083
-0.259861
-0.221430
-0.174513
-0.131151
-0.099316
-0.051739
-0.041556
-0.025294
-0.030429
-0.052535
-0.077103
-0.117356
-0.171006
-0.214908
-0.254155
-0.286361
-0.311316
-0.316468
-0.304416
-0.284472
-0.255833
-0.209915
-0.159508
-0.113280
-0.067253
-0.035498
-0.017161
-0.005739
-0.013078
-0.026375
-0.059776
-0.100706
-0.135401
-0.185051
-0.225535
-0.264864
-0.284028
-0.293028
-0.284648
-0.258409
-0.225772
-0.180245
-0.135748
-0.093125
-0.044207
-0.000429
0.016438
0.016107
0.009218
-0.015348
-0.045358
-0.083278
-0.140557
-0.193937
-0.227504
-0.259408
-0.270367
-0.283944
-0.269178
-0.232616
-0.194451
-0.161743
-0.116012
-0.062009
-0.036281
0.000207
0.019508
0.041365
0.042024
0.025044
-0.009637
-0.055321
-0.110215
-0.167616
-0.203770
-0.237214
-0.266866
-0.282331
-0.284331
-0.263697
-0.232818
-0.205312
-0.161852
-0.111937
-0.055682
-0.031576
-0.018774
-0.004012
-0.006753
-0.039465
-0.059534
-0.094626
-0.141191
-0.190415
-0.235404
-0.271311
-0.304963
-0.323477
-0.315625
-0.293202
-0.262999
-0.222076
-0.172671
-0.134204
-0.092504
-0.054038
-0.033425
-0.022525
-0.036093
-0.056075
-0.077324
-0.114067
-0.160878
-0.221015
-0.269086
-0.300777
-0.325754
-0.330213
-0.326628
-0.313564
-0.287556
-0.244840
-0.199538
-0.143030
-0.096129
-0.057545
-0.044061
-0.033077
-0.036041
-0.060048
-0.096357
-0.128340
-0.180256
-0.226750
-0.267594
-0.305651
-0.335081
-0.334900
-0.322896
-0.294799
-0.267205
-0.226444
-0.196463
-0.142299
-0.105756
-0.072247
-0.049145
-0.039591
-0.052033
-0.073863
-0.104885
-0.136083
-0.160730
-0.217760
-0.267326
-0.288556
-0.317140
-0.330927
-0.322099
-0.304123
-0.265051
-0.225522
-0.188844
-0.140895
-0.093605
-0.070722
-0.037149
-0.030647
-0.040091
-0.063865
-0.093442
-0.135081
-0.166271
-0.220141
-0.273715
-0.306354
-0.327535
-0.317655
-0.317676
-0.309415
-0.272635
-0.225733
-0.188752
-0.129843
-0.073491
-0.031925
0.008296
0.027049
0.029353
0.032808
-0.002394
-0.023747
-0.054037
-0.092595
-0.134756
-0.150417
-0.147193
-0.138421
-0.120500
-0.056631
-0.002287
0.074524
0.139613
0.230142
0.299078
0.359959
0.412363
0.456608
0.479085
0.483439
0.486757
0.483853
0.482195
0.483794
0.471240
0.464556
0.460855
0.446486
0.453910
0.477640
0.496104
0.524406
0.544267
0.568227
0.581895
0.558446
0.502689
0.453515
0.407800
0.331684
0.266606
0.176419
0.092959
0.000712
-0.052670
-0.106100
-0.137767
-0.149207
-0.143660
-0.129606
-0.106536
-0.068305
-0.045681
-0.018156
0.017098
0.040760
0.059093
0.072718
0.064371
0.044194
0.007215
-0.027489
-0.069724
-0.122133
-0.166866
-0.204727
-0.237434
-0.246292
-0.239266
-0.217468
-0.187352
-0.151920
-0.113834
-0.065290
-0.026142
0.015367
0.033415
0.035416
0.023219
-0.002408
-0.033911
-0.078730
-0.108115
-0.153999
-0.194066
-0.232410
-0.264179
-0.275135
-0.272658
-0.249422
-0.217442
-0.173881
-0.126279
-0.080231
-0.031568
-0.000104
0.024109
0.029659
0.023028
-0.005103
-0.033637
-0.075318
-0.110800
-0.153858
-0.198243
-0.232980
-0.258394
-0.254412
-0.248386
-0.228024
-0.196201
-0.147321
-0.099989
-0.057328
-0.024987
0.008440
0.028985
0.035897
0.032905
0.018902
-0.021545
-0.052225
-0.099811
-0.139034
-0.185689
-0.207940
-0.231883
-0.244062
-0.239080
-0.214741
-0.178205
-0.129182
-0.092686
-0.037380
-0.003509
0.035352
0.068538
0.067386
0.066324
0.049357
0.014208
-0.027804
-0.065896
-0.119555
-0.151118
-0.190400
-0.220199
-0.223202
-0.216173
-0.186053
-0.155015
-0.110914
-0.053223
-0.008987
0.020880
0.055798
0.085760
0.092258
0.093860
0.082074
0.048543
0.012084
-0.026458
-0.078532
-0.116492
-0.147471
-0.177241
-0.166700
-0.149127
-0.135642
-0.113686
-0.071482
-0.024992
0.019705
0.064826
0.093583
0.126483
0.140482
0.135909
0.105150
0.084746
0.041410
-0.004314
-0.053043
-0.080946
-0.114248
-0.140039
-0.143905
-0.132944
-0.119944
-0.098771
-0.047989
0.003238
0.060721
0.094429
0.134392
0.154346
0.162543
0.159795
0.141556
0.095797
0.053403
0.010708
-0.036745
-0.076153
-0.101477
-0.137109
-0.144201
-0.138779
-0.121286
-0.094881
-0.057850
-0.002266
0.036549
0.082493
0.113195
0.146471
0.160639
0.152154
0.130809
0.100796
0.050781
0.013056
-0.036917
-0.068662
-0.110994
-0.139044
-0.147922
-0.147249
-0.134836
-0.099092
-0.059393
-0.017214
0.023015
0.060879
0.087128
0.108511
0.117485
0.109309
0.079330
0.043308
0.004582
-0.028317
-0.075303
-0.118224
-0.158915
-0.189666
-0.200637
-0.192856
-0.157922
-0.132693
-0.095409
-0.068192
-0.025174
0.020773
0.058265
0.080337
0.083377
0.075311
0.053721
0.011300
-0.031020
-0.074849
-0.129931
-0.171266
-0.215689
-0.236808
-0.235151
-0.229059
-0.204245
-0.163856
-0.146502
-0.102367
-0.045842
-0.006195
0.020406
0.040219
0.057200
0.050959
0.027674
-0.008291
-0.052205
-0.098612
-0.146285
-0.188074
-0.227231
-0.251338
-0.263514
-0.243807
-0.223214
-0.198452
-0.160289
-0.106344
-0.070386
-0.031819
-0.000542
0.028819
0.035282
0.036594
0.015583
-0.019959
-0.080345
-0.115200
-0.156692
-0.194379
-0.222274
-0.252736
-0.258474
-0.246572
-0.219701
-0.194409
-0.152103
-0.110047
-0.061462
-0.026849
0.013733
0.031459
0.037308
0.033967
0.016337
-0.015428
-0.048493
-0.102143
-0.150769
-0.193573
-0.232421
-0.252479
-0.260580
-0.259590
-0.226418
-0.184486
-0.152285
-0.102699
-0.061462
-0.023242
0.022314
0.050747
0.044005
0.041931
0.028911
-0.007601
-0.057514
-0.101504
-0.151024
-0.176259
-0.205696
-0.233400
-0.242694
-0.233667
-0.225976
-0.196872
-0.159925
-0.095794
-0.046929
-0.004695
0.027173
0.053340
0.056774
0.056041
0.039426
-0.001190
-0.050089
-0.091833
-0.122754
-0.169100
-0.197988
-0.215862
-0.228221
-0.224141
-0.206152
-0.175013
-0.133488
-0.092301
-0.049226
-0.006321
0.023433
0.046578
0.056404
0.041049
