-0.107559
-0.078399
-0.071286
-0.054987
0.005712
0.049545
0.033435
-0.003548
-0.022926
-0.071478
-0.147128
-0.198003
-0.211071
-0.238639
-0.261370
-0.280834
-0.296487
-0.251954
-0.197928
-0.167706
-0.126579
-0.078003
-0.036877
-0.030177
0.019821
0.022470
0.012992
-0.022961
-0.065715
-0.105224
-0.162856
-0.222305
-0.253497
-0.281060
-0.301423
-0.301329
-0.270006
-0.248232
-0.203535
-0.175664
-0.141738
-0.092118
-0.037486
0.019818
0.055696
0.076577
0.068863
0.015578
-0.043194
-0.070863
-0.129543
-0.183980
-0.228722
-0.263796
-0.314278
-0.319127
-0.300769
-0.284309
-0.229338
-0.188144
-0.147319
-0.082715
-0.031110
0.019631
0.043849
0.049329
0.050627
0.021827
-0.007688
-0.042885
-0.065376
-0.062850
-0.126709
-0.137761
-0.117136
-0.098074
-0.109322
-0.094948
-0.060735
0.012055
0.085655
0.164538
0.259278
0.325991
0.389009
0.412734
0.435293
0.445331
0.437531
0.429203
0.410727
0.392752
0.388003
0.365445
0.365662
0.396149
0.446380
0.462757
0.550813
0.584982
0.624020
0.660931
0.676171
0.704469
0.709188
0.683219
0.632956
0.575556
0.473544
0.391486
0.304255
0.209062
0.117130
0.027346
-0.028667
-0.067512
-0.095013
-0.081617
-0.041170
-0.046708
-0.059517
-0.033009
0.058192
0.104034
0.097101
0.094206
0.086163
0.055669
0.029368
-0.030053
-0.085216
-0.119934
-0.158239
-0.183140
-0.209289
-0.214887
-0.191012
-0.175181
-0.146758
-0.123786
-0.089559
-0.043175
0.039432
0.071996
0.068240
0.076102
0.044336
0.002630
-0.023171
-0.038767
-0.093744
-0.160927
-0.205834
-0.231355
-0.246235
-0.254230
-0.251841
-0.212291
-0.164745
-0.125806
-0.085473
-0.033678
-0.008208
0.051867
0.074022
0.084901
0.076603
0.033012
0.002934
-0.048101
-0.110169
-0.158824
-0.211481
-0.235434
-0.263797
-0.270509
-0.249010
-0.242206
-0.191818
-0.133458
-0.090925
-0.030326
0.011355
0.054071
0.080056
0.091182
0.081048
0.058368
0.028891
-0.006556
-0.067245
-0.126419
-0.182818
-0.214646
-0.233865
-0.241176
-0.243338
-0.219235
-0.191709
-0.144328
-0.088225
-0.030057
0.010806
0.059631
0.073954
0.093172
0.092839
0.067774
0.053727
0.001930
-0.076808
-0.082913
-0.116596
-0.166569
-0.175309
-0.179927
-0.206359
-0.195089
-0.170567
-0.136447
-0.068635
-0.001828
0.044206
0.067112
0.087536
0.096581
0.094913
0.096213
0.067699
0.039747
-0.009040
-0.048703
-0.090745
-0.121547
-0.135672
-0.145095
-0.143200
-0.123660
-0.083124
-0.062863
-0.035810
0.021975
0.065893
0.091024
0.118786
0.133674
0.125321
0.094206
0.061368
0.029050
-0.018061
-0.069420
-0.104244
-0.088045
-0.107683
-0.136070
-0.112104
-0.075466
-0.048217
-0.013854
0.041151
0.067091
0.126158
0.126574
0.160740
0.159004
0.154198
0.132906
0.101809
0.048546
-0.014723
-0.062493
-0.092240
-0.128875
-0.152291
-0.148126
-0.095325
-0.060755
-0.067487
-0.040853
0.026483
0.079519
0.113626
0.144046
0.155373
0.152131
0.147369
0.115043
0.075608
0.023393
-0.016959
-0.070293
-0.109422
-0.139696
-0.177168
-0.196922
-0.171113
-0.139939
-0.112866
-0.056531
0.004051
0.047741
0.082645
0.122165
0.143588
0.141138
0.143530
0.114629
0.056492
0.010693
-0.030566
-0.067518
-0.116845
-0.173271
-0.186742
-0.205518
-0.209405
-0.182302
-0.149882
-0.122931
-0.068757
-0.023293
0.040238
0.071520
0.094727
0.101377
0.100241
0.072495
0.042099
-0.019220
-0.061053
-0.079203
-0.145785
-0.218149
-0.250756
-0.274170
-0.274632
-0.229585
-0.168449
-0.105278
-0.077987
-0.039126
0.021694
0.053004
0.039078
0.042357
0.049623
0.022677
-0.000296
-0.037288
-0.078370
-0.130565
-0.171734
-0.198551
-0.230519
-0.228445
-0.221229
-0.210479
-0.180401
-0.148812
-0.102609
-0.072126
-0.028911
0.005110
0.017915
0.038130
0.023412
-0.002611
-0.031028
-0.070147
-0.114658
-0.169823
-0.216119
-0.220287
-0.255120
-0.240584
-0.246047
-0.221516
-0.180837
-0.127896
-0.082224
-0.040385
-0.000695
0.016644
0.040507
0.035473
0.016051
-0.010657
-0.043487
-0.089385
-0.124351
-0.178964
-0.225966
-0.254986
-0.260272
-0.265091
-0.257102
-0.212804
-0.166618
-0.130122
-0.091259
-0.041191
0.011314
0.039621
0.052768
0.064010
0.054806
0.023143
-0.023998
-0.092155
-0.160245
-0.202324
-0.249295
-0.271568
-0.256466
-0.267520
-0.239655
-0.196335
-0.179864
-0.144801
-0.101545
-0.051478
0.009232
0.042925
0.070436
0.083312
0.066385
0.045005
0.003361
-0.038336
-0.092884
-0.146971
-0.183820
-0.216072
-0.254617
-0.268253
-0.266360
-0.244968
-0.195973
-0.147796
-0.113171
-0.058491
0.011713
0.034834
0.022339
0.078262
0.088782
0.052817
0.020716
-0.024617
-0.089499
-0.122145
-0.183259
-0.195815
-0.208665
-0.219179
-0.230469
-0.205671
-0.180375
-0.138993
-0.095998
-0.058942
0.001933
0.012926
0.036157
0.036341
0.029424
-0.004780
0.003489
-0.044618
-0.095405
-0.137215
-0.185204
-0.208329
-0.226013
-0.235492
-0.225053
-0.192724
-0.165594
-0.125197
-0.076628
-0.036464
0.001181
0.025813
0.038671
0.035070
0.024334
0.009044
-0.036864
-0.078320
-0.126395
-0.164085
-0.202869
-0.221084
-0.239176
-0.241743
-0.244188
-0.200231
-0.177195
-0.136713
-0.093310
-0.076664
-0.039707
0.028645
0.045228
0.072259
0.070263
0.008344
0.009891
-0.070666
-0.129197
-0.162236
-0.199660
-0.240990
-0.259104
-0.253812
-0.249186
-0.233629
-0.186203
-0.139280
-0.072042
-0.031044
0.011988
0.066874
0.088798
0.097465
0.086811
0.053867
0.011833
-0.035309
-0.104358
-0.165075
-0.180621
-0.214843
-0.240734
-0.258025
-0.248576
-0.208757
-0.182035
-0.134111
-0.077985
-0.035360
0.011786
0.029570
0.061469
0.067933
0.105664
0.111569
0.058352
0.008860
-0.061643
-0.098486
-0.134378
-0.196375
-0.232442
-0.221984
-0.221819
-0.203666
-0.169261
-0.128407
-0.085634
-0.035483
0.008025
0.051737
0.076344
0.111455
0.113625
0.088578
0.042349
0.006623
-0.043400
-0.090488
-0.139402
-0.171716
-0.183731
-0.221593
-0.217353
-0.173012
-0.121458
-0.105584
-0.099835
-0.044690
0.006491
0.023626
0.039004
0.043811
0.034584
0.046227
0.018489
-0.036524
-0.098031
-0.137700
-0.190219
-0.208814
-0.239776
-0.250655
-0.245684
-0.217919
-0.194790
-0.163238
-0.102748
-0.059947
-0.027607
-0.020578
0.001665
0.018126
0.021663
-0.007591
-0.059839
-0.096258
-0.152576
-0.194033
-0.227730
-0.246754
-0.259228
-0.274026
-0.259896
-0.242638
-0.207372
-0.155244
-0.117083
-0.064274
-0.020981
-0.007123
0.022269
0.003570
0.003872
-0.008222
-0.047478
-0.081435
-0.121225
-0.195471
-0.243688
-0.270779
-0.309854
-0.305557
-0.301474
-0.292555
-0.265725
-0.206779
-0.148908
-0.111064
0.011810
0.046946
0.022679
0.012391
-0.029074
-0.044353
-0.046349
-0.085086
-0.103835
-0.142591
-0.217447
-0.262459
-0.268926
-0.293625
-0.299872
-0.284557
-0.239704
-0.206707
-0.153415
-0.111381
-0.062319
-0.024260
0.002111
0.021244
0.014755
-0.025865
-0.052006
-0.086584
-0.143653
-0.194243
-0.194863
-0.237228
-0.280655
-0.295021
-0.287038
-0.277079
-0.255572
-0.184955
-0.153055
-0.102068
-0.065338
-0.031438
0.013284
0.037141
0.049121
0.049927
0.036031
0.008260
-0.017321
-0.050584
-0.068394
-0.089021
-0.097358
-0.106662
-0.073488
-0.029527
0.000286
0.060054
0.154867
0.202571
0.268936
0.321711
0.397055
0.433728
0.454606
0.442282
0.455548
0.462445
0.448552
0.443621
0.445224
0.454719
0.455420
0.462650
0.484400
0.561271
0.607479
0.635471
0.674761
0.687609
0.763058
0.759504
0.753572
0.719486
0.641982
0.553380
0.453313
0.347760
0.217280
0.150200
0.078665
-0.012862
-0.069262
-0.103459
-0.096555
-0.098369
-0.075311
-0.034192
0.024019
0.063534
0.092248
0.109650
0.136376
0.121143
0.122715
0.089723
0.049608
-0.003851
-0.055434
-0.105136
-0.149701
-0.190751
-0.207873
-0.241143
-0.251200
-0.216181
-0.184672
-0.151410
-0.096088
-0.026306
0.046391
0.076707
0.108498
0.111730
0.080406
0.056539
0.008902
-0.031917
-0.086169
-0.136506
-0.191754
-0.219737
-0.252605
-0.254360
-0.247771
-0.242282
-0.195953
-0.158363
-0.096613
-0.054662
-0.014252
0.018197
0.039436
0.065351
0.068731
0.036287
0.005039
-0.023389
-0.043707
-0.090186
-0.147736
-0.201306
-0.237366
-0.254579
-0.247484
-0.220432
-0.197603
-0.173249
-0.137059
-0.087115
-0.031122
0.022202
0.033800
0.041038
0.048495
0.033035
0.003960
-0.017188
-0.073377
-0.094552
-0.125506
-0.154131
-0.191223
-0.214796
-0.240808
-0.215511
-0.150583
-0.125349
-0.083845
-0.029049
-0.007782
0.022313
0.052948
0.090456
0.082935
0.047317
0.004833
-0.023478
-0.056834
-0.130958
-0.161967
-0.201898
-0.202007
-0.200832
-0.195493
-0.162298
-0.111566
-0.066236
-0.027967
0.009682
0.032113
0.085445
0.071912
0.095945
0.069061
0.035544
0.027183
0.011413
-0.019985
-0.062776
-0.123652
-0.145441
-0.178395
-0.184726
-0.169418
-0.173460
-0.121483
-0.060232
-0.004919
0.050734
0.079985
0.131557
0.145549
0.136439
0.143401
0.099656
0.065424
0.013371
-0.022457
-0.065984
-0.116060
-0.155416
-0.163823
-0.159531
-0.163293
-0.138551
-0.097112
-0.051839
-0.005735
0.041695
0.087480
0.119766
0.133493
0.154668
0.135280
0.120895
0.095108
0.049544
-0.012203
-0.069366
-0.129369
-0.150194
-0.177030
-0.192367
-0.176690
-0.167537
-0.139344
-0.105318
-0.002064
0.049142
0.080036
0.131786
0.144324
0.148579
0.141896
0.122118
0.070786
0.045113
-0.012835
-0.039710
-0.080346
-0.140802
-0.173193
-0.194714
-0.200562
-0.179215
-0.172856
-0.129361
-0.076913
-0.028815
0.009534
0.061378
0.078467
0.081948
0.078706
0.059014
0.051699
-0.001306
-0.045532
-0.084524
-0.124929
-0.173659
-0.201807
-0.206847
-0.208228
-0.185774
-0.142188
-0.121184
-0.071084
-0.046653
-0.006629
0.026717
0.021148
0.035610
0.052878
0.029640
0.013931
-0.041170
-0.083454
-0.125817
-0.178223
-0.213993
-0.222325
-0.212103
-0.181311
-0.172048
-0.118339
-0.087828
-0.051838
-0.014629
0.009052
0.042275
0.040841
0.043777
0.019221
-0.011933
-0.033906
-0.085013
-0.108480
-0.111494
-0.151644
-0.211213
-0.237949
-0.247014
-0.221545
-0.197384
-0.170980
-0.136998
-0.094875
-0.044531
0.005647
0.033840
0.050096
0.034608
0.027678
0.012028
-0.002699
-0.062683
-0.101586
-0.166334
-0.217609
-0.266545
-0.267046
-0.279237
-0.261760
-0.216648
-0.156797
-0.132520
-0.085607
-0.043965
0.004080
0.052202
0.084690
0.079480
0.062510
0.078191
0.028878
-0.027384
-0.088787
-0.156975
-0.207294
-0.255524
-0.295697
-0.289732
-0.287583
-0.225779
-0.177017
-0.127977
-0.093609
-0.037143
0.001418
0.036182
0.055654
0.073517
0.057100
0.038947
-0.000274
-0.045011
-0.092124
-0.130285
-0.181329
-0.211343
-0.239712
-0.253433
-0.254103
-0.207638
-0.177372
-0.160619
-0.099420
-0.057041
-0.001521
0.045389
0.071655
0.070308
0.072616
0.043686
-0.009323
-0.023301
-0.086880
-0.123200
-0.152468
-0.200306
-0.221368
-0.205625
-0.226082
-0.204954
-0.175620
-0.124403
-0.094370
-0.036295
-0.021585
0.016540
0.040634
0.059541
0.043695
0.033687
0.017282
-0.024908
-0.088182
-0.132138
-0.160741
-0.211528
-0.215070
-0.215122
-0.156982
-0.150328
-0.131887
-0.096867
-0.055607
-0.020033
0.007497
0.056739
0.063933
0.063651
0.051679
0.022224
-0.036613
-0.060425
-0.104761
-0.159230
-0.189290
-0.226859
-0.246690
-0.240361
-0.214575
-0.180691
-0.130655
-0.086845
-0.059280
-0.015900
0.034629
0.075596
0.123379
0.135739
0.115518
0.050019
0.007129
-0.043179
-0.102565
-0.144518
-0.184149
-0.212349
-0.239404
-0.233043
-0.237173
-0.191191
-0.156245
-0.112661
-0.066786
-0.039719
-0.001787
0.027226
0.060525
0.070331
0.076784
0.055925
0.017092
-0.010359
-0.074647
-0.125372
-0.173569
-0.227768
-0.258408
-0.269782
-0.265263
-0.248092
-0.211295
-0.149730
-0.124477
-0.049787
-0.016812
0.021961
0.045478
0.094387
0.078005
0.054003
0.017878
-0.005459
-0.058907
-0.117927
-0.144469
-0.164844
-0.151075
-0.170741
-0.189504
-0.197156
-0.138802
-0.093272
-0.074325
-0.019346
0.042058
0.069811
0.081494
0.063612
0.084974
0.060676
0.026447
-0.008424
-0.041011
-0.077413
-0.113210
-0.134472
-0.149686
-0.140566
-0.127385
-0.124594
-0.116326
-0.092772
-0.063318
-0.025469
0.015179
0.077712
0.088486
0.093259
0.086354
0.056831
0.042400
0.004162
-0.043290
-0.078422
-0.114690
-0.145246
-0.154149
-0.162514
-0.157971
-0.151576
-0.121428
-0.097395
-0.060626
-0.010868
0.029161
0.068908
0.090703
0.095153
0.085140
0.065576
0.010489
-0.027443
-0.061265
-0.118299
-0.177777
-0.218317
-0.233551
-0.227344
-0.223097
-0.205323
-0.141128
-0.102494
-0.070236
-0.009439
0.030530
0.035880
0.070437
0.081847
0.069499
0.030768
-0.003015
-0.056969
-0.111532
-0.159013
-0.189933
-0.226585
-0.254461
-0.250269
-0.227334
-0.222705
-0.182297
-0.147930
-0.113678
-0.087959
-0.038529
0.006376
0.029205
0.045920
0.027658
0.026702
-0.040606
-0.063533
-0.133544
-0.178918
-0.202958
-0.197217
-0.211634
-0.223241
-0.270732
-0.236639
-0.203818
-0.189465
-0.145055
-0.096211
-0.033035
-0.015138
0.009551
0.031653
0.036450
0.054118
0.007026
-0.036595
-0.079662
-0.130275
-0.167100
-0.210312
-0.253216
-0.249841
-0.259552
-0.238347
-0.236455
-0.190996
-0.138884
-0.096078
-0.034109
-0.014704
0.020625
0.060565
0.028052
0.012828
-0.017633
-0.044806
-0.072702
-0.131847
-0.177660
-0.224470
-0.239371
-0.268749
-0.248150
-0.238752
-0.208825
-0.184957
-0.134423
-0.092140
-0.042897
-0.002013
0.007984
0.002489
0.009992
-0.007033
-0.030314
-0.057760
-0.113558
-0.126054
-0.116209
-0.162717
-0.168450
-0.172566
-0.141300
-0.111755
-0.051132
0.009589
0.106719
0.164236
0.197230
0.222080
0.244789
0.284963
0.286538
0.282772
0.284790
0.253791
0.246359
0.270177
0.282198
0.272639
0.260237
0.298494
0.331785
0.377505
0.487781
0.596293
0.638877
0.700658
0.763453
0.805291
0.837888
0.836384
0.831980
0.785850
0.717582
0.659462
0.598810
0.504963
0.418252
0.330559
0.255484
0.189789
0.154890
0.118505
0.125426
0.123536
0.137005
0.156064
0.185443
0.215651
0.229155
0.209185
0.203365
0.143860
0.111242
0.048836
-0.009268
-0.073059
-0.112752
-0.126737
-0.151356
-0.178804
-0.160243
-0.142539
-0.103046
-0.083216
-0.032104
0.030459
0.067232
0.086234
0.105431
0.110438
0.116571
0.097201
0.074967
0.016601
-0.037958
-0.067369
-0.133788
-0.172663
-0.220153
-0.228969
-0.256101
-0.222644
-0.183900
-0.164757
-0.103100
-0.021729
0.009235
0.050617
0.070849
0.083642
0.094225
0.082200
0.064718
0.024959
-0.018406
-0.084718
-0.120940
-0.179849
-0.213778
-0.222460
-0.237441
-0.224780
-0.203300
-0.136231
-0.066134
0.000650
0.037894
0.070935
0.088768
0.108767
0.101236
0.046994
-0.002599
-0.031112
-0.063324
-0.115121
-0.132552
-0.161660
-0.156065
-0.192585
-0.166380
-0.169837
-0.127846
-0.098377
-0.063962
-0.009910
0.016598
0.048791
0.075932
0.085352
0.088199
0.065383
0.026101
-0.014427
-0.057773
-0.108189
-0.146226
-0.178026
-0.180123
-0.171339
-0.175666
-0.145285
-0.111978
-0.069087
-0.035083
0.044061
0.058397
0.079572
0.069871
0.087308
0.078243
0.068912
0.032898
0.010786
-0.026896
-0.079896
-0.121122
-0.156328
-0.163892
-0.187332
-0.185268
-0.150289
-0.085940
-0.049332
0.006681
0.049543
0.108683
0.133204
0.136230
0.141484
0.137269
0.118574
0.076458
0.033798
-0.023165
-0.085504
-0.111909
-0.136601
-0.166691
-0.172228
-0.186387
-0.161086
-0.101539
-0.044525
-0.002862
0.043800
0.073244
0.120005
0.139909
0.156463
0.163947
0.127531
0.089180
0.038285
-0.018482
-0.042543
-0.098294
-0.109248
-0.146151
-0.146744
-0.138526
-0.114445
-0.098469
-0.076355
-0.030050
0.018899
0.064746
0.097449
0.140947
0.150942
0.143998
0.122954
0.099184
0.044283
-0.014258
-0.051928
-0.108757
-0.160446
-0.177669
-0.194570
-0.196301
-0.180171
-0.136255
-0.080272
-0.028543
0.009233
0.035555
0.084685
0.118106
0.112723
0.110037
0.081369
0.054671
0.025464
-0.028974
-0.066855
-0.135180
-0.166077
-0.179132
-0.203544
-0.178645
-0.153520
-0.144651
-0.087726
-0.051269
-0.029288
-0.002737
0.043717
0.065599
0.089297
0.083364
0.060885
0.031939
-0.006729
-0.025906
-0.089798
-0.112320
-0.154063
-0.158715
-0.184339
-0.183589
-0.162376
-0.141992
-0.107791
-0.073672
-0.037428
0.010062
0.052057
0.075423
0.075754
0.074428
0.055081
0.011787
-0.020697
-0.065240
-0.119899
-0.147062
-0.189553
-0.213095
-0.218357
-0.226857
-0.189430
-0.125452
-0.089760
-0.049548
0.019020
0.074111
0.085217
0.103750
0.090986
0.080718
0.053090
-0.002780
-0.031898
-0.103471
-0.135537
-0.179537
-0.205586
-0.249380
-0.262488
-0.249369
-0.232623
-0.158935
-0.103771
-0.019698
0.030447
0.063105
0.106208
0.104232
0.099173
0.087682
0.056614
-0.007048
-0.066416
-0.096065
-0.134515
-0.203816
-0.223269
-0.242811
-0.260402
-0.253788
-0.205972
-0.175927
-0.114243
-0.043455
0.020769
0.074276
0.066477
0.097175
0.127951
0.120446
0.107090
0.071113
-0.000720
-0.026720
-0.068679
-0.123769
-0.164210
-0.203393
-0.219807
-0.228757
-0.233985
-0.209094
-0.129758
-0.081549
-0.001923
0.032228
0.046389
0.094017
0.108289
0.094494
0.057323
0.021683
0.010893
-0.045071
-0.082748
-0.124810
-0.153233
-0.160301
-0.186664
-0.172261
-0.166551
-0.149031
-0.097264
-0.069429
-0.030943
0.023121
0.041724
0.069043
0.069124
0.072775
0.057913
0.004449
-0.045623
-0.079058
-0.098223
-0.125141
-0.135606
-0.158003
-0.160208
-0.148474
-0.144527
-0.101160
-0.085612
-0.031926
-0.003749
0.037302
0.077129
0.079025
0.081749
0.083651
0.065378
0.035577
-0.006061
-0.062773
-0.121700
-0.180817
-0.216898
-0.216360
-0.211319
-0.205492
-0.191461
-0.152166
-0.098082
-0.053507
0.013474
0.038796
0.066915
0.097956
0.111370
0.104314
0.093260
0.048332
-0.007905
-0.058929
-0.117964
-0.167223
-0.201655
-0.237683
-0.242881
-0.233759
-0.181827
-0.143084
-0.119202
-0.071144
0.005752
0.031176
0.083402
0.099681
0.111186
0.094666
0.070514
0.019373
-0.007550
-0.068234
-0.113045
-0.161771
-0.203262
-0.205574
-0.216304
-0.201984
-0.189400
-0.156851
-0.121771
-0.075196
-0.029564
0.008648
0.053421
0.075450
0.098700
0.090646
0.080267
0.042820
0.006420
-0.043134
-0.098273
-0.145937
-0.194687
-0.206793
-0.234608
-0.218365
-0.188894
-0.144918
-0.130102
-0.094368
-0.053979
-0.013752
0.062214
0.067167
0.072053
0.058401
0.055084
0.015464
-0.016114
-0.028489
-0.099615
-0.129373
-0.140673
-0.173625
-0.187300
-0.194844
-0.184085
-0.160619
-0.082487
-0.026566
0.001609
0.031579
0.071351
0.081422
0.091514
0.083589
0.062051
0.037874
-0.015355
-0.044938
-0.087081
-0.116247
-0.120449
-0.130213
-0.182920
-0.146032
-0.111438
-0.080156
-0.042820
-0.026043
0.017096
0.059684
0.097710
0.115831
0.116517
0.123071
0.090184
0.052468
-0.018524
-0.064677
-0.101214
-0.134744
-0.175261
-0.150822
-0.169006
-0.170281
-0.149786
-0.091709
-0.031993
-0.029416
0.030995
0.065701
0.100142
0.113693
0.138033
0.142043
0.119549
0.058115
0.010834
-0.045232
-0.111098
-0.162002
-0.213497
-0.256494
-0.272695
-0.260789
-0.223533
-0.146477
-0.107959
-0.060969
-0.016276
0.030372
0.045803
0.075408
0.083833
0.055805
0.046375
-0.010695
-0.052264
-0.082254
-0.128522
-0.162177
-0.193584
-0.252786
-0.274277
-0.274759
-0.242340
-0.183837
-0.163442
-0.135588
-0.107273
-0.035906
0.021897
0.061221
0.087723
0.086477
0.057708
0.017861
-0.024532
-0.073942
-0.120788
-0.172764
-0.217586
-0.248056
-0.269605
-0.276438
-0.247690
-0.219222
-0.161594
-0.117470
-0.083302
-0.044972
0.004840
0.014522
0.032311
0.024865
0.008399
-0.013805
-0.042200
-0.080962
-0.134347
-0.165111
-0.197112
-0.218595
-0.245617
-0.239958
-0.207137
-0.181162
-0.145570
-0.105287
-0.075008
-0.050045
-0.015387
0.011933
0.031755
0.033879
-0.007773
-0.026254
-0.060065
-0.096528
-0.142602
-0.183817
-0.214066
-0.249461
-0.259671
-0.240788
-0.214329
-0.185777
-0.137588
-0.104758
-0.049542
-0.033979
-0.009186
0.025419
0.033056
0.027834
0.018261
-0.034980
-0.068075
-0.081795
-0.125811
-0.161767
-0.162029
-0.158297
-0.161198
-0.115757
-0.086983
-0.029265
0.019843
0.069746
0.152926
0.204293
0.247673
0.292005
0.312986
0.307775
0.305244
0.306619
0.288474
0.266772
0.233027
0.214840
0.224777
0.242807
0.257633
0.318996
0.408633
0.466170
0.497380
0.565903
0.645007
0.709408
0.795017
0.836935
0.856060
0.834814
0.783592
0.749769
0.694416
0.614757
0.510870
0.443345
0.325436
0.220229
0.149442
0.097482
0.057606
0.066173
0.085006
0.074468
0.129850
0.184617
0.197701
0.206662
0.206718
0.187964
0.149300
0.142195
0.101806
0.058964
0.001814
-0.066898
-0.092373
-0.104366
-0.118814
-0.113970
-0.110100
-0.096715
-0.090207
-0.062085
-0.025243
0.025344
0.077647
0.097542
0.102918
0.107015
0.081053
0.036223
0.000637
-0.054143
-0.098266
-0.119220
-0.162171
-0.177553
-0.190915
-0.188385
-0.162054
-0.139202
-0.104099
-0.063633
-0.011411
0.016815
0.042417
0.067233
0.079239
0.067876
0.043346
0.001145
-0.039210
-0.080519
-0.119841
-0.167605
-0.190659
-0.215914
-0.235337
-0.215499
-0.198748
-0.177003
-0.129735
-0.084398
-0.036958
-0.002749
0.107563
0.133667
0.111827
0.054561
0.019630
0.014134
-0.037266
-0.092956
-0.115974
-0.166912
-0.217840
-0.239238
-0.242569
-0.215545
-0.184805
-0.129365
-0.080318
-0.040932
0.015746
0.070457
0.099931
0.086384
0.107180
0.101837
0.084996
0.051617
0.002179
-0.044904
-0.107480
-0.157792
-0.199846
-0.224002
-0.241902
-0.239511
-0.204437
-0.155262
-0.103145
-0.045980
0.015527
0.059467
0.111017
0.128719
0.092764
0.129794
0.102912
0.064595
0.022322
-0.012556
-0.078850
-0.125566
-0.152382
-0.192288
-0.213323
-0.200171
-0.176544
-0.131004
-0.096447
-0.054545
-0.001828
0.035741
0.068158
0.110393
0.124075
0.117016
0.110161
0.086624
0.023780
-0.024660
-0.054275
-0.100565
-0.137959
-0.162831
-0.180891
-0.201943
-0.180594
-0.141016
-0.090756
-0.043741
0.003752
0.025869
0.096134
0.111549
0.111433
0.070987
0.096922
0.086763
0.025126
-0.023086
-0.055591
-0.098713
-0.132472
-0.162355
-0.156453
-0.156136
-0.153897
-0.131477
-0.080190
-0.035038
0.009064
0.047173
0.066306
0.084989
0.085804
0.076984
0.071750
0.033481
-0.016087
-0.059546
-0.105672
-0.145180
-0.184276
-0.199830
-0.212426
-0.202201
-0.192520
-0.133953
-0.090894
-0.035554
0.017440
0.035191
0.067391
0.092564
0.082520
0.035360
0.033353
0.016639
-0.045843
-0.084818
-0.106309
-0.138940
-0.194512
-0.213129
-0.214021
-0.213278
-0.195846
-0.164705
-0.098827
-0.041406
0.020667
0.056019
0.077002
0.090528
0.098538
0.074686
0.059437
0.035841
-0.027111
-0.078442
-0.135167
-0.168783
-0.218393
-0.239946
-0.251316
-0.217185
-0.184619
-0.164205
-0.139706
-0.086712
-0.015747
0.025963
0.042726
0.063999
0.087552
0.092988
0.098323
0.067165
0.025569
-0.039386
-0.092391
-0.153039
-0.200276
-0.215741
-0.237497
-0.236204
-0.222751
-0.193919
-0.154281
-0.099039
-0.048628
-0.003600
0.034304
0.054434
0.094483
0.092890
0.073166
0.047707
0.008143
-0.037934
-0.101748
-0.141544
-0.176612
-0.209615
-0.232012
-0.226697
-0.216808
-0.183197
-0.143850
-0.098005
-0.034443
0.010170
0.044486
0.057863
0.055154
0.051786
0.054013
0.017149
-0.034665
-0.076283
-0.111686
-0.139777
-0.181984
-0.191487
-0.202445
-0.196109
-0.172405
-0.146871
-0.113037
-0.069942
-0.043112
0.008168
0.037235
0.060008
0.079162
0.074281
0.029978
0.002154
-0.037540
-0.066649
-0.114949
-0.162456
-0.190175
-0.189679
-0.181628
-0.191794
-0.180447
-0.148369
-0.105844
-0.065030
0.002591
0.057322
0.085886
0.094823
0.092146
0.069893
0.045037
0.000564
-0.043289
-0.082943
-0.131094
-0.164569
-0.195958
-0.215752
-0.212392
-0.211452
-0.194556
-0.161372
-0.095197
-0.045007
-0.002196
0.073210
0.096425
0.105263
0.120390
0.102947
0.088014
0.041156
-0.027855
-0.075001
-0.124649
-0.177152
-0.212087
-0.239273
-0.242705
-0.228500
-0.203651
-0.172135
-0.119459
-0.059825
-0.010646
0.036818
0.078725
0.102944
0.111466
0.099757
0.075164
0.039434
-0.004043
-0.047358
-0.100623
-0.159573
-0.216298
-0.233580
-0.248409
-0.257267
-0.218330
-0.189166
-0.160531
-0.097252
-0.035758
0.021169
0.065290
0.081486
0.086315
0.093642
0.068169
0.032808
-0.005089
-0.064666
-0.095944
-0.140719
-0.178202
-0.202617
-0.206427
-0.215446
-0.197366
-0.169989
-0.150969
-0.145475
-0.046995
0.015747
0.036467
0.052528
0.068104
0.058097
0.048023
0.020718
-0.034535
-0.084186
-0.134202
-0.166104
-0.191291
-0.206534
-0.226956
-0.225718
-0.197566
-0.160126
-0.131738
-0.087157
-0.038388
-0.006751
0.020705
0.038563
0.044027
0.046287
0.004201
-0.016836
-0.061604
-0.129464
-0.169108
-0.174629
-0.176630
-0.196405
-0.212320
-0.235124
-0.201479
-0.164310
-0.123189
-0.092608
-0.071236
-0.010241
0.041965
0.052114
0.041116
0.032537
0.014879
-0.022900
-0.066028
-0.107212
-0.161933
-0.190794
-0.230782
-0.249793
-0.250796
-0.242063
-0.227974
-0.181855
-0.135847
-0.107211
-0.069143
-0.014884
0.017602
0.031018
0.032605
0.075425
0.076492
0.015035
-0.031957
-0.088063
-0.147776
-0.206738
-0.235187
-0.269492
-0.277088
-0.258856
-0.237851
-0.198064
-0.149056
-0.107294
-0.045370
0.005371
0.028821
0.054217
0.052490
0.062206
0.042095
0.010145
-0.017630
-0.090284
-0.165348
-0.210933
-0.223057
-0.255899
-0.272592
-0.266366
-0.256732
-0.217477
-0.181747
-0.128680
-0.077374
-0.028375
0.011422
0.025432
0.025189
0.023092
0.036146
0.003097
-0.053221
-0.083462
-0.126249
-0.172956
-0.212411
-0.222271
-0.235054
-0.249333
-0.233187
-0.208010
-0.171293
-0.135572
-0.104963
-0.053064
-0.012944
0.013566
0.029181
0.040316
0.022151
0.001991
-0.048699
-0.110842
-0.163046
-0.189022
-0.212452
-0.241679
-0.253955
-0.218056
-0.185889
-0.144514
-0.105883
-0.087722
-0.036639
0.008058
0.033480
0.049392
0.061845
0.058557
0.032548
-0.003121
-0.041093
-0.087624
-0.127678
-0.158840
-0.192261
-0.215421
-0.230477
-0.228266
-0.195721
-0.142883
-0.109884
-0.051716
-0.010529
0.023303
0.049488
0.061570
0.070179
0.061662
0.043993
0.007256
-0.050523
-0.100725
-0.159737
-0.187776
-0.218414
-0.230111
-0.222939
-0.200780
-0.162900
-0.134769
-0.088796
-0.042245
0.001463
0.053625
0.089336
0.100924
0.094071
0.071094
0.039150
-0.009512
-0.042993
-0.085463
-0.147461
-0.204122
-0.234488
-0.262664
-0.266884
-0.283322
-0.268493
-0.201637
-0.155599
-0.101848
-0.056583
-0.028572
0.000158
0.036190
0.027235
0.036277
0.031523
-0.008153
-0.069895
-0.125391
-0.187113
-0.218986
-0.258839
-0.289050
-0.306264
-0.298932
-0.272619
-0.268028
-0.201187
-0.148876
-0.098617
-0.067125
-0.030433
0.004413
0.010794
0.017525
-0.021496
-0.050106
-0.093556
-0.156081
-0.189224
-0.212729
-0.230476
-0.264411
-0.287821
-0.294872
-0.281590
-0.253153
-0.219713
-0.163491
-0.119388
-0.071607
-0.032996
-0.022349
-0.007451
-0.003334
-0.024306
-0.052229
-0.085566
-0.136890
-0.182415
-0.225614
-0.262969
-0.291874
-0.281129
-0.269921
-0.257220
-0.252263
-0.209554
-0.167087
-0.094463
-0.066541
-0.044739
-0.028137
-0.025681
-0.021720
-0.038607
-0.074734
-0.101237
-0.156881
-0.196110
-0.243752
-0.268867
-0.286191
-0.288334
-0.263793
-0.246486
-0.204556
-0.179270
-0.163031
-0.125447
-0.070481
-0.008074
-0.010802
-0.024161
-0.040501
-0.072861
-0.101587
-0.133901
-0.182281
-0.229618
-0.265534
-0.289416
-0.287525
-0.285167
-0.268262
-0.208865
-0.183333
-0.120489
-0.013756
0.038850
0.083391
0.118111
0.128468
0.142562
0.153716
0.154097
0.120445
0.106834
0.104124
0.064834
0.038589
0.029261
0.028586
0.025178
0.081254
0.177181
0.253331
0.305607
0.385669
0.479986
0.557955
0.642793
0.687669
0.744508
0.758957
0.766416
0.735373
0.671969
0.611429
0.555007
0.479786
0.419566
0.373319
0.338045
0.302433
0.252344
0.244316
0.198707
0.205731
0.210178
0.210855
0.208467
0.219898
0.203766
0.173441
0.128554
0.090844
0.041743
-0.002578
-0.057231
-0.110535
-0.155301
-0.151322
-0.179910
-0.196941
-0.173814
-0.144327
-0.121866
-0.091192
-0.033513
0.022179
0.057721
0.058760
0.068186
0.069486
0.031263
-0.001435
-0.039201
-0.093352
-0.128113
-0.185699
-0.190036
-0.213011
-0.223393
-0.228985
-0.221761
-0.182388
-0.151917
-0.131322
-0.076619
-0.047813
-0.011060
0.011643
0.012622
0.008446
-0.005322
-0.075037
-0.093207
-0.115635
-0.169337
-0.216549
-0.245796
-0.267057
-0.277234
-0.250507
-0.220761
-0.170303
-0.119955
-0.091339
-0.064885
-0.018890
0.008834
0.022313
0.028636
0.008371
-0.012142
-0.030840
-0.074064
-0.141228
-0.198645
-0.241735
-0.251556
-0.285415
-0.292165
-0.298913
-0.258791
-0.219661
-0.164049
-0.121955
-0.053440
0.008692
0.036917
0.044972
0.055724
0.059316
0.053193
-0.012392
-0.047998
-0.109414
-0.146745
-0.191990
-0.215801
-0.255258
-0.273124
-0.278135
-0.253467
-0.206200
-0.153318
-0.103129
-0.046402
-0.013097
0.023519
0.049907
0.059820
0.063099
0.051632
0.014608
-0.023106
-0.068948
-0.137382
-0.175408
-0.207055
-0.206204
-0.219145
-0.237567
-0.235180
-0.198669
-0.161208
-0.120194
-0.060968
0.005840
0.026596
0.064597
0.074249
0.072533
0.057041
0.036328
-0.006155
-0.043345
-0.092546
-0.142438
-0.193577
-0.167558
-0.171994
-0.196717
-0.193269
-0.163965
-0.119723
-0.089806
-0.034336
0.001795
0.054856
0.072248
0.072167
0.061140
0.037337
0.023430
-0.012863
-0.090969
-0.073664
-0.123491
-0.166775
-0.187921
-0.196856
-0.193036
-0.182680
-0.140292
-0.096357
-0.056106
-0.019368
0.020635
0.048660
0.059211
0.073629
0.061910
0.036642
-0.012630
-0.044431
-0.104503
-0.137983
-0.178836
-0.208129
-0.238087
-0.228033
-0.203719
-0.177598
-0.123337
-0.087666
-0.054386
-0.013307
0.026755
0.056661
0.074665
0.068856
0.063775
0.036748
-0.008062
-0.051000
-0.105737
-0.151495
-0.191331
-0.231661
-0.255721
-0.257604
-0.246881
-0.244691
-0.207006
-0.151841
-0.107412
-0.071927
-0.024893
0.009461
0.050261
0.095483
0.078833
0.066724
0.025416
-0.012236
-0.086839
-0.147702
-0.220373
-0.243719
-0.263875
-0.284460
-0.287734
-0.256142
-0.217006
-0.182575
-0.138358
-0.093998
-0.053577
0.010323
0.060436
0.062214
0.050859
0.036324
0.017322
-0.053386
-0.120501
-0.164622
-0.182752
-0.221827
-0.256828
-0.277141
-0.278754
-0.274692
-0.232852
-0.184709
-0.144880
-0.102542
-0.067571
-0.030183
-0.016373
0.006594
0.012157
0.003365
-0.039868
-0.075783
-0.116094
-0.148473
-0.188671
-0.226988
-0.254826
-0.276737
-0.279594
-0.275433
-0.231333
-0.180729
-0.160899
-0.118053
-0.069883
-0.039352
-0.011796
-0.005424
-0.019696
-0.042279
-0.070124
-0.095095
-0.134427
-0.173521
-0.222106
-0.243312
-0.269656
-0.271127
-0.268408
-0.242442
-0.204692
-0.169007
-0.126168
-0.084331
-0.054920
-0.021733
-0.016733
-0.010354
-0.030947
-0.046265
-0.073161
-0.088677
-0.120324
-0.164453
-0.190633
-0.225035
-0.265715
-0.276953
-0.263853
-0.249507
-0.208850
-0.147711
-0.125769
-0.095510
-0.034854
0.018749
0.045851
0.036327
0.008579
-0.020935
-0.062713
-0.108279
-0.159644
-0.217264
-0.265944
-0.262421
-0.254438
-0.257030
-0.256192
-0.245675
-0.235057
-0.166680
-0.106355
-0.066357
-0.029293
0.009335
0.055851
0.061731
0.037221
0.014889
-0.033679
-0.099198
-0.139985
-0.196132
-0.243098
-0.283983
-0.295474
-0.295837
-0.275643
-0.274880
-0.255293
-0.193320
-0.120577
-0.080818
-0.029503
0.005478
0.036105
0.048111
0.043236
0.012955
-0.004523
-0.049578
-0.111419
-0.165744
-0.211902
-0.255937
-0.286059
-0.299607
-0.314899
-0.288528
-0.258023
-0.212241
-0.148011
-0.102507
-0.061635
-0.021481
0.012735
0.024299
0.021892
0.000979
-0.043281
-0.079462
-0.113708
-0.158185
-0.204516
-0.242778
-0.265983
-0.273966
-0.269400
-0.273866
-0.232910
-0.202386
-0.160831
-0.117684
-0.077786
-0.047056
-0.021182
-0.014211
-0.017464
-0.042247
-0.061103
-0.092832
-0.122025
-0.178014
-0.231355
-0.254945
-0.244801
-0.234335
-0.238475
-0.243943
-0.230984
-0.172207
-0.151538
-0.111070
-0.068271
-0.035559
-0.011307
-0.002148
-0.013686
-0.037384
-0.071991
-0.118562
-0.168590
-0.215567
-0.258799
-0.275704
-0.294951
-0.292824
-0.288191
-0.268278
-0.236193
-0.198246
-0.148857
-0.107421
-0.064192
-0.023973
0.005257
0.003910
0.007091
-0.017583
-0.054893
-0.098885
-0.157174
-0.226875
-0.261602
-0.292076
-0.309307
-0.313940
-0.305132
-0.288046
-0.240346
-0.197034
-0.153126
-0.104175
-0.057483
-0.012301
0.007809
0.026481
0.012096
-0.019459
-0.068957
-0.124175
-0.171785
-0.209370
-0.259594
-0.301131
-0.342508
-0.334154
-0.305783
-0.298616
-0.269657
-0.233060
-0.177623
-0.132362
-0.087084
-0.029608
0.018614
0.078597
0.062222
0.003105
-0.041822
-0.078133
-0.130999
-0.184207
-0.242029
-0.284487
-0.283915
-0.314425
-0.310798
-0.293262
-0.283225
-0.231133
-0.162808
-0.120703
-0.091031
-0.059706
-0.014260
-0.013758
-0.009842
-0.016719
-0.049481
-0.089291
-0.132220
-0.176998
-0.214243
-0.260254
-0.285999
-0.300620
-0.294729
-0.283835
-0.249453
-0.224683
-0.173222
-0.117245
-0.079749
-0.061929
-0.038003
-0.031119
-0.037865
-0.070609
-0.095617
-0.140004
-0.163183
-0.198310
-0.221553
-0.245335
-0.266079
-0.281174
-0.276817
-0.267389
-0.232218
-0.186043
-0.138672
-0.099039
-0.063530
-0.033233
-0.015518
-0.022847
-0.036652
-0.045671
-0.064777
-0.122972
-0.172818
-0.234597
-0.270548
-0.282233
-0.284993
-0.290761
-0.280819
-0.265553
-0.234850
-0.181877
-0.134951
-0.087240
-0.050428
-0.017287
-0.006784
-0.006007
-0.023195
-0.048361
-0.096801
-0.136044
-0.159796
-0.207664
-0.259785
-0.300421
-0.288354
-0.277408
-0.304279
-0.257240
-0.200221
-0.145506
-0.084463
-0.066828
-0.022830
0.007731
0.028279
0.044964
0.039270
0.011204
-0.014121
-0.055838
-0.104871
-0.168087
-0.211969
-0.254178
-0.276493
-0.297135
-0.302477
-0.256974
-0.218456
-0.181957
-0.110909
-0.069710
-0.018980
0.015520
0.024227
0.041115
0.038594
0.031518
0.010913
-0.025575
-0.068299
-0.121221
-0.166439
-0.220852
-0.235370
-0.257501
-0.253725
-0.245478
-0.245275
-0.180782
-0.108144
-0.055078
-0.018856
0.024885
0.048613
0.049683
0.054369
0.030120
-0.001554
-0.053287
-0.091693
-0.144061
-0.178018
-0.214277
-0.238392
-0.257708
-0.263850
-0.253712
-0.216677
-0.184548
-0.151363
-0.114128
-0.064949
-0.029178
-0.009470
-0.011472
-0.003071
0.002663
-0.047558
-0.110522
-0.180875
-0.174558
-0.213438
-0.248514
-0.272147
-0.252706
-0.242331
-0.249268
-0.220505
-0.179975
-0.149512
-0.117553
-0.074770
-0.041567
-0.023905
-0.023900
-0.035726
-0.056722
-0.095636
-0.142131
-0.194768
-0.210227
-0.258040
-0.295131
-0.316016
-0.332890
-0.289658
-0.258449
-0.225254
-0.182995
-0.130233
-0.087903
-0.056176
-0.046835
-0.026476
-0.017139
-0.037135
-0.058428
-0.081927
-0.124652
-0.179664
-0.235274
-0.272838
-0.291292
-0.302933
-0.309203
-0.309366
-0.269882
-0.236962
-0.197813
-0.146706
-0.087146
-0.048111
-0.016636
-0.005850
-0.007879
-0.021852
-0.049261
-0.079341
-0.123503
-0.184112
-0.210071
-0.265639
-0.307437
-0.314676
-0.318011
-0.314934
-0.297239
-0.256301
-0.217312
-0.184748
-0.121642
-0.075449
-0.019766
0.023688
0.028583
0.012322
-0.015706
-0.053296
-0.106752
-0.152530
-0.207579
-0.251866
-0.292293
-0.325214
-0.366049
-0.323136
-0.305552
-0.272154
-0.210877
-0.158804
-0.112912
-0.039837
0.016033
0.038677
0.057939
0.062864
0.060711
0.062514
0.047264
0.011283
-0.038677
-0.075196
-0.085137
-0.087042
-0.103901
-0.076416
0.015773
0.075810
0.147028
0.216050
0.292261
0.351890
0.424219
0.474696
0.511552
0.545692
0.583765
0.621588
0.627344
0.604788
0.604510
0.594786
0.580677
0.551631
0.539548
0.526954
0.538545
0.546545
0.557497
0.574315
0.598417
0.591399
0.543543
0.506302
0.440093
0.375108
0.308378
0.233776
0.155403
0.079203
0.011723
-0.042849
-0.093022
-0.110119
-0.125077
-0.127012
-0.127946
-0.084966
-0.059129
-0.013025
0.029334
0.061718
0.085881
0.093813
0.090888
0.066396
0.047004
0.013188
-0.035937
-0.067391
-0.113706
-0.163633
-0.197294
-0.208868
-0.221449
-0.205896
-0.185518
-0.163871
-0.111762
-0.072943
-0.021012
0.006056
0.036348
0.051476
0.050199
0.034932
0.012237
-0.020419
-0.068197
-0.123378
-0.182837
-0.231258
-0.235832
-0.240007
-0.268292
-0.279979
-0.222648
-0.191741
-0.148058
-0.105895
-0.031616
0.018389
0.050937
0.068989
0.079954
0.066822
0.057502
0.031832
-0.029775
-0.092789
-0.148324
-0.188563
-0.224987
-0.252993
-0.263317
-0.269180
-0.241021
-0.199395
-0.139105
-0.082728
-0.040609
0.022183
0.056412
0.077551
0.082905
0.085422
0.053588
0.025523
-0.021527
-0.065434
-0.111526
-0.154213
-0.192339
-0.219716
-0.244019
-0.242225
-0.212057
-0.181071
-0.138379
-0.098920
-0.035763
0.010262
0.046964
0.077821
0.092776
0.085303
0.074025
0.052342
0.005656
-0.054721
-0.095905
-0.126859
-0.157291
-0.179978
-0.166608
-0.172922
-0.160696
-0.146823
-0.097860
-0.063447
-0.014083
0.028925
0.069395
0.101189
0.107227
0.091692
0.077992
0.055485
0.006231
-0.009162
-0.028191
-0.074358
-0.126548
-0.162481
-0.177969
-0.159764
-0.141364
-0.102212
-0.055630
-0.015489
0.022220
0.068190
0.089385
0.123969
0.135541
0.125721
0.108062
0.083321
0.029236
-0.002045
-0.055299
-0.087443
-0.089436
-0.113019
-0.120621
-0.095637
-0.084550
-0.068793
-0.048184
0.033974
0.071454
0.111838
0.142185
0.150826
0.159243
0.154231
0.117937
0.083856
0.035790
-0.011326
-0.052733
-0.095320
-0.128185
-0.145422
-0.159041
-0.156798
-0.124978
-0.096080
-0.068627
-0.021939
0.040853
0.095436
0.103418
0.193527
0.174794
0.157042
0.116860
0.076753
0.020567
-0.025035
-0.067893
-0.102284
-0.135965
-0.161083
-0.158845
-0.150601
-0.146941
-0.126105
-0.077425
-0.028934
0.015766
0.061417
0.120877
0.150313
0.145679
0.147511
0.134514
0.090134
0.034482
-0.019800
-0.078812
-0.127249
-0.164242
-0.193846
-0.184976
-0.183480
-0.158726
-0.144862
-0.107708
-0.061254
-0.014663
0.044884
0.065645
0.097565
0.103338
0.101219
0.103681
0.078901
0.027209
-0.038270
-0.087327
-0.131395
-0.179814
-0.199422
-0.216783
-0.223670
-0.219095
-0.190993
-0.137760
-0.081440
-0.050931
-0.013879
0.012694
0.054679
0.059798
0.060647
0.053559
0.024964
-0.021237
-0.057292
-0.100428
-0.127339
-0.171017
-0.211152
-0.208133
-0.202429
-0.179522
-0.163694
-0.147471
-0.102512
-0.054970
-0.017300
-0.005271
0.006906
0.024909
0.023481
0.048899
-0.003950
-0.032177
-0.067608
-0.104421
-0.137005
-0.173687
-0.208741
-0.222368
-0.209775
-0.183933
-0.144264
-0.110674
-0.071997
-0.030533
0.013756
0.034821
0.061703
0.064573
0.032736
0.017595
-0.002405
-0.032554
-0.093214
-0.146394
-0.190260
-0.166090
-0.188763
-0.203309
-0.212320
-0.182362
-0.159446
-0.103664
-0.058825
-0.019294
0.035548
0.063364
0.076391
0.077444
0.078165
0.048743
0.016758
-0.041074
-0.080135
-0.140609
-0.177226
-0.215547
-0.236144
-0.216556
-0.199010
-0.187434
-0.150956
-0.114966
-0.049665
-0.008395
0.028113
0.067914
0.127073
0.104148
0.056735
0.038007
0.002218
-0.021710
-0.040251
-0.104545
-0.167701
-0.183698
-0.189595
-0.203336
-0.203543
-0.167305
-0.153843
-0.132305
-0.083890
-0.021521
0.027429
0.065889
0.091123
0.093041
0.092223
0.096067
0.056976
0.016649
-0.044001
-0.094915
-0.145269
-0.178269
-0.220322
-0.239690
-0.212495
-0.189852
-0.181007
-0.118400
-0.079064
-0.016355
0.037908
0.066998
0.080380
0.099849
0.094611
0.081167
0.048959
-0.007762
-0.049554
-0.092252
-0.153134
-0.193220
-0.236283
-0.264185
-0.261201
-0.235688
-0.163374
-0.088547
0.006415
0.047923
0.056166
0.045011
0.064748
0.079775
0.077785
0.076107
0.039785
-0.006707
-0.068255
-0.117899
-0.144870
-0.140240
-0.157541
-0.154273
-0.163979
-0.164283
-0.154328
-0.135247
-0.084055
-0.047149
-0.023424
0.022162
0.039328
0.051834
0.048061
0.033732
-0.004214
-0.046975
-0.074099
-0.089012
-0.151864
-0.182512
-0.189596
-0.183077
-0.190563
-0.170498
-0.137648
-0.112661
-0.085715
-0.049281
-0.020780
0.019435
0.031342
0.036390
0.056768
0.026513
-0.008574
-0.022771
-0.062479
-0.109419
-0.114649
-0.147659
-0.199601
-0.215349
-0.223128
-0.215935
-0.168651
-0.110436
-0.067490
0.023305
0.061570
0.072535
0.092141
0.087123
0.069534
0.051018
0.016511
-0.024916
-0.086726
-0.134804
-0.182960
-0.213402
-0.228643
-0.226042
-0.218992
-0.169606
-0.137052
-0.104789
-0.075647
-0.040085
0.017059
0.060526
0.101353
0.113574
0.107379
0.052757
0.011882
-0.048369
-0.079633
-0.120976
-0.169792
-0.217296
-0.237982
-0.244485
-0.233105
-0.216109
-0.185153
-0.131407
-0.091870
-0.043937
0.029757
0.083785
0.104571
0.080918
0.086533
0.070758
0.028952
-0.033220
-0.058566
-0.120019
-0.155926
-0.171679
-0.224224
-0.250270
-0.247890
-0.228686
-0.205060
-0.148901
-0.065267
-0.032997
0.036128
0.102314
0.107510
0.101104
0.092466
0.075228
0.053486
0.019848
-0.038092
-0.091428
-0.137768
-0.179189
-0.220466
-0.204784
-0.185804
-0.175419
-0.141087
-0.111604
-0.071066
-0.021700
0.019619
0.078123
0.103187
0.112960
0.112408
0.090347
0.060855
0.023782
-0.002259
-0.033301
-0.097300
-0.137429
-0.148113
-0.160249
-0.152986
-0.143204
-0.130745
-0.079380
-0.038935
-0.015546
0.027550
0.051233
0.086457
0.104774
0.094861
0.095109
0.073160
0.048525
0.006722
-0.055495
-0.096445
-0.124376
-0.132477
-0.158386
-0.139581
-0.106088
-0.073953
-0.060240
-0.016921
0.031416
0.071441
0.104120
0.106030
0.110053
0.091368
0.073668
0.028771
-0.007267
-0.026187
-0.054823
-0.084518
-0.111641
-0.144605
-0.139561
-0.142376
-0.138394
-0.109151
-0.083242
-0.034806
0.013099
0.051154
0.091458
0.112485
0.105148
0.077359
0.050223
0.007343
-0.030193
-0.078950
-0.136281
-0.186324
-0.212360
-0.216776
-0.200115
-0.175299
-0.151929
-0.116022
-0.090563
-0.053013
-0.004090
0.031458
0.064414
0.088806
0.088299
0.068148
0.044956
-0.001617
-0.042846
-0.085617
-0.138963
-0.184593
-0.213121
-0.237857
-0.246490
-0.237541
-0.210626
-0.165739
-0.115990
-0.052760
-0.010877
0.022130
0.077247
0.096169
0.102173
0.087846
0.055111
0.012633
-0.033394
-0.080781
-0.124077
-0.168974
-0.186772
-0.201084
-0.222001
-0.243943
-0.229612
-0.185843
-0.139075
-0.077704
-0.024447
0.016897
0.059607
0.097977
0.101811
0.089495
0.080010
0.045558
-0.010090
-0.072737
-0.123113
-0.163295
-0.209238
-0.233683
-0.250363
-0.236685
-0.206822
-0.174744
-0.139678
-0.091126
-0.067078
-0.042179
0.013131
0.065057
0.098897
0.136750
0.112036
0.055539
-0.008379
-0.074147
-0.133107
-0.171187
-0.202433
-0.220996
-0.228506
-0.222264
-0.195525
-0.152585
-0.111632
-0.053991
-0.004897
0.058097
0.105111
0.140025
0.166211
0.190923
0.187128
0.174335
0.148117
0.120043
0.106755
0.105298
0.092942
0.096259
0.115546
0.146047
0.200906
0.259053
0.330760
0.396238
0.478438
0.534644
0.615522
0.663609
0.708917
0.743005
0.761923
0.764328
0.764651
0.758697
0.732225
0.694647
0.650177
0.622643
0.582020
0.578858
0.570558
0.543039
0.598615
0.555150
0.503496
0.499538
0.530518
0.481561
0.393316
0.337778
0.258907
0.206019
0.155341
0.111118
0.063071
0.024046
-0.024150
-0.056011
-0.062053
-0.059100
-0.039028
-0.008293
0.034773
0.071741
0.104617
0.151503
0.155270
0.181369
0.184365
0.147905
0.127730
0.099128
0.060650
0.011128
-0.042562
-0.098176
-0.133573
-0.156982
-0.164985
-0.145061
-0.118180
-0.095295
-0.041732
0.005820
0.044897
0.068319
0.118483
0.158921
0.161746
0.141416
0.112304
0.095433
0.079214
0.003040
-0.080562
-0.111359
-0.136999
-0.181064
-0.174927
-0.158500
-0.146632
-0.112466
-0.062043
-0.010549
0.032589
0.077289
0.125035
0.163744
0.182221
0.162992
0.148815
0.099026
0.046856
0.007718
-0.032913
-0.074570
-0.114916
-0.140473
-0.163074
-0.169285
-0.145434
-0.103946
-0.065925
-0.018434
0.015099
0.053227
0.122982
0.179034
0.182134
0.165417
0.146574
0.116572
0.077028
0.017195
-0.013784
-0.036806
-0.069416
-0.091822
-0.107695
-0.123401
-0.115866
-0.074911
-0.044892
-0.001872
0.045144
0.091716
0.122720
0.161455
0.186317
0.188560
0.159256
0.132371
0.092757
0.051461
0.010743
-0.016292
-0.062592
-0.094459
-0.103311
-0.077905
-0.023729
0.005172
0.006317
0.049382
0.071653
0.096370
0.135600
0.175306
0.183210
0.167495
0.140189
0.130034
0.119608
0.122630
0.065798
0.008828
-0.042872
-0.052102
-0.057160
-0.032846
-0.010934
0.025681
0.052570
0.080106
0.116349
0.165874
0.205784
0.237208
0.245937
0.239107
0.205381
0.159321
0.131042
0.084584
0.044242
0.009818
-0.008509
-0.039265
-0.039873
-0.026079
0.001668
0.034838
0.074179
0.104975
0.168770
0.196333
0.239393
0.279020
0.273209
0.253862
0.223880
0.186416
0.139326
0.090374
0.045817
0.001830
-0.030916
-0.059371
-0.063641
-0.045595
-0.029080
-0.007116
0.035496
0.101198
0.170463
0.209099
0.238575
0.251529
0.246565
0.241112
0.224337
0.175253
0.124155
0.083257
0.030793
-0.004073
-0.046721
-0.067792
-0.078893
-0.069527
-0.050954
-0.015999
0.022384
0.076958
0.124105
0.160628
0.195110
0.231890
0.242911
0.226701
0.200315
0.160490
0.117687
0.047486
0.024438
-0.014535
-0.058310
-0.089602
-0.113152
-0.121372
-0.100060
-0.069447
-0.023721
0.029536
0.084168
0.117735
0.140872
0.155630
0.191502
0.160176
0.158872
0.131202
0.108128
0.057395
-0.025234
-0.087196
-0.066571
-0.083716
-0.098404
-0.103521
-0.105283
-0.077630
-0.036444
0.006404
0.038939
0.055225
0.097165
0.118231
0.155227
0.157356
0.137953
0.103605
0.064221
0.022510
-0.020029
-0.060777
-0.099408
-0.109929
-0.116092
-0.129887
-0.128076
-0.094912
-0.058753
-0.016960
0.017577
0.049225
0.096646
0.125771
0.116023
0.104921
0.087068
0.069019
0.031203
0.001547
-0.056976
-0.073677
-0.081013
-0.104402
-0.122525
-0.126904
-0.108985
-0.087445
-0.044895
-0.004728
0.033672
0.077074
0.120796
0.127561
0.132994
0.114271
0.093101
0.064233
0.020622
-0.015979
-0.051347
-0.095962
-0.121833
-0.145573
-0.147755
-0.132341
-0.091384
-0.067112
-0.015983
0.030116
0.047725
0.106409
0.156197
0.159459
0.154971
0.131509
0.097012
0.062639
0.015132
-0.031140
-0.072135
-0.109151
-0.143040
-0.161507
-0.179558
-0.164603
-0.130039
-0.044730
0.000425
0.043603
0.087070
0.130690
0.140476
0.158157
0.173358
0.171184
0.156038
0.108748
0.057342
0.008059
-0.048221
-0.099656
-0.123666
-0.142831
-0.154519
-0.140884
-0.121727
-0.084162
-0.032453
0.013298
0.062865
0.106071
0.147446
0.165760
0.160821
0.147701
0.151285
0.117968
0.087439
0.020709
-0.030203
-0.089747
-0.118985
-0.119283
-0.143836
-0.157166
-0.147992
-0.094638
-0.048504
-0.013144
0.041974
0.088951
0.135202
0.173836
0.193041
0.194729
0.149560
0.104119
0.084782
0.032343
-0.035508
-0.085996
-0.124052
-0.146394
-0.155793
-0.147589
-0.114186
-0.081309
-0.051293
-0.021101
0.035492
0.076224
0.122798
0.148210
0.153802
0.151459
0.145855
0.122130
0.091822
0.047974
0.007218
-0.034361
-0.092702
-0.132339
-0.140068
-0.132187
-0.111639
-0.084983
-0.058606
-0.013321
0.021012
0.070303
0.094667
0.130771
0.145576
0.142657
0.127056
0.090788
0.047763
0.018407
-0.032777
-0.076711
-0.097164
-0.128846
-0.134556
-0.125855
-0.109000
-0.091177
-0.049645
-0.005191
0.041347
0.073268
0.106710
0.110822
0.099976
0.093383
0.077432
0.041756
0.025486
0.007353
-0.015893
-0.068219
-0.105973
-0.129614
-0.142135
-0.119629
-0.108435
-0.057072
-0.035453
0.001893
0.039123
0.071269
0.107221
0.135649
0.164188
0.141430
0.108594
0.073086
0.027156
-0.021180
-0.069663
-0.105301
-0.137274
-0.154525
-0.154923
-0.150584
-0.139395
-0.093362
-0.030149
0.027104
0.048090
0.077146
0.113444
0.131532
0.147070
0.140923
0.130565
0.090922
0.027598
-0.029594
-0.085300
-0.118776
-0.158322
-0.145717
-0.152620
-0.145980
-0.130243
-0.128229
-0.083759
-0.034851
0.022387
0.091628
0.140442
0.163717
0.166553
0.154962
0.127371
0.089301
0.043098
-0.009338
-0.050310
-0.097872
-0.136640
-0.152319
-0.170846
-0.161034
-0.151240
-0.122427
-0.079531
-0.027736
0.029259
0.080139
0.111379
0.137405
0.157185
0.158675
0.134444
0.090473
0.074700
0.061002
0.030305
-0.019573
-0.059423
-0.108998
-0.117442
-0.122130
-0.100906
-0.075299
-0.032141
0.007211
0.064862
0.102186
0.132770
0.163215
0.172095
0.169951
0.149119
0.123147
0.075473
0.033289
0.000409
-0.035034
-0.077205
-0.102735
-0.118836
-0.117977
-0.097858
-0.071353
-0.019639
0.020396
0.065737
0.108606
0.138777
0.174545
0.197653
0.177905
0.143550
0.119541
0.092620
0.059832
0.001796
-0.049039
-0.066619
-0.093771
-0.094506
-0.079253
-0.059119
-0.040107
0.007760
0.053090
0.091008
0.099510
0.118093
0.159774
0.164141
0.131231
0.094699
0.059385
0.016134
-0.043460
-0.023733
-0.066069
-0.105763
-0.137146
-0.134012
-0.121389
-0.107998
-0.069859
-0.027879
0.020726
0.061160
0.090952
0.113111
0.125872
0.127944
0.109107
0.114842
0.050362
0.012687
-0.013867
-0.079516
-0.120034
-0.159363
-0.179604
-0.182910
-0.176062
-0.149902
-0.110078
-0.071550
-0.030143
0.019902
0.072735
0.105772
0.146228
0.139848
0.111554
0.078625
0.046926
0.013083
-0.023205
-0.069156
-0.121682
-0.150260
-0.164721
-0.191920
-0.202676
-0.184859
-0.158215
-0.099081
-0.047118
0.009385
0.057526
0.094826
0.114454
0.126581
0.127065
0.113110
0.072811
0.028238
-0.024310
-0.070944
-0.120773
-0.138555
-0.160114
-0.164366
-0.173254
-0.169140
-0.135950
-0.099065
-0.049175
0.010761
0.047995
0.078854
0.105317
0.098619
0.098154
0.093215
0.071844
0.022362
-0.019892
-0.071695
-0.112461
-0.146773
-0.174478
-0.185228
-0.185941
-0.172600
-0.150750
-0.124099
-0.066343
0.022829
0.068702
0.085359
0.092809
0.105667
0.110407
0.085785
0.082731
0.075610
0.037791
0.007006
-0.024510
-0.038598
-0.040746
-0.025065
-0.017036
0.023671
0.078134
0.131630
0.178537
0.235206
0.306215
0.373117
0.436353
0.468175
0.487952
0.492378
0.506348
0.496191
0.509588
0.483983
0.462562
0.475131
0.503425
0.548729
0.590192
0.658546
0.739477
0.815134
0.860595
0.878242
0.902876
0.929378
0.924438
0.907944
0.869429
0.815383
0.726646
0.592878
0.497564
0.381083
0.259177
0.177631
0.100038
0.047589
0.029325
0.039098
0.075676
0.117835
0.158711
0.189762
0.230983
0.258112
0.280652
0.287866
0.255633
0.213011
0.188758
0.141132
0.072750
0.019478
-0.021435
-0.055922
-0.063897
-0.104228
-0.105428
-0.102384
-0.086459
-0.028112
0.022623
0.073794
0.101939
0.147546
0.185398
0.209408
0.194036
0.165403
0.127838
0.098673
0.058681
0.020538
-0.058196
-0.118166
-0.134592
-0.130435
-0.132609
-0.119571
-0.093869
-0.052274
-0.018301
0.027989
0.062616
0.113152
0.143333
0.172999
0.178146
0.147090
0.109645
0.074559
0.040802
0.007619
-0.012124
-0.061228
-0.092499
-0.091020
-0.091707
-0.077390
-0.055369
-0.032286
-0.002063
0.041130
0.107975
0.134129
0.159721
0.159874
0.158957
0.144240
0.106222
0.068551
0.023861
-0.010882
-0.030014
-0.050645
-0.068604
-0.090129
-0.094426
-0.069098
-0.035515
-0.007301
0.035496
0.071650
0.115451
0.141588
0.163025
0.180758
0.181997
0.151056
0.109852
0.067681
0.037721
0.028377
-0.018675
-0.067096
-0.089054
-0.083159
-0.077278
-0.046836
-0.005534
0.039359
0.094272
0.132372
0.172141
0.203347
0.220056
0.234879
0.227068
0.195307
0.147774
0.102646
0.055693
0.017007
-0.024482
-0.055579
-0.073412
-0.062290
-0.056055
-0.019262
0.017731
0.057061
0.102871
0.162011
0.212483
0.257417
0.270494
0.283188
0.280519
0.256158
0.230306
0.175530
0.111680
0.058035
0.003164
-0.021490
-0.038247
-0.048889
-0.054281
-0.036040
-0.003995
0.036877
0.099478
0.167763
0.221276
0.262938
0.288586
0.274538
0.308461
0.289919
0.248020
0.211377
0.162620
0.118758
0.060552
0.017207
-0.001770
-0.018754
-0.006536
0.005849
0.029666
0.060346
0.113022
0.160350
0.211711
0.236544
0.262896
0.283037
0.274968
0.253936
0.230242
0.188901
0.146698
0.105524
0.053186
0.012543
0.001335
-0.007138
0.001526
0.022404
0.019417
0.036746
0.079849
0.132573
0.180300
0.210852
0.222328
0.227657
0.226390
0.203609
0.171477
0.131818
0.091995
0.045312
0.008644
-0.022970
-0.051747
-0.049284
-0.032441
-0.029470
-0.006311
0.042873
0.086778
0.114816
0.138057
0.180842
0.205096
0.208582
0.183113
0.151208
0.124621
0.090985
0.043191
-0.000229
-0.040079
-0.062630
-0.079993
-0.094965
-0.092989
-0.068603
-0.032568
0.006475
0.057503
0.077516
0.133653
0.152982
0.182094
0.200121
0.191462
0.140127
0.081851
0.046958
-0.013799
-0.044906
-0.098339
-0.121868
-0.124552
-0.148923
-0.142812
-0.110537
-0.072373
-0.022342
0.022605
0.070693
0.118907
0.149335
0.164165
0.177113
0.177579
0.149399
0.102065
0.052321
0.008975
-0.036384
-0.084761
-0.127701
-0.162272
-0.171890
-0.169977
-0.174165
-0.124909
-0.056074
-0.005128
0.035464
0.074689
0.124688
0.142868
0.156013
0.151486
0.156801
0.122841
0.062286
0.023701
-0.009445
-0.080477
-0.138381
-0.145879
-0.132344
-0.157682
-0.108173
-0.077877
-0.003103
0.043223
0.070766
0.082693
0.120851
0.145681
0.162450
0.154012
0.137383
0.111623
0.069317
0.026947
-0.015469
-0.050439
-0.077937
-0.095908
-0.109019
-0.108045
-0.086494
-0.066337
-0.026460
0.015675
0.055088
0.089295
0.110286
0.133819
0.143695
0.141572
0.118601
0.094536
0.043941
0.005743
-0.024084
-0.055463
-0.082288
-0.105214
-0.117222
-0.110219
-0.085931
-0.045156
-0.000955
0.036102
0.071309
0.111135
0.140868
0.144090
0.157492
0.151723
0.130263
0.089074
0.047342
0.001479
-0.050446
-0.088845
-0.117696
-0.123439
-0.128518
-0.115934
-0.099682
-0.061452
-0.014361
0.038729
0.093447
0.135813
0.167093
0.182995
0.181825
0.172562
0.155786
0.100065
0.046297
-0.011179
-0.048614
-0.091469
-0.119750
-0.137815
-0.160179
-0.156965
-0.119629
-0.084366
-0.038873
0.016697
0.064029
0.130004
0.156263
0.165392
0.155533
0.173549
0.158088
0.123354
0.088270
0.038289
-0.017380
-0.064750
-0.108759
-0.130877
-0.153870
-0.142913
-0.119268
-0.094978
-0.050916
-0.006277
0.037222
0.080509
0.115833
0.142119
0.163593
0.160024
0.149863
0.117787
0.084710
0.038342
-0.010132
-0.063051
-0.102681
-0.117814
-0.133006
-0.132642
-0.118268
-0.082654
-0.039876
-0.003597
0.033200
0.068141
0.100703
0.110583
0.137400
0.124634
0.120603
0.092541
0.051539
0.012350
-0.028349
-0.062655
-0.093436
-0.111533
-0.127285
-0.122040
-0.106423
-0.067116
-0.030287
0.010028
0.040331
0.072457
0.093602
0.101568
0.115465
0.127519
0.111631
0.081576
0.037015
-0.009815
-0.037736
-0.081361
-0.124915
-0.132535
-0.138032
-0.132685
-0.118914
-0.050470
-0.020954
0.017820
0.069317
0.108778
0.136356
0.151296
0.151140
0.139076
0.115208
0.069716
0.028736
-0.027010
-0.077503
-0.108784
-0.126023
-0.153026
-0.167478
-0.157948
-0.136631
-0.092332
-0.037315
0.003593
0.046087
0.094407
0.133635
0.156257
0.169291
0.150250
0.122390
0.080320
0.047719
0.018286
-0.046425
-0.101088
-0.122324
-0.160763
-0.154274
-0.140869
-0.140495
-0.111624
-0.052746
-0.010999
0.027722
0.078127
0.110626
0.137298
0.153813
0.141331
0.109364
0.081609
0.059487
0.011418
-0.029708
-0.068763
-0.095132
-0.117400
-0.137882
-0.139711
-0.121729
-0.096893
-0.052425
-0.010367
0.038743
0.073163
0.107697
0.141026
0.159433
0.145181
0.134815
0.096656
0.074507
0.051948
0.000732
-0.046802
-0.103233
-0.091523
-0.062362
-0.067230
-0.067957
-0.057233
-0.019610
0.032850
0.074963
0.129736
0.154588
0.166502
0.169106
0.145974
0.121702
0.089090
0.053171
0.004910
-0.037362
-0.053335
-0.093966
-0.102585
-0.106976
-0.097854
-0.068578
-0.034602
0.022273
0.084678
0.126155
0.158711
0.198867
0.203215
0.205553
0.192071
0.161534
0.116107
0.081520
0.033800
-0.013372
-0.057053
-0.090415
-0.119821
-0.119619
-0.115875
-0.096801
-0.054514
-0.025319
0.032726
0.070734
0.114286
0.147903
0.164398
0.172775
0.174302
0.143079
0.098818
0.063024
0.012986
-0.035079
-0.088713
-0.133540
-0.157473
-0.168611
-0.157447
-0.138917
-0.099276
-0.057969
-0.020588
0.027872
0.068078
0.107091
0.132579
0.138684
0.125748
0.118347
0.093480
0.047439
-0.013808
-0.062435
-0.088332
-0.134439
-0.177489
-0.190824
-0.176562
-0.171068
-0.157713
-0.081135
-0.033764
0.011951
0.062272
0.083182
0.101988
0.113943
0.103663
0.098086
0.075092
0.045717
-0.001096
-0.045461
-0.093528
-0.125366
-0.147615
-0.159338
-0.151972
-0.127138
-0.111348
-0.085572
-0.040219
0.006257
0.044906
0.078078
0.084555
0.089176
0.087993
0.078589
0.049684
0.008908
-0.023519
-0.061039
-0.100397
-0.133392
-0.149252
-0.148073
-0.151174
-0.140276
-0.109051
-0.063947
-0.022180
0.011720
0.057724
0.080181
0.106369
0.087737
0.077957
0.058081
0.030539
-0.020337
-0.067695
-0.096541
-0.125124
-0.160459
-0.179768
-0.183484
-0.167301
-0.145636
-0.113201
-0.065968
-0.015534
0.023150
0.062660
0.093779
0.134376
0.154840
0.154310
0.131581
0.104986
0.080142
0.052677
0.011776
-0.006960
-0.030819
-0.034504
-0.021117
0.006282
0.052156
0.116435
0.196241
0.273093
0.357635
0.445259
0.510324
0.566309
0.614083
0.645029
0.652690
0.643038
0.641736
0.653925
0.665014
0.648425
0.621069
0.615828
0.642959
0.668893
0.679902
0.705848
0.753701
0.764917
0.805291
0.827812
0.843321
0.834571
0.774742
0.710605
0.622491
0.528298
0.427504
0.328952
0.223574
0.136265
0.079564
0.027036
0.001093
0.005810
0.008074
0.042519
0.064866
0.097453
0.140446
0.171668
0.192438
0.208245
0.208057
0.209693
0.207103
0.170958
0.126642
0.084253
0.030433
-0.007211
-0.047993
-0.072975
-0.081511
-0.085033
-0.070459
-0.049787
-0.016142
0.035880
0.066323
0.094466
0.125560
0.152142
0.144910
0.136594
0.124831
0.086679
0.054589
0.014872
-0.024313
-0.065134
-0.095920
-0.110030
-0.118320
-0.107695
-0.084691
-0.046586
-0.019766
0.025975
0.067813
0.098557
0.140260
0.155661
0.152857
0.150597
0.115366
0.094011
0.051288
0.001325
-0.032578
-0.065534
-0.096271
-0.117073
-0.117479
-0.103381
-0.085398
-0.058784
0.001904
0.041306
0.089306
0.104368
0.130956
0.150786
0.177666
0.175067
0.136142
0.106731
0.063019
0.017790
-0.032688
-0.060514
-0.089285
-0.130940
-0.128654
-0.116783
-0.086551
-0.036450
0.005926
0.039524
0.082834
0.136654
0.193313
0.202672
0.198968
0.189034
0.170257
0.146437
0.106988
0.054939
0.008992
-0.018587
-0.067168
-0.108098
-0.115941
-0.103015
-0.067444
-0.041240
0.004551
0.057971
0.112973
0.156001
0.196469
0.230202
0.235241
0.237143
0.212408
0.193472
0.151339
0.097533
0.055565
0.015146
-0.035180
-0.070241
-0.083201
-0.052086
-0.048322
-0.016892
-0.000633
0.096281
0.146298
0.159276
0.192985
0.228397
0.250876
0.256191
0.243042
0.229604
0.193882
0.151768
0.104582
0.061635
0.031928
-0.001685
-0.013811
-0.004757
0.008627
0.034315
0.079035
0.116244
0.156762
0.191526
0.223522
0.252034
0.260992
0.254821
0.223281
0.198400
0.162850
0.134017
0.097117
0.064862
0.019818
0.000789
0.017354
0.018857
0.020381
0.043972
0.080321
0.131864
0.179516
0.213918
0.243601
0.261876
0.253833
0.244316
0.221968
0.191251
0.157062
0.117469
0.066776
0.029176
-0.004811
-0.020544
-0.024605
-0.019334
0.003191
0.036973
0.066406
0.122174
0.165328
0.207158
0.234604
0.249535
0.241831
0.234508
0.204533
0.161757
0.121492
0.062942
0.008882
-0.041267
-0.070616
-0.091091
-0.113176
-0.096754
-0.066459
-0.025314
0.033343
0.062877
0.114284
0.160183
0.192828
0.229481
0.259688
0.226532
0.185648
0.148373
0.093134
0.039437
-0.009663
-0.054005
-0.097191
-0.131302
-0.125094
-0.121292
-0.098501
-0.061656
-0.030530
0.017524
0.058673
0.110586
0.139345
0.163830
0.174481
0.177946
0.142075
0.103880
0.050640
0.004931
-0.059713
-0.078352
-0.100258
-0.122380
-0.114956
-0.141473
-0.131313
-0.102125
-0.060007
-0.021045
0.025155
0.060750
0.085300
0.118881
0.136633
0.142126
0.131466
0.100016
0.060624
0.025340
-0.026297
-0.065558
-0.098039
-0.127807
-0.141087
-0.125773
-0.126935
-0.107575
-0.069230
-0.031883
0.016286
0.081629
0.099202
0.106380
0.098735
0.116516
0.100572
0.068184
0.029528
-0.008169
-0.056232
-0.091708
-0.118584
-0.133733
-0.146691
-0.127041
-0.113662
-0.077331
-0.041178
0.002487
0.042828
0.072132
0.106492
0.123181
0.127280
0.114597
0.068414
0.031765
0.004996
-0.027697
-0.051357
-0.064158
-0.107682
-0.137050
-0.146890
-0.141538
-0.117231
-0.079634
-0.041294
0.002103
0.051332
0.093051
0.178278
0.215026
0.181345
0.154906
0.129999
0.103656
0.050750
-0.023413
-0.078518
-0.096106
-0.135355
-0.155313
-0.157296
-0.158261
-0.130767
-0.086739
-0.044526
0.006914
0.061486
0.110552
0.134442
0.144366
0.159897
0.151381
0.131576
0.092063
0.054994
0.003286
-0.060842
-0.103116
-0.114874
-0.130288
-0.161268
-0.154928
-0.130495
-0.105150
-0.057847
-0.007201
0.039167
0.091533
0.134223
0.155798
0.167601
0.165542
0.128827
0.094952
0.058788
0.021384
-0.013517
-0.070402
-0.109896
-0.131528
-0.161078
-0.172731
-0.132911
-0.105203
-0.076061
-0.024123
0.024841
0.063158
0.087160
0.116677
0.127437
0.124673
0.110987
0.073889
0.025612
-0.022420
-0.011719
-0.046497
-0.084216
-0.118632
-0.125459
-0.130511
-0.117212
-0.095526
-0.059642
-0.018915
0.026336
0.058712
0.073025
0.083315
0.107053
0.105520
0.091984
0.071237
0.042587
-0.006196
-0.053950
-0.092800
-0.113338
-0.149313
-0.167458
-0.117745
-0.067746
-0.048422
-0.009561
0.020538
0.037379
0.069119
0.091902
0.101993
0.107940
0.098446
0.067744
0.054132
0.013758
-0.041530
-0.086707
-0.118677
-0.147798
-0.158796
-0.165764
-0.154875
-0.133266
-0.100397
-0.047472
0.004791
0.057086
0.088166
0.114521
0.122471
0.120649
0.118358
0.097873
0.067082
0.013780
-0.039542
-0.104001
-0.146459
-0.177065
-0.192142
-0.189579
-0.163006
-0.136456
-0.113320
-0.070458
-0.016957
0.031110
0.076690
0.104450
0.131333
0.144012
0.134018
0.105759
0.072241
0.021523
-0.027582
-0.081591
-0.134515
-0.168010
-0.193260
-0.199542
-0.187776
-0.166595
-0.126019
-0.077379
-0.028178
0.001089
0.050774
0.101244
0.117597
0.132981
0.124222
0.101031
0.066953
0.015904
-0.033697
-0.089180
-0.140394
-0.173403
-0.207849
-0.181926
-0.159316
-0.139170
-0.118452
-0.090263
-0.032516
0.007975
0.048905
0.085638
0.103596
0.113750
0.111148
0.089136
0.075331
0.031359
-0.011868
-0.060274
-0.072237
-0.088362
-0.124792
-0.155367
-0.160629
-0.142940
-0.108876
-0.072007
-0.029144
0.018095
0.055723
0.089020
0.120425
0.144076
0.134287
0.120032
0.097792
0.066618
0.030107
-0.021578
-0.053098
-0.093183
-0.132437
-0.128442
-0.103440
-0.095069
-0.072286
-0.032311
0.012609
0.046703
0.079414
0.093476
0.116322
0.112367
0.118692
0.113053
0.078300
0.045372
-0.002951
-0.044744
-0.069861
-0.077271
-0.094193
-0.111188
-0.108968
-0.081633
-0.042959
0.007015
0.046805
0.084001
0.115467
0.142269
0.154146
0.155577
0.147797
0.116153
0.072687
0.017072
-0.023436
-0.070799
-0.109455
-0.133190
-0.161426
-0.177385
-0.159365
-0.124583
-0.101914
-0.064189
0.004571
0.063622
0.098521
0.115685
0.128509
0.137571
0.129589
0.086452
0.040587
0.024664
-0.019646
-0.087933
-0.141970
-0.172988
-0.195009
-0.205506
-0.189004
-0.173137
-0.165549
-0.099642
-0.041785
0.013321
0.044656
0.074477
0.101963
0.121847
0.110733
0.097480
0.067911
0.022257
-0.034436
-0.095536
-0.136920
-0.176659
-0.202269
-0.224682
-0.210454
-0.203638
-0.175201
-0.127043
-0.080349
-0.024675
0.028420
0.064622
0.088201
0.088605
0.088336
0.066783
0.048099
0.018643
-0.024918
-0.085154
-0.132675
-0.172797
-0.189928
-0.202684
-0.190851
-0.181425
-0.154195
-0.123500
-0.079803
-0.038891
0.001250
0.041319
0.061297
0.070130
0.072290
0.059669
0.027937
-0.017900
-0.061941
-0.088684
-0.140162
-0.164732
-0.181587
-0.186442
-0.187779
-0.178235
-0.152590
-0.107333
-0.057538
-0.015711
0.002969
0.031853
0.050439
0.045574
0.036471
0.025434
0.004851
-0.031455
-0.084282
-0.127518
-0.152570
-0.170568
-0.197903
-0.173823
-0.150462
-0.146987
-0.116040
-0.048353
-0.000846
0.036620
0.087756
0.130912
0.154898
0.177194
0.185270
0.170519
0.147743
0.134834
0.117822
0.101085
0.081998
0.082383
0.090825
0.114068
0.160753
0.226468
0.302616
0.391348
0.472574
0.547032
0.612315
0.672332
0.727026
0.779633
0.804884
0.808286
0.802174
0.792709
0.752627
0.686527
0.636055
0.609510
0.570604
0.550421
0.546421
0.540544
0.543389
0.520506
0.510171
0.501522
0.481542
0.464563
0.419799
0.374605
0.325022
0.289578
0.236346
0.171813
0.111492
0.074185
0.009201
-0.048966
-0.080264
-0.095643
-0.105667
-0.104686
-0.070091
-0.016979
0.022452
0.068246
0.120120
0.163168
0.175824
0.181774
0.174922
0.158157
0.125235
0.077086
0.016845
-0.027719
-0.078056
-0.116765
-0.149103
-0.162820
-0.150815
-0.127688
-0.109189
-0.073658
-0.016476
0.026910
0.063485
0.095841
0.119729
0.137772
0.131625
0.122619
0.082539
0.048623
-0.004305
-0.044942
-0.088525
-0.116571
-0.137090
-0.146815
-0.137583
-0.130539
-0.114419
-0.084163
-0.040193
0.015129
0.055169
0.083111
0.097458
0.109203
0.111897
0.098635
0.077139
0.038118
-0.005613
-0.060004
-0.081911
-0.110733
-0.134176
-0.145942
-0.126975
-0.089570
-0.057488
-0.037884
-0.022765
0.020221
0.058679
0.109443
0.131915
0.129263
0.115825
0.101043
0.072805
0.038490
-0.001438
-0.040283
-0.077790
-0.114299
-0.127359
-0.123792
-0.115170
-0.083812
-0.056870
-0.021520
0.026007
0.074875
0.112505
0.146825
0.159431
0.162234
0.152876
0.126036
0.086413
0.046255
0.000367
-0.044388
-0.080869
-0.108093
-0.111966
-0.112260
-0.089548
-0.063568
-0.031932
0.008844
0.053000
0.131064
0.163388
0.195452
0.208631
0.208949
0.200155
0.177254
0.140243
0.102563
0.073858
0.022018
-0.016001
-0.070096
-0.096552
-0.083858
-0.064374
-0.037708
-0.022771
0.025660
0.077069
0.139567
0.182365
0.215821
0.242664
0.252064
0.243431
0.222563
0.181841
0.129577
0.084862
0.042588
-0.008783
-0.043874
-0.062500
-0.073285
-0.075755
-0.031546
0.006035
0.044007
0.081832
0.135644
0.186552
0.232624
0.261973
0.265925
0.268981
0.238138
0.200234
0.143270
0.102610
0.049931
0.004085
-0.048480
-0.061711
-0.078772
-0.063938
-0.010849
0.007655
0.020522
0.047812
0.112645
0.173409
0.215675
0.237918
0.245231
0.226837
0.212588
0.180110
0.147581
0.107004
0.054903
0.015366
-0.026206
-0.057793
-0.068666
-0.067446
-0.058133
-0.037520
0.014711
0.059705
0.092474
0.128722
0.157956
0.167986
0.185546
0.173273
0.163032
0.128078
0.095482
0.055227
0.012372
-0.023520
-0.066215
-0.095450
-0.091996
-0.095606
-0.083047
-0.062364
-0.029979
0.019127
0.055275
0.091455
0.118224
0.127497
0.134028
0.123437
0.099915
0.066656
0.024063
-0.023185
-0.054581
-0.087064
-0.114477
-0.129147
-0.143222
-0.130645
-0.103985
-0.066145
-0.038565
-0.007071
0.028529
0.056749
0.082675
0.102318
0.104788
0.095452
0.061909
0.014655
-0.026723
-0.069142
-0.110611
-0.139052
-0.162415
-0.167700
-0.186842
-0.180739
-0.180989
-0.136546
-0.035992
0.001393
0.059066
0.115586
0.122097
0.120541
0.109356
0.115027
0.101419
0.049865
-0.005815
-0.053725
-0.105710
-0.147868
-0.174669
-0.200094
-0.204584
-0.193870
-0.164995
-0.128970
-0.065986
-0.024700
0.023254
0.065189
0.097140
0.119186
0.137656
0.124242
0.095947
0.056387
0.001939
-0.041662
-0.098552
-0.135394
-0.175475
-0.189710
-0.185829
-0.189224
-0.167791
-0.134537
-0.094552
-0.041369
0.011658
0.063083
0.106334
0.117489
0.114555
0.106397
0.094110
0.064808
0.027712
-0.033308
-0.079907
-0.113520
-0.150131
-0.160180
-0.187789
-0.192492
-0.154469
-0.128924
-0.094455
-0.048166
-0.001053
0.034662
0.088780
0.105324
0.117666
0.111972
0.086478
0.069734
0.028559
0.003925
-0.060412
-0.109427
-0.125941
-0.157040
-0.171737
-0.150061
-0.137898
-0.123369
-0.081997
-0.045730
-0.010069
0.033575
0.062507
0.088967
0.099694
0.088177
0.078552
0.053017
0.024047
-0.014345
-0.060890
-0.098547
-0.131305
-0.144088
-0.144929
-0.144209
-0.123773
-0.094779
-0.062588
-0.013050
0.015724
0.059115
0.081876
0.092065
0.095738
0.079372
0.053529
0.024226
-0.011144
-0.050692
-0.084199
-0.111502
-0.149136
-0.159145
-0.166646
-0.162353
-0.133154
-0.104192
-0.065090
-0.015697
0.027821
0.059958
0.087034
0.099596
0.104533
0.094287
0.060375
0.036395
-0.006990
-0.045486
-0.099383
-0.137670
-0.173846
-0.193121
-0.194408
-0.188485
-0.162565
-0.120303
-0.067623
-0.023255
0.022825
0.063704
0.097550
0.127390
0.132929
0.116854
0.093595
0.066290
0.000774
-0.061924
-0.131727
-0.177139
-0.177551
-0.196614
-0.197845
-0.182604
-0.186942
-0.148405
-0.101635
-0.068146
-0.009033
0.037762
0.071612
0.103976
0.116160
0.125052
0.102627
0.052209
0.011807
-0.030718
-0.076748
-0.121157
-0.167559
-0.199130
-0.183343
-0.171627
-0.172630
-0.168717
-0.133353
-0.062932
0.000291
0.039134
0.056345
0.066918
0.074080
0.103065
0.082310
0.057458
0.025433
-0.031618
-0.073489
-0.115657
-0.162289
-0.187587
-0.189565
-0.181041
-0.160023
-0.136654
-0.112454
-0.064090
0.000794
0.033926
0.062416
0.073676
0.081902
0.080173
0.062594
0.045262
-0.007328
-0.048008
-0.088553
-0.125595
-0.159407
-0.168965
-0.183804
-0.176493
-0.157962
-0.141879
-0.092198
-0.046643
-0.015752
0.017814
0.045822
0.064343
0.078486
0.055346
0.041381
0.009311
-0.033239
-0.077911
-0.114069
-0.143446
-0.172924
-0.181570
-0.187121
-0.184619
-0.161059
-0.129466
-0.083983
-0.038654
-0.003156
0.031383
0.072541
0.084482
0.085496
0.073143
0.042509
-0.006735
-0.017558
-0.058739
-0.110755
-0.159586
-0.188357
-0.204990
-0.213095
-0.189676
-0.154001
-0.121305
-0.074663
-0.031218
0.024242
0.056524
0.078707
0.099589
0.096312
0.100563
0.065869
0.034428
-0.027543
-0.073225
-0.121039
-0.157822
-0.188490
-0.202640
-0.221280
-0.211455
-0.196737
-0.152404
-0.107633
-0.047866
0.016989
0.067038
0.103426
0.136676
0.145387
0.139409
0.116053
0.087483
0.045788
-0.017756
-0.062466
-0.090839
-0.136007
-0.159230
-0.176352
-0.196953
-0.155398
-0.130956
-0.089047
-0.024230
0.020496
0.058490
0.080927
0.096546
0.122134
0.134285
0.120767
0.097717
0.056995
0.008138
-0.042107
-0.085097
-0.112930
-0.140863
-0.162307
-0.157842
-0.139368
-0.110582
-0.064045
-0.026163
0.030670
0.069292
0.086366
0.105245
0.150404
0.137955
0.122295
0.084426
0.036168
-0.003200
-0.052250
-0.098373
-0.124535
-0.149153
-0.154024
-0.149922
-0.131728
-0.110768
-0.081900
-0.038656
-0.004326
0.032095
0.058728
0.072106
0.079551
0.084387
0.061246
0.032731
-0.017675
-0.068628
-0.097769
-0.144983
-0.174292
-0.199588
-0.169815
-0.162264
-0.149305
-0.115485
-0.079109
-0.051969
-0.013984
0.009740
0.035808
0.045282
0.063795
0.049481
0.026818
0.007282
-0.038208
-0.096857
-0.143484
-0.185387
-0.222592
-0.225350
-0.225837
-0.225348
-0.205518
-0.151692
-0.097197
-0.054304
-0.007646
0.034288
0.063120
0.082250
0.080002
0.075932
0.047594
0.005794
-0.037395
-0.095126
-0.153214
-0.199505
-0.226231
-0.247868
-0.245454
-0.234362
-0.198011
-0.164866
-0.118497
-0.083661
-0.033315
0.018292
0.069136
0.084554
0.116361
0.102425
0.068660
0.035424
0.003088
-0.050684
-0.115570
-0.174379
-0.215124
-0.243537
-0.249289
-0.241665
-0.214508
-0.182890
-0.127933
-0.082492
-0.041419
0.009611
0.048649
0.073768
0.085233
0.074845
0.060742
0.029480
-0.019906
-0.082862
-0.131398
-0.166347
-0.203187
-0.231530
-0.243286
-0.239202
-0.230531
-0.187647
-0.141364
-0.088120
-0.024754
0.039612
0.085013
0.112991
0.141191
0.160962
0.153654
0.140838
0.119416
0.093600
0.048286
0.022425
0.016104
0.014797
0.042111
0.073295
0.110359
0.167404
0.238766
0.315274
0.394269
0.470153
0.541322
0.592033
0.629117
0.652858
0.686869
0.695837
0.694460
0.679275
0.670831
0.663562
0.632844
0.617520
0.638516
0.624854
0.606390
0.606584
0.622337
0.634459
0.620637
0.594722
0.555549
0.501915
0.457903
0.396443
0.336129
0.246653
0.173663
0.112383
0.061731
0.001860
-0.041208
-0.043853
-0.054821
-0.070139
-0.060168
-0.028941
0.012820
0.058052
0.091692
0.127518
0.155247
0.164352
0.164599
0.155083
0.128830
0.100829
0.044365
-0.004008
-0.065809
-0.113499
-0.150841
-0.174295
-0.176693
-0.169883
-0.152987
-0.102055
-0.066306
-0.020140
0.042527
0.083889
0.135498
0.168296
0.155902
0.139101
0.113422
0.073977
0.027398
-0.024637
-0.082545
-0.127891
-0.158685
-0.187675
-0.188668
-0.195649
-0.168616
-0.132374
-0.091696
-0.047663
0.000856
0.058452
0.095714
0.103353
0.110267
0.131448
0.118216
0.075247
0.026938
-0.012084
-0.061328
-0.109442
-0.141097
-0.166845
-0.177410
-0.179739
-0.148033
-0.102078
-0.073546
-0.032212
0.004884
0.050561
0.089712
0.113755
0.131705
0.121328
0.109930
0.083279
0.064732
0.019846
-0.028225
-0.074674
-0.110620
-0.125189
-0.125660
-0.127988
-0.112757
-0.085576
-0.039317
-0.007206
0.038444
0.072280
0.104315
0.131604
0.121036
0.123370
0.111416
0.076156
0.043499
0.007000
-0.025753
-0.062838
-0.090596
-0.105337
-0.090202
-0.085066
-0.073567
-0.037654
-0.001625
0.030716
0.082727
0.115499
0.144629
0.163591
0.168194
0.151012
0.140541
0.109625
0.059665
0.025193
-0.010185
-0.039592
-0.058520
-0.077139
-0.077660
-0.076572
-0.060675
-0.009202
0.040688
0.092860
0.134477
0.175072
0.199977
0.230058
0.219892
0.211765
0.184344
0.149437
0.118314
0.056958
0.000401
-0.039512
-0.061414
-0.076756
-0.068185
-0.062247
-0.028270
0.013174
0.047293
0.108905
0.162438
0.196881
0.220623
0.252673
0.252345
0.248859
0.231254
0.191508
0.151658
0.086542
0.040611
-0.019383
-0.062080
-0.085610
-0.095821
-0.077328
-0.046405
0.003187
0.038681
0.088761
0.146773
0.181056
0.215226
0.239264
0.236141
0.245894
0.227123
0.186832
0.134835
0.094177
0.037989
-0.010274
-0.059101
-0.104926
-0.092338
-0.065668
-0.062031
-0.041804
-0.011152
0.034289
0.082691
0.134783
0.166121
0.190600
0.190682
0.188897
0.181697
0.143952
0.101409
0.054773
0.015839
-0.033996
-0.075108
-0.107977
-0.098435
-0.093254
-0.094566
-0.070744
-0.038943
0.017697
0.054313
0.080635
0.115255
0.127846
0.139376
0.125701
0.105601
0.072723
0.043831
0.005014
-0.052377
-0.088616
-0.115153
-0.130487
-0.136366
-0.131423
-0.111199
-0.096699
-0.061161
-0.012724
0.019691
0.052760
0.068069
0.090191
0.100660
0.095862
0.073951
0.031703
0.000660
-0.048846
-0.092225
-0.134820
-0.162545
-0.189329
-0.190598
-0.162625
-0.138667
-0.108633
-0.067441
-0.022844
0.025813
0.065106
0.087922
0.112207
0.102692
0.091827
0.065418
0.031392
-0.014664
-0.064148
-0.110613
-0.162709
-0.181749
-0.207202
-0.195820
-0.184164
-0.170801
-0.132612
-0.077457
-0.023188
0.021261
0.061332
0.078105
0.101550
0.109800
0.107535
0.068212
0.028857
-0.005061
-0.060594
-0.093471
-0.125618
-0.158671
-0.202275
-0.211795
-0.196959
-0.172411
-0.136239
-0.099206
-0.052294
0.002916
0.051967
0.096167
0.122535
0.129347
0.125514
0.093570
0.065741
0.028987
-0.011797
-0.075759
-0.122313
-0.169368
-0.200397
-0.224471
-0.221974
-0.175388
-0.141254
-0.101978
-0.021882
0.019020
0.054571
0.078383
0.132321
0.129948
0.126535
0.101759
0.068399
0.037553
-0.014488
-0.067230
-0.112772
-0.149376
-0.158989
-0.162732
-0.160741
-0.138792
-0.105340
-0.076299
-0.027221
0.007277
0.035655
0.060303
0.084618
0.096770
0.094106
0.079351
0.044816
0.015500
-0.039982
-0.068626
-0.087789
-0.117399
-0.146113
-0.161411
-0.159115
-0.132835
-0.096456
-0.076312
-0.039758
0.007142
0.047170
0.078063
0.093303
0.101291
0.099096
0.072683
0.034718
0.004721
-0.037191
-0.085010
-0.121882
-0.152917
-0.163724
-0.161720
-0.156106
-0.134028
-0.094641
-0.067632
-0.026253
0.027558
0.076383
0.092083
0.105940
0.106744
0.094911
0.065041
0.027562
-0.005098
-0.054722
-0.114114
-0.154911
-0.172908
-0.188445
-0.185120
-0.176709
-0.155880
-0.125335
-0.077897
-0.022579
0.021220
0.069472
0.104590
0.105216
0.105111
0.096969
0.075660
0.049764
0.010312
-0.058191
-0.112907
-0.155256
-0.180299
-0.199843
-0.210081
-0.196652
-0.170938
-0.138795
-0.095880
-0.043077
0.008534
0.052985
0.082802
0.104710
0.119476
0.116566
0.116471
0.066533
-0.004750
-0.064012
-0.110956
-0.142980
-0.181999
-0.209971
-0.213201
-0.202726
-0.184864
-0.156517
-0.108990
-0.061072
-0.019488
0.031718
0.081124
0.099755
0.128075
0.115163
0.087505
0.047493
0.001683
-0.052937
-0.095374
-0.141635
-0.176430
-0.201214
-0.210480
-0.197531
-0.187259
-0.166961
-0.122505
-0.084302
-0.040477
0.013086
0.058393
0.089220
0.111535
0.099781
0.085016
0.050846
0.018697
-0.032903
-0.075452
-0.128019
-0.158836
-0.176526
-0.209182
-0.201972
-0.178356
-0.158102
-0.119812
-0.064836
-0.016918
0.015030
0.047800
0.064555
0.074306
0.079600
0.065134
0.042737
-0.006633
-0.042073
-0.087445
-0.122612
-0.154718
-0.174565
-0.189039
-0.188530
-0.178606
-0.138664
-0.105566
-0.062503
-0.025436
0.004345
0.042050
0.052286
0.062469
0.046594
0.035427
0.020776
-0.032800
-0.074009
-0.095003
-0.133366
-0.173768
-0.189781
-0.174001
-0.157776
-0.137792
-0.112702
-0.094726
-0.050943
-0.000795
0.034864
0.047277
0.049525
0.056394
0.061531
0.045022
0.001868
-0.045483
-0.087656
-0.122709
-0.146194
-0.171445
-0.197909
-0.203979
-0.178934
-0.157407
-0.124719
-0.068416
-0.038047
0.003251
0.042072
0.084069
0.088755
0.098274
0.082397
0.067341
0.047691
-0.006873
-0.065207
-0.102742
-0.133022
-0.172490
-0.200313
-0.206531
-0.183675
-0.162478
-0.112816
-0.064770
-0.007705
0.048353
0.089075
0.124315
0.139866
0.145706
0.152496
0.126579
0.071221
0.024910
-0.027505
-0.074325
-0.128544
-0.169287
-0.192024
-0.196749
-0.184207
-0.160792
-0.122631
-0.067871
-0.019040
0.034360
0.080557
0.126764
0.147517
0.162519
0.156310
0.128748
0.098060
0.048676
0.009800
-0.047896
-0.100502
-0.145912
-0.163506
-0.165902
-0.153171
-0.130356
-0.105084
-0.072955
-0.020021
0.021590
0.066895
0.107901
0.121323
0.127544
0.125207
0.105218
0.081007
0.026172
-0.022214
-0.074429
-0.127296
-0.162376
-0.185088
-0.198485
-0.195331
-0.188362
-0.158794
-0.105721
-0.057476
-0.014563
0.020972
0.053782
0.079985
0.087557
0.081391
0.048273
0.026394
-0.010407
-0.058538
-0.096578
-0.142652
-0.178724
-0.203798
-0.214910
-0.201406
-0.196963
-0.160904
-0.131459
-0.092041
-0.053071
-0.002229
0.031540
0.046129
0.055389
0.036698
0.023605
-0.011573
-0.049773
-0.081461
-0.114442
-0.154743
-0.187105
-0.202448
-0.191411
-0.188617
-0.180102
-0.164916
-0.121630
-0.081523
-0.037725
-0.000721
0.021578
0.035491
0.047157
0.037700
0.014588
-0.023534
-0.048934
-0.088583
-0.137086
-0.167934
-0.199960
-0.217110
-0.209568
-0.194252
-0.171043
-0.151402
-0.123019
-0.073088
-0.031730
0.020669
0.046905
0.065013
0.057615
0.041471
0.011248
-0.032012
-0.055002
-0.103612
-0.151187
-0.195804
-0.222786
-0.242053
-0.253462
-0.204341
-0.177789
-0.142370
-0.112626
-0.066371
-0.025016
0.016494
0.048415
0.065253
0.077986
0.058593
0.027872
0.008337
-0.026425
-0.061828
-0.100091
-0.139574
-0.161766
-0.159974
-0.154176
-0.122929
-0.072510
-0.032632
0.033917
0.104033
0.168453
0.235906
0.309141
0.363577
0.397590
0.417436
0.421493
0.427182
0.411732
0.399900
0.379015
0.369679
0.360931
0.378244
0.404946
0.441004
0.506265
0.580067
0.648453
0.732644
0.782396
0.817796
0.850400
0.860520
0.862165
0.827048
0.785005
0.726853
0.638490
0.516751
0.397834
0.287183
0.198259
0.129428
0.067510
0.003528
-0.013262
0.016791
0.058812
0.083473
0.129070
0.158598
0.178573
0.185932
0.196960
0.180286
0.156915
0.119335
0.081142
0.045137
0.003326
-0.035294
-0.091768
-0.121493
-0.138793
-0.124764
-0.107147
-0.075691
-0.054001
-0.028499
0.018265
0.062306
0.088221
0.110413
0.114471
0.098704
0.092200
0.057794
0.015541
-0.034248
-0.065143
-0.103150
-0.134822
-0.150751
-0.164353
-0.153992
-0.134982
-0.112850
-0.067152
-0.020317
0.030081
0.059119
0.100717
0.114941
0.088254
0.083694
0.065096
0.041775
-0.007313
-0.068162
-0.097255
-0.127321
-0.166739
-0.190252
-0.178686
-0.152241
-0.119272
-0.075389
-0.040263
0.001869
0.053062
0.081068
0.112978
0.126042
0.139424
0.129266
0.108898
0.066364
0.016978
-0.024123
-0.083589
-0.122556
-0.159502
-0.187426
-0.186249
-0.167181
-0.145598
-0.099768
-0.056345
-0.004250
0.044921
0.109822
0.145547
0.169089
0.180164
0.152246
0.116327
0.099204
0.052229
0.005265
-0.045543
-0.085491
-0.131487
-0.143896
-0.154267
-0.151348
-0.126647
-0.082307
-0.040598
0.005068
0.063915
0.104752
0.152347
0.176788
0.195500
0.187046
0.165648
0.132711
0.092220
0.054465
0.005940
-0.040760
-0.088822
-0.113046
-0.134285
-0.124722
-0.095289
-0.054924
0.005469
0.050153
0.091006
0.124581
0.154523
0.184630
0.210321
0.208984
0.176289
0.155677
0.134035
0.086896
0.035198
0.013116
-0.023134
-0.042038
-0.038822
-0.031346
-0.014756
0.019834
0.060974
0.092195
0.127380
0.163196
0.189222
0.213031
0.222366
0.208912
0.188358
0.157653
0.132975
0.090713
0.043588
0.002526
-0.013106
-0.024938
-0.030294
-0.018785
0.005157
0.041712
0.083173
0.122949
0.153976
0.181882
0.202539
0.222246
0.237644
0.212272
0.189949
0.154781
0.105979
0.074801
0.020592
-0.017236
-0.051746
-0.065608
-0.066609
-0.064664
-0.028204
0.006074
0.055170
0.104982
0.144110
0.174726
0.218933
0.248383
0.241877
0.216633
0.205493
0.164843
0.109743
0.046813
-0.025110
-0.065571
-0.093046
-0.110576
-0.131817
-0.119178
-0.085518
-0.043549
0.007958
0.048500
0.092974
0.134866
0.165205
0.194809
0.200506
0.181781
0.153982
0.127730
0.073396
0.022166
-0.033107
-0.082165
-0.121361
-0.138896
-0.155010
-0.166239
-0.143396
-0.112810
-0.073247
-0.033792
0.010901
0.065824
0.109853
0.138958
0.148026
0.138958
0.121167
0.094547
0.042076
-0.003130
-0.045620
-0.096141
-0.131527
-0.158369
-0.162057
-0.162014
-0.146144
-0.123887
-0.087239
-0.055291
-0.006621
0.028184
0.065207
0.075873
0.082245
0.103287
0.090131
0.061993
0.021634
-0.033465
-0.066303
-0.108192
-0.145161
-0.164490
-0.175581
-0.164308
-0.147663
-0.111581
-0.076158
-0.036660
0.006713
0.035892
0.073239
0.089020
0.083955
0.073620
0.059881
0.017773
-0.008967
-0.062479
-0.105065
-0.131161
-0.158631
-0.177832
-0.177427
-0.165056
-0.134536
-0.100378
-0.050826
-0.018545
0.021840
0.065422
0.086035
0.103172
0.099597
0.087323
0.068893
0.029137
-0.020532
-0.065010
-0.100014
-0.141152
-0.171359
-0.185580
-0.177383
-0.175175
-0.141607
-0.108174
-0.047133
0.012443
0.056977
0.087234
0.103727
0.123036
0.152160
0.131271
0.093561
0.045996
0.014627
-0.047141
-0.104615
-0.132118
-0.153783
-0.186395
-0.200464
-0.199641
-0.167307
-0.128265
-0.085890
-0.015779
0.030387
0.064377
0.115103
0.131154
0.145213
0.138621
0.114006
0.079592
0.038234
0.000690
-0.062152
-0.122731
-0.145043
-0.163615
-0.190149
-0.182758
-0.151965
-0.119091
-0.080281
-0.035391
0.013843
0.057646
0.096597
0.117077
0.137713
0.133369
0.111606
0.091900
0.047125
0.008203
-0.043307
-0.105402
-0.151632
-0.170909
-0.175720
-0.172440
-0.136344
-0.114380
-0.072992
-0.034225
0.008503
0.045986
0.080505
0.099307
0.103793
0.108511
0.083280
0.050007
0.012600
-0.024548
-0.069415
-0.099199
-0.138047
-0.153104
-0.161827
-0.155024
-0.119413
-0.106748
-0.068534
-0.030053
0.008830
0.049875
0.089591
0.112048
0.097566
0.085361
0.058584
0.034358
-0.007519
-0.057867
-0.102594
-0.128665
-0.156680
-0.181270
-0.182902
-0.166070
-0.145195
-0.109141
-0.073798
-0.017150
0.029941
0.063010
0.086682
0.101211
0.109646
0.097883
0.068133
0.029331
-0.020049
-0.066258
-0.098027
-0.145542
-0.186738
-0.200232
-0.202902
-0.184621
-0.154946
-0.130477
-0.071243
-0.027247
0.019639
0.068477
0.097251
0.117018
0.128017
0.118999
0.081444
0.047154
0.000937
-0.032814
-0.107066
-0.148610
-0.176757
-0.221059
-0.228593
-0.213637
-0.176591
-0.143979
-0.106696
-0.053093
-0.001304
0.041057
0.079484
0.114996
0.124350
0.112269
0.090874
0.056640
0.014496
-0.013394
-0.063516
-0.109902
-0.150931
-0.191198
-0.196039
-0.201492
-0.182160
-0.154296
-0.114783
-0.058977
-0.031050
0.022144
0.053123
0.073480
0.077658
0.071960
0.074326
0.060707
0.014399
-0.040350
-0.089655
-0.119885
-0.139972
-0.168709
-0.181130
-0.184077
-0.164953
-0.130892
-0.091639
-0.049313
-0.023037
0.009629
0.046194
0.070718
0.080128
0.073084
0.053250
0.037432
-0.002439
-0.046257
-0.082177
-0.125468
-0.151572
-0.168594
-0.173733
-0.167379
-0.142880
-0.130759
-0.081873
-0.036318
-0.001034
0.039514
0.069165
0.090107
0.085782
0.074384
0.049946
0.014427
-0.029594
-0.079393
-0.112469
-0.152966
-0.180542
-0.198273
-0.191874
-0.185988
-0.153062
-0.127305
-0.073885
-0.033055
0.015942
0.051742
0.078360
0.092864
0.093682
0.073075
0.048015
0.000810
-0.044277
-0.083416
-0.112680
-0.160763
-0.187423
-0.198385
-0.205782
-0.189273
-0.156989
-0.128432
-0.077080
-0.024922
0.022821
0.070053
0.088596
0.114160
0.122658
0.105637
0.075907
0.041582
-0.002872
-0.056631
-0.103779
-0.149767
-0.179467
-0.203331
-0.208504
-0.187798
-0.173064
-0.141713
-0.090453
-0.007875
0.023477
0.059750
0.094524
0.114958
0.136687
0.131266
0.113197
0.080245
0.050741
0.002043
-0.050381
-0.092080
-0.139893
-0.162655
-0.172431
-0.171942
-0.141198
-0.108313
-0.063864
-0.022194
0.016797
0.059026
0.095240
0.124713
0.134792
0.139963
0.132058
0.106347
0.057529
0.018645
-0.028822
-0.077097
-0.096493
-0.124549
-0.135239
-0.132623
-0.113839
-0.081865
-0.056127
-0.012087
0.025440
0.071838
0.101700
0.117216
0.136813
0.125440
0.094821
0.082748
0.028050
-0.007879
-0.052632
-0.089489
-0.127253
-0.159755
-0.158864
-0.147116
-0.117253
-0.085893
-0.053491
-0.020283
0.013924
0.047439
0.067495
0.079856
0.098946
0.093630
0.060471
0.023236
-0.022961
-0.060738
-0.105076
-0.131765
-0.166784
-0.184562
-0.197258
-0.187263
-0.149578
-0.109674
-0.085679
-0.031744
-0.006851
0.034926
0.058783
0.082331
0.098262
0.083350
0.046205
-0.002721
-0.038273
-0.102031
-0.138428
-0.179005
-0.198173
-0.222999
-0.220160
-0.214211
-0.182575
-0.146012
-0.109373
-0.052762
-0.002872
0.037328
0.067905
0.094471
0.100865
0.074983
0.040266
0.011680
-0.028270
-0.090313
-0.145083
-0.185995
-0.201468
-0.216914
-0.241386
-0.240067
-0.208092
-0.163622
-0.124518
-0.070929
-0.019970
0.014956
0.043920
0.068495
0.092204
0.105693
0.075467
0.027766
-0.021351
-0.069569
-0.105029
-0.151296
-0.195255
-0.219053
-0.237555
-0.234235
-0.203076
-0.177146
-0.135607
-0.079137
-0.034514
-0.007157
0.053776
0.087094
0.080788
0.069542
0.059637
0.018698
-0.021831
-0.066539
-0.115282
-0.151978
-0.190468
-0.207642
-0.212587
-0.198271
-0.158555
-0.119711
-0.053315
-0.007270
0.044148
0.105427
0.157907
0.185805
0.204096
0.218149
0.219501
0.206021
0.201418
0.193571
0.182027
0.180038
0.175133
0.200496
0.219879
0.256128
0.307037
0.373081
0.431415
0.519375
0.589086
0.676172
0.731060
0.789096
0.823823
0.843143
0.833656
0.795701
0.753098
0.714008
0.664959
0.619875
0.564255
0.513244
0.492312
0.455660
0.407504
0.371710
0.356222
0.356929
0.340916
0.319658
0.294472
0.263982
0.263257
0.247281
0.210661
0.175899
0.120989
0.051755
0.001249
-0.051386
-0.084916
-0.110803
-0.115724
-0.106834
-0.088438
-0.045350
-0.001043
0.046315
0.084583
0.111432
0.149948
0.170327
0.164830
0.153936
0.131208
0.076118
0.039847
-0.005244
-0.058511
-0.112407
-0.148428
-0.171628
-0.177426
-0.166479
-0.149574
-0.107696
-0.049136
0.002808
0.044810
0.086266
0.119159
0.132989
0.148521
0.133722
0.101968
0.066391
0.018823
-0.036212
-0.065133
-0.113494
-0.137975
-0.152740
-0.170552
-0.186759
-0.160803
-0.121563
-0.086613
-0.043034
0.008178
0.044353
0.090318
0.130753
0.129624
0.134716
0.116664
0.080995
0.057899
-0.006441
-0.056926
-0.090655
-0.134284
-0.158344
-0.163021
-0.151296
-0.131013
-0.100671
-0.061772
-0.023518
0.020306
0.061450
0.101150
0.130528
0.134130
0.140598
0.121215
0.088853
0.056128
0.011519
-0.039017
-0.065241
-0.084936
-0.114344
-0.125446
-0.115454
-0.096890
-0.073030
-0.031920
0.020410
0.053825
0.092579
0.119475
0.153042
0.153218
0.147322
0.134497
0.098967
0.054965
0.016752
-0.031144
-0.053409
-0.079169
-0.093145
-0.088050
-0.082087
-0.066653
-0.033025
0.011227
0.060097
0.095905
0.140551
0.166655
0.195030
0.193204
0.180903
0.157181
0.121159
0.084494
0.046428
-0.001448
-0.036625
-0.070550
-0.080431
-0.084619
-0.054399
-0.020877
0.004983
0.051301
0.104274
0.149008
0.198683
0.229841
0.261169
0.255596
0.244895
0.210515
0.162009
0.122941
0.075473
0.019060
-0.026408
-0.052133
-0.072048
-0.070380
-0.063792
-0.042396
0.022046
0.075162
0.123902
0.172697
0.217335
0.244194
0.273924
0.280944
0.265707
0.243867
0.192631
0.136705
0.092749
0.024292
-0.018977
-0.050115
-0.080614
-0.106198
-0.088130
-0.031046
0.034037
0.053550
0.068473
0.141362
0.218158
0.248295
0.244335
0.248678
0.244455
0.229362
0.199673
0.152167
0.096995
0.028869
-0.009607
-0.051451
-0.080339
-0.088455
-0.085543
-0.068572
-0.028700
-0.005779
0.045701
0.096258
0.133276
0.167034
0.188644
0.194700
0.190894
0.175579
0.136949
0.104836
0.052388
0.000076
-0.034603
-0.075068
-0.110440
-0.110261
-0.101364
-0.089449
-0.064879
-0.028856
0.005586
0.055458
0.090190
0.106656
0.132163
0.131791
0.111091
0.097286
0.063422
0.030824
-0.000474
-0.045070
-0.089026
-0.121404
-0.141253
-0.158172
-0.141060
-0.119184
-0.085452
-0.050390
-0.012270
0.024938
0.058875
0.093558
0.105707
0.112144
0.099265
0.079969
0.042571
-0.008410
-0.051174
-0.096983
-0.121484
-0.145918
-0.165635
-0.172469
-0.157277
-0.137475
-0.104700
-0.056410
-0.007917
0.031234
0.057479
0.092984
0.110311
0.114522
0.103936
0.066947
0.025930
-0.017091
-0.059231
-0.113667
-0.159596
-0.193114
-0.205100
-0.201681
-0.205093
-0.186668
-0.138750
-0.078239
-0.009958
0.034780
0.076862
0.107709
0.123130
0.121434
0.110978
0.088150
0.068301
0.020263
-0.044542
-0.103403
-0.147073
-0.186506
-0.216530
-0.218058
-0.191223
-0.165461
-0.121382
-0.086488
-0.036259
0.019824
0.091516
0.118379
0.144860
0.146150
0.142526
0.100723
0.053387
0.023752
-0.026380
-0.080889
-0.106824
-0.157179
-0.177988
-0.183880
-0.177023
-0.155791
-0.131340
-0.093124
-0.049444
0.009273
0.051800
0.092731
0.119828
0.127647
0.113850
0.103627
0.066903
0.033215
-0.018092
-0.066613
-0.095690
-0.131819
-0.156095
-0.168913
-0.163905
-0.149631
-0.114852
-0.085541
-0.037384
0.015332
0.051471
0.083386
0.104222
0.114120
0.103474
0.086648
0.056393
0.005964
-0.036735
-0.063309
-0.098050
-0.140625
-0.147458
-0.165175
-0.153300
-0.120727
-0.096326
-0.068010
-0.030239
0.014415
0.058786
0.079930
0.084748
0.089717
0.093515
0.104094
0.066644
0.018272
-0.049018
-0.091686
-0.117375
-0.151113
-0.174675
-0.176482
-0.152357
-0.135680
-0.100443
-0.050027
0.016136
0.055307
0.071669
0.086375
0.111335
0.137541
0.122438
0.070117
0.024036
-0.013151
-0.061536
-0.105377
-0.142567
-0.167333
-0.180339
-0.189571
-0.184307
-0.165401
-0.120164
-0.066594
-0.020607
0.032575
0.061148
0.099475
0.117592
0.120861
0.088600
0.079373
0.040041
0.002957
-0.047437
-0.101530
-0.157341
-0.185028
-0.220381
-0.215556
-0.197365
-0.182472
-0.145334
-0.092083
-0.040104
0.018248
0.065455
0.091612
0.120311
0.129481
0.130867
0.101942
0.054650
0.000585
-0.068792
-0.122089
-0.148281
-0.185274
-0.192411
-0.199148
-0.195416
-0.186532
-0.158090
-0.111774
-0.053863
-0.013698
0.037770
0.066046
0.086753
0.101332
0.105858
0.083028
0.057860
0.011987
-0.029017
-0.088649
-0.129558
-0.165417
-0.174464
-0.188566
-0.204664
-0.194699
-0.159954
-0.120426
-0.060172
-0.018154
0.024651
0.060728
0.071839
0.096124
0.082820
0.067352
0.048111
0.001429
-0.047320
-0.081186
-0.117820
-0.162462
-0.182389
-0.185819
-0.183954
-0.174096
-0.147882
-0.103638
-0.062489
-0.022048
0.014506
0.034955
0.059097
0.073499
0.061416
0.050239
0.022486
-0.025398
-0.061733
-0.095368
-0.131996
-0.174731
-0.189315
-0.173810
-0.163152
-0.141115
-0.111109
-0.094651
-0.055744
-0.029589
0.017173
0.049982
0.072606
0.084026
0.064758
0.039182
0.003873
-0.044359
-0.084692
-0.124143
-0.167351
-0.184982
-0.198950
-0.197961
-0.179300
-0.150926
-0.118237
-0.082709
-0.033997
0.014895
0.035809
0.081935
0.097829
0.096769
0.086448
0.063495
0.022225
-0.042427
-0.092839
-0.137082
-0.177176
-0.203506
-0.209266
-0.207889
-0.199365
-0.171277
-0.136921
-0.093678
-0.049475
0.014662
0.048007
0.074082
0.104026
0.119751
0.094311
0.069694
0.031169
-0.012060
-0.060135
-0.116850
-0.169102
-0.193456
-0.214823
-0.224271
-0.205260
-0.191331
-0.141771
-0.078953
-0.051048
0.009477
0.047513
0.083107
0.104894
0.131134
0.133274
0.123461
0.097031
0.039872
-0.022036
-0.061100
-0.101697
-0.149928
-0.171093
-0.183107
-0.189357
-0.162840
-0.126476
-0.083154
-0.043511
0.013289
0.047294
0.075790
0.107573
0.114560
0.119037
0.105768
0.065722
0.025242
-0.024475
-0.070854
-0.105146
-0.125314
-0.137867
-0.137527
-0.142967
-0.120471
-0.083707
-0.053909
-0.015129
0.032276
0.081590
0.101863
0.128947
0.125101
0.104806
0.092170
0.054804
0.027266
0.007083
-0.031559
-0.084310
-0.134972
-0.152903
-0.165332
-0.162652
-0.141814
-0.117910
-0.073795
-0.028702
0.008394
0.057912
0.082788
0.102960
0.106000
0.085430
0.061222
0.025419
-0.028382
-0.071703
-0.111422
-0.143239
-0.174617
-0.190002
-0.193518
-0.184479
-0.163373
-0.126295
-0.090290
-0.039863
-0.009451
0.040275
0.062234
0.077803
0.079619
0.065481
0.033934
-0.009458
-0.065725
-0.100787
-0.141359
-0.181818
-0.214781
-0.242111
-0.259850
-0.237569
-0.205667
-0.158990
-0.101661
-0.049831
-0.017698
0.019461
0.051537
0.070885
0.076042
0.065907
0.040076
-0.004014
-0.041804
-0.092438
-0.146235
-0.202553
-0.229162
-0.243049
-0.250880
-0.234062
-0.218902
-0.189131
-0.134884
-0.072826
-0.037594
0.008731
0.056048
0.088459
0.109714
0.086096
0.064015
0.028886
-0.029671
-0.075662
-0.125639
-0.172433
-0.205504
-0.240271
-0.248698
-0.245302
-0.215781
-0.190432
-0.150586
-0.098006
-0.049636
-0.016214
0.026319
0.053715
0.070598
0.072567
0.056761
0.036991
-0.020140
-0.072754
-0.132164
-0.172069
-0.215542
-0.238845
-0.261318
-0.255534
-0.223469
-0.152049
-0.099648
-0.076672
-0.034600
0.028803
0.085638
0.130011
0.144455
0.157834
0.155863
0.132329
0.105555
0.091179
0.077217
0.051374
0.053339
0.058880
0.072093
0.112909
0.158752
0.224087
0.304730
0.367617
0.455471
0.507718
0.561432
0.616949
0.669764
0.709942
0.732988
0.730547
0.712980
0.688603
0.665277
0.629003
0.596650
0.592640
0.568966
0.565086
0.576043
0.568465
0.577283
0.552941
0.529222
0.498252
0.473306
0.431516
0.388554
0.330219
0.247807
0.172226
0.137164
0.093170
0.033323
-0.013696
-0.057870
-0.085768
-0.096748
-0.104252
-0.083090
-0.054985
-0.015780
0.037872
0.074494
0.139028
0.179540
0.183656
0.190089
0.162147
0.131658
0.087898
0.019545
-0.019023
-0.078798
-0.129973
-0.164944
-0.194055
-0.190728
-0.188005
-0.172939
-0.132910
-0.094649
-0.020002
0.031755
0.083171
0.106350
0.140116
0.153082
0.140655
0.106559
0.068282
0.024944
-0.010580
-0.075936
-0.123859
-0.153139
-0.191789
-0.199257
-0.203439
-0.182443
-0.149290
-0.105244
-0.048069
-0.004264
0.049378
0.085513
0.100710
0.113053
0.107342
0.098196
0.071140
0.019329
-0.017379
-0.057960
-0.105108
-0.133117
-0.159154
-0.165767
-0.171208
-0.154608
-0.134367
-0.088623
-0.050379
-0.003039
0.046992
0.078573
0.108255
0.114033
0.110099
0.091714
0.068850
0.029214
-0.009113
-0.058742
-0.084553
-0.110919
-0.120834
-0.136857
-0.141826
-0.114601
-0.082340
-0.039185
-0.000155
0.040654
0.073557
0.097089
0.130709
0.135102
0.130171
0.105399
0.066673
0.026713
-0.015222
-0.050798
-0.098109
-0.109342
-0.112389
-0.110989
-0.096484
-0.074108
-0.026224
0.017329
0.051385
0.089844
0.127527
0.157215
0.172539
0.173414
0.161946
0.126868
0.101313
0.061407
0.022199
-0.009177
-0.063388
-0.088745
-0.105498
-0.112720
-0.093929
-0.059767
-0.009082
0.034253
0.078763
0.130354
0.172270
0.210053
0.226164
0.230709
0.226086
0.201207
0.167435
0.100561
0.049573
0.000055
-0.033093
-0.052960
-0.080330
-0.096960
-0.083227
-0.051092
-0.014590
0.020219
0.083166
0.147948
0.207398
0.238875
0.252830
0.253840
0.244937
0.228309
0.189434
0.132584
0.098088
0.050675
-0.000667
-0.041519
-0.070106
-0.077545
-0.076766
-0.065324
-0.040196
0.024826
0.061817
0.109545
0.161131
0.208149
0.230230
0.230026
0.229012
0.218881
0.195994
0.147638
0.079594
0.037901
-0.006093
-0.029805
-0.052790
-0.076914
-0.075691
-0.069947
-0.050668
-0.000914
0.046698
0.091007
0.138036
0.164733
0.174313
0.175534
0.180479
0.156199
0.117437
0.078059
0.039761
-0.008423
-0.040646
-0.075394
-0.102815
-0.112754
-0.114436
-0.107965
-0.067476
-0.028276
0.024536
0.057169
0.083037
0.100854
0.116832
0.124811
0.132220
0.113769
0.065366
0.019014
-0.023984
-0.081517
-0.107977
-0.138810
-0.158401
-0.174352
-0.155272
-0.127650
-0.093396
-0.053920
-0.016598
0.031555
0.074283
0.075008
0.096881
0.095786
0.088241
0.084238
0.050462
-0.008174
-0.056600
-0.104561
-0.141349
-0.168445
-0.185032
-0.195542
-0.191670
-0.170608
-0.125592
-0.078559
-0.041773
0.007586
0.060544
0.087857
0.112971
0.105676
0.078230
0.050312
0.025260
-0.017669
-0.067992
-0.111539
-0.160031
-0.205579
-0.226179
-0.222920
-0.214705
-0.177513
-0.138936
-0.087498
-0.046113
-0.002267
0.041617
0.079208
0.107968
0.113956
0.106947
0.084616
0.059701
0.006614
-0.049628
-0.114661
-0.155699
-0.188683
-0.225811
-0.231495
-0.236993
-0.209989
-0.154215
-0.121982
-0.054176
-0.011100
0.038237
0.070937
0.101565
0.115208
0.130047
0.111451
0.067877
0.025834
-0.028675
-0.091729
-0.121333
-0.126727
-0.157234
-0.193085
-0.201723
-0.169386
-0.143776
-0.110360
-0.067214
-0.006068
0.040458
0.083660
0.101900
0.100245
0.089942
0.070627
0.049408
0.025056
-0.018829
-0.066406
-0.109835
-0.136561
-0.172934
-0.182283
-0.178364
-0.162191
-0.132857
-0.095473
-0.042904
-0.002655
0.035875
0.072631
0.087469
0.088884
0.087407
0.062730
0.040171
-0.007668
-0.054112
-0.078559
-0.111981
-0.137596
-0.159945
-0.168011
-0.169952
-0.141803
-0.110377
-0.073206
-0.027793
0.018379
0.055632
0.072626
0.099608
0.089666
0.081388
0.064313
0.022995
-0.022115
-0.067847
-0.099617
-0.148783
-0.179743
-0.194740
-0.193252
-0.177778
-0.146549
-0.117504
-0.076511
-0.025976
0.021559
0.053666
0.086356
0.106928
0.105871
0.095855
0.073695
0.040708
-0.002847
-0.060676
-0.111908
-0.157858
-0.188086
-0.200528
-0.206989
-0.206013
-0.183207
-0.143651
-0.087836
-0.029857
0.019564
0.056738
0.095411
0.113178
0.119108
0.107519
0.076545
0.033569
0.002481
-0.048369
-0.083121
-0.133540
-0.198347
-0.228043
-0.216132
-0.216655
-0.186352
-0.145912
-0.120472
-0.075457
-0.030056
0.013973
0.060428
0.112374
0.130307
0.120885
0.088285
0.041116
0.012464
-0.036671
-0.089466
-0.163052
-0.189189
-0.199367
-0.226511
-0.237483
-0.199535
-0.160724
-0.117063
-0.063790
-0.012754
0.030237
0.054273
0.081732
0.095873
0.088094
0.070515
0.033347
0.003495
-0.043275
-0.088344
-0.137733
-0.178979
-0.207843
-0.208299
-0.197203
-0.175682
-0.142972
-0.108366
-0.063664
-0.047233
-0.003680
0.026446
0.054813
0.060150
0.063902
0.038594
0.011170
-0.020142
-0.058600
-0.097642
-0.125566
-0.164433
-0.185169
-0.188797
-0.192849
-0.173021
-0.153158
-0.119508
-0.054428
-0.016355
0.013988
0.051081
0.062393
0.065106
0.057707
0.030176
-0.009555
-0.049497
-0.091852
-0.127799
-0.155891
-0.201520
-0.204374
-0.200006
-0.197434
-0.174499
-0.140516
-0.107410
-0.060652
-0.019060
0.019713
0.092909
0.118924
0.128709
0.071700
0.017738
-0.002517
-0.047918
-0.086102
-0.127668
-0.171740
-0.197987
-0.227569
-0.236094
-0.217744
-0.174728
-0.136864
-0.095545
-0.036375
0.005621
0.054609
0.081978
0.100458
0.096438
0.095809
0.070062
0.027580
-0.025689
-0.087028
-0.137332
-0.182590
-0.204564
-0.225717
-0.237550
-0.237252
-0.212975
-0.176265
-0.141682
-0.076422
-0.022067
0.028885
0.073082
0.098259
0.109101
0.097914
0.081223
0.036692
-0.017384
-0.075491
-0.117710
-0.155565
-0.194628
-0.220323
-0.233978
-0.226906
-0.202238
-0.168288
-0.123155
-0.073746
-0.021901
0.024664
0.067445
0.091675
0.093161
0.091290
0.090514
0.072942
0.029761
-0.015975
-0.073059
-0.118519
-0.162653
-0.172706
-0.187863
-0.173176
-0.147612
-0.118380
-0.086911
-0.040673
0.003229
0.044991
0.079655
0.107384
0.123977
0.114759
0.094046
0.063672
0.031959
-0.012035
-0.054439
-0.093147
-0.139840
-0.142671
-0.162387
-0.159565
-0.154510
-0.109102
-0.059476
-0.016774
0.013375
0.049543
0.083929
0.112421
0.119512
0.121185
0.106538
0.073449
0.031708
-0.018755
-0.076611
-0.119205
-0.127850
-0.127988
-0.126970
-0.142898
-0.133602
-0.097219
-0.051570
0.012648
0.046495
0.071649
0.091066
0.106316
0.107174
0.087372
0.061008
0.018995
-0.019132
-0.075525
-0.110476
-0.149259
-0.186868
-0.202321
-0.202422
-0.195312
-0.173480
-0.144957
-0.099203
-0.036086
0.002260
0.045849
0.062027
0.074884
0.078325
0.075294
0.052879
0.008013
-0.040131
-0.091197
-0.158806
-0.185801
-0.227429
-0.238220
-0.251385
-0.240427
-0.190670
-0.163449
-0.114945
-0.062210
-0.022815
0.028657
0.061527
0.081577
0.085819
0.075669
0.049061
-0.003558
-0.041150
-0.112603
-0.155891
-0.195678
-0.236878
-0.255614
-0.254409
-0.246747
-0.227800
-0.188068
-0.148672
-0.090845
-0.041785
0.017999
0.055210
0.082785
0.085750
0.078084
0.059550
0.015918
-0.046360
-0.088849
-0.142079
-0.184614
-0.203710
-0.229619
-0.254753
-0.247230
-0.231611
-0.187745
-0.139797
-0.094982
-0.045728
0.002861
0.034524
0.058469
0.065938
0.062355
0.062367
0.027228
-0.015153
-0.070468
-0.121642
-0.162216
-0.200644
-0.231903
-0.256494
-0.248818
-0.227524
-0.202723
-0.163827
-0.116488
-0.061509
-0.019599
0.032752
0.054925
0.083617
0.093064
0.089214
0.089141
0.055572
0.020744
0.003973
-0.031145
-0.066770
-0.076222
-0.057908
-0.034769
-0.000420
0.062202
0.125993
0.201046
0.279134
0.342548
0.420833
0.455133
0.496112
0.531101
0.551659
0.554331
0.554645
0.540717
0.548762
0.542008
0.539499
0.550098
0.590289
0.605127
0.592895
0.623346
0.667791
0.706445
0.736850
0.745911
0.762848
0.739971
0.674649
0.575738
0.492035
0.394664
0.311986
0.225195
0.131750
0.038237
-0.008347
-0.045745
-0.061298
-0.049344
-0.029108
0.001824
0.037462
0.071609
0.113183
0.143403
0.175894
0.184527
0.184621
0.167247
0.141784
0.098358
0.046196
-0.006168
-0.067938
-0.107123
-0.134732
-0.168099
-0.176325
-0.171709
-0.150685
-0.108674
-0.071841
-0.027675
0.039402
0.085425
0.121968
0.119969
0.126248
0.122052
0.094963
0.060809
0.015148
-0.047443
-0.089287
-0.134169
-0.172007
-0.206202
-0.204129
-0.193566
-0.173228
-0.145398
-0.108810
-0.050883
0.002350
0.041463
0.074569
0.118037
0.134929
0.127220
0.103195
0.060277
0.025714
-0.007552
-0.038639
-0.081650
-0.135219
-0.164990
-0.186409
-0.180619
-0.167174
-0.143372
-0.106584
-0.055953
0.003227
0.049435
0.077156
0.112691
0.120399
0.120226
0.100829
0.074856
0.038698
-0.013883
-0.026845
-0.077187
-0.117764
-0.130020
-0.143259
-0.136192
-0.113034
-0.080443
-0.061730
-0.026756
0.023423
0.062704
0.100206
0.124308
0.128218
0.126719
0.101489
0.078183
0.042774
0.000069
-0.041416
-0.065232
-0.099564
-0.105690
-0.118510
-0.105868
-0.082749
-0.057712
-0.017243
0.032464
0.078361
0.110564
0.130807
0.148905
0.157780
0.152776
0.133531
0.098805
0.065384
0.023934
-0.017973
-0.039688
-0.071313
-0.086003
-0.090496
-0.076646
-0.054100
-0.015401
0.023648
0.066692
0.119338
0.154147
0.186552
0.204055
0.207446
0.188498
0.163385
0.132955
0.095607
0.062716
0.010369
-0.030059
-0.056456
-0.068625
-0.079427
-0.051988
-0.013113
0.024543
0.058564
0.103123
0.162474
0.213531
0.225185
0.233220
0.253577
0.240842
0.201477
0.166069
0.126829
0.065370
0.022584
-0.034748
-0.077539
-0.098648
-0.089200
-0.063941
-0.053893
0.028802
0.078731
0.134778
0.178584
0.203920
0.236278
0.260231
0.262787
0.253681
0.238327
0.215039
0.160567
0.085275
0.019761
-0.022394
-0.076208
-0.079054
-0.086125
-0.087430
-0.073430
-0.036725
0.005302
0.054969
0.116256
0.154985
0.194477
0.218429
0.230162
0.217105
0.196413
0.158881
0.106471
0.057932
0.009290
-0.042647
-0.078627
-0.112388
-0.130627
-0.126090
-0.101196
-0.071918
-0.033523
0.015804
0.066273
0.098480
0.125657
0.142061
0.155597
0.157409
0.146982
0.119716
0.080772
0.018693
-0.034054
-0.066567
-0.086033
-0.127411
-0.147525
-0.141791
-0.127699
-0.117659
-0.075938
-0.026881
0.023052
0.054744
0.085170
0.104518
0.109195
0.107673
0.086673
0.063173
0.009820
-0.027573
-0.084848
-0.121059
-0.148256
-0.177714
-0.194810
-0.174245
-0.149607
-0.136293
-0.085861
-0.038583
0.020186
0.049112
0.058901
0.073611
0.091848
0.086501
0.075398
0.025354
-0.011047
-0.041904
-0.091470
-0.133869
-0.162286
-0.183768
-0.197186
-0.176594
-0.157236
-0.124905
-0.092375
-0.048198
-0.000329
0.043970
0.080675
0.097370
0.088677
0.080584
0.069293
0.030075
-0.024581
-0.075684
-0.113553
-0.143694
-0.173021
-0.194035
-0.199348
-0.179465
-0.144272
-0.110974
-0.073449
-0.028426
0.039681
0.082333
0.124740
0.135632
0.118038
0.102363
0.072346
0.037023
-0.009046
-0.055123
-0.106931
-0.167152
-0.176511
-0.206029
-0.209271
-0.202668
-0.171139
-0.130906
-0.074922
-0.020479
0.049292
0.084443
0.102852
0.125810
0.138202
0.124722
0.097644
0.058287
0.014079
-0.032260
-0.092377
-0.153322
-0.179306
-0.208272
-0.218912
-0.206453
-0.177441
-0.148882
-0.099536
-0.029808
0.032938
0.075173
0.109000
0.127544
0.135380
0.131467
0.106220
0.079405
0.043933
-0.004214
-0.066073
-0.121451
-0.163004
-0.182893
-0.191611
-0.192748
-0.167178
-0.144894
-0.103412
-0.049775
-0.000567
0.055389
0.097145
0.120232
0.121017
0.122496
0.108648
0.075592
0.028090
-0.013543
-0.071062
-0.111462
-0.140320
-0.168294
-0.171898
-0.158774
-0.147055
-0.120963
-0.070705
-0.034513
-0.019328
0.025754
0.049356
0.102603
0.104740
0.102747
0.078014
0.034348
0.001152
-0.007982
-0.067526
-0.120220
-0.130371
-0.153824
-0.156835
-0.153790
-0.133099
-0.111312
-0.079771
-0.058218
-0.000220
0.050103
0.075626
0.081167
0.087786
0.074885
0.059303
0.028308
-0.025012
-0.051750
-0.078888
-0.108385
-0.145971
-0.163353
-0.169812
-0.177027
-0.146824
-0.108339
-0.060363
-0.026155
0.030384
0.057124
0.085070
0.090350
0.086965
0.074395
0.042249
0.024519
-0.014313
-0.064463
-0.115096
-0.152473
-0.200082
-0.210653
-0.204817
-0.186905
-0.144816
-0.101798
-0.077404
-0.033465
0.035198
0.074197
0.087600
0.101780
0.112183
0.099194
0.080920
0.041660
-0.011395
-0.079044
-0.123020
-0.165033
-0.204372
-0.229186
-0.229820
-0.206592
-0.171299
-0.129710
-0.103704
-0.050365
0.037673
0.073036
0.079374
0.114828
0.117607
0.114273
0.083318
0.032211
-0.023026
-0.062973
-0.118513
-0.171577
-0.202907
-0.226498
-0.236101
-0.228183
-0.196001
-0.158898
-0.112197
-0.046289
0.003076
0.054745
0.090054
0.115323
0.102164
0.101251
0.071636
0.040769
0.015535
-0.051276
-0.110229
-0.155525
-0.186400
-0.209834
-0.209413
-0.220462
-0.196023
-0.162994
-0.125329
-0.060030
-0.014634
0.033222
0.061744
0.095222
0.098845
0.102596
0.082205
0.049693
0.012029
-0.038501
-0.094302
-0.128539
-0.175460
-0.204177
-0.215068
-0.210779
-0.203020
-0.165774
-0.121479
-0.074424
-0.027454
0.018059
0.054149
0.084356
0.097515
0.081617
0.065566
0.041771
0.007178
-0.044608
-0.090636
-0.127333
-0.169603
-0.185446
-0.188077
-0.199059
-0.187788
-0.159374
-0.125528
-0.081078
-0.038893
0.011410
0.028279
0.051903
0.057842
0.075535
0.050687
0.026023
-0.000853
-0.035045
-0.077925
-0.122559
-0.154869
-0.171407
-0.178225
-0.177976
-0.152497
-0.125855
-0.097160
-0.047442
0.012889
0.034218
0.042518
0.055952
0.088886
0.081106
0.042972
0.012796
-0.015472
-0.054954
-0.087654
-0.117742
-0.152184
-0.176717
-0.180455
-0.155800
-0.121605
-0.083581
-0.062763
-0.020493
0.026049
0.066663
0.080335
0.108702
0.109866
0.105980
0.080884
0.046592
0.016156
-0.033406
-0.083338
-0.108851
-0.148947
-0.164752
-0.169687
-0.153694
-0.133496
-0.081314
-0.036905
0.010855
0.059200
0.108743
0.138525
0.147788
0.138172
0.124446
0.089915
0.073347
0.028887
-0.029172
-0.073701
-0.102642
-0.134920
-0.151092
-0.156218
-0.145092
-0.126045
-0.082450
-0.041831
0.016407
0.065405
0.098719
0.137405
0.159771
0.162514
0.150654
0.126766
0.082744
0.034545
-0.014970
-0.071213
-0.124041
-0.165099
-0.198082
-0.191005
-0.193413
-0.169355
-0.136110
-0.097640
-0.021217
0.027753
0.069724
0.099945
0.127751
0.129115
0.125826
0.103956
0.045816
-0.003098
-0.064269
-0.107575
-0.153788
-0.214046
-0.234100
-0.224375
-0.224164
-0.204420
-0.172984
-0.129662
-0.077965
-0.028511
0.022868
0.060259
0.083474
0.102747
0.095176
0.079153
0.044517
-0.010676
-0.063264
-0.113228
-0.167208
-0.207525
-0.224785
-0.228333
-0.222555
-0.206551
-0.207799
-0.155525
-0.098494
-0.051197
-0.004230
0.028228
0.059482
0.071492
0.073243
0.052890
0.019863
-0.025560
-0.055606
-0.103163
-0.137182
-0.178274
-0.207922
-0.216193
-0.216460
-0.194632
-0.162343
-0.129321
-0.091283
-0.043416
-0.005723
0.030083
0.049610
0.063946
0.053878
0.026452
-0.008968
-0.041755
-0.072978
-0.122919
-0.159833
-0.189942
-0.200674
-0.202667
-0.205447
-0.183932
-0.156718
-0.099960
-0.062290
-0.032098
0.005719
0.025049
0.041768
0.053323
0.040913
0.015081
-0.005215
-0.046608
-0.082703
-0.118035
-0.160469
-0.158930
-0.166220
-0.156277
-0.154257
-0.104318
-0.046168
0.018085
0.067787
0.130284
0.195911
0.252529
0.279360
0.298418
0.316160
0.312368
0.301324
0.272474
0.258624
0.242942
0.230892
0.233096
0.244904
0.266709
0.305901
0.375385
0.452275
0.536316
0.629485
0.719712
0.798599
0.853961
0.887540
0.893711
0.870831
0.843976
0.782296
0.722504
0.634967
0.543687
0.436803
0.339558
0.258640
0.190527
0.150182
0.125261
0.109657
0.107977
0.138298
0.168374
0.196323
0.214348
0.224196
0.233785
0.216152
0.193253
0.148328
0.101676
0.057356
0.001741
-0.053796
-0.095232
-0.138064
-0.148022
-0.140690
-0.122843
-0.089919
-0.053453
-0.012500
0.036446
0.080173
0.104366
0.139585
0.162908
0.147201
0.122621
0.098763
0.056062
0.003419
-0.046168
-0.093145
-0.131583
-0.175912
-0.183482
-0.160810
-0.149773
-0.131666
-0.089722
-0.042346
0.007019
0.046832
0.076856
0.096958
0.117117
0.115657
0.089481
0.060033
0.020504
-0.014841
-0.054163
-0.103665
-0.132118
-0.155599
-0.163905
-0.154834
-0.125650
-0.087943
-0.068544
-0.013377
0.027982
0.055775
0.094663
0.110088
0.117815
0.091442
0.070885
0.045719
0.003237
-0.019075
-0.059972
-0.099103
-0.118466
-0.133480
-0.140416
-0.128465
-0.113994
-0.082647
-0.030793
0.012544
0.060599
0.100963
0.131866
0.146441
0.150868
0.134614
0.108463
0.072186
0.035921
-0.012417
-0.054844
-0.101539
-0.119400
-0.136495
-0.133696
-0.122165
-0.100261
-0.062259
-0.011260
0.049670
0.090005
0.133765
0.172092
0.183533
0.189780
0.178378
0.144306
0.102316
0.063775
0.012133
-0.024768
-0.076399
-0.103700
-0.128423
-0.122029
-0.103387
-0.074684
-0.030756
0.013072
0.062242
0.117583
0.161660
0.201407
0.224305
0.239495
0.220593
0.201249
0.155214
0.099731
0.052892
0.004167
-0.053295
-0.088622
-0.093223
-0.090563
-0.072572
-0.053731
-0.008707
0.033457
0.079381
0.135057
0.192620
0.239144
0.252896
0.267003
0.268234
0.254631
0.236252
0.188720
0.124185
0.069392
0.018789
-0.019571
-0.061481
-0.074890
-0.043005
-0.020676
0.007037
0.045917
0.091594
0.144289
0.190046
0.225017
0.251057
0.254818
0.256275
0.236215
0.210822
0.178589
0.120789
0.078888
0.026497
-0.003701
-0.040589
-0.045212
-0.030806
-0.014972
0.011715
0.042170
0.084376
0.132346
0.171193
0.203628
0.229076
0.227504
0.220403
0.190095
0.165059
0.114855
0.068344
0.023285
0.000072
-0.021834
-0.045074
-0.051597
-0.059243
-0.040256
-0.014487
0.030019
0.077139
0.121838
0.154724
0.187274
0.193862
0.190512
0.165769
0.140129
0.105417
0.061216
0.019202
-0.032198
-0.075067
-0.105491
-0.115012
-0.124487
-0.115063
-0.099260
-0.070133
-0.014541
0.020828
0.059071
0.113846
0.135170
0.146173
0.173728
0.155385
0.120798
0.083151
0.037634
-0.006569
-0.064462
-0.130485
-0.166191
-0.183609
-0.172220
-0.167790
-0.144520
-0.110684
-0.063567
-0.009328
0.033631
0.074256
0.124417
0.149821
0.143001
0.136221
0.111377
0.070964
0.013936
-0.034575
-0.094976
-0.148168
-0.190214
-0.205031
-0.197957
-0.186548
-0.146066
-0.120193
-0.093155
-0.052000
0.005722
0.060968
0.085889
0.118157
0.141873
0.117053
0.097834
0.059594
0.014245
-0.032989
-0.088743
-0.140153
-0.174787
-0.202679
-0.220524
-0.204676
-0.176360
-0.137381
-0.107136
-0.053478
-0.000018
0.040634
0.077854
0.109083
0.132379
0.117794
0.104570
0.082196
0.044002
-0.019464
-0.064533
-0.124623
-0.160781
-0.175060
-0.190059
-0.184747
-0.149722
-0.118159
-0.087717
-0.048604
-0.010207
0.033346
0.083722
0.106153
0.125983
0.102701
0.083753
0.048363
0.018279
-0.029351
-0.065401
-0.110994
-0.130478
-0.160315
-0.162722
-0.165764
-0.149683
-0.119437
-0.082319
-0.039989
0.004463
0.052987
0.084054
0.092537
0.100105
0.096592
0.082973
0.047820
0.005274
-0.034134
-0.075051
-0.108519
-0.135847
-0.154850
-0.157883
-0.153103
-0.130761
-0.090041
-0.042107
-0.002775
0.034826
0.069202
0.077697
0.100094
0.118799
0.094656
0.079046
0.031326
0.003307
-0.044188
-0.093441
-0.110829
-0.146758
-0.164320
-0.174542
-0.166153
-0.144609
-0.112794
-0.051079
-0.019995
0.031237
0.084103
0.107004
0.128358
0.126227
0.109754
0.088565
0.030182
0.008557
-0.054220
-0.101787
-0.137627
-0.173234
-0.194403
-0.200757
-0.189238
-0.155289
-0.118747
-0.076551
-0.025368
0.023201
0.069111
0.112944
0.135342
0.129972
0.125490
0.109982
0.065198
0.017481
-0.024574
-0.090017
-0.136017
-0.177683
-0.196919
-0.211635
-0.201496
-0.197436
-0.161892
-0.110944
-0.051102
0.006736
0.053765
0.104444
0.125990
0.132316
0.118456
0.089021
0.059714
0.022517
-0.032432
-0.075189
-0.123496
-0.158207
-0.192826
-0.202582
-0.201881
-0.181610
-0.157085
-0.114777
-0.056801
-0.017627
0.037188
0.081544
0.108676
0.114484
0.107869
0.087869
0.051445
0.013454
-0.030037
-0.076019
-0.122595
-0.158660
-0.177638
-0.185781
-0.206556
-0.183669
-0.155327
-0.124368
-0.081220
-0.040963
0.015639
0.044909
0.076962
0.076307
0.074992
0.081743
0.045869
-0.006351
-0.043338
-0.087028
-0.121145
-0.154652
-0.176085
-0.182198
-0.173420
-0.159000
-0.125642
-0.083821
-0.055428
-0.007249
0.027607
0.056552
0.077465
0.081300
0.077573
0.049264
0.011558
-0.036547
-0.069091
-0.103785
-0.149221
-0.171915
-0.192479
-0.197566
-0.184590
-0.144190
-0.122122
-0.088630
-0.048462
-0.001891
0.031921
0.066866
0.090275
0.097238
0.080602
0.054158
0.018310
-0.026820
-0.077011
-0.123441
-0.163838
-0.205689
-0.222776
-0.231296
-0.223814
-0.182385
-0.129620
-0.078202
-0.027801
0.019398
0.058609
0.087506
0.112838
0.114556
0.080928
0.070658
0.029683
-0.022305
-0.079068
-0.128061
-0.159769
-0.199401
-0.217244
-0.228108
-0.211270
-0.185371
-0.147830
-0.101296
-0.055471
0.002352
0.052777
0.091396
0.118855
0.139172
0.130569
0.107047
0.068373
0.028749
-0.024348
-0.076654
-0.131928
-0.172394
-0.190424
-0.190773
-0.173694
-0.168497
-0.129038
-0.078835
-0.021570
0.029633
0.065736
0.117834
0.136171
0.133398
0.133008
0.125953
0.092436
0.045489
-0.014829
-0.057715
-0.106868
-0.153629
-0.168013
-0.180267
-0.179657
-0.152366
-0.121041
-0.090303
-0.028835
0.022869
0.076783
0.132250
0.143077
0.143657
0.149280
0.136984
0.088521
0.053175
0.008137
-0.028074
-0.084232
-0.124518
-0.143781
-0.158378
-0.154612
-0.126837
-0.099895
-0.071965
-0.039092
0.003854
0.039973
0.083936
0.103127
0.102084
0.096491
0.079105
0.044567
0.031610
-0.021382
-0.064779
-0.103741
-0.139047
-0.162122
-0.182233
-0.179735
-0.149402
-0.121362
-0.079221
-0.037832
-0.004230
0.032836
0.047745
0.055865
0.073015
0.062932
0.028951
-0.008585
-0.036515
-0.085029
-0.130323
-0.185393
-0.222710
-0.224460
-0.205400
-0.186550
-0.163589
-0.138716
-0.097620
-0.051789
-0.004352
0.028448
0.061552
0.076237
0.068414
0.052861
0.021501
-0.015107
-0.048748
-0.102919
-0.151439
-0.180944
-0.217736
-0.244543
-0.237849
-0.218236
-0.192683
-0.153352
-0.118540
-0.074142
-0.010813
0.023331
0.061625
0.083321
0.081583
0.073710
0.043849
-0.000311
-0.038340
-0.094595
-0.148071
-0.194394
-0.233841
-0.243140
-0.252447
-0.235358
-0.212136
-0.181395
-0.129657
-0.077247
-0.033969
0.016497
0.059073
0.088668
0.098224
0.075081
0.057364
0.024032
-0.028618
-0.080791
-0.137965
-0.177272
-0.211491
-0.239076
-0.267199
-0.257743
-0.234512
-0.215916
-0.151236
-0.088137
-0.036534
0.019751
0.067314
0.106142
0.107396
0.126273
0.114975
0.101953
0.076551
0.039550
0.000390
-0.033906
-0.069584
-0.100813
-0.088375
-0.067333
-0.027529
0.035077
0.107812
0.181577
0.263123
0.341037
0.404673
0.454634
0.495249
0.532714
0.534386
0.519194
0.523676
0.514004
0.498436
0.500450
0.485074
0.490211
0.506023
0.528275
0.568115
0.595271
0.640015
0.666556
0.683751
0.710185
0.727216
0.710554
0.633200
0.571409
0.487128
0.407062
0.337184
0.266944
0.163000
0.078081
0.011411
-0.020627
-0.056791
-0.076042
-0.075628
-0.050864
-0.021503
0.016830
0.054306
0.090544
0.113626
0.144099
0.139366
0.124218
0.104753
0.072598
0.043263
-0.004278
-0.041317
-0.084601
-0.129082
-0.139486
-0.159285
-0.153854
-0.117067
-0.086548
-0.041562
0.001943
0.048530
0.080056
0.116966
0.122918
0.121069
0.106867
0.070734
0.031153
-0.000819
-0.043605
-0.098368
-0.147477
-0.172761
-0.190116
-0.198408
-0.172656
-0.143218
-0.110178
-0.063757
-0.019899
0.027508
0.082428
0.121669
0.138393
0.132522
0.121868
0.086507
0.048779
0.003607
-0.027860
-0.086908
-0.133160
-0.185134
-0.197900
-0.208006
-0.201815
-0.181212
-0.137924
-0.088390
-0.027654
0.013628
0.073775
0.113892
0.127756
0.154053
0.147624
0.114012
0.080732
0.041359
0.009169
-0.049929
-0.093124
-0.136955
-0.159735
-0.180581
-0.179373
-0.150921
-0.118108
-0.077226
-0.029857
0.034079
0.076458
0.115615
0.150475
0.163906
0.165292
0.135581
0.104411
0.069861
0.025336
-0.005607
-0.059880
-0.099040
-0.128438
-0.132735
-0.131323
-0.113038
-0.086295
-0.032166
0.003551
0.051105
0.108294
0.135489
0.171763
0.178347
0.173181
0.151162
0.133755
0.085188
0.051238
0.016034
-0.025623
-0.066191
-0.089580
-0.089998
-0.076591
-0.051471
-0.039463
0.006110
0.038731
0.090869
0.138916
0.172544
0.180069
0.199536
0.192644
0.172201
0.145649
0.106093
0.058551
0.030217
-0.008938
-0.039006
-0.058396
-0.055455
-0.036218
-0.013857
0.019177
0.064635
0.098408
0.149237
0.178562
0.208098
0.227220
0.239969
0.232978
0.218631
0.184275
0.134617
0.083070
0.026568
-0.009458
-0.047222
-0.077232
-0.058936
-0.036688
-0.026216
0.014279
0.053073
0.112592
0.163345
0.206094
0.244578
0.263887
0.276229
0.252874
0.218597
0.164876
0.103329
0.078390
0.026677
-0.019420
-0.053702
-0.079367
-0.090411
-0.091923
-0.071976
-0.032806
0.021188
0.080651
0.127973
0.176126
0.213316
0.232884
0.233781
0.212512
0.206071
0.170980
0.115881
0.054013
0.013105
-0.047417
-0.081510
-0.100568
-0.114027
-0.124089
-0.107013
-0.082472
-0.048610
0.004945
0.041497
0.081614
0.128982
0.156335
0.166631
0.155873
0.127170
0.093753
0.078655
0.049978
-0.008383
-0.062722
-0.112189
-0.140156
-0.141128
-0.136198
-0.132570
-0.109431
-0.068623
-0.021632
0.022846
0.054929
0.086747
0.110204
0.120478
0.108800
0.104105
0.055407
0.014687
-0.023856
-0.070250
-0.099993
-0.142661
-0.172518
-0.172201
-0.164296
-0.138772
-0.119924
-0.086843
-0.046635
-0.012666
0.038116
0.074314
0.105737
0.110175
0.085453
0.071165
0.021105
-0.024149
-0.067224
-0.106623
-0.139121
-0.167788
-0.185715
-0.197812
-0.192417
-0.147899
-0.117582
-0.069324
-0.024743
0.006442
0.054626
0.077820
0.088448
0.096909
0.073577
0.058359
0.023312
-0.015938
-0.065141
-0.105852
-0.140390
-0.178026
-0.205491
-0.206126
-0.186967
-0.160319
-0.126519
-0.081761
-0.030791
0.021987
0.070131
0.103999
0.112879
0.111381
0.103047
0.087343
0.042644
0.001731
-0.042450
-0.107969
-0.146729
-0.188168
-0.218026
-0.222667
-0.217508
-0.189220
-0.157694
-0.109699
-0.053517
-0.018543
0.040832
0.086718
0.115863
0.129922
0.123013
0.092210
0.047568
0.004454
-0.025443
-0.085036
-0.137788
-0.166238
-0.191255
-0.203150
-0.213604
-0.189754
-0.156646
-0.109797
-0.059897
-0.017410
0.032834
0.069815
0.104638
0.126007
0.103884
0.088386
0.055314
0.028725
-0.026363
-0.063680
-0.110334
-0.150102
-0.181847
-0.196349
-0.180807
-0.160918
-0.152320
-0.106196
-0.049655
-0.006929
0.031624
0.048900
0.086839
0.091716
0.083573
0.080685
0.051535
0.009453
-0.028878
-0.075996
-0.123019
-0.160077
-0.182363
-0.172503
-0.151552
-0.132612
-0.118559
-0.085974
-0.055037
-0.011688
0.019928
0.063003
0.074334
0.081144
0.071665
0.051859
0.016348
-0.027277
-0.077994
-0.122878
-0.149670
-0.163391
-0.178001
-0.189129
-0.184194
-0.164108
-0.124607
-0.075533
-0.039348
0.021982
0.052080
0.082527
0.094002
0.097416
0.075059
0.060173
0.010590
-0.022904
-0.071732
-0.116203
-0.161510
-0.190949
-0.216820
-0.226000
-0.208215
-0.175070
-0.141043
-0.082367
-0.026767
0.009905
0.042968
0.080340
0.102149
0.098011
0.089758
0.067958
0.024267
-0.026229
-0.077744
-0.130838
-0.174382
-0.214403
-0.238388
-0.233547
-0.222125
-0.202134
-0.163861
-0.124766
-0.069075
-0.025945
0.021457
0.073529
0.112030
0.114996
0.105426
0.079913
0.044385
-0.007185
-0.053504
-0.104974
-0.171066
-0.217486
-0.244066
-0.265795
-0.246947
-0.212143
-0.183252
-0.166276
-0.091335
-0.030671
0.010247
0.040617
0.066675
0.079852
0.076327
0.066173
0.037279
-0.004551
-0.060706
-0.110764
-0.149328
-0.171212
-0.201303
-0.229957
-0.218864
-0.209402
-0.180898
-0.141177
-0.095531
-0.047906
0.016381
0.041987
0.071944
0.084520
0.089752
0.061608
0.029542
-0.006370
-0.050888
-0.091458
-0.136813
-0.161533
-0.187095
-0.205524
-0.204279
-0.179900
-0.154843
-0.109017
-0.053584
-0.012760
0.017328
0.052548
0.078784
0.062246
0.064489
0.045642
0.025255
-0.007933
-0.048026
-0.090045
-0.130065
-0.145121
-0.161470
-0.162530
-0.149784
-0.132193
-0.116097
-0.070253
-0.027179
0.026472
0.055973
0.069096
0.099541
0.102816
0.092073
0.065606
0.028768
-0.017249
-0.065843
-0.111586
-0.142260
-0.177175
-0.191984
-0.200389
-0.167667
-0.127278
-0.084861
-0.034906
0.009069
0.045637
0.080854
0.110338
0.139859
0.149409
0.130325
0.097757
0.062808
0.002036
-0.038271
-0.085685
-0.130812
-0.173163
-0.190320
-0.200583
-0.185702
-0.156486
-0.115433
-0.073045
-0.032197
0.015338
0.057634
0.087372
0.112884
0.116412
0.110574
0.088774
0.046233
-0.004281
-0.063858
-0.120434
-0.170937
-0.207903
-0.238212
-0.247684
-0.239532
-0.223218
-0.188363
-0.147744
-0.101266
-0.046909
0.014204
0.044546
0.076880
0.080419
0.068597
0.043314
0.007304
-0.025098
-0.069746
-0.114099
-0.159055
-0.201691
-0.234509
-0.245380
-0.254796
-0.239010
-0.198922
-0.151300
-0.120032
-0.067786
-0.021787
0.017949
0.036002
0.034029
0.034457
0.019309
0.001053
-0.029255
-0.071894
-0.116656
-0.180860
-0.227510
-0.248994
-0.252758
-0.241529
-0.232878
-0.209887
-0.163030
-0.123541
-0.082172
-0.056178
-0.006922
0.024362
0.026357
0.022485
0.003946
-0.029348
-0.054929
-0.095819
-0.133202
-0.161470
-0.196196
-0.217680
-0.240355
-0.237796
-0.206043
-0.165534
-0.123186
-0.077587
-0.053890
-0.013582
0.003828
0.027647
0.031240
0.025436
0.005297
-0.045466
-0.085525
-0.142368
-0.178538
-0.218449
-0.242543
-0.266720
-0.271969
-0.252384
-0.205363
-0.155717
-0.098036
-0.057430
-0.011303
0.054762
0.106280
0.135444
0.157538
0.149392
0.142448
0.114507
0.061911
0.024602
-0.003230
-0.023852
-0.023723
-0.016603
0.005431
0.056041
0.117873
0.182807
0.262610
0.330066
0.416705
0.484930
0.539120
0.594239
0.638913
0.665334
0.681724
0.673823
0.665283
0.643533
0.635155
0.590105
0.545415
0.520832
0.512605
0.487404
0.503980
0.524419
0.545765
0.542860
0.515155
0.482910
0.470580
0.453384
0.416473
0.359500
0.296941
0.216705
0.151307
0.083146
0.011251
-0.032688
-0.087984
-0.135119
-0.158512
-0.160193
-0.152109
-0.120256
-0.074424
-0.031694
0.023596
0.069264
0.097399
0.122057
0.125229
0.113918
0.108643
0.063959
0.029526
-0.014111
-0.046752
-0.079238
-0.122498
-0.158537
-0.175416
-0.175626
-0.149692
-0.134836
-0.090712
-0.053698
-0.023364
0.009554
0.056303
0.074679
0.072615
0.072343
0.060322
0.027294
-0.003013
-0.050605
-0.095096
-0.129149
-0.168672
-0.185232
-0.185071
-0.186293
-0.159834
-0.137722
-0.098976
-0.057645
-0.022442
0.031212
0.084025
0.093496
0.087729
0.062211
0.056392
0.019455
-0.015978
-0.052336
-0.097841
-0.140915
-0.177047
-0.187867
-0.199079
-0.178099
-0.161843
-0.107000
-0.063589
-0.036373
0.026567
0.057128
0.074056
0.101770
0.111163
0.099239
0.073847
0.026467
0.000329
-0.040302
-0.084324
-0.141396
-0.164096
-0.179878
-0.202070
-0.187783
-0.149611
-0.123277
-0.069755
-0.002931
0.043700
0.087791
0.113422
0.144386
0.150538
0.143130
0.125452
0.081793
0.036614
-0.020093
-0.068739
-0.123719
-0.157711
-0.169563
-0.170214
-0.161454
-0.128130
-0.092291
-0.047607
0.006863
0.061774
0.109526
0.152070
0.165449
0.176190
0.174329
0.164985
0.133013
0.094399
0.040804
-0.000911
-0.045618
-0.089184
-0.126952
-0.130202
-0.121603
-0.108492
-0.061266
-0.020912
0.020296
0.072272
0.135023
0.159270
0.196615
0.203823
0.192529
0.178705
0.150556
0.118294
0.072050
0.026421
-0.020273
-0.043721
-0.064145
-0.078531
-0.074942
-0.063690
-0.031960
0.016982
0.045464
0.101765
0.143185
0.171800
0.186497
0.205397
0.214030
0.187592
0.160315
0.124513
0.091914
0.049721
0.004541
-0.039089
-0.055924
-0.081107
-0.054125
-0.032467
-0.008967
0.023372
0.073295
0.101841
0.142660
0.168232
0.186835
0.183698
0.189301
0.165838
0.125637
0.089913
0.050050
-0.001316
-0.040340
-0.070045
-0.087592
-0.101839
-0.091204
-0.063161
-0.018302
0.018184
0.063882
0.099050
0.135534
0.150909
0.160206
0.162803
0.163159
0.133826
0.100452
0.070278
0.013371
-0.054353
-0.110217
-0.135082
-0.151440
-0.154487
-0.135034
-0.109296
-0.081699
-0.034188
0.007706
0.050447
0.086687
0.128981
0.145750
0.137594
0.123483
0.096288
0.065012
0.016398
-0.033299
-0.088993
-0.146903
-0.185186
-0.205959
-0.214104
-0.184881
-0.162449
-0.143430
-0.087418
-0.033073
-0.001711
0.041522
0.088068
0.112281
0.123780
0.120871
0.091765
0.051549
0.002028
-0.058519
-0.114642
