-0.005434
0.066753
0.116011
0.147987
0.165045
0.172307
0.147498
0.126733
0.115603
0.059948
0.005358
-0.055597
-0.074638
-0.101881
-0.106478
-0.119232
-0.122460
-0.108938
-0.070497
-0.019122
0.037657
0.081740
0.131655
0.184824
0.202067
0.207822
0.191739
0.173092
0.140915
0.096938
0.050829
0.012625
-0.026456
-0.063609
-0.097257
-0.110500
-0.103953
-0.057818
-0.014177
0.013327
0.052273
0.107895
0.147297
0.190297
0.201235
0.221539
0.223128
0.193970
0.153440
0.105991
0.057095
0.019629
-0.019082
-0.060032
-0.065843
-0.073899
-0.057064
-0.050788
-0.028444
0.017772
0.075181
0.119534
0.163874
0.197613
0.210517
0.222936
0.225796
0.206330
0.162099
0.106909
0.051386
0.000599
-0.040431
-0.075055
-0.071363
-0.074941
-0.079312
-0.061852
-0.027574
0.008864
0.055964
0.106167
0.144386
0.178607
0.210312
0.207688
0.192130
0.168518
0.133853
0.091357
0.042222
-0.011237
-0.069629
-0.091240
-0.109519
-0.120411
-0.132625
-0.100684
-0.058622
-0.026620
0.020352
0.085993
0.115947
0.148435
0.176690
0.186424
0.170477
0.141423
0.097739
0.052614
-0.014539
-0.062659
-0.105010
-0.140643
-0.157439
-0.156127
-0.154769
-0.122405
-0.076816
-0.039126
-0.008533
0.013896
0.061319
0.117900
0.135778
0.136353
0.121584
0.089041
0.042134
0.005423
-0.035112
-0.080525
-0.127700
-0.174354
-0.203887
-0.198636
-0.181229
-0.151595
-0.121196
-0.079143
-0.026831
0.013729
0.051613
0.101846
0.117567
0.119418
0.121728
0.075633
0.027373
0.006633
-0.027986
-0.056432
-0.110018
-0.175219
-0.207162
-0.218104
-0.205130
-0.165470
-0.134071
-0.098111
-0.031137
0.018458
0.059913
0.094479
0.107473
0.104648
0.105347
0.087025
0.057368
0.018992
-0.054207
-0.106373
-0.159572
-0.188107
-0.179150
-0.188688
-0.180906
-0.156718
-0.123672
-0.090555
-0.050404
-0.000649
0.043511
0.084288
0.106036
0.107594
0.113687
0.101900
0.045970
-0.000376
-0.043702
-0.080862
-0.120345
-0.162695
-0.177415
-0.183557
-0.182223
-0.154791
-0.115778
-0.074367
-0.033636
0.032074
0.074023
0.121192
0.130834
0.131119
0.107914
0.080741
0.040595
0.009876
-0.030436
-0.075979
-0.117684
-0.161163
-0.169562
-0.170895
-0.174813
-0.162451
-0.126157
-0.072077
-0.027852
0.021818
0.069054
0.107046
0.124622
0.123302
0.126555
0.098366
0.073658
0.033038
-0.006642
-0.066927
-0.126717
-0.177478
-0.185804
-0.182306
-0.180792
-0.162371
-0.115392
-0.067433
-0.034695
0.023181
0.060369
0.092276
0.117923
0.130948
0.133081
0.113301
0.071623
0.000402
-0.023541
-0.060335
-0.096401
-0.138320
-0.160765
-0.174148
-0.179404
-0.155697
-0.135522
-0.088285
-0.045755
0.014148
0.046808
0.085347
0.117673
0.121077
0.106871
0.074354
0.062716
0.022261
-0.036352
-0.080394
-0.118986
-0.159736
-0.187946
-0.185570
-0.187408
-0.167286
-0.123210
-0.074504
-0.042685
0.003412
0.050158
0.095203
0.097119
0.112135
0.125564
0.103848
0.063825
-0.011604
-0.061608
-0.091233
-0.133317
-0.170549
-0.186879
-0.176855
-0.181015
-0.168405
-0.134128
-0.084126
-0.039108
-0.009516
0.048158
0.096196
0.120841
0.101599
0.085336
0.062170
0.029981
-0.012887
-0.065819
-0.110165
-0.124625
-0.172685
-0.201896
-0.186852
-0.181182
-0.151835
-0.116779
-0.081088
-0.045092
0.000196
0.055397
0.080574
0.081802
0.096655
0.104583
0.066268
0.042717
-0.020768
-0.064423
-0.106341
-0.139520
-0.172862
-0.198470
-0.207346
-0.185298
-0.161303
-0.133388
-0.092072
-0.025468
0.009380
0.019327
0.068393
0.102032
0.101811
0.101068
0.073152
0.030445
-0.000835
-0.049185
-0.107077
-0.153682
-0.199724
-0.218930
-0.213016
-0.203932
-0.168317
-0.134848
-0.094948
-0.050726
-0.005231
0.032320
0.060044
0.093966
0.109122
0.107305
0.073277
0.044936
0.006646
-0.042041
-0.098380
-0.144653
-0.181503
-0.208324
-0.218961
-0.206399
-0.179563
-0.159214
-0.113463
-0.035447
0.016061
0.044293
0.069954
0.087784
0.092889
0.077036
0.072118
0.057623
0.021489
-0.052416
-0.112461
-0.157838
-0.199473
-0.208771
-0.205264
-0.202754
-0.170554
-0.144732
-0.103335
-0.029006
0.023285
0.065913
0.103790
0.117918
0.132004
0.119384
0.099437
0.077355
0.038772
-0.003194
-0.060521
-0.110848
-0.143882
-0.158160
-0.170345
-0.157081
-0.128132
-0.107041
-0.064703
-0.011994
0.040237
0.074861
0.103607
0.131166
0.148020
0.139291
0.110614
0.072813
0.038087
0.004082
-0.044063
-0.105436
-0.138620
-0.150489
-0.165715
-0.162299
-0.133937
-0.100436
-0.058037
-0.012486
0.051899
0.114754
0.155657
0.166303
0.166567
0.160296
0.149016
0.110812
0.052842
-0.015348
-0.063512
-0.101701
-0.152180
-0.164656
-0.172007
-0.180049
-0.146467
-0.116525
-0.077500
-0.026970
0.019064
0.059685
0.096080
0.115483
0.126889
0.115884
0.083571
0.055521
0.008213
-0.061486
-0.090653
-0.132389
-0.173222
-0.188435
-0.200190
-0.198548
-0.184728
-0.162236
-0.111472
-0.055532
-0.004312
0.028377
0.057589
0.081273
0.082513
0.065514
0.046500
0.012809
-0.030325
-0.078710
-0.124400
-0.170199
-0.234542
-0.225355
-0.207245
-0.204230
-0.176068
-0.156655
-0.133599
-0.082043
-0.021199
0.021022
0.050250
0.063156
0.059472
0.058175
0.030486
0.010672
-0.016003
-0.062357
-0.099641
-0.153186
-0.201644
-0.222093
-0.233633
-0.226470
-0.201703
-0.164150
-0.105938
-0.068460
-0.016867
0.032510
0.053033
0.068775
0.080730
0.060121
0.029357
-0.003960
-0.043186
-0.090614
-0.133069
-0.178403
-0.211057
-0.213700
-0.224637
-0.232733
-0.217607
-0.159552
-0.118679
-0.087870
-0.033444
0.022966
0.052758
0.062258
0.070958
0.076708
0.047174
0.021860
-0.019382
-0.072498
-0.135805
-0.187696
-0.221773
-0.260086
-0.256390
-0.237714
-0.200196
-0.161000
-0.122797
-0.056458
0.003696
0.065713
0.123957
0.163726
0.189896
0.196287
0.150175
0.113993
0.096331
0.095423
0.045444
0.047449
0.038671
0.041733
0.067009
0.107989
0.153286
0.226024
0.331647
0.409988
0.485781
0.552938
0.614032
0.676333
0.720842
0.777837
0.781219
0.766059
0.744589
0.719190
0.683173
0.645454
0.627246
0.574957
0.521686
0.529114
0.534205
0.538474
0.537788
0.501277
0.483644
0.462290
0.450018
0.429038
0.392758
0.344467
0.278728
0.232789
0.193086
0.124038
0.080463
0.015002
-0.034903
-0.067319
-0.082285
-0.080682
-0.063139
-0.052348
-0.014415
0.033864
0.077796
0.119359
0.149799
0.168054
0.156836
0.144013
0.112709
0.085548
0.035765
-0.002259
-0.052903
-0.094908
-0.133727
-0.161808
-0.167206
-0.159537
-0.144207
-0.113607
-0.063463
-0.024123
0.024938
0.063075
0.094794
0.117114
0.125628
0.128045
0.103437
0.060376
0.000630
-0.051012
-0.094134
-0.149674
-0.170213
-0.175306
-0.164139
-0.168174
-0.144717
-0.115896
-0.089893
-0.019850
0.026433
0.058206
0.105095
0.125389
0.129802
0.129086
0.102756
0.063953
0.003901
-0.042065
-0.071374
-0.118473
-0.163731
-0.166384
-0.175113
-0.147943
-0.112036
-0.124359
-0.089931
-0.027966
0.032124
0.070482
0.111706
0.131456
0.137457
0.135977
0.108732
0.078007
0.037914
-0.013891
-0.057920
-0.099946
-0.136528
-0.162893
-0.166322
-0.157989
-0.123204
-0.073436
-0.037285
0.006353
0.056267
0.099911
0.119919
0.136368
0.125626
0.138246
0.117055
0.109576
0.079906
0.027797
-0.033857
-0.055949
-0.096217
-0.125077
-0.135631
-0.127986
-0.084862
-0.053205
-0.006911
0.033006
0.083024
0.137074
0.166389
0.172458
0.184238
0.175189
0.162668
0.139811
0.113579
0.060081
0.013013
-0.031786
-0.077623
-0.112501
-0.110553
-0.101391
-0.077530
-0.033284
0.023822
0.078704
0.124385
0.173635
0.212513
0.224670
0.226321
0.224668
0.207014
0.171266
0.123380
0.064637
0.027610
0.003463
-0.033216
-0.057911
-0.069444
-0.077039
-0.041850
-0.015096
0.039062
0.091083
0.124712
0.168944
0.215727
0.239094
0.249799
0.233728
0.205731
0.176010
0.136114
0.083829
0.038299
0.002086
-0.043271
-0.064085
-0.071118
-0.091882
-0.065437
-0.022032
0.010366
0.051109
0.100743
0.178654
0.214973
0.222815
0.223639
0.231603
0.197361
0.147953
0.124058
0.104124
0.031191
-0.018479
-0.059816
-0.092909
-0.097258
-0.088987
-0.065866
-0.030858
0.010224
0.062999
0.096512
0.134192
0.176741
0.198656
0.193785
0.184618
0.157890
0.129284
0.085231
0.032401
-0.012053
-0.070346
-0.095258
-0.119780
-0.116390
-0.128165
-0.097350
-0.060415
-0.027437
0.009907
0.050580
0.087686
0.131150
0.143254
0.148140
0.150499
0.143186
0.091539
0.043247
-0.003184
-0.046732
-0.093278
-0.133370
-0.153467
-0.159939
-0.156700
-0.136594
-0.111388
-0.073504
-0.024422
0.034104
0.065997
0.090275
0.114553
0.127634
0.122995
0.104675
0.071262
0.025738
-0.025209
-0.079535
-0.106101
-0.158345
-0.188435
-0.175337
-0.174088
-0.157752
-0.111661
-0.065168
-0.023777
0.006477
0.055277
0.084723
0.107759
0.116900
0.089324
0.097097
0.062181
-0.001200
-0.046108
-0.090764
-0.113466
-0.153136
-0.187242
-0.184118
-0.167473
-0.163207
-0.131424
-0.071080
-0.014028
0.024396
0.065063
0.106629
0.116597
0.115552
0.109084
0.103485
0.061917
0.005003
-0.045179
-0.073431
-0.117465
-0.159548
-0.177800
-0.175840
-0.171475
-0.148284
-0.122096
-0.078908
-0.019922
0.035680
0.071003
0.102519
0.124735
0.126329
0.120298
0.092127
0.058272
0.032784
-0.013642
-0.061874
-0.133567
-0.151374
-0.179824
-0.194751
-0.175846
-0.147815
-0.107359
-0.066865
-0.020860
0.026806
0.071363
0.116264
0.142349
0.140685
0.123512
0.097955
0.066316
0.019234
-0.009237
-0.064887
-0.108236
-0.145127
-0.174834
-0.184656
-0.183190
-0.152670
-0.100877
-0.057622
-0.007759
0.031773
0.075634
0.114523
0.136455
0.136778
0.125961
0.091888
0.071921
0.026270
-0.019499
-0.063658
-0.121825
-0.143414
-0.163960
-0.197475
-0.186435
-0.137451
-0.089421
-0.051965
-0.031260
-0.007179
0.043696
0.091525
0.121695
0.128322
0.111530
0.091001
0.072734
0.026524
-0.029006
-0.078556
-0.128154
-0.163960
-0.191360
-0.195064
-0.187299
-0.151637
-0.123526
-0.081328
-0.044218
0.008459
0.047628
0.075882
0.109590
0.114866
0.128911
0.101868
0.067040
0.023486
-0.030461
-0.086935
-0.140228
-0.185679
-0.200211
-0.196945
-0.172256
-0.158629
-0.131741
-0.079936
-0.039145
0.003931
0.039655
0.069783
0.115925
0.125912
0.107903
0.071514
0.052046
0.020617
-0.016777
-0.092332
-0.133277
-0.164008
-0.181600
-0.194847
-0.176947
-0.153102
-0.140744
-0.105485
-0.055694
-0.004493
0.039850
0.079783
0.099806
0.103237
0.100150
0.077972
0.041554
-0.007897
-0.049824
-0.101403
-0.128809
-0.161035
-0.187526
-0.195880
-0.185781
-0.170768
-0.136293
-0.092685
-0.052673
0.009200
0.040628
0.076668
0.099670
0.105283
0.090876
0.051707
0.022556
-0.023567
-0.066442
-0.121769
-0.149072
-0.171104
-0.217895
-0.233180
-0.229604
-0.168536
-0.124472
-0.078286
-0.024681
0.021839
0.057736
0.096740
0.104530
0.104013
0.090485
0.073496
0.039809
-0.006282
-0.052142
-0.086039
-0.132825
-0.166612
-0.185367
-0.191323
-0.167428
-0.137491
-0.119199
-0.070733
-0.013317
0.015334
0.052955
0.109633
0.145339
0.135368
0.134382
0.133807
0.089868
0.028514
-0.017084
-0.063642
-0.109115
-0.140968
-0.170695
-0.174616
-0.159051
-0.134162
-0.096547
-0.064327
-0.017867
0.035044
0.074739
0.097470
0.117996
0.129886
0.122990
0.126863
0.101780
0.059784
-0.005253
-0.048573
-0.093013
-0.127242
-0.155176
-0.163007
-0.151009
-0.114067
-0.088784
-0.037735
0.020112
0.062393
0.093753
0.129423
0.144821
0.146645
0.124746
0.105205
0.071490
0.014502
-0.014125
-0.072022
-0.114689
-0.150156
-0.171677
-0.181197
-0.185073
-0.173317
-0.146151
-0.088438
-0.040545
0.002198
0.029974
0.074677
0.080982
0.121166
0.121698
0.111040
0.063401
0.001766
-0.045204
-0.103392
-0.160016
-0.186822
-0.195424
-0.209871
-0.213603
-0.201418
-0.171902
-0.135266
-0.095100
-0.022345
0.034904
0.070945
0.086516
0.076514
0.075847
0.060678
0.028020
-0.018230
-0.078559
-0.130240
-0.157194
-0.193805
-0.226164
-0.211370
-0.215507
-0.203268
-0.168099
-0.115383
-0.085534
-0.041405
0.020152
0.043228
0.052820
0.067950
0.072262
0.038368
0.001744
-0.041250
-0.080240
-0.114210
-0.156784
-0.193546
-0.222015
-0.226030
-0.217000
-0.192245
-0.157991
-0.119686
-0.086269
-0.039980
0.011505
0.055025
0.069965
0.075353
0.062062
0.031649
-0.003398
-0.039158
-0.087105
-0.111131
-0.156222
-0.194062
-0.227266
-0.239755
-0.245121
-0.220294
-0.170796
-0.120571
-0.065337
-0.030184
0.006678
0.045176
0.065590
0.064039
0.062890
0.047596
-0.002887
-0.038523
-0.082367
-0.111382
-0.149302
-0.175197
-0.176769
-0.166175
-0.149207
-0.143492
-0.112978
-0.023335
0.045429
0.085696
0.160271
0.226878
0.277847
0.284439
0.291852
0.318410
0.310856
0.282304
0.267750
0.254005
0.233409
0.213964
0.232360
0.246933
0.292190
0.358258
0.429718
0.505422
0.592264
0.671242
0.736033
0.801352
0.842461
0.856250
0.851334
0.821722
0.766309
0.700831
0.639942
0.564723
0.485607
0.378787
0.276133
0.197632
0.161933
0.152000
0.135944
0.143098
0.154912
0.166002
0.196447
0.212633
0.206040
0.204016
0.192677
0.164440
0.121345
0.070612
0.019462
-0.022701
-0.092541
-0.126217
-0.134590
-0.150000
-0.155502
-0.133488
-0.094550
-0.045738
0.007135
0.028067
0.086739
0.124136
0.142999
0.144818
0.124732
0.093240
0.074599
0.038279
-0.006518
-0.062866
-0.118296
-0.155966
-0.177514
-0.192527
-0.190028
-0.154921
-0.124249
-0.084454
-0.045097
0.000223
0.040358
0.079149
0.105069
0.125818
0.119323
0.108856
0.070154
0.017005
-0.040207
-0.084254
-0.131762
-0.164787
-0.193246
-0.197268
-0.183744
-0.159555
-0.129122
-0.083664
-0.038634
-0.000292
0.054792
0.081314
0.109330
0.122081
0.114200
0.094641
0.070152
0.033339
-0.024064
-0.071150
-0.120008
-0.133131
-0.166467
-0.193014
-0.191499
-0.169897
-0.131270
-0.096742
-0.035852
0.010217
0.056128
0.092491
0.128748
0.138803
0.131473
0.115101
0.079113
0.046891
0.005159
-0.053640
-0.099972
-0.132656
-0.159497
-0.166235
-0.166231
-0.143295
-0.105228
-0.040224
-0.000174
0.043258
0.083414
0.129724
0.154675
0.170060
0.155969
0.137810
0.099283
0.055434
0.009947
-0.021591
-0.067117
-0.090496
-0.132284
-0.145207
-0.120018
-0.095371
-0.069156
-0.008285
0.029628
0.064110
0.131122
0.176365
0.201765
0.199101
0.173889
0.178365
0.120182
0.072580
0.053569
0.008241
-0.047348
-0.073584
-0.090035
-0.107060
-0.096231
-0.074535
-0.031341
0.028493
0.076684
0.115040
0.155647
0.164240
0.203084
0.223090
0.217914
0.189940
0.160228
0.119202
0.061881
0.010592
-0.030566
-0.058291
-0.080914
-0.075345
-0.070804
-0.058377
-0.020809
0.020928
0.061981
0.107811
0.154535
0.185661
0.206738
0.212366
0.219457
0.191317
0.157075
0.109448
0.050234
-0.002709
-0.031268
-0.057276
-0.088193
-0.096985
-0.092111
-0.065539
-0.037673
0.014396
0.059424
0.105124
0.150787
0.192169
0.228356
0.215801
0.205235
0.181051
0.128556
0.069191
0.029698
-0.004164
-0.057463
-0.096023
-0.118052
-0.118018
-0.127601
-0.100792
-0.065154
-0.030775
0.033611
0.082234
0.114655
0.133683
0.159543
0.168721
0.162513
0.131040
0.090214
0.046776
0.000155
-0.053632
-0.117871
-0.161959
-0.180862
-0.161262
-0.145676
-0.124655
-0.103991
-0.056996
-0.004872
0.018281
0.058780
0.107963
0.130490
0.135497
0.121208
0.098470
0.068771
0.021472
-0.013315
-0.062125
-0.117072
-0.156874
-0.187976
-0.193511
-0.171420
-0.149949
-0.124993
-0.093780
-0.056393
-0.004936
0.032436
0.080455
0.103234
0.114949
0.108911
0.088907
0.059383
0.008486
-0.043432
-0.083906
-0.119669
-0.156678
-0.189584
-0.203828
-0.193212
-0.167770
-0.138913
-0.092543
-0.049989
0.032852
0.072084
0.061299
0.100916
0.107904
0.090715
0.075244
0.035707
-0.026448
-0.056462
-0.087014
-0.136956
-0.164209
-0.190319
-0.194228
-0.184141
-0.168783
-0.134138
-0.092362
-0.052854
0.001286
0.046195
0.067445
0.106435
0.119502
0.111456
0.081995
0.046973
-0.003336
-0.041514
-0.096834
-0.131524
-0.156963
-0.186254
-0.197154
-0.186366
-0.172846
-0.134369
-0.095239
-0.031607
0.021897
0.058958
0.070588
0.102982
0.114269
0.117181
0.091145
0.062280
0.018892
-0.024484
-0.066883
-0.111141
-0.153043
-0.189749
-0.192272
-0.181643
-0.151219
-0.118403
-0.084862
-0.036537
0.016181
0.064099
0.090515
0.117453
0.115532
0.118863
0.103232
0.055378
0.003634
-0.052222
-0.089872
-0.117673
-0.155637
-0.188189
-0.187557
-0.175488
-0.184323
-0.124599
-0.059293
-0.031558
0.015784
0.065645
0.099155
0.117688
0.124130
0.104984
0.092374
0.055141
0.018321
-0.039757
-0.097555
-0.144242
-0.160334
-0.193728
-0.195499
-0.192391
-0.161661
-0.121591
-0.082147
-0.033008
0.006681
0.056346
0.081267
0.101991
0.117634
0.104924
0.075798
0.053146
0.010833
-0.041913
-0.105866
-0.161689
-0.183422
-0.207754
-0.219436
-0.219800
-0.170825
-0.124732
-0.079937
-0.029698
0.011509
0.046895
0.061862
0.096076
0.116425
0.119678
0.084020
0.054543
0.009080
-0.034472
-0.087347
-0.161146
-0.195623
-0.197932
-0.211189
-0.207104
-0.185849
-0.157074
-0.105901
-0.054705
-0.012801
0.032497
0.070447
0.096587
0.103239
0.105847
0.081330
0.039608
-0.003921
-0.036883
-0.095358
-0.135933
-0.167791
-0.194431
-0.220433
-0.197688
-0.172158
-0.147294
-0.108477
-0.064149
-0.016632
0.024988
0.056764
0.085722
0.099165
0.095333
0.081038
0.048678
-0.008700
-0.047224
-0.103157
-0.161406
-0.200917
-0.194248
-0.189069
-0.194843
-0.168656
-0.119046
-0.085398
-0.038716
0.015840
0.055284
0.075611
0.094964
0.113204
0.112343
0.082247
0.053049
0.021880
-0.041197
-0.081759
-0.104187
-0.148668
-0.155794
-0.155730
-0.161427
-0.149994
-0.116385
-0.073683
-0.034989
0.016731
0.058175
0.078055
0.130069
0.137627
0.137055
0.123298
0.061085
0.015449
-0.032669
-0.079045
-0.108195
-0.147761
-0.196992
-0.179364
-0.155178
-0.118582
-0.079098
-0.036583
0.006946
0.046248
0.083140
0.116297
0.148104
0.154588
0.139484
0.120215
0.088012
0.026625
-0.019205
-0.060580
-0.101194
-0.133751
-0.169863
-0.191937
-0.183938
-0.169080
-0.136914
-0.093297
-0.052185
-0.002990
0.045666
0.078194
0.113402
0.116780
0.087856
0.060477
0.034500
0.005285
-0.044416
-0.090702
-0.153794
-0.199252
-0.225848
-0.225467
-0.200934
-0.194868
-0.170960
-0.121270
-0.068304
-0.021358
0.022679
0.054947
0.078903
0.105005
0.084726
0.031982
-0.005556
-0.025092
-0.082738
-0.138341
-0.179902
-0.212822
-0.250262
-0.261305
-0.271563
-0.222227
-0.158846
-0.122148
-0.082186
-0.035856
0.001116
0.042230
0.071728
0.083807
0.082464
0.047712
0.010316
-0.029248
-0.076975
-0.134785
-0.178740
-0.218338
-0.249829
-0.258007
-0.244063
-0.225991
-0.179921
-0.134514
-0.091881
-0.034489
0.004360
0.032312
0.060999
0.071855
0.066827
0.039518
0.008272
-0.040952
-0.083526
-0.133482
-0.177965
-0.206245
-0.245180
-0.250438
-0.232986
-0.205911
-0.189115
-0.157593
-0.104091
-0.042411
-0.002606
0.020546
0.043496
0.054819
0.032388
0.018627
-0.002458
-0.060076
-0.093859
-0.147967
-0.186126
-0.213635
-0.237656
-0.236379
-0.239776
-0.233106
-0.190816
-0.127687
-0.076049
-0.025398
0.031137
0.093806
0.149943
0.150988
0.165327
0.173780
0.149513
0.101725
0.072462
0.042746
0.019488
0.016302
0.000441
0.015374
0.085921
0.144597
0.208416
0.270944
0.340268
0.408749
0.473661
0.546011
0.605593
0.668121
0.673918
0.678164
0.674791
0.667672
0.654345
0.631314
0.600205
0.574091
0.544672
0.518415
0.509878
0.513119
0.548920
0.569033
0.554488
0.522108
0.498469
0.463721
0.437185
0.406525
0.350918
0.291284
0.210748
0.138733
0.067800
0.005396
-0.051864
-0.088539
-0.105192
-0.117968
-0.124657
-0.114506
-0.081661
-0.035674
0.022513
0.077216
0.104283
0.140730
0.167952
0.163413
0.139247
0.128441
0.081953
0.030880
-0.008970
-0.046420
-0.099986
-0.148669
-0.191598
-0.193766
-0.197628
-0.171377
-0.128132
-0.082662
-0.039675
0.000961
0.051383
0.074655
0.103201
0.111338
0.105107
0.091376
0.047493
0.004061
-0.043750
-0.096873
-0.135801
-0.185428
-0.210026
-0.217550
-0.206992
-0.190530
-0.167074
-0.116095
-0.059118
-0.023714
0.026749
0.094188
0.129058
0.133510
0.128395
0.090736
0.056090
0.009605
-0.049047
-0.102916
-0.145227
-0.179802
-0.202906
-0.208811
-0.205787
-0.186646
-0.154484
-0.091705
-0.040264
0.001035
0.048027
0.089512
0.108296
0.110963
0.106844
0.095446
0.057454
0.013056
-0.034288
-0.070295
-0.108282
-0.150666
-0.179100
-0.184360
-0.163118
-0.143966
-0.113648
-0.072482
-0.018126
0.030147
0.060709
0.097965
0.120786
0.144776
0.134361
0.114689
0.079144
0.034181
-0.013945
-0.060693
-0.101818
-0.147764
-0.167397
-0.160123
-0.147173
-0.110688
-0.064605
-0.027474
0.009899
0.068627
0.118252
0.146616
0.166221
0.174013
0.163966
0.147252
0.115943
0.070369
0.024810
-0.032144
-0.064104
-0.105325
-0.134495
-0.128973
-0.109701
-0.084228
-0.040039
-0.016503
0.026727
0.090890
0.148621
0.192588
0.214626
0.196458
0.184890
0.142640
0.061765
0.063817
0.052984
0.022519
-0.016579
-0.064036
-0.098624
-0.094111
-0.094792
-0.079359
-0.037373
0.004632
0.052183
0.109670
0.144318
0.182965
0.209202
0.203598
0.202850
0.186549
0.126501
0.104556
0.058707
0.009178
-0.055127
-0.078449
-0.094684
-0.106340
-0.097888
-0.083204
-0.053616
-0.021428
0.042313
0.090512
0.132099
0.162165
0.189374
0.197674
0.185623
0.155220
0.128602
0.079666
0.032175
-0.010209
-0.054104
-0.080221
-0.114772
-0.130181
-0.130815
-0.110847
-0.073785
-0.037702
0.006060
0.060237
0.115061
0.155524
0.177882
0.178868
0.161246
0.133764
0.099668
0.061275
0.004384
-0.047635
-0.091108
-0.125435
-0.169941
-0.172142
-0.171643
-0.139029
-0.100859
-0.060068
-0.024507
0.018014
0.066311
0.096797
0.122106
0.136936
0.137017
0.101444
0.052045
0.008707
-0.018276
-0.083818
-0.129998
-0.170928
-0.187134
-0.211705
-0.203520
-0.191991
-0.142843
-0.095756
-0.044093
-0.008476
0.055139
0.089657
0.112368
0.119733
0.109046
0.090532
0.055829
0.011398
-0.045960
-0.081319
-0.137797
-0.182897
-0.200995
-0.217552
-0.205181
-0.190910
-0.143521
-0.095439
-0.049001
-0.019772
0.023895
0.051319
0.082632
0.096597
0.089860
0.063121
0.023551
-0.004027
-0.052090
-0.104630
-0.149394
-0.176930
-0.217912
-0.223636
-0.210882
-0.190579
-0.158381
-0.122078
-0.078062
-0.009333
0.044650
0.081522
0.100420
0.110462
0.087424
0.067022
0.030889
0.009153
-0.039828
-0.101279
-0.148880
-0.173818
-0.189040
-0.188080
-0.189262
-0.174776
-0.148865
-0.122070
-0.065694
-0.008020
0.043989
0.076941
0.092470
0.100949
0.087777
0.077097
0.051866
0.014563
-0.036665
-0.095297
-0.141496
-0.168412
-0.191002
-0.228504
-0.211767
-0.158695
-0.121603
-0.090767
-0.030134
0.018917
0.048043
0.072658
0.099703
0.113695
0.100262
0.077226
0.047106
0.002928
-0.045362
-0.099164
-0.137153
-0.168500
-0.194311
-0.193465
-0.188640
-0.169331
-0.133703
-0.086636
-0.044497
-0.013134
0.038940
0.091985
0.111577
0.115611
0.109395
0.082610
0.049752
0.011355
-0.048784
-0.090798
-0.138862
-0.193026
-0.222339
-0.197033
-0.188238
-0.178927
-0.131572
-0.100774
-0.048544
0.011247
0.053848
0.086333
0.114134
0.125492
0.120657
0.090152
0.045764
0.009958
-0.045027
-0.085963
-0.149734
-0.188724
-0.215743
-0.225334
-0.205739
-0.185675
-0.148422
-0.100833
-0.048835
-0.000719
0.055234
0.095111
0.099151
0.086684
0.093615
0.075095
0.037226
-0.004410
-0.030603
-0.112688
-0.171857
-0.201706
-0.214945
-0.222447
-0.213990
-0.197398
-0.162434
-0.119132
-0.060398
-0.009951
0.030167
0.063534
0.105959
0.108213
0.096329
0.068319
0.024130
-0.019810
-0.070597
-0.111945
-0.158865
-0.212404
-0.206773
-0.203585
-0.200339
-0.180703
-0.146232
-0.110288
-0.059776
-0.014648
0.035007
0.067563
0.096008
0.092239
0.091789
0.076783
0.035448
-0.010289
-0.048185
-0.091352
-0.135510
-0.176137
-0.201338
-0.198717
-0.178880
-0.155818
-0.123342
-0.082957
-0.026090
0.009694
0.052479
0.086883
0.121627
0.129623
0.126518
0.093371
0.056556
0.014347
-0.041258
-0.089626
-0.124534
-0.155105
-0.169562
-0.178077
-0.165906
-0.155592
-0.119872
-0.079755
-0.031241
0.007670
0.049029
0.087686
0.128653
0.116108
0.100504
0.088624
0.073919
0.039424
-0.019048
-0.065515
-0.094463
-0.129260
-0.145111
-0.161905
-0.168851
-0.149586
-0.094333
-0.055517
0.001694
0.042556
0.068634
0.114260
0.135009
0.141951
0.123402
0.097226
0.066158
0.014259
-0.041864
-0.085400
-0.122360
-0.171250
-0.207372
-0.214500
-0.200596
-0.174692
-0.138856
-0.110348
-0.051968
-0.004985
0.018865
0.050485
0.085811
0.096463
0.079054
0.063866
0.037260
-0.012001
-0.082564
-0.127507
-0.174259
-0.200755
-0.235910
-0.246392
-0.251488
-0.210322
-0.165630
-0.119961
-0.086619
-0.035729
0.002621
0.038091
0.061357
0.058349
0.039244
0.018679
-0.017579
-0.052202
-0.110972
-0.165780
-0.185982
-0.213573
-0.244464
-0.246288
-0.230495
-0.218022
-0.194411
-0.154070
-0.095998
-0.045631
-0.010382
0.030563
0.048028
0.058143
0.055690
0.034922
-0.004955
-0.054769
-0.091625
-0.144276
-0.196511
-0.232814
-0.247138
-0.244474
-0.242160
-0.220088
-0.185498
-0.158146
-0.107110
-0.041298
-0.003272
0.017596
0.041064
0.067284
0.060871
0.030623
-0.006165
-0.042894
-0.093139
-0.138614
-0.189051
-0.222569
-0.253669
-0.274638
-0.254262
-0.220580
-0.202218
-0.164411
-0.111549
-0.065554
-0.009703
0.032671
0.058297
0.053019
0.037100
0.032550
-0.026576
-0.047431
-0.094919
-0.124107
-0.153562
-0.191667
-0.212223
-0.203861
-0.190881
-0.148375
-0.100083
-0.039620
0.019745
0.072779
0.126460
0.186012
0.233155
0.265437
0.296619
0.310045
0.291038
0.261302
0.253147
0.223852
0.209390
0.213871
0.206412
0.219189
0.263905
0.321453
0.391981
0.474587
0.559745
0.642938
0.710212
0.774643
0.841794
0.870742
0.865521
0.831290
0.779930
0.715489
0.650701
0.595773
0.502240
0.425719
0.350226
0.278886
0.230139
0.192704
0.183366
0.174246
0.177119
0.154937
0.169331
0.198205
0.201570
0.181371
0.179672
0.161962
0.116173
0.056809
0.004875
-0.047877
-0.092674
-0.125803
-0.161654
-0.162628
-0.135157
-0.104524
-0.080804
-0.054146
-0.013443
0.044960
0.072978
0.099581
0.125505
0.133951
0.094432
0.077032
0.051444
0.002012
-0.046496
-0.092321
-0.145801
-0.183237
-0.192044
-0.208728
-0.202380
-0.175334
-0.145527
-0.115212
-0.067016
-0.002042
0.034861
0.065011
0.098598
0.105686
0.082340
0.063214
0.032866
-0.010551
-0.060852
-0.108765
-0.144882
-0.190320
-0.201555
-0.203527
-0.204844
-0.180925
-0.148671
-0.102955
-0.051650
-0.022669
0.031060
0.065231
0.079178
0.083522
0.085460
0.072174
0.037717
-0.010119
-0.056458
-0.102934
-0.144380
-0.186795
-0.203282
-0.212894
-0.200438
-0.176174
-0.134060
-0.087189
-0.045121
-0.011712
0.039616
0.076956
0.102989
0.118687
0.119953
0.092539
0.056692
-0.007457
-0.026713
-0.078243
-0.140230
-0.148885
-0.164792
-0.170557
-0.161862
-0.140557
-0.107653
-0.067616
-0.018378
0.028630
0.068361
0.096974
0.119422
0.136161
0.141795
0.131211
0.080844
0.044147
-0.011890
-0.071034
-0.092262
-0.110137
-0.136359
-0.154909
-0.161219
-0.127693
-0.093635
-0.057956
-0.001774
0.057302
0.092309
0.123226
0.161797
0.176647
0.168368
0.127345
0.075510
0.055288
0.024440
-0.022654
-0.063068
-0.091633
-0.125170
-0.131801
-0.114561
-0.104165
-0.081103
-0.011733
0.041644
0.085646
0.130306
0.158951
0.181868
0.177655
0.152393
0.137535
0.114745
0.089022
0.057369
0.006961
-0.042182
-0.081031
-0.110478
-0.116635
-0.118743
-0.086234
-0.041237
-0.011416
0.029556
0.085728
0.132682
0.152893
0.181545
0.180456
0.175747
0.158409
0.124864
0.091515
0.030480
-0.024959
-0.069032
-0.099425
-0.116095
-0.124382
-0.124722
-0.090024
-0.049538
-0.012219
0.021950
0.064233
0.106480
0.147925
0.158147
0.157434
0.150764
0.128837
0.079183
0.059406
0.020070
-0.026184
-0.073750
-0.118529
-0.144054
-0.148740
-0.142833
-0.122778
-0.076337
-0.021369
0.000250
0.035030
0.079049
0.112837
0.137421
0.151605
0.137942
0.108156
0.067796
0.033933
-0.024125
-0.077238
-0.119152
-0.160845
-0.170418
-0.175219
-0.174469
-0.161566
-0.151785
-0.113195
-0.045316
0.015563
0.061361
0.087776
0.108994
0.118544
0.102541
0.064846
0.043578
0.004734
-0.031273
-0.080520
-0.125905
-0.177652
-0.211106
-0.225124
-0.212018
-0.183732
-0.147671
-0.114471
-0.059864
-0.011514
0.031973
0.061020
0.085322
0.090744
0.084733
0.062561
0.022287
-0.009202
-0.055565
-0.099116
-0.155015
-0.181614
-0.205081
-0.223975
-0.222963
-0.207396
-0.157846
-0.110175
-0.055546
-0.008140
0.029206
0.060633
0.091419
0.099978
0.093325
0.053959
0.028689
-0.022810
-0.065388
-0.101825
-0.148688
-0.168144
-0.209192
-0.219891
-0.218796
-0.192368
-0.158775
-0.125469
-0.070662
-0.014104
0.013851
0.044210
0.079442
0.105111
0.100142
0.069499
0.032444
-0.005605
-0.045774
-0.094951
-0.123389
-0.166354
-0.171081
-0.187907
-0.204340
-0.175097
-0.138195
-0.109412
-0.074423
-0.028027
0.015174
0.063060
0.088831
0.104395
0.098045
0.068896
0.038237
0.001567
-0.035130
-0.083963
-0.122718
-0.162841
-0.195722
-0.210573
-0.196155
-0.174126
-0.123262
-0.093004
-0.054159
0.003720
0.051864
0.067881
0.088823
0.097641
0.084131
0.067770
0.042617
0.007903
-0.042620
-0.086497
-0.150489
-0.178081
-0.192240
-0.201225
-0.194609
-0.184884
-0.147606
-0.094831
-0.034297
0.013548
0.050864
0.069964
0.087316
0.101748
0.105774
0.081704
0.032649
-0.005017
-0.060406
-0.106085
-0.142805
-0.173763
-0.200302
-0.205861
-0.196713
-0.176251
-0.139355
-0.102971
-0.055497
-0.008046
0.027155
0.048287
0.103002
0.119878
0.102646
0.076105
0.035654
-0.010219
-0.057445
-0.102024
-0.150150
-0.180022
-0.197496
-0.212654
-0.209788
-0.175498
-0.149158
-0.122423
-0.055191
0.001541
0.048160
0.076849
0.082600
0.084080
0.059704
0.035535
0.019263
0.001174
-0.052091
-0.104947
-0.154256
-0.176280
-0.198982
-0.219751
-0.218666
-0.202942
-0.157552
-0.108817
-0.058329
-0.023243
0.025848
0.061766
0.079237
0.087416
0.088070
0.080884
0.034621
-0.009640
-0.062175
-0.107297
-0.147722
-0.177790
-0.196938
-0.212900
-0.212104
-0.185859
-0.148842
-0.115359
-0.074259
-0.011054
0.039636
0.090346
0.103654
0.128383
0.133493
0.119101
0.069673
0.003330
-0.038236
-0.085664
-0.118775
-0.150647
-0.174840
-0.190155
-0.179078
-0.157136
-0.135892
-0.101238
-0.056077
0.001094
0.054258
0.094969
0.119032
0.121157
0.104997
0.084719
0.065688
0.025400
-0.027749
-0.070689
-0.112595
-0.145369
-0.163892
-0.170567
-0.159732
-0.140507
-0.107901
-0.079848
-0.052908
0.021499
0.070005
0.110466
0.119584
0.130273
0.122053
0.120052
0.093478
0.040239
-0.011401
-0.063904
-0.112241
-0.168637
-0.189197
-0.215209
-0.192201
-0.168098
-0.136747
-0.103492
-0.043959
-0.003198
0.023426
0.042903
0.059604
0.071292
0.083412
0.055454
0.016826
-0.027661
-0.069200
-0.120185
-0.158051
-0.190310
-0.205751
-0.233207
-0.242654
-0.203574
-0.164691
-0.131083
-0.093891
-0.040672
0.006833
0.039800
0.058397
0.071932
0.055738
0.017025
-0.014615
-0.039095
-0.088453
-0.124397
-0.197073
-0.226730
-0.248568
-0.275803
-0.257848
-0.226157
-0.194885
-0.141154
-0.108174
-0.073005
-0.025690
0.021265
0.037057
0.053263
0.040246
0.022502
-0.010769
-0.054755
-0.113599
-0.156229
-0.176929
-0.211418
-0.221037
-0.253100
-0.269083
-0.258970
-0.209173
-0.152426
-0.097574
-0.058242
-0.016754
0.023197
0.021492
0.050436
0.056044
0.038563
-0.003475
-0.053670
-0.111151
-0.142426
-0.185293
-0.219291
-0.244639
-0.280535
-0.262035
-0.219145
-0.200375
-0.156062
-0.100676
-0.051575
-0.009641
0.016342
0.041671
0.055844
0.054495
0.014632
-0.013169
-0.053643
-0.107422
-0.157785
-0.206311
-0.246337
-0.263312
-0.281360
-0.246024
-0.217266
-0.179419
-0.126550
-0.067505
-0.000465
0.049547
0.107206
0.165502
0.190878
0.189241
0.189474
0.160734
0.140829
0.116513
0.097416
0.076102
0.067786
0.073738
0.083749
0.124701
0.174840
0.227742
0.302001
0.372159
0.450101
0.538423
0.608320
0.670127
0.730498
0.761914
0.768266
0.763467
0.755116
0.702275
0.661493
0.623026
0.580680
0.532028
0.506062
0.492623
0.490240
0.476091
0.455858
0.423202
0.401691
0.389152
0.371657
0.341840
0.312006
0.270291
0.216348
0.153507
0.117898
0.084755
0.032932
-0.010317
-0.063567
-0.095803
-0.126607
-0.114558
-0.106749
-0.074387
-0.033139
0.010054
0.037244
0.063200
0.110478
0.138516
0.143036
0.125807
0.097672
0.031034
-0.016736
-0.050883
-0.098121
-0.135263
-0.168674
-0.191185
-0.197950
-0.197368
-0.160284
-0.129385
-0.093754
-0.049666
-0.004747
0.026017
0.055113
0.075600
0.091349
0.083931
0.060262
0.020687
-0.020851
-0.062679
-0.092035
-0.151009
-0.203400
-0.218570
-0.231255
-0.223867
-0.181914
-0.154436
-0.112769
-0.056218
-0.012703
0.037346
0.065235
0.082013
0.097016
0.069459
0.066446
0.011254
-0.041238
-0.089556
-0.114866
-0.151169
-0.188437
-0.204362
-0.211106
-0.197933
-0.182082
-0.142535
-0.090955
-0.052030
-0.004032
0.040098
0.067769
0.092962
0.094359
0.094862
0.078068
0.040904
0.001361
-0.047642
-0.093657
-0.147337
-0.169070
-0.187214
-0.202291
-0.180922
-0.161289
-0.138237
-0.082264
-0.026408
-0.001347
0.057354
0.099273
0.132678
0.154186
0.129441
0.112980
0.065514
0.002690
-0.027952
-0.064576
-0.111825
-0.141379
-0.161983
-0.167726
-0.157399
-0.137139
-0.100664
-0.054542
0.002671
0.053366
0.088499
0.126915
0.140405
0.171663
0.154295
0.134280
0.094422
0.036043
0.009787
-0.022594
-0.074938
-0.112238
-0.133912
-0.135110
-0.138488
-0.108637
-0.079383
-0.034635
0.006983
0.053544
0.111203
0.137855
0.171379
0.191627
0.184922
0.169844
0.142968
0.085885
0.012321
-0.019723
-0.044826
-0.100343
-0.131088
-0.134988
-0.113711
-0.082625
-0.052482
-0.011336
0.037873
0.092200
0.129092
0.157897
0.180342
0.205614
0.196395
0.150293
0.129193
0.082590
0.032575
-0.017975
-0.056900
-0.085659
-0.111077
-0.127942
-0.130521
-0.101935
-0.080714
-0.048161
0.013515
0.064124
0.114000
0.144925
0.165254
0.177176
0.157454
0.121272
0.104954
0.071268
0.012907
-0.025742
-0.075205
-0.104977
-0.126477
-0.149590
-0.148504
-0.139818
-0.110265
-0.054689
-0.007147
0.041619
0.064430
0.091804
0.114510
0.133193
0.137351
0.115519
0.082202
0.030156
-0.031492
-0.086934
-0.125338
-0.139654
-0.159882
-0.184319
-0.175131
-0.155952
-0.117510
-0.069831
-0.023861
0.011248
0.043073
0.076426
0.108735
0.109671
0.088238
0.072419
0.025940
-0.016491
-0.056920
-0.094761
-0.134128
-0.172209
-0.206943
-0.235293
-0.237859
-0.195958
-0.158084
-0.110767
-0.061325
-0.010148
0.030228
0.068296
0.082824
0.088922
0.095482
0.071614
0.019243
-0.016814
-0.062687
-0.114682
-0.154682
-0.188523
-0.224805
-0.233985
-0.220411
-0.194521
-0.162516
-0.113893
-0.065786
-0.020067
0.028782
0.039069
0.064042
0.079141
0.081898
0.062147
0.022270
-0.037714
-0.068802
-0.117931
-0.195426
-0.222711
-0.222028
-0.229796
-0.218680
-0.190220
-0.154639
-0.124623
-0.084969
-0.020892
0.020902
0.058476
0.078332
0.090800
0.083285
0.071178
0.023657
-0.025306
-0.067578
-0.106160
-0.139253
-0.185697
-0.216617
-0.233451
-0.220787
-0.200668
-0.167383
-0.109078
-0.062129
-0.024554
0.016297
0.067005
0.099415
0.106508
0.088186
0.080825
0.041203
0.008928
-0.034336
-0.094259
-0.144744
-0.194012
-0.211138
-0.216220
-0.208892
-0.185397
-0.159870
-0.124055
-0.070208
-0.033873
0.012633
0.060099
0.096651
0.120351
0.078706
0.062343
0.043564
0.000237
-0.049495
-0.090536
-0.133514
-0.174186
-0.198913
-0.210645
-0.191136
-0.173037
-0.164427
-0.113010
-0.055048
-0.018293
0.024815
0.047192
0.088269
0.105971
0.089695
0.050791
0.010323
-0.027134
-0.090306
-0.105992
-0.133996
-0.168575
-0.186754
-0.209703
-0.229002
-0.193073
-0.141539
-0.088624
-0.041554
0.003494
0.043020
0.073888
0.078670
0.090488
0.081620
0.055191
0.027001
-0.012444
-0.067773
-0.107661
-0.137635
-0.179833
-0.216536
-0.213672
-0.204516
-0.187440
-0.167743
-0.122817
-0.061563
-0.001745
0.041800
0.071411
0.079119
0.080335
0.054429
0.037214
0.016117
-0.020625
-0.074732
-0.129945
-0.148501
-0.186120
-0.211425
-0.223659
-0.222860
-0.209160
-0.165175
-0.108366
-0.062360
-0.020675
0.022951
0.061397
0.071705
0.080823
0.078188
0.046904
0.012844
-0.034675
-0.075508
-0.127384
-0.167014
-0.192378
-0.216328
-0.253289
-0.239353
-0.209836
-0.176090
-0.144468
-0.091972
-0.026652
0.021725
0.064846
0.089801
0.110027
0.090117
0.062853
0.032407
-0.015165
-0.077768
-0.130674
-0.183360
-0.188443
-0.198124
-0.202230
-0.206268
-0.199655
-0.164116
-0.108321
-0.052219
0.006790
0.040424
0.080012
0.104825
0.118381
0.107339
0.099136
0.066988
0.012673
-0.040649
-0.085960
-0.137039
-0.169119
-0.188445
-0.196773
-0.186050
-0.172806
-0.141929
-0.093773
-0.042734
-0.003507
0.043830
0.073471
0.097261
0.122593
0.116000
0.098803
0.068249
0.021691
-0.029119
-0.074345
-0.098136
-0.132409
-0.157646
-0.170230
-0.166564
-0.148352
-0.110937
-0.064028
-0.008480
0.042734
0.085758
0.121858
0.104559
0.073620
0.093514
0.079704
0.051454
0.016596
-0.062649
-0.111988
-0.144544
-0.183390
-0.200480
-0.224100
-0.215543
-0.210666
-0.163041
-0.101216
-0.056086
-0.017548
0.025535
0.058519
0.063114
0.076013
0.071467
0.032236
-0.004888
-0.045565
-0.082418
-0.121814
-0.157083
-0.184211
-0.212591
-0.230261
-0.219473
-0.182991
-0.163244
-0.123046
-0.078586
-0.025762
0.018399
0.055551
0.068589
0.083608
0.064926
0.038444
0.016713
-0.032637
-0.102534
-0.141647
-0.163879
-0.192472
-0.228998
-0.242845
-0.247169
-0.212749
-0.178146
-0.122498
-0.060644
-0.039338
-0.003164
0.043332
0.079709
0.079075
0.070364
0.044519
0.018569
-0.038626
-0.088047
-0.134032
-0.174456
-0.200774
-0.235725
-0.244615
-0.229751
-0.215826
-0.177607
-0.131308
-0.084419
-0.044841
0.009503
0.051791
0.069178
0.079035
0.063482
0.032295
0.005046
-0.041088
-0.074273
-0.128395
-0.189358
-0.228537
-0.250037
-0.254488
-0.251931
-0.224940
-0.184522
-0.142424
-0.085010
-0.040735
0.000677
0.019668
0.065654
0.081272
0.047476
0.017175
-0.007951
-0.037471
-0.082920
-0.139507
-0.177022
-0.212452
-0.205428
-0.220745
-0.208843
-0.169712
-0.123022
-0.074560
-0.017084
0.055427
0.128631
0.178511
0.203686
0.234247
0.246673
0.251816
0.259842
0.237647
0.193448
0.183210
0.185098
0.182838
0.188836
0.227421
0.270601
0.298692
0.360338
0.429618
0.522201
0.616891
0.709954
0.769257
0.818974
0.871905
0.887989
0.875337
0.837830
0.790664
0.728341
0.648274
0.590757
0.555663
0.487228
0.419153
0.348105
0.286611
0.255622
0.255075
0.244957
0.251886
0.247094
0.249240
0.253609
0.257922
0.252648
0.222649
0.180696
0.125748
0.082275
0.016873
-0.065038
-0.099711
-0.110542
-0.127250
-0.129706
-0.113052
-0.071929
-0.020150
0.007805
0.036686
0.085239
0.116644
0.137001
0.142072
0.121523
0.088770
0.059843
0.017712
-0.028344
-0.070510
-0.109240
-0.144881
-0.164883
-0.188906
-0.213414
-0.183661
-0.136046
-0.087637
-0.059338
0.012205
0.056080
0.101133
0.109538
0.109118
0.110891
0.088006
0.043486
-0.001435
-0.048152
-0.080245
-0.130436
-0.167350
-0.188370
-0.203033
-0.194922
-0.172185
-0.141830
-0.090725
-0.040935
0.007396
0.053691
0.089924
0.115482
0.115077
0.096419
0.081140
0.057852
0.016776
-0.033106
-0.077594
-0.137131
-0.166759
-0.184967
-0.186422
-0.177223
-0.164972
-0.143717
-0.085768
-0.032366
0.024186
0.064059
0.098064
0.110192
0.121750
0.120819
0.105246
0.070330
0.034259
-0.010199
-0.043566
-0.093031
-0.141411
-0.165318
-0.177048
-0.172456
-0.156507
-0.123960
-0.078793
-0.030724
0.025034
0.072887
0.135463
0.164589
0.172202
0.164914
0.120294
0.106235
0.060434
0.016637
-0.035032
-0.078061
-0.112469
-0.139072
-0.152380
-0.138780
-0.118166
-0.079450
-0.032438
0.005580
0.049100
0.096349
0.138523
0.175240
0.179746
0.168237
0.165794
0.137468
0.099882
0.046968
0.001244
-0.050163
-0.081689
-0.093303
-0.097919
-0.090353
-0.071021
-0.041618
-0.014559
0.033293
0.089527
0.139974
0.167792
0.187118
0.191955
0.203081
0.186002
0.156794
0.111354
0.081052
0.020735
-0.034980
-0.053235
-0.075466
-0.090511
-0.097165
-0.072950
-0.039147
0.011781
0.072937
0.103355
0.147561
0.182740
0.207917
0.204293
0.201552
0.177259
0.140992
0.101929
0.054554
0.005423
-0.052849
-0.077053
-0.087633
-0.091677
-0.091968
-0.085933
-0.042959
0.006338
0.054417
0.105627
0.155629
0.172665
0.187758
0.213191
0.200309
0.183346
0.133205
0.089764
0.041531
-0.022825
-0.067233
-0.102882
-0.129063
-0.130203
-0.122592
-0.101576
-0.068380
-0.020648
0.028527
0.067509
0.100410
0.127769
0.157573
0.163590
0.133560
0.124838
0.085877
0.061571
0.013596
-0.050199
-0.103931
-0.134608
-0.151955
-0.162639
-0.170014
-0.154396
-0.124916
-0.070979
-0.036785
0.034569
0.088645
0.122454
0.137799
0.139427
0.121041
0.103355
0.076061
0.025090
-0.022749
-0.072827
-0.118677
-0.157956
-0.177831
-0.196446
-0.187302
-0.159161
-0.126664
-0.088006
-0.048450
0.007011
0.076444
0.113895
0.103751
0.097851
0.095230
0.081794
0.057731
0.003110
-0.042032
-0.088905
-0.138086
-0.182859
-0.190991
-0.198783
-0.190943
-0.182957
-0.140924
-0.097213
-0.048479
-0.009851
0.031798
0.082505
0.095115
0.094339
0.103403
0.090721
0.052033
0.009949
-0.032794
-0.092504
-0.137695
-0.164143
-0.166247
-0.179940
-0.187656
-0.167687
-0.131958
-0.090825
-0.045913
0.013595
0.045511
0.077985
0.093536
0.112391
0.108841
0.090884
0.056427
0.004192
-0.037121
-0.083146
-0.109247
-0.141671
-0.167646
-0.185739
-0.193046
-0.146572
-0.104530
-0.063472
-0.052100
-0.002466
0.043143
0.089520
0.112252
0.099746
0.115189
0.081632
0.051509
0.014341
-0.026047
-0.065349
-0.117738
-0.150574
-0.171487
-0.181573
-0.156886
-0.150443
-0.139491
-0.079399
-0.034712
0.021657
0.060259
0.086002
0.122054
0.130074
0.114885
0.069924
0.058094
0.016420
-0.019606
-0.082323
-0.112243
-0.145347
-0.174464
-0.182110
-0.173503
-0.150250
-0.117119
-0.062217
-0.009802
0.019120
0.071425
0.113844
0.118144
0.122802
0.129930
0.107428
0.067157
0.019080
-0.035460
-0.084284
-0.110113
-0.139624
-0.172431
-0.186933
-0.183046
-0.163818
-0.128386
-0.086669
-0.028857
0.020836
0.046475
0.091407
0.102633
0.122146
0.123052
0.103957
0.064990
0.021564
-0.026534
-0.075953
-0.125490
-0.163990
-0.183433
-0.182761
-0.178385
-0.182489
-0.146694
-0.093111
-0.038546
0.006720
0.053833
0.084960
0.104405
0.123947
0.113298
0.104594
0.074581
0.016986
-0.029079
-0.081900
-0.138851
-0.187340
-0.202512
-0.205514
-0.187836
-0.161632
-0.131504
-0.091316
-0.060013
-0.021456
0.036027
0.072834
0.089332
0.107092
0.119440
0.110564
0.085258
0.018148
-0.032781
-0.094433
-0.129585
-0.171194
-0.199196
-0.204365
-0.187589
-0.156098
-0.125091
-0.079037
-0.033072
0.003119
0.028448
0.064044
0.106813
0.114089
0.097320
0.081911
0.045041
0.009486
-0.032774
-0.084409
-0.137602
-0.176201
-0.212075
-0.198783
-0.179710
-0.161416
-0.142650
-0.106965
-0.063348
-0.011515
0.041326
0.058988
0.072600
0.109400
0.116089
0.089753
0.055469
0.015249
-0.032868
-0.088509
-0.122638
-0.152156
-0.180172
-0.185629
-0.170426
-0.144854
-0.109496
-0.063393
-0.013160
0.031028
0.062002
0.103690
0.133474
0.145589
0.136626
0.123111
0.066843
0.036694
0.000936
-0.033530
-0.082128
-0.123766
-0.156050
-0.150396
-0.150287
-0.121859
-0.098441
-0.047761
-0.023764
0.025670
0.074102
0.114479
0.143375
0.151597
0.148167
0.127764
0.094747
0.046171
-0.001365
-0.037951
-0.069970
-0.113169
-0.143045
-0.147770
-0.120672
-0.125980
-0.080192
-0.018807
0.000768
0.045417
0.089326
0.119079
0.156884
0.156562
0.142345
0.111845
0.061776
0.014230
-0.023995
-0.078576
-0.124916
-0.161054
-0.169117
-0.183721
-0.191927
-0.159672
-0.120691
-0.072651
-0.031197
0.012959
0.052334
0.091502
0.113626
0.123605
0.112758
0.083945
0.056326
0.002481
-0.045486
-0.096256
-0.148518
-0.187870
-0.223348
-0.232626
-0.221766
-0.203072
-0.170745
-0.115110
-0.073030
-0.025034
0.020507
0.050637
0.070839
0.088244
0.075348
0.053391
0.025825
-0.013450
-0.060941
-0.124426
-0.168954
-0.200695
-0.222625
-0.236611
-0.230449
-0.211212
-0.153485
-0.114010
-0.084226
-0.032107
0.017325
0.059301
0.079958
0.085492
0.073186
0.048936
0.032104
-0.017473
-0.067885
-0.121201
-0.166250
-0.199218
-0.230519
-0.234013
-0.218886
-0.200142
-0.178364
-0.131159
-0.084259
-0.035043
0.004422
0.036431
0.061086
0.076112
0.076266
0.055188
0.026093
-0.020367
-0.072525
-0.117943
-0.161358
-0.185647
-0.197300
-0.220264
-0.212365
-0.183391
-0.159441
-0.127849
-0.094083
-0.039488
-0.001483
0.022764
0.038300
0.053798
0.049135
0.009317
-0.017801
-0.037561
-0.069561
-0.096549
-0.147261
-0.175050
-0.181485
-0.184974
-0.200885
-0.163756
-0.111119
-0.043931
0.005680
0.081719
0.130167
0.165463
0.219822
0.263068
0.266048
0.272689
0.273751
0.248366
0.235458
0.240715
0.247573
0.251068
0.249582
0.271009
0.318490
0.374172
0.443363
0.529943
0.631588
0.716105
0.791691
0.841035
0.901956
0.927197
0.923039
0.886193
0.858179
0.803437
0.734186
0.678100
0.612582
0.552224
0.474547
0.381876
0.311202
0.264596
0.245395
0.232430
0.240534
0.258631
0.264275
0.289856
0.314012
0.309089
0.294460
0.259236
0.218443
0.159564
0.093486
0.043138
-0.030404
-0.096824
-0.118266
-0.128914
-0.127680
-0.106835
-0.079619
-0.045599
0.011737
0.058609
0.095100
0.134209
0.158223
0.163043
0.138333
0.118160
0.085222
0.039554
-0.025453
-0.083336
-0.126429
-0.160371
-0.163003
-0.166932
-0.176489
-0.155558
-0.117866
-0.079923
-0.033350
0.013938
0.058232
0.090162
0.117356
0.131443
0.120698
0.110006
0.079480
0.029072
-0.017038
-0.068313
-0.123362
-0.146954
-0.174033
-0.180816
-0.175457
-0.145483
-0.123198
-0.090898
-0.038368
0.017013
0.063614
0.084813
0.110938
0.122297
0.119479
0.082899
0.057581
0.014498
-0.026203
-0.065829
-0.112705
-0.143611
-0.163621
-0.171415
-0.171458
-0.155466
-0.119668
-0.082862
-0.030142
0.025876
0.070778
0.098620
0.126925
0.131981
0.123141
0.103571
0.073113
0.049131
0.000479
-0.042484
-0.102395
-0.142909
-0.145589
-0.152209
-0.132899
-0.118610
-0.097443
-0.063022
-0.011970
0.047525
0.089911
0.124980
0.149572
0.159493
0.156120
0.147547
0.111621
0.050889
-0.003506
-0.042094
-0.068546
-0.102225
-0.116754
-0.114087
-0.107658
-0.080970
-0.047853
-0.018361
0.012844
0.042852
0.124864
0.165977
0.198477
0.221587
0.201499
0.183491
0.135932
0.096659
0.052183
0.010319
-0.041383
-0.068461
-0.087261
-0.107993
-0.090325
-0.069393
-0.025910
0.027768
0.073887
0.120498
0.139357
0.166741
0.205442
0.234414
0.214927
0.190446
0.158900
0.113278
0.072858
0.023173
-0.023489
-0.058869
-0.079158
-0.082190
-0.074333
-0.047732
-0.014003
0.022451
0.065548
0.121700
0.161300
0.198104
0.217927
0.213568
0.221122
0.200796
0.178056
0.130147
0.077419
0.027303
-0.024612
-0.070387
-0.086889
-0.087465
-0.087555
-0.067526
-0.032685
-0.000083
0.061969
0.101078
0.146326
0.178751
0.194116
0.198865
0.205170
0.183031
0.153265
0.102864
0.053537
-0.018984
-0.058467
-0.075315
-0.109981
-0.115198
-0.104920
-0.073801
-0.043428
-0.026953
0.000887
0.057391
0.112155
0.153763
0.167376
0.160194
0.161915
0.142237
0.110411
0.067934
0.017361
-0.031043
-0.074690
-0.105258
-0.132984
-0.157773
-0.156194
-0.142401
-0.130525
-0.065597
-0.007085
0.026092
0.075230
0.106080
0.120556
0.139876
0.140476
0.109730
0.084118
0.043315
0.002793
-0.055834
-0.104186
-0.138988
-0.157351
-0.167152
-0.170984
-0.152913
-0.117634
-0.076460
-0.037104
0.004395
0.053442
0.099014
0.123405
0.114227
0.113180
0.080319
0.047522
0.023685
-0.025559
-0.071492
-0.117117
-0.144898
-0.172832
-0.182151
-0.182249
-0.136848
-0.114746
-0.090661
-0.045470
0.009742
0.052978
0.086656
0.101871
0.106323
0.114525
0.098636
0.066568
0.005850
-0.048348
-0.092905
-0.136865
-0.152711
-0.163114
-0.164724
-0.179479
-0.160622
-0.124234
-0.079146
-0.024712
0.014496
0.063812
0.094508
0.118654
0.131708
0.125526
0.104027
0.076403
0.034926
-0.028289
-0.092306
-0.125260
-0.152092
-0.161773
-0.172958
-0.174056
-0.155998
-0.114858
-0.060392
-0.021139
0.024636
0.074300
0.110064
0.112697
0.109333
0.123169
0.078982
0.060038
0.028996
-0.007920
-0.044546
-0.117575
-0.176372
-0.183126
-0.167031
-0.167059
-0.143144
-0.106177
-0.068904
-0.023023
0.031760
0.074313
0.107081
0.131234
0.142014
0.135054
0.122045
0.079525
0.033027
-0.017596
-0.069969
-0.109816
-0.143876
-0.177821
-0.181699
-0.181900
-0.155304
-0.113913
-0.064499
-0.020915
0.032681
0.068590
0.100150
0.134353
0.154287
0.140535
0.110501
0.076879
0.033145
-0.005158
-0.067436
-0.109950
-0.141861
-0.172231
-0.180564
-0.173322
-0.152716
-0.116700
-0.074372
-0.029359
0.028956
0.072439
0.095952
0.115091
0.128417
0.121912
0.104557
0.074701
0.030402
-0.013621
-0.064543
-0.104181
-0.147349
-0.180359
-0.182902
-0.165718
-0.135485
-0.103445
-0.078818
-0.040748
0.008125
0.043560
0.082644
0.101788
0.127056
0.127124
0.094005
0.050068
0.003183
-0.049819
-0.096063
-0.146051
-0.172975
-0.165905
-0.170694
-0.175054
-0.155803
-0.133130
-0.081404
-0.042168
0.010683
0.051874
0.096732
0.091555
0.097306
0.124549
0.096402
0.072725
0.024686
-0.028345
-0.093362
-0.139040
-0.157107
-0.174901
-0.185239
-0.189618
-0.172586
-0.126958
-0.076067
-0.036824
-0.001113
0.048139
0.080250
0.109765
0.111217
0.112693
0.094429
0.048067
0.009854
-0.045149
-0.089511
-0.115604
-0.148793
-0.194770
-0.203466
-0.182316
-0.155808
-0.118398
-0.096484
-0.053315
-0.004747
0.043559
0.071499
0.092069
0.092739
0.107889
0.090822
0.053483
0.003642
-0.040448
-0.093652
-0.133385
-0.148445
-0.174730
-0.184640
-0.185886
-0.169445
-0.128686
-0.082790
-0.038127
0.011386
0.058244
0.092290
0.122268
0.141247
0.130941
0.096595
0.066436
0.013186
-0.049494
-0.094396
-0.108497
-0.140852
-0.163519
-0.175945
-0.175649
-0.137125
-0.101193
-0.060116
0.002445
0.052499
0.086463
0.117201
0.138198
0.150192
0.150707
0.124732
0.081654
0.050948
0.005811
-0.046500
-0.090076
-0.120724
-0.146674
-0.160753
-0.153760
-0.129116
-0.099285
-0.057046
-0.019956
0.042728
0.099715
0.138488
0.166457
0.167313
0.153132
0.158305
0.138165
0.079615
0.016186
-0.024379
-0.065837
-0.087033
-0.137562
-0.160518
-0.148968
-0.112304
-0.087090
-0.051396
-0.003843
0.043340
0.074709
0.099443
0.121521
0.137977
0.133722
0.093142
0.059678
0.038063
0.002143
-0.054102
-0.110901
-0.147666
-0.160069
-0.186160
-0.178341
-0.154473
-0.134763
-0.089473
-0.045063
-0.000846
0.048535
0.102889
0.107913
0.102293
0.090194
0.073457
0.039310
-0.011671
-0.049489
-0.106107
-0.129052
-0.186815
-0.236270
-0.217814
-0.203794
-0.182469
-0.165467
-0.123753
-0.067624
-0.014500
0.016165
0.057342
0.079169
0.080520
0.080239
0.057276
0.033342
-0.012807
-0.056261
-0.107193
-0.148062
-0.179332
-0.205486
-0.217608
-0.214786
-0.183429
-0.155370
-0.131294
-0.072988
-0.023398
-0.000158
0.047872
0.069423
0.088109
0.090135
0.053514
0.008678
-0.031262
-0.068563
-0.094461
-0.136500
-0.183461
-0.192856
-0.202078
-0.202506
-0.185530
-0.177202
-0.136654
-0.082113
-0.009113
0.020211
0.055783
0.087868
0.083321
0.084222
0.064920
0.031879
-0.020805
-0.076265
-0.113498
-0.156270
-0.183890
-0.212231
-0.241099
-0.233295
-0.197794
-0.162641
-0.132764
-0.088639
-0.051232
0.005427
0.030418
0.074135
0.084971
0.085674
0.065593
0.047126
0.013565
-0.036383
-0.073201
-0.097536
-0.111047
-0.122795
-0.141398
-0.126240
-0.080152
-0.032871
0.030516
0.098904
0.168117
0.221874
0.287791
0.341859
0.392723
0.427493
0.449640
0.445952
0.439306
0.424656
0.411715
0.382671
0.386301
0.409852
0.456542
0.496104
0.555884
0.622083
0.697059
0.766869
0.819270
0.856506
0.898668
0.907775
0.883664
0.868106
0.820886
0.747850
0.644145
0.506843
0.409115
0.322894
0.243264
0.151742
0.098516
0.056251
0.058098
0.080012
0.097232
0.140093
0.183398
0.215087
0.233050
0.256949
0.228865
0.203124
0.184524
0.145367
0.094815
0.042025
-0.022919
-0.063079
-0.089820
-0.125680
-0.145360
-0.146490
-0.117181
-0.075903
-0.043179
-0.002270
0.047261
0.082300
0.106779
0.131914
0.133412
0.141690
0.109555
0.075969
0.031615
-0.043580
-0.058860
-0.094186
-0.118517
-0.147262
-0.175132
-0.178731
-0.170441
-0.118132
-0.083003
-0.035321
0.005733
0.053844
0.092825
0.112331
0.128522
0.114353
0.103413
0.065522
0.012547
-0.029992
-0.078605
-0.127047
-0.143962
-0.148465
-0.157319
-0.159805
-0.157698
-0.120587
-0.067357
-0.023652
0.022263
0.049931
0.084124
0.112027
0.126823
0.121706
0.099663
0.071421
0.035451
-0.008972
-0.066644
-0.107625
-0.138532
-0.153710
-0.162324
-0.145156
-0.118325
-0.085183
-0.062553
-0.018552
0.030357
0.072917
0.111309
0.133413
0.141954
0.139727
0.126249
0.092390
0.043642
0.001769
-0.052077
-0.093384
-0.121879
-0.140478
-0.149987
-0.126354
-0.111105
-0.084766
-0.034223
0.021615
0.077286
0.112932
0.142460
0.174880
0.177741
0.186702
0.185152
0.140108
0.078731
0.037658
-0.014826
-0.052992
-0.092035
-0.128916
-0.144103
-0.118554
-0.073899
-0.036788
-0.004222
0.051552
0.085497
0.145661
0.201552
0.212101
0.220217
0.221986
0.199172
0.166448
0.116768
0.071326
0.014108
-0.009789
-0.046702
-0.080732
-0.084328
-0.077656
-0.051455
-0.024258
0.022432
0.074228
0.123577
0.160355
0.196660
0.219443
0.242886
0.230842
0.216947
0.185891
0.141786
0.095134
0.039576
-0.006097
-0.028791
-0.054513
-0.072026
-0.079443
-0.060197
-0.029937
0.026842
0.079598
0.116047
0.148437
0.190344
0.220170
0.229071
0.225953
0.197038
0.169833
0.140681
0.096585
0.038974
-0.009764
-0.040306
-0.075827
-0.080057
-0.079220
-0.062517
-0.048369
-0.007770
0.066089
0.101400
0.146468
0.189195
0.215148
0.220349
0.188224
0.159607
0.125832
0.043773
0.019077
0.008418
-0.009219
-0.061167
-0.086219
-0.111763
-0.120312
-0.091217
-0.061559
-0.026351
0.020051
0.066531
0.129588
0.141120
0.154960
0.165374
0.161487
0.135583
0.099210
0.058999
0.009686
-0.032796
-0.079285
-0.128691
-0.148483
-0.159402
-0.156355
-0.140306
-0.103727
-0.065956
-0.008724
0.034109
0.073777
0.108838
0.128186
0.140296
0.142859
0.116186
0.078772
0.036502
-0.022481
-0.069731
-0.108231
-0.148446
-0.176975
-0.170520
-0.173152
-0.154757
-0.116234
-0.091700
-0.027203
0.024830
0.050697
0.098645
0.111911
0.126943
0.133920
0.106476
0.068583
0.010624
-0.033336
-0.080268
-0.122083
-0.158182
-0.183965
-0.182114
-0.181306
-0.165931
-0.131151
-0.090127
-0.051296
-0.016602
0.037720
0.086917
0.127071
0.126623
0.128701
0.099436
0.072480
0.034281
-0.024739
-0.080141
-0.127348
-0.156955
-0.184723
-0.195700
-0.197560
-0.176183
-0.132214
-0.084054
-0.042230
0.010190
0.063701
0.086183
0.109202
0.116932
0.128310
0.104881
0.061860
0.011589
-0.013314
-0.039483
-0.085007
-0.138183
-0.165932
-0.175733
-0.180224
-0.153427
-0.119790
-0.069854
-0.031268
0.000253
0.055784
0.091390
0.129650
0.129347
0.130394
0.102120
0.062257
0.020086
-0.017357
-0.065783
-0.107186
-0.132406
-0.156213
-0.176901
-0.167424
-0.145331
-0.118442
-0.066880
-0.010586
0.032926
0.080600
0.092556
0.098156
0.127403
0.127071
0.102921
0.064758
0.021234
-0.033959
-0.087525
-0.119059
-0.136949
-0.149678
-0.158737
-0.157862
-0.144988
-0.111929
-0.063911
-0.018245
0.034983
0.078905
0.110892
0.118877
0.125673
0.140350
0.125084
0.072194
0.018505
-0.030150
-0.075175
-0.122205
-0.148595
-0.172026
-0.175391
-0.181636
-0.187833
-0.128408
-0.067425
-0.029544
0.015168
0.060377
0.094251
0.120973
0.108359
0.125934
0.116181
0.071434
0.023485
-0.026307
-0.078646
-0.111583
-0.139651
-0.171928
-0.197517
-0.188431
-0.165682
-0.119482
-0.062075
-0.012012
0.017683
0.046307
0.098971
0.122046
0.130758
0.122492
0.079095
0.043704
0.020729
-0.035382
-0.085890
-0.134576
-0.164437
-0.184362
-0.209729
-0.214109
-0.178503
-0.160919
-0.110160
-0.054735
0.026318
0.060500
0.084112
0.114903
0.115153
0.099246
0.076529
0.056108
0.011377
-0.036455
-0.080600
-0.122461
-0.158872
-0.185527
-0.201318
-0.204022
-0.179566
-0.144261
-0.109793
-0.057320
0.000270
0.046486
0.089688
0.096484
0.083277
0.093876
0.083048
0.049559
0.004905
-0.044036
-0.082916
-0.124053
-0.161788
-0.173081
-0.202445
-0.201411
-0.166819
-0.135958
-0.108751
-0.079956
-0.018293
0.037459
0.078751
0.086906
0.094602
0.090018
0.072665
0.042810
0.000270
-0.058966
-0.097246
-0.133878
-0.158871
-0.202145
-0.201917
-0.196392
-0.181180
-0.145113
-0.103019
-0.050297
-0.002653
0.035532
0.065186
0.085677
0.082695
0.085519
0.093030
0.071543
0.020089
-0.045179
-0.087028
-0.128280
-0.147049
-0.172148
-0.189957
-0.198141
-0.171418
-0.135887
-0.084167
-0.030038
0.023519
0.053884
0.087934
0.122559
0.120285
0.119214
0.099738
0.085297
0.051492
0.000871
-0.060775
-0.105039
-0.133453
-0.156435
-0.167196
-0.158591
-0.139337
-0.105399
-0.072814
-0.028662
0.021029
0.082074
0.116296
0.134050
0.143750
0.146763
0.125374
0.096409
0.064943
0.012989
-0.053855
-0.083942
-0.115070
-0.132979
-0.141509
-0.137460
-0.122126
-0.095986
-0.056019
-0.002222
0.043062
0.073011
0.131645
0.164120
0.175106
0.162519
0.134461
0.087451
0.042439
-0.015881
-0.053592
-0.101471
-0.144098
-0.158964
-0.165858
-0.174225
-0.150801
-0.109897
-0.076938
-0.037167
0.013078
0.043915
0.074544
0.098546
0.112240
0.103823
0.091475
0.054606
0.011278
-0.045297
-0.095298
-0.133860
-0.176155
-0.183716
-0.213684
-0.217833
-0.206180
-0.159406
-0.105267
-0.058776
-0.002699
0.030248
0.053033
0.070305
0.081683
0.082478
0.064710
0.024962
-0.029677
-0.084236
-0.120708
-0.165063
-0.190751
-0.223118
-0.237149
-0.245349
-0.216807
-0.172912
-0.129998
-0.076207
-0.023857
0.028520
0.045087
0.054606
0.080533
0.099734
0.065149
0.017264
-0.035959
-0.085262
-0.118239
-0.163099
-0.206298
-0.228435
-0.234976
-0.221324
-0.202307
-0.169603
-0.135795
-0.082484
-0.035912
0.005515
0.042048
0.061309
0.090570
0.094952
0.062099
0.017133
-0.024386
-0.077466
-0.123492
-0.154947
-0.197914
-0.222463
-0.231128
-0.225918
-0.208025
-0.176442
-0.130117
-0.075504
-0.029902
0.014842
0.035745
0.046651
0.071806
0.067144
0.057667
0.033869
-0.031094
-0.083920
-0.129912
-0.156498
-0.196966
-0.224280
-0.232607
-0.233763
-0.203186
-0.158683
-0.111885
-0.027621
0.034935
0.079646
0.129813
0.168794
0.200666
0.209487
0.195417
0.175718
0.160264
0.135970
0.116278
0.109589
0.097231
0.114504
0.150520
0.199013
0.243786
0.307911
0.375062
0.453568
0.535349
0.621551
0.703457
0.763537
0.803266
0.832160
0.854328
0.841131
0.805922
0.748774
0.713580
0.641924
0.587017
0.557950
0.527204
0.495879
0.444392
0.415589
0.400883
0.380188
0.370216
0.361291
0.345615
0.321857
0.311522
0.299826
0.259537
0.210977
0.169018
0.108394
0.045685
-0.008480
-0.043106
-0.081717
-0.110272
-0.097320
-0.081268
-0.060505
-0.030261
0.019889
0.069442
0.107673
0.130443
0.151886
0.167443
0.160326
0.136097
0.094532
0.062175
0.010127
-0.052503
-0.089287
-0.126175
-0.154033
-0.179352
-0.163348
-0.146763
-0.127370
-0.087395
-0.029410
0.019730
0.062510
0.100087
0.123838
0.129230
0.123724
0.100831
0.061055
0.012221
-0.042784
-0.088839
-0.128943
-0.159245
-0.183587
-0.202580
-0.201361
-0.164184
-0.123807
-0.088558
-0.029040
0.014627
0.046712
0.080211
0.111450
0.110655
0.122712
0.112041
0.071032
0.041368
-0.006256
-0.068194
-0.120812
-0.150182
-0.164905
-0.174975
-0.168475
-0.147765
-0.117864
-0.080750
-0.033592
0.015727
0.053327
0.099108
0.129665
0.142574
0.144089
0.122703
0.092558
0.056703
0.006457
-0.060165
-0.109524
-0.138734
-0.145667
-0.145197
-0.159182
-0.142410
-0.088462
-0.042277
-0.001409
0.048199
0.090727
0.129734
0.146291
0.162847
0.164223
0.147036
0.104782
0.074066
0.015329
-0.032840
-0.077601
-0.101149
-0.111832
-0.121673
-0.120500
-0.098574
-0.066414
-0.020032
0.026874
0.071332
0.130920
0.165899
0.193233
0.191443
0.212742
0.178355
0.120108
0.096762
0.062384
0.004610
-0.045037
-0.065885
-0.080892
-0.097802
-0.093546
-0.069943
-0.032652
0.012681
0.062252
0.105256
0.153725
0.189236
0.206133
0.218143
0.224854
0.201276
0.157801
0.128692
0.091894
0.049927
-0.013759
-0.048753
-0.068676
-0.071730
-0.067451
-0.052032
-0.025215
0.022078
0.076873
0.131172
0.177025
0.210479
0.209924
0.227036
0.240611
0.218439
0.184339
0.128507
0.037509
0.002929
-0.012847
-0.036122
-0.057701
-0.057362
-0.067393
-0.071952
-0.035609
0.019711
0.050896
0.107069
0.165758
0.180492
0.201768
0.214697
0.215554
0.195938
0.147749
0.088899
0.049854
0.008563
-0.023275
-0.059368
-0.089455
-0.119222
-0.122436
-0.094337
-0.049760
-0.004601
0.034153
0.073239
0.111764
0.163482
0.173940
0.169347
0.162890
0.130336
0.089140
0.066537
0.028050
-0.023969
-0.060428
-0.093627
-0.124059
-0.141287
-0.141333
-0.125743
-0.091235
-0.052106
-0.011663
0.036461
0.088049
0.107635
0.139094
0.152217
0.151435
0.122741
0.071732
0.027261
-0.015333
-0.056478
-0.098473
-0.135052
-0.154597
-0.162747
-0.170911
-0.145996
-0.110156
-0.090999
-0.045660
0.027740
0.070237
0.104336
0.117012
0.121100
0.115088
0.101935
0.051911
-0.008057
-0.037129
-0.084264
-0.121689
-0.153579
-0.168028
-0.181084
-0.195827
-0.175212
-0.118924
-0.080205
-0.036375
0.001260
0.052913
0.085269
0.104603
0.113927
0.110371
0.093212
0.059862
0.011272
-0.043244
-0.072146
-0.107898
-0.181994
-0.200228
-0.202243
-0.179517
-0.152180
-0.118943
-0.080421
-0.034109
0.014613
0.059103
0.096532
0.108899
0.124879
0.116850
0.100504
0.069059
0.028539
-0.020684
-0.076482
-0.125692
-0.156662
-0.173031
-0.193830
-0.174356
-0.149964
-0.126343
-0.083023
-0.029012
0.009289
0.053070
0.087540
0.113327
0.142808
0.132273
0.099442
0.061706
0.017959
-0.025057
-0.070321
-0.106488
-0.143676
-0.164378
-0.183032
-0.168702
-0.147373
-0.103778
-0.067365
-0.048368
-0.000523
0.060652
0.102121
0.133410
0.147413
0.138255
0.107784
0.072792
0.040093
-0.014117
-0.060550
-0.107089
-0.137651
-0.159479
-0.166316
-0.182839
-0.164895
-0.130532
-0.083172
-0.038850
0.011854
0.052766
0.094474
0.127518
0.134862
0.128576
0.104263
0.060422
0.039564
-0.016297
-0.052348
-0.104263
-0.157775
-0.197362
-0.194037
-0.182722
-0.154571
-0.121734
-0.078495
-0.034871
0.011400
0.058587
0.061568
0.105344
0.110169
0.118777
0.117395
0.075454
0.024592
-0.030247
-0.072669
-0.108499
-0.140586
-0.168944
-0.170940
-0.159138
-0.139057
-0.125845
-0.095082
-0.050642
0.005156
0.049949
0.089431
0.125478
0.142733
0.102435
0.082696
0.051506
0.015542
-0.041508
-0.078795
-0.104284
-0.146609
-0.155354
-0.170103
-0.170431
-0.154662
-0.148654
-0.105537
-0.037594
0.005428
0.045881
0.087829
0.099678
0.109419
0.091629
0.077485
0.043105
-0.002003
-0.040800
-0.088549
-0.130854
-0.168737
-0.197417
-0.195837
-0.193977
-0.157184
-0.129973
-0.084887
-0.042128
0.002921
0.029465
0.059023
0.095938
0.110158
0.103999
0.083497
0.050711
0.002659
-0.039929
-0.081782
-0.133074
-0.169286
-0.189441
-0.188951
-0.201792
-0.178724
-0.144936
-0.092647
-0.054224
-0.011410
0.027316
0.068280
0.086945
0.090120
0.071057
0.060324
0.037364
-0.001624
-0.042866
-0.078446
-0.130694
-0.182174
-0.212014
-0.221116
-0.203232
-0.174012
-0.134091
-0.102738
-0.035005
0.007291
0.046432
0.083084
0.107478
0.107726
0.103323
0.079130
0.046633
0.007543
-0.038284
-0.088713
-0.128829
-0.164453
-0.193935
-0.198177
-0.201608
-0.195267
-0.162561
-0.119024
-0.056045
-0.004004
0.053585
0.093417
0.114903
0.124170
0.115283
0.086480
0.051999
0.021290
-0.021365
-0.067697
-0.123426
-0.158714
-0.159765
-0.154958
-0.171314
-0.144952
-0.114775
-0.072071
-0.023962
0.007454
0.066184
0.112669
0.138345
0.136498
0.139421
0.109796
0.068299
0.016835
-0.024212
-0.064656
-0.104051
-0.141542
-0.169596
-0.170142
-0.169132
-0.138328
-0.109229
-0.060092
-0.004044
0.053271
0.102003
0.127284
0.131393
0.153185
0.156500
0.127011
0.091017
0.063087
0.012609
-0.040301
-0.089577
-0.113005
-0.127016
-0.151286
-0.146436
-0.136423
-0.105359
-0.067147
-0.027158
0.018526
0.057376
0.092009
0.110681
0.111624
0.110978
0.093319
0.064253
0.018207
-0.053732
-0.101970
-0.121849
-0.164359
-0.176418
-0.189404
-0.183824
-0.168410
-0.139269
-0.105106
-0.059744
-0.002452
0.032064
0.070588
0.087862
0.096911
0.094109
0.070639
0.027640
-0.018304
-0.077907
-0.118990
-0.174107
-0.203825
-0.209467
-0.217904
-0.210130
-0.202116
-0.176420
-0.138285
-0.096318
-0.036179
0.002701
0.030848
0.076401
0.072298
0.054623
0.044628
0.015233
-0.017156
-0.068078
-0.118771
-0.166894
-0.195991
-0.226197
-0.230920
-0.235489
-0.223341
-0.183097
-0.135891
-0.090279
-0.036269
0.012464
0.036768
0.055479
0.069388
0.061747
0.044904
0.015048
-0.046371
-0.069855
-0.118276
-0.169948
-0.207017
-0.215964
-0.224239
-0.234674
-0.208351
-0.176220
-0.153045
-0.089096
-0.033339
0.017470
0.047617
0.065406
0.070176
0.065576
0.053204
0.008422
-0.023306
-0.078125
-0.128612
-0.176347
-0.204964
-0.218056
-0.228916
-0.233449
-0.214837
-0.177225
-0.152187
-0.102533
-0.059251
-0.008802
0.042381
0.074483
0.091156
0.104184
0.090006
0.054002
0.012097
-0.021569
-0.041228
-0.065836
-0.061251
-0.080743
-0.089204
-0.071181
-0.024614
0.030271
0.080992
0.160812
0.235037
0.312932
0.371044
0.431138
0.465230
0.495253
0.523152
0.512896
0.498138
0.480390
0.479942
0.478302
0.487255
0.496764
0.515981
0.555138
0.593953
0.625104
0.649368
0.683651
0.722014
0.749965
0.764218
0.767783
0.740981
0.660062
0.559609
0.467051
0.350507
0.285413
0.207315
0.099038
0.009378
-0.026457
-0.039226
-0.038394
-0.019806
0.011038
0.040435
0.069841
0.093482
0.125512
0.163301
0.174458
0.170070
0.180065
0.162825
0.117706
0.037409
0.011228
-0.024770
-0.072653
-0.110872
-0.144490
-0.154840
-0.157869
-0.140714
-0.085897
-0.049181
-0.006019
0.024493
0.076004
0.098152
0.113857
0.117908
0.113127
0.087826
0.053279
0.005947
-0.035548
-0.081534
-0.133681
-0.167620
-0.179884
-0.193905
-0.186118
-0.171880
-0.147823
-0.098517
-0.052269
-0.006634
0.043998
0.087699
0.108791
0.115424
0.110859
0.092837
0.055638
0.013342
-0.038796
-0.087668
-0.137088
-0.172935
-0.194406
-0.186578
-0.191454
-0.174591
-0.144186
-0.094011
-0.052282
-0.004451
0.050235
0.082419
0.105501
0.133984
0.145036
0.118692
0.083943
0.016594
-0.057370
-0.075552
-0.124536
-0.155414
-0.171366
-0.190408
-0.182608
-0.158850
-0.132589
-0.089246
-0.029813
0.004028
0.052712
0.109667
0.147964
0.143403
0.135152
0.119384
0.086910
0.046468
0.000345
-0.041409
-0.074538
-0.106676
-0.129489
-0.143632
-0.146139
-0.121123
-0.089526
-0.049539
-0.000400
0.042035
0.101289
0.130242
0.151170
0.163979
0.154665
0.130172
0.092583
0.056476
0.015782
-0.020976
-0.065046
-0.084526
-0.127902
-0.117095
-0.103089
-0.090862
-0.056270
-0.011982
0.045922
0.095157
0.132043
0.169873
0.189736
0.189322
0.186215
0.173187
0.146285
0.103897
0.058677
0.020765
-0.024424
-0.069238
-0.096833
-0.106058
-0.087625
-0.067729
-0.049832
-0.005380
0.031096
0.101796
0.150833
0.178691
0.203153
0.220775
0.208053
0.187420
0.154357
0.122373
0.072963
0.032099
-0.024219
-0.070276
-0.089609
-0.101887
-0.083773
-0.067937
-0.026564
0.024445
0.053030
0.085542
0.138061
0.170246
0.200944
0.196579
0.196629
0.171839
0.137925
0.095224
0.047735
0.009150
-0.036539
-0.070233
-0.097404
-0.110341
-0.117607
-0.093135
-0.048238
-0.012373
0.033700
0.076272
0.118634
0.143425
0.175930
0.197827
0.183250
0.157797
0.107359
0.064531
0.011955
-0.025366
-0.070077
-0.106867
-0.133420
-0.151089
-0.152779
-0.133754
-0.091772
-0.043050
0.001294
0.042833
0.095790
0.115757
0.124748
0.143625
0.136246
0.105140
0.067549
0.020924
-0.017365
-0.057279
-0.108089
-0.135954
-0.164490
-0.178646
-0.179002
-0.191863
-0.146584
-0.088664
-0.053390
-0.016384
0.039021
0.086576
0.099772
0.094412
0.105478
0.089509
0.060946
0.023767
-0.025998
-0.082709
-0.128138
-0.172877
-0.199248
-0.201935
-0.186887
-0.174945
-0.144495
-0.120516
-0.081881
-0.039965
0.024858
0.063294
0.091094
0.082791
0.081409
0.063754
0.022459
-0.015616
-0.054923
-0.107839
-0.150145
-0.171046
-0.191819
-0.200598
-0.194177
-0.187984
-0.153892
-0.111985
-0.064554
-0.017265
0.021221
0.061123
0.080969
0.091893
0.089735
0.073196
0.041707
-0.003365
-0.057397
-0.107608
-0.148617
-0.177062
-0.195293
-0.202071
-0.194846
-0.176825
-0.152212
-0.103292
-0.051369
-0.018191
0.022957
0.070224
0.094186
0.095886
0.065767
0.075437
0.037988
-0.017124
-0.059773
-0.101693
-0.151277
-0.184253
-0.202093
-0.182099
-0.187765
-0.163241
-0.136227
-0.103962
-0.051815
0.000765
0.024552
0.055476
0.072475
0.096695
0.088808
0.053381
0.026605
-0.011939
-0.054014
-0.094836
-0.140567
-0.185578
-0.197488
-0.202348
-0.185402
-0.169470
-0.136603
-0.094478
-0.045251
0.004315
0.047724
0.078522
0.086952
0.076560
0.086885
0.082589
0.055320
0.004752
-0.046623
-0.097873
-0.137492
-0.167920
-0.206439
-0.219539
-0.201945
-0.179770
-0.137858
-0.095786
-0.057702
-0.005574
0.041770
0.062121
0.085333
0.099397
0.089927
0.064414
0.036752
-0.011913
-0.048383
-0.102766
-0.158918
-0.190854
-0.207882
-0.212291
-0.211325
-0.203962
-0.165679
-0.112925
-0.055420
-0.012455
0.035281
0.059299
0.065227
0.084549
0.087880
0.064253
0.032605
0.005203
-0.059637
-0.109064
-0.148195
-0.192530
-0.207094
-0.220271
-0.223386
-0.210469
-0.176008
-0.120381
-0.064169
-0.017466
0.015730
0.032680
0.063950
0.074907
0.081783
0.073731
0.012390
-0.047731
-0.092422
-0.136883
-0.151263
-0.177527
-0.212065
-0.213857
-0.208734
-0.203012
-0.177734
-0.129518
-0.087215
-0.045577
0.007468
0.045212
0.067720
0.081346
0.068254
0.058563
0.021691
-0.018593
-0.083498
-0.112904
-0.162710
-0.210887
-0.218506
-0.225325
-0.226512
-0.211809
-0.168825
-0.135890
-0.081412
-0.031651
0.006459
0.046195
0.064537
0.076927
0.069988
0.055217
0.022060
-0.014040
-0.070685
-0.125954
-0.170714
-0.198497
-0.219473
-0.219249
-0.218547
-0.207199
-0.170633
-0.128238
-0.100589
-0.043512
0.019916
0.057278
0.065988
0.086378
0.089659
0.069354
0.028759
-0.015922
-0.060438
-0.108148
-0.156831
-0.191442
-0.216563
-0.209353
-0.191963
-0.167802
-0.142615
-0.103224
-0.051972
-0.008466
0.041881
0.077718
0.080723
0.093815
0.099430
0.075354
0.041616
0.000438
-0.044575
-0.087646
-0.126129
-0.155509
-0.180691
-0.197756
-0.197074
-0.182011
-0.145066
-0.102031
-0.053372
0.007649
0.060157
0.098549
0.118834
0.132063
0.121064
0.104024
0.062467
0.022177
-0.016604
-0.056823
-0.094235
-0.129381
-0.148567
-0.168415
-0.182105
-0.162466
-0.130556
-0.094235
-0.038482
-0.001364
0.033280
0.060634
0.084778
0.102376
0.081701
0.053464
0.021565
-0.030786
-0.074902
-0.106514
-0.164447
-0.185568
-0.207007
-0.230328
-0.233786
-0.202364
-0.176412
-0.135253
-0.082508
-0.031087
0.018930
0.044688
0.029072
0.057445
0.064346
0.055060
0.005272
-0.055140
-0.099899
-0.144289
-0.194951
-0.215954
-0.236400
-0.260008
-0.258610
-0.232521
-0.194872
-0.157959
-0.127175
-0.074582
-0.020784
0.007751
0.023136
0.042689
0.036878
0.014527
-0.016113
-0.053973
-0.081873
-0.122891
-0.181022
-0.233773
-0.274834
-0.281921
-0.256518
-0.241624
-0.195674
-0.162273
-0.118806
-0.067944
-0.019892
0.003702
0.031191
0.051733
0.043268
0.022992
-0.015130
-0.066531
-0.105222
-0.150339
-0.201736
-0.238769
-0.265566
-0.273872
-0.253063
-0.244353
-0.215405
-0.185682
-0.140129
-0.083513
-0.019333
0.004255
0.025844
0.055430
0.057276
0.032217
-0.000958
-0.056622
-0.102581
-0.150071
-0.207438
-0.229806
-0.245358
-0.259719
-0.276147
-0.269605
-0.232989
-0.180864
-0.137501
-0.082868
-0.046918
-0.004743
0.010048
0.037379
0.054448
0.036084
0.024169
-0.000574
-0.029763
-0.054971
-0.084766
-0.109538
-0.106514
-0.103791
-0.087898
-0.068947
-0.018600
0.047634
0.105304
0.181101
0.235567
0.292485
0.376507
0.436435
0.456966
0.465790
0.459675
0.428826
0.395393
0.375702
0.380266
0.403182
0.414062
0.429528
0.466791
0.514542
0.565585
0.608706
0.656253
0.698615
0.735660
0.752250
0.752489
0.745109
0.699432
0.619605
0.512428
0.404052
0.295828
0.200131
0.109319
0.038765
-0.020641
-0.063020
-0.082944
-0.088405
-0.062756
-0.028522
0.014351
0.056619
0.097516
0.111865
0.124519
0.132196
0.122555
0.108236
0.087278
0.036046
-0.015752
-0.061083
-0.100996
-0.139191
-0.180169
-0.201037
-0.188873
-0.164917
-0.139230
-0.112715
-0.059758
-0.004971
0.026205
0.062195
0.091892
0.095375
0.075583
0.060641
0.030249
-0.007166
-0.059513
-0.105751
-0.140071
-0.183520
-0.217076
-0.236356
-0.225332
-0.205715
-0.184638
-0.128460
-0.083418
-0.026352
0.020576
0.051228
0.074238
0.063290
0.057622
0.063678
0.007468
-0.044440
-0.077766
-0.104428
-0.139420
-0.187690
-0.231886
-0.252926
-0.234985
-0.199629
-0.165689
-0.116913
-0.073866
-0.016715
0.034606
0.069906
0.071858
0.094324
0.096906
0.064601
0.027332
-0.007994
-0.038383
-0.088191
-0.155296
-0.174658
-0.189450
-0.213525
-0.201356
-0.184358
-0.156022
-0.111153
-0.049651
-0.008845
0.026620
0.066392
0.097620
0.107651
0.102542
0.087924
0.057778
0.015158
-0.027085
-0.082873
-0.128125
-0.151944
-0.174321
-0.186133
-0.174484
-0.162354
-0.122634
-0.073927
-0.030910
0.021069
0.072187
0.102202
0.111240
0.111686
0.116713
0.117883
0.086330
0.045282
0.000869
-0.052721
-0.085808
-0.119161
-0.144001
-0.144179
-0.165787
-0.149364
-0.087970
-0.049707
-0.032364
0.007729
0.071979
0.131789
0.164356
0.176335
0.169726
0.153006
0.100995
0.064186
0.024132
-0.017530
-0.059939
-0.109603
-0.112243
-0.116476
-0.126530
-0.116270
-0.070104
-0.038193
-0.001684
0.073534
0.127543
0.174392
0.186208
0.181144
0.154864
0.147122
0.102654
0.084262
0.035797
-0.025446
-0.074661
-0.106037
-0.126276
-0.122588
-0.115793
-0.105997
-0.069321
-0.020217
0.019946
0.063202
0.108976
0.128314
0.153990
0.173487
0.170930
0.145175
0.102718
0.053282
0.014352
-0.027631
-0.046825
-0.091805
-0.136218
-0.137243
-0.127906
-0.122757
-0.087735
-0.060691
-0.009018
0.050632
0.084416
0.109260
0.138972
0.158246
0.141874
0.116152
0.074008
0.051059
-0.007872
-0.061093
-0.097291
-0.138135
-0.164018
-0.180785
-0.174317
-0.146429
-0.115970
-0.079171
-0.040896
0.007688
0.043431
0.076954
0.096488
0.111232
0.106015
0.095654
0.041510
-0.002270
-0.031324
-0.070106
-0.123451
-0.164794
-0.190176
-0.212725
-0.209484
-0.207841
-0.175332
-0.115052
-0.065703
-0.021915
0.018174
0.050280
0.079063
0.078256
0.075812
0.059846
0.022330
-0.026706
-0.066683
-0.111441
-0.155118
-0.194320
-0.222160
-0.234656
-0.218412
-0.211747
-0.197583
-0.145860
-0.098091
-0.033767
0.006800
0.039382
0.064802
0.065636
0.057700
0.053300
0.033727
-0.038518
-0.084559
-0.120488
-0.152364
-0.197777
-0.225198
-0.238564
-0.237913
-0.222441
-0.181514
-0.135607
-0.081774
-0.045322
-0.016791
0.023663
0.055016
0.055881
0.043358
0.015859
0.026029
-0.030498
-0.080319
-0.119768
-0.151276
-0.194611
-0.216949
-0.224614
-0.224734
-0.209467
-0.176608
-0.131712
-0.088351
-0.038420
0.003289
0.042104
0.069060
0.061996
0.051807
0.044407
0.025423
-0.026593
-0.073206
-0.116085
-0.149389
-0.175609
-0.193503
-0.219467
-0.225683
-0.205021
-0.171177
-0.115418
-0.071739
-0.021643
0.022867
0.047032
0.057906
0.076680
0.073655
0.056867
0.028597
-0.026134
-0.068241
-0.123160
-0.157869
-0.197262
-0.231926
-0.240876
-0.225877
-0.202515
-0.163762
-0.112859
-0.083344
-0.040958
0.013304
0.067053
0.079725
0.070746
0.069913
0.048933
0.018213
-0.021890
-0.067152
-0.097390
-0.149784
-0.202708
-0.223286
-0.221455
-0.222653
-0.206535
-0.171575
-0.130826
-0.092376
-0.032655
0.008636
0.042279
0.065984
0.084116
0.073397
0.038515
0.005948
-0.031779
-0.072920
-0.128193
-0.175081
-0.204890
-0.221188
-0.221622
-0.238066
-0.231285
-0.190669
-0.128887
-0.084258
-0.030371
0.003611
0.032395
0.049941
0.061430
0.054486
0.040571
0.011695
-0.031525
-0.081404
-0.122282
-0.183373
-0.213018
-0.219872
-0.230845
-0.222819
-0.220695
-0.191020
-0.144207
-0.103580
-0.049049
-0.004597
0.038572
0.058678
0.062231
0.059839
0.026154
0.007026
-0.034401
-0.085104
-0.129200
-0.186100
-0.218563
-0.243857
-0.245272
-0.239552
-0.228194
-0.202462
-0.167346
-0.108241
-0.050687
-0.002368
0.030980
0.046246
0.061473
0.061216
0.042135
0.014689
-0.034550
-0.081145
-0.139062
-0.177328
-0.210708
-0.233091
-0.257316
-0.252332
-0.241409
-0.222118
-0.204408
-0.140881
-0.062168
0.003732
0.035915
0.057129
0.063301
0.051835
0.024272
-0.004057
-0.034481
-0.083103
-0.128569
-0.171457
-0.202286
-0.223339
-0.234662
-0.222771
-0.209965
-0.175617
-0.143483
-0.086242
-0.035132
0.002898
0.032866
0.046324
0.062160
0.079781
0.066097
0.035513
-0.002843
-0.053604
-0.104243
-0.134606
-0.174488
-0.206832
-0.215560
-0.221206
-0.197636
-0.164376
-0.110540
-0.074761
-0.027851
0.018254
0.051784
0.064971
0.085030
0.095704
0.075747
0.030851
-0.015001
-0.056026
-0.096121
-0.134635
-0.169617
-0.171589
-0.183599
-0.196059
-0.181494
-0.139815
-0.099650
-0.052675
0.005112
0.051058
0.084129
0.108356
0.093214
0.086504
0.054936
0.014102
-0.027393
-0.069862
-0.130981
-0.176282
-0.207971
-0.222443
-0.226287
-0.218338
-0.206619
-0.191429
-0.150397
-0.090230
-0.045661
-0.006113
0.034573
0.052740
0.053785
0.057561
0.039691
-0.003439
-0.057435
-0.106803
-0.148903
-0.189271
-0.229724
-0.251510
-0.256864
-0.267961
-0.253319
-0.227851
-0.199139
-0.127043
-0.058790
-0.020986
0.011210
0.030839
0.044053
0.022007
-0.014057
-0.049213
-0.112442
-0.144189
-0.163425
-0.201520
-0.240491
-0.272343
-0.289613
-0.287783
-0.261291
-0.239501
-0.187430
-0.142884
-0.091413
-0.044340
-0.019661
0.006400
0.018589
0.015659
0.020695
-0.012901
-0.066105
-0.108767
-0.163918
-0.214337
-0.253833
-0.272523
-0.288887
-0.271473
-0.260638
-0.228848
-0.176592
-0.139826
-0.105499
-0.070291
-0.024635
0.001294
0.013356
0.002425
-0.008565
-0.037074
-0.080921
-0.121157
-0.172908
-0.194738
-0.236948
-0.258150
-0.285879
-0.275912
-0.269184
-0.223190
-0.186633
-0.138886
-0.095035
-0.054615
-0.031511
-0.001567
0.008560
-0.005702
-0.019765
-0.053377
-0.095606
-0.132834
-0.170218
-0.208887
-0.256890
-0.272816
-0.275623
-0.261905
-0.237091
-0.200562
-0.140635
-0.060792
0.001202
0.071995
0.132678
0.158629
0.168677
0.179037
0.181453
0.157467
0.135530
0.121409
0.092971
0.078995
0.063554
0.068072
0.105121
0.158760
0.193912
0.216787
0.319998
0.414025
0.503149
0.590770
0.651628
0.696975
0.734330
0.768520
0.787310
0.753242
0.704110
0.661529
0.609251
0.538003
0.502800
0.469751
0.424154
0.369887
0.319679
0.290900
0.277002
0.264072
0.262689
0.272724
0.276064
0.227352
0.201441
0.172685
0.140805
0.091911
0.038305
-0.015028
-0.064546
-0.105441
-0.152554
-0.177584
-0.190968
-0.171984
-0.150820
-0.113613
-0.067973
-0.038036
0.010667
0.063916
0.086220
0.084742
0.085440
0.080394
0.047685
-0.001580
-0.034045
-0.078120
-0.112932
-0.165364
-0.193185
-0.227042
-0.246833
-0.229981
-0.206756
-0.189084
-0.134580
-0.086011
-0.027654
0.013260
0.037388
0.052839
0.066243
0.055486
0.040432
0.012220
-0.029592
-0.081518
-0.126106
-0.179204
-0.223767
-0.246970
-0.250592
-0.240645
-0.230978
-0.198813
-0.155431
-0.099847
-0.067557
-0.001325
0.049490
0.060766
0.059276
0.062949
0.053900
0.017336
-0.032655
-0.074891
-0.124451
-0.160737
-0.213477
-0.233709
-0.249152
-0.246361
-0.218636
-0.173354
-0.124469
-0.076769
-0.032219
0.008087
0.045190
0.066131
0.077022
0.077674
0.059915
0.027814
-0.013964
-0.051410
-0.097426
-0.165182
-0.188738
-0.206391
-0.214532
-0.200266
-0.189773
-0.146100
-0.095529
-0.056947
-0.023278
0.005805
0.061918
0.080560
0.101962
0.102347
0.087097
0.056301
-0.000044
-0.045101
-0.067610
-0.115276
-0.152745
-0.177786
-0.190321
-0.182339
-0.164046
-0.124720
-0.077599
-0.026827
0.020174
0.052038
0.095909
0.119058
0.135739
0.111083
0.096510
0.069924
0.021176
-0.015935
-0.059624
-0.100755
-0.138164
-0.141628
-0.147165
-0.141593
-0.127433
-0.096005
-0.048549
-0.006085
0.040182
0.079700
0.117744
0.133637
0.148168
0.137066
0.111928
0.085277
0.056911
0.003964
-0.029670
-0.061668
-0.101859
-0.135437
-0.141594
-0.141102
-0.129796
-0.094279
-0.036538
0.000667
0.047681
0.104597
0.143648
0.157915
0.170205
0.159964
0.137251
0.081711
0.051417
0.008594
-0.049309
-0.085812
-0.126220
-0.148505
-0.156880
-0.150406
-0.130599
-0.106817
-0.061807
-0.005513
0.035085
0.076845
0.105314
0.130759
0.117999
0.127452
0.106089
0.087225
0.047641
0.004393
-0.042459
-0.096841
-0.135249
-0.169407
-0.179129
-0.176767
-0.155483
-0.121388
-0.078127
-0.054771
-0.013880
0.042192
0.074717
0.104207
0.121348
0.110399
0.083934
0.052265
-0.003506
-0.038632
-0.092087
-0.137205
-0.176236
-0.204389
-0.212165
-0.212982
-0.187534
-0.169030
-0.103503
-0.064231
-0.020657
0.026679
0.057340
0.063804
0.088242
0.090290
0.062844
0.033994
-0.008287
-0.069343
-0.111953
-0.151625
-0.195828
-0.223506
-0.231687
-0.226861
-0.206610
-0.183114
-0.151166
-0.106628
-0.057760
-0.006230
0.025696
0.044748
0.077442
0.075970
0.050291
0.010258
-0.036371
-0.078583
-0.136046
-0.170681
-0.209630
-0.230316
-0.252074
-0.238096
-0.213237
-0.181890
-0.140502
-0.095497
-0.049256
-0.004496
0.035707
0.054640
0.072163
0.057052
0.042446
0.013472
-0.044498
-0.111427
-0.146686
-0.184373
-0.220228
-0.226707
-0.235700
-0.223303
-0.197596
-0.170341
-0.131981
-0.083888
-0.046366
-0.009465
0.031507
0.057209
0.072051
0.043019
0.022337
0.008631
-0.036080
-0.084063
-0.134486
-0.157522
-0.209793
-0.230152
-0.235581
-0.227023
-0.196150
-0.169850
-0.130159
-0.062925
-0.050333
-0.001570
0.039200
0.061583
0.081979
0.081978
0.039143
0.009163
-0.030600
-0.079767
-0.129670
-0.168659
-0.202790
-0.218161
-0.226431
-0.224730
-0.208214
-0.173517
-0.114069
-0.065375
-0.039250
0.008508
0.031555
0.064925
0.067358
0.061261
0.050886
0.013582
-0.039948
-0.075976
-0.122704
-0.171497
-0.208561
-0.229043
-0.235068
-0.214444
-0.199540
-0.164756
-0.124786
-0.087630
-0.025380
0.021870
0.043893
0.070033
0.069374
0.065933
0.060247
0.024541
-0.023294
-0.067661
-0.114946
-0.160082
-0.194596
-0.225483
-0.246979
-0.254647
-0.225471
-0.182315
-0.148755
-0.095265
-0.033254
0.008834
0.053374
0.070496
0.079020
0.078185
0.046571
0.008161
-0.045680
-0.080329
-0.120961
-0.167924
-0.208339
-0.241149
-0.260156
-0.249769
-0.226394
-0.197994
-0.154707
-0.114613
-0.059186
-0.004460
0.036464
0.055534
0.059672
0.057188
0.031106
0.005938
-0.027997
-0.091393
-0.148323
-0.188367
-0.221438
-0.237347
-0.258335
-0.236843
-0.230848
-0.188046
-0.143948
-0.096466
-0.057894
-0.015133
0.023248
0.040604
0.060897
0.060251
0.041566
0.011682
-0.039335
-0.080884
-0.142240
-0.193993
-0.215554
-0.226829
-0.248029
-0.238005
-0.218746
-0.197899
-0.145635
-0.089364
-0.046084
-0.008709
0.030822
0.058702
0.061230
0.068810
0.052582
0.015353
-0.019017
-0.061457
-0.119157
-0.164385
-0.189209
-0.191352
-0.200624
-0.204780
-0.184964
-0.154978
-0.122771
-0.073858
-0.021507
0.018432
0.054565
0.065185
0.068697
0.063599
0.051473
0.024409
-0.016211
-0.067098
-0.116010
-0.171166
-0.188118
-0.200380
-0.194254
-0.190450
-0.170480
-0.138600
-0.094002
-0.058342
0.004244
0.047420
0.077675
0.098398
0.107518
0.098804
0.074169
0.046005
0.002335
-0.040514
-0.096664
-0.148304
-0.172347
-0.171052
-0.201659
-0.219845
-0.191501
-0.165724
-0.121665
-0.064482
-0.032418
0.016290
0.042588
0.051455
0.055953
0.049035
0.031505
0.003800
-0.036376
-0.083986
-0.142134
-0.183233
-0.218909
-0.242675
-0.250687
-0.243856
-0.226981
-0.196326
-0.159772
-0.107312
-0.046964
-0.029542
0.004533
0.007859
0.012856
-0.000792
0.002915
-0.018537
-0.071670
-0.121375
-0.173713
-0.212073
-0.243129
-0.272893
-0.290528
-0.271922
-0.253182
-0.237958
-0.194085
-0.143646
-0.089000
-0.047311
-0.016951
0.010931
0.029775
0.017553
-0.012030
-0.038299
-0.076643
-0.125701
-0.180286
-0.235700
-0.261454
-0.277048
-0.273677
-0.274662
-0.257610
-0.243353
-0.193620
-0.141733
-0.090322
-0.048640
-0.023187
0.007292
0.014797
0.024689
-0.001550
-0.041133
-0.080666
-0.138337
-0.187806
-0.231730
-0.263549
-0.294181
-0.289534
-0.301800
-0.265336
-0.221445
-0.163387
-0.119733
-0.078270
-0.030766
0.000483
0.017047
0.014254
-0.001527
-0.010686
-0.035814
-0.070137
-0.120888
-0.170268
-0.220417
-0.266509
-0.285123
-0.287681
-0.278633
-0.259324
-0.218844
-0.183563
-0.138477
-0.093760
-0.040576
0.016063
0.062441
0.087465
0.088886
0.093008
0.075618
0.054533
0.026217
-0.003619
-0.034331
-0.060758
-0.082459
-0.062101
-0.016307
0.044046
0.089032
0.155196
0.235937
0.328842
0.405779
0.484158
0.512809
0.538035
0.586094
0.598170
0.600833
0.596438
0.573686
0.560463
0.557495
0.560368
0.555806
0.547329
0.544851
0.551374
0.558003
0.582010
0.609628
0.631885
0.622443
0.585459
0.538556
0.470985
0.412777
0.342303
0.269199
0.189858
0.092225
0.002977
-0.056243
-0.102914
-0.130411
-0.140785
-0.139832
-0.124930
-0.089377
-0.049212
-0.012309
0.038338
0.061538
0.096559
0.118219
0.113638
0.108421
0.081791
0.030102
0.002387
-0.037206
-0.086546
-0.139579
-0.182646
-0.199990
-0.209897
-0.208463
-0.191953
-0.161225
-0.128790
-0.078867
-0.039004
-0.003147
0.034423
0.058518
0.073800
0.068610
0.041545
0.026534
-0.048391
-0.113549
-0.146691
-0.179015
-0.217932
-0.246851
-0.254526
-0.247861
-0.206701
-0.195636
-0.171667
-0.099528
-0.052316
-0.030800
-0.001267
0.054590
0.070743
0.054478
0.039724
0.007967
-0.034271
-0.092350
-0.131408
-0.174476
-0.217320
-0.223840
-0.241175
-0.237701
-0.214484
-0.179047
-0.138896
-0.100680
-0.044650
-0.003539
0.025713
0.045908
0.062814
0.058442
0.046438
0.039604
-0.000686
-0.072883
-0.119537
-0.153543
-0.186681
-0.211653
-0.214326
-0.210946
-0.201535
-0.181268
-0.138115
-0.079788
-0.026751
0.016604
0.053258
0.068937
0.089449
0.081977
0.070140
0.036213
-0.017348
-0.055226
-0.090564
-0.136771
-0.183469
-0.193319
-0.212539
-0.197754
-0.166446
-0.139665
-0.099366
-0.048075
0.004280
0.046855
0.087895
0.098122
0.106395
0.109383
0.095628
0.061796
0.030451
-0.010495
-0.073809
-0.114530
-0.127981
-0.149866
-0.159724
-0.164959
-0.130375
-0.102698
-0.095680
-0.025899
0.039361
0.082225
0.115326
0.139692
0.151967
0.134117
0.132508
0.101880
0.045316
-0.006106
-0.072970
-0.109518
-0.133722
-0.151281
-0.158333
-0.149080
-0.123541
-0.094422
-0.058419
0.000557
0.051861
0.090386
0.119261
0.136863
0.160053
0.152032
0.134334
0.106715
0.059434
0.001906
-0.049296
-0.086216
-0.138073
-0.159920
-0.156892
-0.144573
-0.122918
-0.096574
-0.054000
-0.004287
0.031419
0.068649
0.099842
0.112689
0.129661
0.127513
0.108033
0.079921
0.028434
-0.020717
-0.053086
-0.089391
-0.132613
-0.152699
-0.180638
-0.176191
-0.137700
-0.090027
-0.056753
-0.056261
0.000839
0.044789
0.085674
0.111289
0.116191
0.111835
0.079838
0.040374
-0.002369
-0.045096
-0.087431
-0.144736
-0.173718
-0.177077
-0.192119
-0.188743
-0.171446
-0.158064
-0.109646
-0.063989
-0.015249
0.027220
0.067700
0.083925
0.085865
0.080054
0.052598
0.027996
-0.005921
-0.048979
-0.098346
-0.146602
-0.187623
-0.221597
-0.230552
-0.236678
-0.211494
-0.185593
-0.139152
-0.095054
-0.046495
0.002817
0.039908
0.065595
0.080176
0.075608
0.058501
0.018490
-0.041588
-0.100623
-0.135218
-0.181363
-0.226409
-0.246778
-0.244367
-0.240403
-0.223264
-0.181718
-0.141013
-0.120725
-0.075050
-0.012909
0.028475
0.062363
0.073563
0.066511
0.042808
0.008818
-0.039683
-0.097069
-0.147601
-0.188603
-0.207199
-0.220244
-0.230085
-0.239055
-0.209523
-0.164604
-0.139180
-0.097663
-0.049045
0.006366
0.038002
0.061646
0.070767
0.060893
0.038348
0.011157
-0.032181
-0.087155
-0.139490
-0.182427
-0.197126
-0.231911
-0.231932
-0.228669
-0.201928
-0.174101
-0.133497
-0.089352
-0.037765
-0.003594
0.041714
0.057754
0.066238
0.056615
0.027550
0.005135
-0.035439
-0.085918
-0.133300
-0.154063
-0.181560
-0.214337
-0.216049
-0.223792
-0.198069
-0.153738
-0.112081
-0.069800
-0.027380
0.008977
0.032344
0.056746
0.061758
0.063877
0.045102
0.012084
-0.033387
-0.087624
-0.106069
-0.150619
-0.209466
-0.223183
-0.234640
-0.219462
-0.187347
-0.158191
-0.117317
-0.070842
-0.028974
0.022090
0.059314
0.068446
0.072368
0.065892
0.037527
0.015403
-0.027199
-0.059951
-0.102744
-0.151280
-0.186083
-0.189129
-0.206572
-0.220159
-0.193367
-0.172927
-0.128217
-0.067260
-0.035421
0.014428
0.045093
0.063145
0.074483
0.054431
0.035303
0.020704
-0.028163
-0.080237
-0.125130
-0.173142
-0.195937
-0.217116
-0.216842
-0.231039
-0.216824
-0.186479
-0.128535
-0.083957
-0.032405
0.016720
0.054654
0.064348
0.051326
0.065727
0.052394
0.018610
-0.024507
-0.069186
-0.125672
-0.172300
-0.219322
-0.234170
-0.249931
-0.248699
-0.219650
-0.176995
-0.138364
-0.098295
-0.047761
-0.014552
0.019783
0.061637
0.083438
0.069327
0.042141
0.009275
-0.033799
-0.075771
-0.134504
-0.175370
-0.208255
-0.219855
-0.242256
-0.241441
-0.221880
-0.194555
-0.154692
-0.097912
-0.030235
0.028929
0.055135
0.060355
0.067057
0.068917
0.054718
0.028236
-0.035352
-0.073734
-0.124219
-0.171973
-0.191501
-0.199578
-0.200438
-0.197113
-0.178764
-0.156367
-0.100943
-0.049129
0.002724
0.040612
0.070027
0.081505
0.106470
0.111389
0.077529
0.050611
0.001421
-0.046138
-0.081885
-0.119215
-0.154144
-0.187997
-0.199029
-0.203451
-0.183621
-0.149321
-0.112568
-0.065981
-0.021267
0.024573
0.068240
0.100429
0.104634
0.104608
0.099081
0.073801
0.028878
-0.022979
-0.079392
-0.124416
-0.155744
-0.165656
-0.170033
-0.166711
-0.141707
-0.106554
-0.075839
-0.065853
-0.007170
0.039915
0.051857
0.067135
0.081491
0.081604
0.062528
0.037862
-0.028136
-0.069562
-0.103743
-0.155376
-0.188098
-0.204368
-0.222014
-0.211989
-0.184186
-0.156167
-0.114451
-0.095467
-0.059121
-0.002037
0.032192
0.051124
0.059708
0.057489
0.024669
-0.013574
-0.052211
-0.095190
-0.151567
-0.194527
-0.228222
-0.263488
-0.283863
-0.260016
-0.221136
-0.183326
-0.144490
-0.093688
-0.046600
-0.005389
0.009731
0.025840
0.014946
0.001945
-0.004055
-0.021554
-0.059951
-0.111901
-0.154127
-0.205638
-0.240470
-0.260526
-0.265620
-0.272397
-0.238361
-0.200863
-0.190886
-0.142380
-0.088835
-0.034496
0.014926
0.042339
0.037819
0.022871
-0.004380
-0.023223
-0.060834
-0.101876
-0.148025
-0.205298
-0.244530
-0.269702
-0.271518
-0.257920
-0.245248
-0.208412
-0.158557
-0.140591
-0.106319
-0.036906
0.014235
0.035722
0.038464
0.022607
-0.026899
-0.048447
-0.068223
-0.092064
-0.151967
-0.199495
-0.221360
-0.245753
-0.276922
-0.278652
-0.229933
-0.220240
-0.184726
-0.130047
-0.085286
-0.045467
-0.010591
0.015423
0.024843
0.048158
0.033336
0.013767
-0.032017
-0.076321
-0.099583
-0.119688
-0.141523
-0.146082
-0.153068
-0.109929
-0.088582
-0.051786
0.006867
0.078192
0.142613
0.204242
0.278471
0.332479
0.357652
0.378340
0.394030
0.400464
0.394660
0.382882
0.370074
0.350760
0.343621
0.360558
0.390994
0.436926
0.483266
0.531133
0.616606
0.699131
0.739017
0.778244
0.834232
0.837121
0.817247
0.793474
0.759959
0.694572
0.599934
0.490128
0.349645
0.232803
0.150718
0.097506
0.042434
-0.007716
-0.024848
-0.006483
0.027424
0.059169
0.090946
0.144109
0.173408
0.175779
0.169274
0.174012
0.146127
0.066647
0.034191
0.000126
-0.044539
-0.095498
-0.136715
-0.158575
-0.157597
-0.154147
-0.156626
-0.133273
-0.075203
-0.037142
-0.007278
0.042130
0.083235
0.087585
0.072855
0.070783
0.063691
0.049827
-0.009906
-0.045733
-0.088965
-0.162261
-0.196436
-0.223966
-0.225908
-0.215852
-0.187606
-0.157158
-0.123240
-0.090514
-0.020835
0.025143
0.063409
0.089092
0.085076
0.070382
0.056485
0.039299
-0.006503
-0.068962
-0.118734
-0.162864
-0.195146
-0.214845
-0.223259
-0.213166
-0.201451
-0.165812
-0.116155
-0.040175
-0.010790
0.007437
0.047989
0.076573
0.091966
0.091311
0.071953
0.036792
-0.006686
-0.046860
-0.099992
-0.146202
-0.180618
-0.197470
-0.192879
-0.185924
-0.193262
-0.149219
-0.091577
-0.054045
-0.027569
0.011319
0.049129
0.090293
0.106959
0.105134
0.077219
0.054332
0.024034
-0.028548
-0.084227
-0.110752
-0.135223
-0.171189
-0.179294
-0.199868
-0.184433
-0.130954
-0.060951
-0.014866
0.022028
0.064672
0.090266
0.122992
0.140736
0.140026
0.109774
0.079585
0.049040
-0.022628
-0.059930
-0.097670
-0.135258
-0.156555
-0.151650
-0.143995
-0.117939
-0.102741
-0.053735
-0.002086
0.051365
0.096585
0.129174
0.135834
0.145528
0.140737
0.133331
0.109875
0.064549
0.033709
-0.001979
-0.052022
-0.097123
-0.124521
-0.134681
-0.121590
-0.091294
-0.058981
-0.013598
0.026241
0.075229
0.107594
0.141321
0.174054
0.189278
0.182057
0.146018
0.117572
0.078710
0.043580
-0.000617
-0.051326
-0.102119
-0.113077
-0.129498
-0.114225
-0.086964
-0.040500
-0.006346
0.021425
0.082501
0.122473
0.140253
0.152050
0.173624
0.161389
0.153480
0.118609
0.055319
0.023922
-0.001952
-0.031905
-0.106814
-0.155885
-0.157023
-0.128649
-0.119151
-0.078423
-0.018450
0.019091
0.046946
0.099849
0.123544
0.121280
0.114478
0.139390
0.129546
0.111745
0.084102
-0.004755
-0.077768
-0.117408
-0.114906
-0.116378
-0.150803
-0.174152
-0.141679
-0.102476
-0.056912
-0.024272
0.010962
0.061697
0.081485
0.109612
0.128150
0.124620
0.090991
0.058184
0.025061
-0.026653
-0.059415
-0.109295
-0.142398
-0.174850
-0.200532
-0.203701
-0.182504
-0.148795
-0.084173
-0.040311
-0.011899
0.036919
0.066195
0.080676
0.057802
0.061684
0.069278
0.052067
0.012531
-0.035863
-0.077026
-0.123413
-0.148484
-0.197291
-0.238858
-0.247514
-0.209779
-0.148450
-0.051250
-0.019422
-0.013627
0.037243
0.043325
0.049204
0.070835
0.076935
0.054679
0.040748
0.002911
-0.051157
-0.092739
-0.137051
-0.178712
-0.199282
-0.216494
-0.217700
-0.202151
-0.175850
-0.128529
-0.063771
-0.022574
0.011748
0.045806
0.068264
0.093630
0.080255
0.064399
0.047119
0.003653
-0.044716
-0.083629
-0.124033
-0.175317
-0.213875
-0.246737
-0.210117
-0.169364
-0.141397
-0.106882
-0.046693
-0.020414
0.035833
0.084889
0.093827
0.105714
0.090820
0.038991
0.003698
-0.007063
-0.036187
-0.038915
-0.110716
-0.167134
-0.193791
-0.185027
-0.178718
-0.148078
-0.125602
-0.121807
-0.054406
-0.011649
0.016706
0.056539
0.092863
0.107409
0.108422
0.093457
0.063072
0.002475
-0.039448
-0.070469
-0.133118
-0.180240
-0.201389
-0.214130
-0.191612
-0.172590
-0.126270
-0.093106
-0.036635
0.010356
0.067210
0.090752
0.087384
0.108283
0.144540
0.109426
0.075104
0.033764
-0.028356
-0.099190
-0.190273
-0.194611
-0.198470
-0.171996
-0.158208
-0.181840
-0.124212
-0.039779
0.005388
0.002517
0.002561
0.071946
0.117791
0.140524
0.113766
0.059145
0.005419
-0.001881
-0.047252
-0.097755
-0.178632
-0.192779
-0.180325
-0.186516
-0.175950
-0.189658
-0.127046
-0.062222
-0.043742
0.011739
0.065870
0.065985
0.058383
0.070817
0.063050
0.070472
0.016615
-0.002202
-0.003652
-0.065442
-0.133955
-0.150091
-0.191853
-0.192162
-0.187196
-0.158907
-0.134118
-0.128034
-0.081029
-0.008863
0.064632
0.073172
0.100060
0.119693
0.111301
0.101476
0.048473
0.006258
-0.041900
-0.090831
-0.113593
-0.153156
-0.183945
-0.204595
-0.237771
-0.179032
-0.121582
-0.081302
-0.066438
-0.028010
0.012910
0.022465
0.050920
0.071608
0.079652
0.064007
0.053758
0.046581
-0.032381
-0.097141
-0.149199
-0.162862
-0.160810
-0.173577
-0.178962
-0.161678
-0.139944
-0.094358
-0.053454
0.005195
0.060588
0.093141
0.122852
0.125392
0.116990
0.084162
0.059107
0.027833
-0.008827
-0.062834
-0.120885
-0.165446
-0.163870
-0.161621
-0.161235
-0.142320
-0.101806
-0.060004
-0.024873
0.007754
0.045561
0.106885
0.150181
0.113938
0.135826
0.098024
0.070858
0.057577
-0.012971
-0.077349
-0.086514
-0.130485
-0.177426
-0.162590
-0.132843
-0.147560
-0.144034
-0.064526
0.029259
0.082963
0.117461
0.132190
0.154001
0.156966
0.137231
0.141913
0.122107
0.019943
-0.016937
-0.059048
-0.111215
-0.132125
-0.149263
-0.168373
-0.177467
-0.162677
-0.112055
-0.057371
-0.006539
0.013028
0.048039
0.082556
0.103868
0.101507
0.089979
0.060511
0.037052
0.009160
-0.051900
-0.090384
-0.136943
-0.187038
-0.206889
-0.198663
-0.178320
-0.204438
-0.153001
-0.105028
-0.070379
-0.019593
0.036586
0.065101
0.076251
0.084795
0.041824
-0.002553
-0.010412
-0.027195
-0.039910
-0.118050
-0.167305
-0.209768
-0.230830
-0.255476
-0.236298
-0.216225
-0.194648
-0.144373
-0.089251
-0.048035
0.012738
0.041770
0.061976
0.077322
0.068888
0.035785
0.014790
-0.029518
-0.085545
-0.124985
-0.160481
-0.220685
-0.246439
-0.269159
-0.255638
-0.230037
-0.161756
-0.125070
-0.082799
-0.030446
0.010499
0.030850
0.049094
0.056492
0.047434
0.043534
0.017007
-0.012851
-0.085330
-0.132243
-0.171257
-0.223002
-0.253407
-0.252470
-0.237246
-0.205154
-0.168245
-0.144105
-0.095940
-0.076281
-0.044233
0.015193
0.047898
0.065084
0.070161
0.040904
0.017118
-0.027927
-0.069406
-0.130027
-0.174868
-0.216876
-0.226676
-0.216451
-0.245847
-0.250478
-0.210691
-0.141821
-0.079301
-0.028282
0.002829
0.055373
0.093055
0.131038
0.150751
0.138618
0.117478
0.102799
0.068493
0.026306
-0.007901
-0.008652
-0.016079
0.004828
0.024996
0.067241
0.140990
0.246130
0.306508
0.356974
0.443802
0.508556
0.558682
0.618028
0.670778
0.676043
0.680241
0.691028
0.677885
0.654360
0.634245
0.624958
0.610627
0.619138
0.638707
0.610021
0.620261
0.640362
0.653182
0.684155
0.718850
0.663787
0.588564
0.504898
0.443782
0.362271
0.293254
0.219505
0.132271
0.101440
0.057711
0.002249
-0.058284
-0.080284
-0.060755
-0.020310
-0.004758
0.039128
0.077989
0.060619
0.093130
0.129295
0.167835
0.165311
0.160224
0.126918
0.101907
0.051084
0.017111
-0.036931
-0.101060
-0.145548
-0.172178
-0.164182
-0.145044
-0.127006
-0.106588
-0.059455
-0.024879
0.000089
0.052631
0.082125
0.114450
0.112845
0.100080
0.077884
0.053492
0.038583
-0.016259
-0.076115
-0.126336
-0.170064
-0.193762
-0.203662
-0.185046
-0.157871
-0.133046
-0.091495
-0.038193
0.016732
0.038524
0.069796
0.092860
0.119309
0.117086
0.092288
0.061223
0.008932
-0.038940
-0.083691
-0.131935
-0.149266
-0.171266
-0.178959
-0.174946
-0.166890
-0.130127
-0.085526
-0.044122
0.014012
0.045973
0.076930
0.105709
0.123810
0.113621
0.102747
0.084215
0.027973
-0.010523
-0.060427
-0.125281
-0.165623
-0.172397
-0.152031
-0.149556
-0.149126
-0.119048
-0.060962
-0.029759
0.034280
0.068459
0.104521
0.123685
0.137296
0.139986
0.108278
0.077503
0.052705
0.016290
-0.045867
-0.088756
-0.104039
-0.122434
-0.170648
-0.149788
-0.095962
-0.071020
-0.039562
0.007432
0.060301
0.103406
0.146721
0.178056
0.170691
0.143628
0.138171
0.100175
0.074123
0.035446
-0.027358
-0.072785
-0.091381
-0.118888
-0.148460
-0.098296
-0.067272
-0.036149
0.011004
0.058700
0.089746
0.135345
0.174032
0.195708
0.217523
0.199436
0.188896
0.147288
0.063911
0.031790
0.001686
-0.031836
-0.068373
-0.083211
-0.085049
-0.093086
-0.066836
-0.023923
0.021223
0.063335
0.088576
0.143786
0.188696
0.202556
0.203288
0.204221
0.169901
0.122767
0.108243
0.062085
0.026898
-0.018374
-0.058932
-0.097870
-0.102982
-0.075928
-0.049567
-0.013980
0.008167
0.042357
0.071770
0.122959
0.172667
0.186069
0.203342
0.178853
0.154056
0.116417
0.093145
0.055942
-0.001607
-0.040503
-0.079214
-0.091992
-0.126784
-0.116801
-0.090190
-0.070114
-0.031438
0.014483
0.064590
0.099691
0.127377
0.153394
0.177573
0.180321
0.142485
0.108572
0.068281
0.024478
-0.026528
-0.076953
-0.092651
-0.126659
-0.145912
-0.150001
-0.127265
-0.101517
-0.073929
-0.018577
0.032898
0.062383
0.085771
0.122055
0.145225
0.130399
0.098909
0.075928
0.043723
0.005467
-0.068522
-0.116030
-0.139612
-0.160992
-0.170762
-0.166473
-0.148331
-0.094336
-0.049425
-0.023186
0.010106
0.038287
0.077077
0.105990
0.118442
0.111122
0.073529
0.040194
0.020457
-0.036093
-0.083816
-0.130752
-0.161578
-0.167410
-0.186280
-0.196145
-0.178471
-0.136557
-0.104359
-0.041591
-0.002846
0.039665
0.069326
0.083471
0.102120
0.102523
0.072706
0.040048
-0.001202
-0.045908
-0.080916
-0.117731
-0.151776
-0.184361
-0.188052
-0.186899
-0.173158
-0.132305
-0.088366
-0.041112
0.006609
0.062830
0.094459
0.104484
0.100389
0.106504
0.061162
0.054822
0.034742
-0.008609
-0.104782
-0.157292
-0.180182
-0.175776
-0.199469
-0.207070
-0.146181
-0.127511
-0.089188
-0.021502
0.044865
0.060919
0.081798
0.091362
0.101062
0.106455
0.089493
0.058882
0.026015
-0.007758
-0.076798
-0.137320
-0.165974
-0.184639
-0.179876
-0.183366
-0.168314
-0.123453
-0.064431
-0.013044
0.016827
0.059406
0.096457
0.107373
0.122951
0.117297
0.092178
0.059375
0.022356
-0.032107
-0.082695
-0.107438
-0.147347
-0.174426
-0.186447
-0.180210
-0.166094
-0.130436
-0.092070
-0.040162
-0.002608
0.041000
0.084356
0.107664
0.119114
0.121402
0.100550
0.074177
0.043736
-0.012394
-0.069131
-0.104499
-0.122106
-0.182593
-0.200945
-0.197167
-0.201465
-0.144194
-0.105551
-0.058094
0.016261
0.059007
0.076773
0.089943
0.094700
0.103688
0.083885
0.045688
0.018466
-0.031007
-0.061212
-0.097752
-0.138779
-0.170342
-0.199244
-0.198324
-0.182400
-0.158225
-0.113719
-0.051634
-0.000516
0.054263
0.081684
0.106884
0.097772
0.078695
0.056336
0.039671
0.018212
-0.043509
-0.088357
-0.119551
-0.140895
-0.174420
-0.197730
-0.191716
-0.185082
-0.145235
-0.109032
-0.043729
-0.015863
0.025110
0.055700
0.072115
0.093735
0.087833
0.070221
0.027205
-0.001136
-0.039797
-0.094168
-0.141027
-0.183811
-0.211991
-0.210342
-0.205012
-0.168425
-0.114362
-0.080478
-0.069555
-0.038651
0.001860
0.030787
0.067560
0.079668
0.067031
0.044589
0.022061
-0.028854
-0.083513
-0.111040
-0.139683
-0.154762
-0.182884
-0.199434
-0.199323
-0.177552
-0.145331
-0.109789
-0.063237
-0.016176
0.024667
0.055421
0.077541
0.087236
0.080386
0.073682
0.044055
-0.004258
-0.046395
-0.104634
-0.142905
-0.160384
-0.172098
-0.175499
-0.175398
-0.156694
-0.125737
-0.058574
-0.023716
-0.011915
0.044414
0.092381
0.106519
0.103274
0.107990
0.085205
0.054807
0.020404
-0.030652
-0.077866
-0.108366
-0.151447
-0.175518
-0.187356
-0.181650
-0.157912
-0.124991
-0.087708
-0.026221
0.025490
0.068231
0.090789
0.124742
0.137909
0.127562
0.113179
0.084392
0.039177
-0.009905
-0.056309
-0.097234
-0.129258
-0.155159
-0.185486
-0.159755
-0.131041
-0.109978
-0.077507
-0.030846
0.006718
0.048965
0.098528
0.120875
0.104331
0.121618
0.103123
0.057399
0.025103
-0.020664
-0.075570
-0.120872
-0.166389
-0.202349
-0.225215
-0.210115
-0.176878
-0.144978
-0.110909
-0.060474
-0.021324
0.028784
0.059555
0.055933
0.055372
0.067384
0.059839
0.012557
-0.031129
-0.076470
-0.135440
-0.171535
-0.213862
-0.236160
-0.235826
-0.232144
-0.216612
-0.182363
-0.158496
-0.100603
-0.067415
-0.019815
0.009051
0.038052
0.044716
0.040824
0.016342
-0.014326
-0.044724
-0.085035
-0.124785
-0.167748
-0.207861
-0.252797
-0.244278
-0.250658
-0.229451
-0.201472
-0.164223
-0.127878
-0.082774
-0.026994
0.005884
0.032197
0.047004
0.037999
0.018252
-0.002143
-0.058106
-0.102326
-0.132491
-0.186816
-0.228094
-0.274299
-0.256683
-0.241939
-0.222668
-0.188309
-0.154324
-0.129063
-0.081590
-0.033105
-0.001818
0.030443
0.035875
0.037777
0.028405
-0.018638
-0.056944
-0.100603
-0.139633
-0.193603
-0.242957
-0.248748
-0.251541
-0.245785
-0.238653
-0.199218
-0.173411
-0.115637
-0.070473
-0.048084
-0.016972
0.018910
0.009227
0.007410
-0.016977
-0.049368
-0.067580
-0.101049
-0.130359
-0.166941
-0.200628
-0.214463
-0.194687
-0.171503
-0.148160
-0.092836
-0.041059
0.019404
0.090467
0.151974
0.196241
0.222201
0.257114
0.263545
0.286865
0.253946
0.269667
0.276370
0.271905
0.267609
0.272316
0.283007
0.303467
0.342399
0.405475
0.495505
0.563949
0.658903
0.719707
0.804925
0.855885
0.872694
0.873637
0.876899
0.844210
0.760537
0.710449
0.659710
0.583185
0.484384
0.374630
0.277953
0.200936
0.149551
0.111411
0.092249
0.077879
0.089580
0.137301
0.158414
0.199802
0.227283
0.216122
0.201196
0.188040
0.145854
0.088203
0.039376
-0.025862
-0.069244
-0.100959
-0.130356
-0.185619
-0.186899
-0.158911
-0.130632
-0.091024
-0.057973
-0.014332
0.036171
0.069351
0.087270
0.086720
0.084808
0.066095
0.033731
-0.001153
-0.068623
-0.108511
-0.164847
-0.198571
-0.220296
-0.224225
-0.215396
-0.194217
-0.169456
-0.138607
-0.096657
-0.041779
0.000565
0.038301
0.078040
0.074690
0.055174
0.037267
0.012835
-0.025594
-0.076979
-0.136380
-0.173893
-0.197412
-0.215876
-0.233639
-0.219746
-0.214545
-0.179392
-0.150363
-0.099011
-0.050434
0.004126
0.037164
0.066785
0.055786
0.050309
0.046983
0.011611
-0.022707
-0.058545
-0.106061
-0.150061
-0.187075
-0.204441
-0.219341
-0.223691
-0.197191
-0.165468
-0.131263
-0.088176
-0.039383
0.006812
0.050357
0.077541
0.073520
0.058540
0.019854
-0.015037
-0.024417
-0.056581
-0.109006
-0.126118
-0.180873
-0.209393
-0.217382
-0.197237
-0.169194
-0.140864
-0.119103
-0.051989
-0.001025
0.030594
0.072812
0.109423
0.102611
0.093801
0.081471
0.039239
-0.000838
-0.051919
-0.093246
-0.126956
-0.154901
-0.173027
-0.173298
-0.184891
-0.148405
-0.098935
-0.070881
-0.035841
0.012087
0.050420
0.090101
0.104763
0.126851
0.123563
0.104560
0.070738
0.052900
0.009546
-0.058740
-0.113465
-0.119344
-0.146169
-0.168470
-0.160952
-0.131726
-0.090903
-0.047584
-0.000930
0.032140
0.070077
0.115156
0.150964
0.154885
0.151198
0.129353
0.092681
0.057878
0.022209
-0.020484
-0.074102
-0.110130
-0.153469
-0.159794
-0.130747
-0.105389
-0.074647
-0.038995
0.018259
0.033345
0.054203
0.110177
0.142520
0.146734
0.137077
0.125769
0.103840
0.065313
0.009027
-0.043650
-0.102428
-0.122960
-0.144978
-0.177017
-0.147910
-0.119193
-0.094352
-0.065425
-0.026620
0.012409
0.057431
0.074966
0.077597
0.113060
0.105740
0.083693
0.045581
0.017351
-0.030665
-0.078227
-0.113790
-0.147918
-0.183522
-0.190375
-0.184559
-0.157947
-0.130399
-0.102503
-0.064651
-0.010366
-0.002948
0.052313
0.092005
0.081574
0.084421
0.069973
0.030416
-0.014013
-0.063644
-0.129429
-0.177817
-0.188611
-0.205078
-0.214745
-0.209987
-0.193169
-0.165266
-0.132300
-0.082730
-0.034284
0.011558
0.028826
0.035286
0.051185
0.057817
0.037009
-0.007413
-0.028824
-0.088837
-0.146524
-0.184322
-0.236277
-0.255471
-0.252854
-0.244778
-0.232249
-0.197288
-0.151406
-0.111617
-0.065634
-0.028509
-0.013849
0.016931
0.031310
0.040260
0.026549
-0.013255
-0.052867
-0.110321
-0.149474
-0.185676
-0.221712
-0.235263
-0.275562
-0.269150
-0.242029
-0.211676
-0.173380
-0.141544
-0.084909
-0.030517
-0.000030
0.022397
0.025528
0.027517
0.007160
-0.015751
-0.059501
-0.102831
-0.144187
-0.177080
-0.227214
-0.259669
-0.272548
-0.272233
-0.254917
-0.204813
-0.154440
-0.117953
-0.067159
-0.033412
-0.013354
0.019608
0.026718
0.017112
0.009886
-0.008428
-0.046550
-0.109550
-0.155380
-0.196129
-0.208038
-0.219076
-0.240382
-0.238306
-0.215861
-0.212700
-0.177237
-0.109602
-0.068400
-0.020606
0.021816
0.035703
0.030272
0.037242
0.029387
-0.004080
-0.045860
-0.102274
-0.159326
-0.178902
-0.212645
-0.230361
-0.250668
-0.247918
-0.217965
-0.188643
-0.155926
-0.121115
-0.068224
-0.017326
0.014895
0.040536
0.045528
0.026324
-0.002248
-0.031124
-0.078922
-0.120414
-0.146444
-0.189608
-0.232121
-0.250547
-0.248723
-0.246938
-0.233867
-0.214637
-0.160034
-0.108237
-0.066655
-0.013612
0.018139
0.038100
0.042772
0.047205
0.044308
-0.003197
-0.059091
-0.110516
-0.151392
-0.199261
-0.231631
-0.252998
-0.270146
-0.249018
-0.234964
-0.208824
-0.150429
-0.109088
-0.077706
-0.048845
-0.006484
0.015138
0.018138
0.021367
0.010863
-0.010119
-0.045472
-0.107574
-0.170801
-0.205991
-0.208797
-0.238286
-0.266739
-0.277792
-0.251903
-0.221734
-0.181333
-0.134352
-0.080450
-0.058112
-0.036931
-0.007822
0.015041
0.018331
-0.013635
-0.044269
-0.073722
-0.102444
-0.138974
-0.213843
-0.253026
-0.269323
-0.264883
-0.252277
-0.240451
-0.211001
-0.171631
-0.125897
-0.079447
-0.044876
-0.017229
0.006080
0.028070
0.033121
-0.026880
-0.059887
-0.094246
-0.128060
-0.157486
-0.198393
-0.231189
-0.267058
-0.290194
-0.269618
-0.256954
-0.199531
-0.150724
-0.111612
-0.070586
-0.042826
-0.016615
0.002063
0.011863
0.003719
-0.037934
-0.054776
-0.076296
-0.128009
-0.177638
-0.218801
-0.249396
-0.267616
-0.274007
-0.259645
-0.259114
-0.223995
-0.189645
-0.141989
-0.106467
-0.054307
-0.026595
-0.012151
-0.017786
0.018868
-0.005623
-0.044202
-0.077230
-0.129414
-0.175915
-0.217034
-0.261791
-0.279755
-0.277113
-0.266699
-0.260967
-0.217803
-0.176983
-0.139854
-0.102178
-0.075983
0.003334
0.035043
0.046849
0.028093
-0.000321
-0.035011
-0.050162
-0.072829
-0.144900
-0.221987
-0.256564
-0.272178
-0.262743
-0.259430
-0.236854
-0.189658
-0.157017
-0.117186
-0.041561
0.002900
0.033378
0.059850
0.055075
0.052151
0.051921
0.015633
-0.065103
-0.103184
-0.139166
-0.186595
-0.214155
-0.220699
-0.234151
-0.250066
-0.230075
-0.193758
-0.157250
-0.117692
-0.051275
-0.006409
0.037528
0.043010
0.041116
0.052952
0.045529
0.010293
-0.025357
-0.069130
-0.109681
-0.149740
-0.187395
-0.215928
-0.227681
-0.211086
-0.192017
-0.173115
-0.135655
-0.082607
-0.043123
-0.015499
0.002342
0.025444
0.033091
0.034870
-0.000655
-0.031449
-0.075542
-0.107459
-0.137594
-0.184534
-0.233658
-0.257671
-0.262670
-0.253729
-0.239817
-0.221049
-0.192174
-0.133643
-0.085412
-0.040585
-0.013332
0.015002
0.021560
0.014987
-0.001654
-0.041865
-0.101891
-0.138348
-0.186300
-0.227539
-0.247328
-0.263194
-0.287719
-0.326296
-0.311362
-0.241720
-0.194683
-0.159845
-0.109895
-0.070097
-0.035957
-0.030965
-0.024483
-0.022617
-0.043073
-0.072490
-0.113662
-0.165057
-0.213200
-0.275643
-0.312675
-0.290374
-0.288527
-0.300529
-0.285259
-0.249528
-0.213915
-0.163648
-0.099835
-0.053754
-0.023188
-0.003778
0.007606
-0.012977
-0.028799
-0.073509
-0.112555
-0.160774
-0.187568
-0.235624
-0.281937
-0.297112
-0.299683
-0.300923
-0.289398
-0.241214
-0.215738
-0.180093
-0.118987
-0.092429
-0.041730
-0.006601
-0.029701
-0.031956
-0.026762
-0.063475
-0.111565
-0.152039
-0.194434
-0.246930
-0.289726
-0.318988
-0.316840
-0.312674
-0.284268
-0.246893
-0.199501
-0.168340
-0.139626
-0.105547
-0.057838
-0.021212
-0.023572
-0.042543
-0.065150
-0.084074
-0.106104
-0.140451
-0.178115
-0.233096
-0.229601
-0.197628
-0.210419
-0.200253
-0.146410
-0.114722
-0.075438
-0.018217
0.049904
0.113516
0.174145
0.222936
0.243999
0.276839
0.291177
0.291273
0.284873
0.275596
0.293341
0.284079
0.275812
0.287050
0.322788
0.379402
0.419118
0.490778
0.588878
0.666303
0.724251
0.760805
0.779923
0.815284
0.807083
0.759785
0.747275
0.690552
0.606011
0.517780
0.390883
0.287918
0.186193
0.100992
0.038400
-0.008105
-0.034241
-0.028865
0.009672
0.055933
0.097593
0.136101
0.155954
0.169692
0.176555
0.160358
0.135007
0.089610
0.027396
-0.026332
-0.081992
-0.143681
-0.186962
-0.204300
-0.204348
-0.193482
-0.181948
-0.188568
-0.158130
-0.107489
-0.048341
-0.014695
0.023759
0.047996
0.055868
0.046121
0.032621
-0.010960
-0.055358
-0.093359
-0.132899
-0.195667
-0.239577
-0.264574
-0.254396
-0.260438
-0.245158
-0.208923
-0.188279
-0.129065
-0.062150
-0.019645
0.010081
0.030476
0.037027
0.006832
-0.036164
-0.047829
-0.060545
-0.101595
-0.151989
-0.192431
-0.209867
-0.233373
-0.255078
-0.255835
-0.219021
-0.185587
-0.157174
-0.132331
-0.091328
-0.028737
0.019943
0.045069
0.050474
0.034091
0.000790
-0.032230
-0.064957
-0.103755
-0.155512
-0.182788
-0.210678
-0.227527
-0.229929
-0.238561
-0.210021
-0.176980
-0.141716
-0.090367
-0.034910
-0.002417
0.008603
0.042358
0.059851
0.075819
0.046989
-0.029515
-0.079794
-0.102133
-0.123214
-0.145633
-0.185830
-0.214120
-0.231309
-0.220272
-0.191264
-0.143223
-0.075853
-0.054892
-0.030313
-0.023953
0.044257
0.080398
0.093189
0.097447
0.082995
0.061558
0.010860
-0.045354
-0.088539
-0.129047
-0.159058
-0.185035
-0.201822
-0.200388
-0.177241
-0.141803
-0.106518
-0.036784
0.004139
0.041605
0.097525
0.112487
0.118466
0.122749
0.103000
0.076942
0.035269
-0.020749
-0.058271
-0.106043
-0.143389
-0.156621
-0.180222
-0.171417
-0.138822
-0.089271
-0.057675
-0.018982
0.013375
0.071327
0.107765
0.124839
0.141032
0.138108
0.120770
0.083240
0.068836
0.023743
-0.028291
-0.073925
-0.119434
-0.150844
-0.153538
-0.133753
-0.116161
-0.082186
-0.045932
-0.004963
0.041942
0.085768
0.112999
0.116001
0.121486
0.124874
0.107900
0.077246
0.057016
0.003014
-0.051484
-0.106389
-0.132805
-0.143407
-0.163235
-0.157020
-0.132671
-0.112990
-0.070216
-0.012435
0.027470
0.063379
0.096866
0.110983
0.112095
0.123408
0.099771
0.058711
0.030589
-0.027785
-0.073722
-0.131832
-0.173794
-0.186415
-0.171300
-0.170181
-0.175555
-0.155133
-0.101034
-0.063835
-0.015865
0.031495
0.061470
0.074485
0.095253
0.073445
0.053873
0.020503
-0.039730
-0.089403
-0.115928
-0.145842
-0.182679
-0.194293
-0.221100
-0.212193
-0.202289
-0.155397
-0.114747
-0.080278
-0.041160
0.004328
0.014930
0.033079
0.054407
0.060457
0.053154
0.008013
-0.023645
-0.080768
-0.136813
-0.161426
-0.188266
-0.225224
-0.249557
-0.277706
-0.257553
-0.190447
-0.144387
-0.100581
-0.047970
-0.004652
0.029263
0.053878
0.060364
0.048229
0.020752
-0.017151
-0.031107
-0.075813
-0.137003
-0.176285
-0.194504
-0.234688
-0.260312
-0.255951
-0.227926
-0.196381
-0.150901
-0.113934
-0.077368
-0.028875
0.027444
0.043372
0.054277
0.044502
0.021163
0.001743
-0.023014
-0.063966
-0.132466
-0.155347
-0.198323
-0.216924
-0.233253
-0.231958
-0.201406
-0.185472
-0.147551
-0.071539
-0.023538
-0.004582
0.023180
0.043531
0.020943
0.020355
0.036259
0.024122
-0.001408
-0.067449
-0.135699
-0.162234
-0.200387
-0.225570
-0.221715
-0.212088
-0.194921
-0.179810
-0.119753
-0.080662
-0.036860
-0.005472
0.013626
0.031804
0.068342
0.070565
0.053313
-0.007453
-0.049215
-0.081782
-0.105223
-0.130561
-0.172608
-0.193457
-0.223970
-0.209213
-0.177694
-0.142117
-0.131535
-0.086908
-0.031526
0.019563
0.072284
0.085846
0.076708
0.062288
0.040334
-0.000677
-0.028699
-0.073472
-0.120254
-0.155017
-0.186825
-0.207063
-0.241898
-0.248071
-0.229199
-0.173210
-0.112290
-0.076705
-0.033232
0.011209
0.045240
0.050512
0.081017
0.091266
0.065390
0.022831
-0.006660
-0.063203
-0.115988
-0.151060
-0.194622
-0.214754
-0.227729
-0.217808
-0.201140
-0.170491
-0.136191
-0.090626
-0.059931
-0.004924
0.043448
0.067177
0.080489
0.075045
0.033946
0.001378
-0.029548
-0.039774
-0.096822
-0.146108
-0.195279
-0.237792
-0.253756
-0.257366
-0.222648
-0.168972
-0.145607
-0.095105
-0.047413
0.004635
0.029257
0.044238
0.055834
0.069856
0.055859
0.026133
-0.019848
-0.075168
-0.123623
-0.187067
-0.210041
-0.223999
-0.244224
-0.235674
-0.218800
-0.185212
-0.125676
-0.093015
-0.072621
-0.010332
0.033431
0.053483
0.066809
0.058458
0.040993
-0.000351
-0.043855
-0.098098
-0.149557
-0.169948
-0.203165
-0.218471
-0.233688
-0.235425
-0.204908
-0.162710
-0.133060
-0.090185
-0.042805
-0.013449
0.021881
0.056105
0.076302
0.079073
0.049374
-0.009723
-0.042052
-0.085672
-0.138015
-0.194657
-0.237329
-0.254779
-0.258025
-0.232684
-0.209115
-0.176075
-0.138869
-0.081238
-0.045854
0.006253
0.042670
0.026908
0.038388
0.056988
0.052628
0.014079
-0.023788
-0.064561
-0.121658
-0.164223
-0.203509
-0.226406
-0.244131
-0.234484
-0.215081
-0.180079
-0.137079
-0.090156
-0.022296
0.013200
0.042831
0.078745
0.098822
0.103926
0.082206
0.050638
0.003004
-0.046167
-0.078160
-0.140851
-0.177768
-0.203328
-0.203710
-0.190478
-0.156730
-0.134857
-0.115370
-0.063982
-0.012925
0.033075
0.076245
0.095159
0.098832
0.094968
0.080232
0.051017
0.016111
-0.034827
-0.077481
-0.120776
-0.162622
-0.177479
-0.178572
-0.175392
-0.161100
-0.119130
-0.059235
-0.024185
0.014116
0.036221
0.069194
0.112262
0.129304
0.111754
0.098663
0.067588
0.023305
-0.028916
-0.074306
-0.113237
-0.151762
-0.169421
-0.182651
-0.183968
-0.173655
-0.143067
-0.113408
-0.078257
-0.020042
0.033512
0.071749
0.089481
0.087710
0.076568
0.050819
0.014396
-0.033331
-0.072269
-0.115678
-0.174644
-0.207574
-0.216143
-0.235012
-0.215909
-0.193201
-0.165494
-0.131073
-0.083477
-0.051221
-0.009095
0.032184
0.052751
0.063457
0.059044
0.038434
-0.001225
-0.053480
-0.104448
-0.144155
-0.188870
-0.233372
-0.252391
-0.259358
-0.244232
-0.228725
-0.199704
-0.156807
-0.111711
-0.069128
-0.011260
0.013147
0.031028
0.050520
0.054580
0.032883
-0.014831
-0.049910
-0.079196
-0.124445
-0.181804
-0.242521
-0.236328
-0.235957
-0.231990
-0.206976
-0.191966
-0.178255
-0.128387
-0.074099
-0.018080
0.015608
0.026360
0.045428
0.035341
0.021814
-0.017460
-0.040272
-0.098132
-0.148278
-0.172677
-0.204249
-0.229746
-0.239639
-0.229155
-0.230788
-0.199966
-0.158685
-0.094926
-0.043779
-0.004369
0.027077
0.031624
0.045641
0.036598
0.006674
-0.016502
-0.059653
-0.097292
-0.141474
-0.188140
-0.227878
-0.251537
-0.270589
-0.269062
-0.212502
-0.166291
-0.140594
-0.098107
-0.053687
0.009327
0.061432
0.095004
0.117227
0.116899
0.097302
0.082775
0.069485
0.029186
-0.005323
-0.037714
-0.041031
-0.052036
-0.022631
0.004827
0.069407
0.129063
0.203000
0.286488
0.371995
0.455920
0.520012
0.565541
0.607990
0.635042
0.661849
0.667409
0.670581
0.644875
0.619787
0.617602
0.593599
0.567312
0.556796
0.582128
0.586571
0.594598
0.618206
0.638974
0.642183
0.629296
0.600974
0.559021
0.509760
0.445865
0.383397
0.302094
0.213948
0.160353
0.100538
0.046888
-0.003779
-0.034003
-0.051597
-0.071670
-0.062098
-0.042205
-0.004303
0.026908
0.064520
0.093903
0.141316
0.153358
0.168025
0.163643
0.134627
0.095822
0.047961
-0.011155
-0.074251
-0.117577
-0.147028
-0.157290
-0.166394
-0.164652
-0.138719
-0.103371
-0.058612
-0.024447
0.005518
0.037700
0.070520
0.107133
0.106604
0.067989
0.054029
0.040068
-0.006411
-0.046216
-0.071686
-0.107980
-0.159582
-0.183600
-0.178792
-0.196285
-0.150177
-0.129879
-0.081725
-0.032848
0.005070
0.051546
0.072854
0.101865
0.101748
0.095201
0.083258
0.052652
0.009242
-0.036683
-0.085951
-0.115021
-0.138220
-0.169041
-0.188072
-0.175922
-0.162884
-0.131011
-0.065443
-0.019137
0.018601
0.054577
0.089551
0.121816
0.128469
0.125715
0.097881
0.050199
0.013036
-0.039494
-0.077192
-0.111793
-0.138558
-0.165663
-0.164070
-0.166764
-0.157928
-0.102977
-0.057730
-0.032415
0.010334
0.053335
0.084864
0.125646
0.163884
0.164346
0.128037
0.078034
0.064099
0.012214
-0.048198
-0.095157
-0.128290
-0.142912
-0.145011
-0.123520
-0.092981
-0.057703
-0.026969
0.006029
0.056689
0.089109
0.145468
0.181889
0.186497
0.177819
0.149334
0.121723
0.091419
0.056279
-0.002828
-0.046532
-0.074872
-0.101753
-0.106413
-0.099210
-0.076379
-0.048110
-0.003582
0.029150
0.087101
0.118089
0.158035
0.187463
0.201559
0.199584
0.176567
0.149047
0.112212
0.072082
0.031868
-0.011285
-0.053391
-0.073302
-0.086843
-0.074946
-0.051174
-0.012534
0.027888
0.067634
0.115851
0.168735
0.199998
0.213397
0.197591
0.180233
0.175987
0.159943
0.108503
0.080769
0.034071
-0.040679
-0.093141
-0.098880
-0.088891
-0.096628
-0.052146
-0.033378
0.022286
0.067470
0.097574
0.148342
0.165851
0.198214
0.200529
0.199362
0.174005
0.144531
0.101129
0.059034
0.006317
-0.031001
-0.057234
-0.077438
-0.097429
-0.122576
-0.107068
-0.051681
0.009557
0.049872
0.089118
0.112990
0.150989
0.188452
0.196114
0.152609
0.151634
0.096220
0.068582
0.047569
-0.002063
-0.030539
-0.084925
-0.111668
-0.144555
-0.146019
-0.115803
-0.080775
-0.049273
0.004882
0.056769
0.089190
0.132666
0.143327
0.105951
0.113829
0.108619
0.096032
0.089766
0.055567
-0.007184
-0.082956
-0.121595
-0.147903
-0.173812
-0.154430
-0.131536
-0.117353
-0.075896
-0.027765
0.020725
0.062452
0.101931
0.117679
0.140943
0.115858
0.105572
0.086284
0.035316
-0.015934
-0.057093
-0.106045
-0.128346
-0.150104
-0.162267
-0.182629
-0.163084
-0.109689
-0.083746
-0.040760
0.007231
0.068693
0.092398
0.123875
0.147242
0.125104
0.094330
0.074089
0.036161
-0.007253
-0.046712
-0.081409
-0.116905
-0.152767
-0.188815
-0.166253
-0.131106
-0.093070
-0.055759
-0.002596
0.046563
0.103745
0.113916
0.097592
0.114433
0.121987
0.106873
0.081349
0.050168
0.001988
-0.071278
-0.103374
-0.132741
-0.157170
-0.171747
-0.154185
-0.115812
-0.088956
-0.049085
-0.006502
0.037433
0.078968
0.111591
0.120090
0.137029
0.134897
0.135485
0.098399
0.039652
0.004709
-0.040641
-0.103085
-0.133949
-0.154593
-0.190503
-0.174333
-0.127675
-0.089674
-0.032761
-0.000409
0.033225
0.069631
0.118069
0.153870
0.167523
0.166826
0.140288
0.082969
0.033596
0.024252
-0.022905
-0.072377
-0.113250
-0.152568
-0.146498
-0.130304
-0.111582
-0.092821
-0.067881
-0.028364
0.027667
0.074274
0.112000
0.129187
0.147516
0.146017
0.124111
0.100259
0.043009
-0.005738
-0.050434
-0.084775
-0.107696
-0.120416
-0.159493
-0.137352
-0.139216
-0.120270
-0.070725
-0.021091
0.009109
0.041639
0.093036
0.133799
0.113750
0.127746
0.126135
0.086576
0.015887
-0.038591
-0.070599
-0.115369
-0.164788
-0.195962
-0.173903
-0.122450
-0.100635
-0.116592
-0.046381
0.027273
0.077017
0.096154
0.122430
0.154880
0.122547
0.092256
0.089885
0.065452
0.024307
-0.005987
-0.080940
-0.143954
-0.171052
-0.170700
-0.163818
-0.140454
-0.097255
-0.041784
-0.018799
-0.002561
0.049485
0.057086
0.072208
0.112689
0.147217
0.135470
0.102238
0.059518
0.013693
-0.004343
-0.052705
-0.120488
-0.177684
-0.161041
-0.136535
-0.145682
-0.127959
-0.092228
-0.054295
-0.014594
0.030132
0.063443
0.102920
0.125747
0.116471
0.129677
0.095019
0.051501
0.025799
0.006668
-0.047283
-0.098012
-0.138600
-0.164723
-0.174842
-0.155648
-0.148894
-0.133276
-0.078075
-0.028242
0.015765
0.064925
0.091017
0.142085
0.152467
0.108988
0.091223
0.085608
0.055065
0.006672
-0.047349
-0.083092
-0.134824
-0.157003
-0.161418
-0.146093
-0.141024
-0.102155
-0.091889
-0.059752
0.023006
0.090143
0.103030
0.132687
0.131679
0.118700
0.087442
0.064836
0.032196
0.011002
-0.018379
-0.094442
-0.154226
-0.147425
-0.149890
-0.164428
-0.151722
-0.087015
-0.020571
0.014639
0.069445
0.096377
0.092367
0.106976
0.110422
0.145000
0.117377
0.068672
0.060917
0.005108
-0.047756
-0.090433
-0.117320
-0.163237
-0.165966
-0.106422
-0.030367
-0.021947
-0.004575
0.023481
0.078333
0.123415
0.168483
0.181642
0.169693
0.150709
0.156736
0.124184
0.075413
0.037698
-0.005662
-0.054833
-0.097391
-0.111085
-0.113261
-0.115706
-0.061133
-0.024009
0.008760
0.030876
0.086513
0.144171
0.179303
0.194776
0.203346
0.194739
0.163471
0.118931
0.079681
0.067150
0.017744
-0.043257
-0.063177
-0.087316
-0.110659
-0.136611
-0.119813
-0.045884
-0.009514
0.005460
0.065991
0.109520
0.133309
0.144772
0.167988
0.145444
0.114510
0.082005
-0.022132
-0.004863
0.030099
-0.015023
-0.046526
-0.097246
-0.122751
-0.156416
-0.156399
-0.111005
-0.069559
-0.009120
0.040152
0.057598
0.097959
0.126561
0.131000
0.111900
0.099590
0.077652
0.043309
-0.010044
-0.049435
-0.093502
-0.131347
-0.139648
-0.171944
-0.176256
-0.131288
-0.100189
-0.060835
-0.045616
-0.016490
0.032293
0.086341
0.123588
0.123224
0.108809
0.087056
0.063696
0.030067
0.000876
-0.040651
-0.120081
-0.165630
-0.216437
-0.233450
-0.170895
-0.132640
-0.072754
-0.035261
-0.020704
0.000921
0.041438
0.113208
0.117026
0.090218
0.109169
0.114889
0.074662
0.023866
-0.021241
-0.063321
-0.114328
-0.147190
-0.169379
-0.176676
-0.168963
-0.148039
-0.103054
-0.076522
-0.046724
0.005369
0.056767
0.079620
0.117781
0.129409
0.100485
0.091149
0.075654
0.037019
-0.009602
-0.072437
-0.120006
-0.162742
-0.202741
-0.213636
-0.205449
-0.158629
-0.129397
-0.087438
-0.053714
-0.005036
0.046065
0.093886
0.109204
0.112335
0.131237
0.131106
0.120465
0.076609
0.030283
-0.020894
0.005856
-0.004950
-0.011060
0.017526
0.012091
0.041658
0.102079
0.173268
0.217490
0.274214
0.345069
0.421746
0.501916
0.552023
0.581784
0.594513
0.615450
0.615077
0.622143
0.632887
0.622578
0.592710
0.583964
0.613758
0.631500
0.668742
0.685861
0.740241
0.767097
0.775760
0.800163
0.823489
0.808472
0.758567
0.692156
0.627753
0.512689
0.402757
0.326260
0.241468
0.157401
0.091971
0.046136
0.052005
0.037852
0.047867
0.069433
0.110186
0.137016
0.167749
0.183648
0.189690
0.220916
0.218645
0.219510
0.187694
0.171470
0.130716
0.077392
0.013418
-0.040237
-0.070947
-0.068949
-0.083558
-0.081648
-0.072178
-0.047999
0.002486
0.040909
0.078033
0.106375
0.142215
0.167813
0.192258
0.175154
0.134152
0.099137
0.062219
0.017078
-0.034909
-0.065650
-0.098740
-0.132195
-0.137835
-0.116017
-0.088642
-0.072889
-0.034869
0.012087
0.053009
0.094623
0.107892
0.162690
0.187223
0.159908
0.137013
0.120103
0.056397
0.018868
-0.017982
-0.041240
-0.095206
-0.115947
-0.133145
-0.119176
-0.110395
-0.093889
-0.028391
0.042605
0.075566
0.110395
0.165112
0.170855
0.164133
0.158931
0.142984
0.117482
0.090139
0.062284
0.016416
-0.043347
-0.072216
-0.082249
-0.093887
-0.108311
-0.086169
-0.040890
0.014711
0.040027
0.068360
0.097234
0.147378
0.179459
0.182018
0.174069
0.149226
0.118860
0.081113
0.055879
0.014188
-0.036135
-0.046040
-0.064929
-0.077190
-0.067363
-0.050878
-0.025417
0.032789
0.069020
0.116897
0.146749
0.191322
0.227828
0.236360
0.211988
0.196259
0.165172
0.117136
0.094474
0.061036
0.012350
-0.013415
-0.053228
-0.062155
-0.046221
-0.027509
-0.010172
0.005939
0.071878
0.134169
0.203286
0.228674
0.261535
0.260188
0.280569
0.223975
0.191403
0.149103
0.096483
0.059104
0.019774
-0.025715
-0.039973
-0.049103
-0.032669
-0.011288
0.043436
0.082116
0.129177
0.161170
0.195540
0.206594
0.232743
0.258342
