-0.042030
0.012011
0.061038
0.089817
0.106492
0.119667
0.108957
0.097234
0.062964
0.013700
-0.019975
-0.069108
-0.112397
-0.146406
-0.174621
-0.181083
-0.171553
-0.159105
-0.134443
-0.096086
-0.042037
0.000718
0.036922
0.074137
0.096603
0.099393
0.091843
0.071917
0.039522
0.000920
-0.050098
-0.083735
-0.120492
-0.153459
-0.192647
-0.190143
-0.180737
-0.163330
-0.143350
-0.097046
-0.045497
-0.007652
0.035411
0.068218
0.076852
0.083794
0.087966
0.065279
0.042054
0.008667
-0.043583
-0.096220
-0.131069
-0.164617
-0.182754
-0.195349
-0.187542
-0.170674
-0.134546
-0.085408
-0.037250
0.004026
0.043729
0.073085
0.097314
0.096791
0.090850
0.067211
0.037280
-0.010086
-0.059588
-0.099543
-0.138992
-0.166580
-0.195737
-0.197384
-0.185807
-0.174531
-0.144578
-0.106222
-0.051227
-0.018665
0.029403
0.049457
0.065706
0.076506
0.080052
0.071400
0.061963
0.034204
-0.004625
-0.032711
-0.060713
-0.092817
-0.084613
-0.077330
-0.065904
-0.026924
0.012179
0.069929
0.131506
0.182553
0.244653
0.307316
0.343578
0.384447
0.412504
0.449220
0.454475
0.448191
0.439823
0.436927
0.442881
0.428609
0.453965
0.508847
0.559873
0.601378
0.648220
0.715269
0.755486
0.805070
0.848126
0.881840
0.880168
0.866634
0.842064
0.793334
0.723779
0.617620
0.495849
0.414504
0.308998
0.214602
0.127212
0.068240
0.022569
0.018962
0.056488
0.082310
0.109997
0.148138
0.190142
0.212748
0.223767
0.228700
0.228846
0.196718
0.171627
0.117740
0.051508
0.000222
-0.052669
-0.096203
-0.109278
-0.095784
-0.075579
-0.074162
-0.034546
-0.010015
0.042552
0.078391
0.118222
0.151852
0.159286
0.170907
0.170401
0.156446
0.129688
0.071105
0.013986
-0.037391
-0.073674
-0.109453
-0.135860
-0.152478
-0.134339
-0.124743
-0.106170
-0.050607
-0.018005
0.024277
0.049645
0.079083
0.108455
0.160191
0.157858
0.133366
0.103140
0.055069
0.007175
-0.037506
-0.081693
-0.106784
-0.132183
-0.149863
-0.144813
-0.125451
-0.090341
-0.029013
0.018727
0.059233
0.098990
0.134044
0.144677
0.150398
0.141613
0.113420
0.092134
0.054618
-0.000842
-0.041548
-0.095554
-0.123744
-0.139435
-0.171796
-0.157462
-0.122525
-0.077166
-0.016466
0.018721
0.070462
0.143472
0.195687
0.215492
0.190421
0.151240
0.119478
0.112574
0.090235
0.049522
0.013042
-0.032829
-0.074289
-0.105710
-0.119028
-0.118328
-0.105290
-0.048727
0.013537
0.059020
0.109447
0.162857
0.191678
0.202392
0.218260
0.212720
0.177207
0.160134
0.122367
0.078048
0.026957
-0.008799
-0.034208
-0.064610
-0.090826
-0.071499
-0.033628
-0.007402
0.036811
0.070380
0.127486
0.164193
0.192414
0.224153
0.232001
0.238349
0.222365
0.204231
0.162560
0.106199
0.053920
-0.001317
-0.045949
-0.060690
-0.060316
-0.052222
-0.032342
-0.003138
0.042843
0.074427
0.133779
0.180996
0.193856
0.203657
0.222728
0.269172
0.225853
0.200394
0.152244
0.113855
0.054493
0.017380
0.003843
-0.005670
0.000319
-0.002670
-0.010766
0.014112
0.060602
0.120233
0.170390
0.187770
0.207086
0.228453
0.220423
0.196480
0.194155
0.151309
0.086386
0.054294
0.045178
0.005963
-0.042897
-0.082860
-0.071029
-0.045502
-0.025458
0.006844
0.033664
0.061257
0.114269
0.126804
0.161853
0.201771
0.226524
0.214634
0.209202
0.192301
0.151255
0.100836
0.048062
0.024199
0.005060
-0.024696
-0.036163
-0.037814
-0.005901
0.037501
0.066158
0.094170
0.134793
0.163033
0.203948
0.222201
0.231270
0.213024
0.166032
0.139555
0.095074
0.054692
0.008768
-0.013559
-0.066073
-0.091896
-0.100209
-0.092672
-0.077539
-0.050759
-0.012257
0.022962
0.069839
0.097784
0.137266
0.164010
0.176041
0.160065
0.140807
0.090543
0.033834
-0.006450
-0.059275
-0.116290
-0.143389
-0.171766
-0.184062
-0.184399
-0.139842
-0.083632
-0.032859
0.005008
0.053222
0.083979
0.095893
0.133816
0.164783
0.147970
0.111255
0.091528
0.075578
0.054426
0.018444
-0.034192
-0.077819
-0.121765
-0.141345
-0.145089
-0.116354
-0.052713
0.003858
0.037242
0.064007
0.064294
0.114399
0.164069
0.175544
0.169100
0.146353
0.112613
0.064156
0.038253
-0.000831
-0.046580
-0.091654
-0.121003
-0.125923
-0.137625
-0.110696
-0.065958
-0.009116
0.043420
0.091166
0.133448
0.154940
0.181883
0.199532
0.205855
0.169027
0.133046
0.096993
0.049500
-0.004190
-0.033533
-0.060706
-0.102425
-0.092916
-0.083463
-0.078336
-0.051810
-0.025379
0.017397
0.067103
0.111740
0.136456
0.154222
0.161511
0.174293
0.152993
0.101610
0.074659
0.019452
-0.028622
-0.069357
-0.096968
-0.105844
-0.098638
-0.103688
-0.104364
-0.066201
-0.008503
0.025804
0.090054
0.115864
0.136577
0.161004
0.177663
0.179357
0.160541
0.127501
0.088880
0.034913
0.017282
-0.030639
-0.079133
-0.107727
-0.131462
-0.118645
-0.081524
-0.042704
-0.012718
0.042510
0.078766
0.119058
0.164279
0.174722
0.182480
0.178254
0.159465
0.120994
0.087564
0.030845
-0.005377
-0.036278
-0.086088
-0.102218
-0.074923
-0.060719
-0.046404
-0.021202
0.021007
0.048849
0.081791
0.121102
0.155923
0.163051
0.179343
0.180779
0.148079
0.110751
0.064781
0.005566
-0.024053
-0.074999
-0.106723
-0.137798
-0.142513
-0.126682
-0.100053
-0.068349
-0.038107
0.011061
0.079723
0.142408
0.180250
0.197331
0.193247
0.185360
0.150296
0.102134
0.083676
0.045488
-0.023663
-0.072450
-0.125255
-0.133928
-0.135383
-0.124342
-0.092642
-0.060138
0.014059
0.080261
0.129959
0.166390
0.189093
0.182985
0.192862
0.183514
0.158202
0.118418
0.066803
0.020860
-0.028689
-0.062042
-0.100152
-0.107910
-0.123696
-0.101515
-0.079912
-0.066636
-0.035239
-0.016072
0.020214
0.069089
0.114030
0.116929
0.137491
0.176199
0.196461
0.189676
0.133058
0.076266
0.008267
-0.057567
-0.097321
-0.110374
-0.104510
-0.104506
-0.133621
-0.101416
-0.051322
-0.002388
0.034986
0.093631
0.126310
0.180767
0.206936
0.196171
0.170810
0.162044
0.111248
0.038155
-0.039532
-0.088369
-0.092296
-0.108282
-0.116190
-0.117175
-0.090373
-0.045021
-0.019834
0.031308
0.063131
0.094200
0.125716
0.166220
0.179740
0.171457
0.149366
0.144604
0.112806
0.077016
0.013515
-0.047385
-0.111549
-0.124474
-0.124763
-0.096639
-0.076658
-0.062846
-0.026992
0.027306
0.074732
0.142097
0.167262
0.180768
0.160007
0.160813
0.155174
0.128501
0.074516
0.001825
-0.057817
-0.094677
-0.090196
-0.098648
-0.104504
-0.111089
-0.098120
-0.091752
-0.049098
-0.005010
0.052266
0.088149
0.107093
0.140781
0.153593
0.143285
0.159749
0.130320
0.109315
0.067641
-0.005402
-0.021107
-0.045712
-0.077234
-0.097005
-0.104160
-0.067870
-0.032401
0.002612
0.017449
0.065021
0.129111
0.172093
0.228440
0.248447
0.210988
0.176615
0.147663
0.112184
0.097735
0.067247
0.017394
-0.053643
-0.079425
-0.068911
-0.036555
-0.021581
-0.018307
-0.009046
0.051766
0.142105
0.196996
0.217364
0.223328
0.239599
0.227848
0.206232
0.180547
0.119542
0.080655
0.044568
0.028866
0.024064
-0.007006
-0.012573
-0.030038
-0.033053
0.000083
0.056127
0.111237
0.155149
0.181609
0.204680
0.237930
0.217461
0.192254
0.181615
0.155535
0.129152
0.061174
-0.001844
-0.050075
-0.091723
-0.134033
-0.153488
-0.131749
-0.125518
-0.087447
-0.022284
0.036067
0.066362
0.098744
0.142865
0.168225
0.178698
0.181033
0.181702
0.147502
0.108350
0.067598
0.021010
-0.021772
-0.023659
-0.050418
-0.077902
-0.078287
-0.059792
-0.024586
-0.031695
0.015036
0.081829
0.125698
0.127775
0.156933
0.193381
0.219335
0.224057
0.171623
0.101042
0.006130
-0.027998
-0.050117
-0.076253
-0.081050
-0.073353
-0.065603
-0.056028
-0.037966
0.000561
0.018196
0.035295
0.085895
0.123569
0.156674
0.163692
0.138358
0.102799
0.059244
0.024165
-0.015062
-0.057725
-0.086528
-0.108906
-0.141480
-0.124113
-0.112810
-0.084789
-0.060310
-0.052711
-0.041531
0.011278
0.074887
0.135461
0.144827
0.139955
0.111123
0.085086
0.087788
0.068738
0.043359
-0.023413
-0.064975
-0.109984
-0.106944
-0.111724
-0.075509
-0.062456
-0.063755
-0.045345
0.027620
0.097037
0.140687
0.162992
0.162394
0.166900
0.147459
0.124516
0.121036
0.074469
0.014563
-0.012960
-0.051475
-0.061480
-0.092536
-0.107613
-0.078506
-0.052062
-0.017158
0.031602
0.112300
0.180554
0.226397
0.267437
0.284443
0.279064
0.267781
0.258260
0.257042
0.229281
0.194040
0.196598
0.228030
0.251059
0.244563
0.237560
0.284330
0.333662
0.393940
0.475597
0.553032
0.634105
0.724801
0.827535
0.882821
0.922236
0.915362
0.906628
0.879310
0.843446
0.789887
0.770999
0.732024
0.663557
0.608589
0.591305
0.586470
0.580368
0.540883
0.496604
0.481671
0.452012
0.456997
0.463470
0.435177
0.410981
0.411948
0.378901
0.328249
0.286035
0.232871
0.162862
0.092746
0.040269
0.007834
0.002981
0.004576
0.029477
0.061937
0.114613
0.174316
0.218373
0.228817
0.254431
0.255749
0.270867
0.297495
0.274004
0.236807
0.175004
0.130169
0.085830
0.035193
-0.006353
-0.021543
-0.038109
-0.041567
-0.049254
-0.032273
-0.020647
0.017351
0.062563
0.114956
0.193610
0.260345
0.244616
0.273175
0.304187
0.235622
0.147735
0.078482
0.014987
-0.033254
-0.051837
-0.067039
-0.094898
-0.096636
-0.084350
-0.071256
-0.035209
0.015475
0.077375
0.115599
0.153056
0.183442
0.235901
0.237221
0.227275
0.189829
0.125317
0.084058
0.046981
0.007888
-0.003963
-0.017129
-0.025204
-0.031724
-0.018698
0.021756
0.062973
0.117666
0.133519
0.173517
0.212830
0.233085
0.252863
0.277891
0.256704
0.202128
0.179247
0.093178
0.085277
0.056622
0.023211
-0.022110
-0.034908
-0.022031
-0.002218
0.032990
0.077368
0.101324
0.153053
0.193904
0.216944
0.255106
0.284815
0.291033
0.298328
0.250839
0.176873
0.128050
0.081222
0.027624
-0.018290
-0.035226
-0.037794
-0.019486
-0.013813
0.011274
0.043980
0.084731
0.131590
0.184875
0.208063
0.249158
0.296037
0.314114
0.260116
0.204056
0.149694
0.133089
0.093320
0.041809
0.050139
0.048898
0.041994
0.016450
0.038551
0.074880
0.112606
0.166729
0.234530
0.260769
0.298888
0.350240
0.390852
0.359326
0.339159
0.302469
0.282350
0.226131
0.147768
0.068464
0.049861
0.054938
0.095201
0.121665
0.117840
0.113704
0.138453
0.185857
0.245606
0.276032
0.324649
0.311490
0.306294
0.345159
0.364748
0.296082
0.224681
0.180324
0.138032
0.128667
0.107636
0.089283
0.034166
-0.023397
0.010707
0.047109
0.124750
0.179987
0.226568
0.248857
0.294025
0.312519
0.302727
0.293178
0.263218
0.236742
0.195814
0.130219
0.097167
0.090647
0.084597
0.040384
0.011555
0.013650
0.037276
0.096535
0.144946
0.191751
0.233579
0.278126
0.306832
0.307004
0.285322
0.274387
0.252192
0.234581
0.189476
0.138161
0.090317
0.060035
0.049461
0.003377
-0.023734
-0.049522
-0.013325
0.042338
0.076375
0.116504
0.170280
0.214387
0.265839
0.307795
0.308211
0.292354
0.257523
0.220643
0.188174
0.130362
0.063809
0.015933
-0.018761
-0.046010
-0.038607
-0.014561
0.009177
0.035210
0.077958
0.130620
0.156984
0.205778
0.230889
0.261204
0.233591
0.221516
0.182493
0.159475
0.117803
0.077218
0.008370
-0.025166
-0.022073
-0.039111
-0.044038
-0.038455
-0.013597
0.023584
0.074046
0.116744
0.152451
0.227142
0.237126
0.252585
0.227031
0.234733
0.203103
0.137655
0.090825
0.034065
-0.012295
-0.053107
-0.072687
-0.066117
-0.037116
-0.029169
-0.032175
0.003336
0.062719
0.099614
0.133876
0.171161
0.214552
0.251477
0.256558
0.253100
0.229520
0.179628
0.133573
0.092685
0.054920
0.012463
-0.022436
-0.030142
-0.030687
-0.000899
0.038716
0.025940
0.063667
0.108436
0.170448
0.216405
0.249344
0.239579
0.197098
0.176226
0.165248
0.162698
0.141068
0.105846
0.041180
0.019555
0.008295
0.005605
-0.014179
-0.047585
-0.040605
0.006190
0.036313
0.111388
0.143018
0.174043
0.213399
0.234703
0.230390
0.254768
0.259063
0.212802
0.178270
0.101155
0.033804
0.010984
0.001295
-0.039352
-0.036743
-0.017686
-0.031131
-0.017275
0.010577
0.055352
0.098503
0.157954
0.230711
0.281443
0.295170
0.287147
0.281003
0.227990
0.168762
0.114320
0.071225
0.030958
0.002779
-0.031096
-0.036341
-0.018007
0.007881
0.023114
0.047238
0.088471
0.136247
0.179790
0.203805
0.206473
0.220822
0.242695
0.201222
0.181485
0.141751
0.099259
0.059856
0.021888
-0.012962
-0.036524
-0.050606
-0.049431
-0.018644
0.011320
0.011325
0.073196
0.123337
0.171633
0.212486
0.219292
0.226717
0.238589
0.216641
0.189713
0.152493
0.112742
0.068356
0.038964
0.004957
-0.019952
-0.027724
-0.018966
-0.007834
0.013137
0.050053
0.086427
0.115938
0.155522
0.187388
0.200007
0.204976
0.187707
0.154576
0.127664
0.129691
0.106005
0.055618
0.003989
-0.019756
-0.047412
-0.029077
-0.021389
-0.019204
-0.000654
0.012190
0.035172
0.092064
0.163222
0.222077
0.241543
0.231859
0.233212
0.227950
0.196840
0.138937
0.063218
0.016664
-0.014826
-0.041175
-0.063970
-0.063076
-0.053386
-0.032416
0.006962
0.037979
0.096826
0.141045
0.172521
0.185478
0.203766
0.202859
0.199470
0.173344
0.118678
0.079704
0.046015
0.020281
0.011180
-0.029880
-0.081416
-0.074814
-0.051191
-0.041913
-0.028833
-0.002498
0.040402
0.079415
0.143622
0.178218
0.222191
0.233916
0.242649
0.253222
0.170294
0.091151
0.047119
0.002916
-0.045601
-0.066719
-0.094245
-0.097315
-0.111829
-0.093547
-0.044774
0.012347
0.100149
0.154191
0.238301
0.303762
0.266039
0.234497
0.233228
0.218750
0.173626
0.118537
0.078542
0.057815
0.035233
0.001065
-0.023312
-0.041797
-0.024929
-0.013548
-0.009015
0.024986
0.106906
0.110200
0.134731
0.156622
0.148120
0.158439
0.148841
0.111595
0.096052
0.079161
0.061732
0.025654
-0.015064
-0.028639
-0.024692
-0.030277
-0.064210
-0.046695
-0.028629
0.007539
0.051646
0.089806
0.118944
0.160314
0.189557
0.200206
0.182749
0.178620
0.158257
0.117864
0.080281
0.021538
-0.038735
-0.078175
-0.102078
-0.132170
-0.106800
-0.070553
-0.011284
0.024778
0.039419
0.101460
0.180974
0.215671
0.251574
0.266866
0.238083
0.221206
0.221689
0.184675
0.097617
0.034791
0.005332
-0.013481
-0.023147
-0.019828
-0.000353
0.019731
0.045113
0.085557
0.121446
0.168907
0.215524
0.234649
0.240271
0.239196
0.221465
0.195967
0.161188
0.111227
0.075099
0.031138
-0.010625
-0.033755
-0.029463
-0.003662
0.020761
0.017466
0.025578
0.057931
0.102167
0.128666
0.179093
0.221692
0.247387
0.269056
0.271553
0.247559
0.249045
0.189216
0.141594
0.078829
0.017594
-0.043075
-0.084615
-0.106728
-0.081057
-0.047166
-0.006873
0.058747
0.136173
0.198093
0.235248
0.277654
0.266395
0.243263
0.216205
0.215373
0.165555
0.136131
0.103024
0.040867
-0.004754
-0.044449
-0.066995
-0.054540
-0.046450
-0.031752
0.004617
0.043310
0.081698
0.111230
0.138883
0.167289
0.184767
0.182506
0.178174
0.157104
0.116647
0.077522
0.022016
-0.021766
-0.053442
-0.109695
-0.137225
-0.130302
-0.129968
-0.109374
-0.082487
-0.030948
0.013969
0.045262
0.089274
0.135136
0.202272
0.238007
0.197596
0.181577
0.133955
0.069722
0.038115
-0.000616
-0.048751
-0.090625
-0.116546
-0.118945
-0.103356
-0.076985
-0.031331
-0.008097
-0.006325
0.047699
0.125011
0.155898
0.190166
0.215697
0.175301
0.143832
0.129009
0.086845
0.043422
-0.009625
-0.026013
-0.065519
-0.089153
-0.091525
-0.076709
-0.090470
-0.073251
-0.032818
0.017981
0.074045
0.154574
0.188015
0.191971
0.190332
0.183172
0.129294
0.102896
0.071756
0.037497
-0.020747
-0.068922
-0.106179
-0.119712
-0.114090
-0.091083
-0.064920
-0.024084
0.033691
0.070031
0.075956
0.083197
0.122334
0.161273
0.188521
0.198650
0.190020
0.162305
0.122999
0.083186
0.087598
0.112751
0.102332
0.084686
0.121819
0.079790
0.115218
0.198687
0.275215
0.329595
0.438699
0.522374
0.558352
0.626922
0.690679
0.689007
0.650205
0.642141
0.658170
0.659493
0.695845
0.699018
0.715715
0.714741
0.727834
0.729410
0.752923
0.775664
0.769354
0.799638
0.839137
0.866481
0.870409
0.793175
0.722712
0.697760
0.572612
0.479332
0.394822
0.320982
0.226810
0.136153
0.104563
0.083787
0.098149
0.075599
0.080383
0.128567
0.136541
0.171489
0.190027
0.241689
0.265650
0.305872
0.304186
0.293779
0.223980
0.196404
0.157689
0.110073
0.055617
0.003010
-0.026264
-0.056132
-0.087158
-0.064854
-0.048507
-0.009690
0.021846
0.052309
0.153336
0.230035
0.284040
0.279602
0.240842
0.209590
0.174838
0.143391
0.114735
0.076934
0.045373
-0.025117
-0.063565
-0.085164
-0.128677
-0.154342
-0.113893
-0.012384
0.067744
0.113593
0.155178
0.180303
0.174615
0.184618
0.185048
0.187335
0.174139
0.151882
0.120708
0.074555
0.053861
0.012166
-0.040148
-0.064073
-0.091675
-0.086736
-0.042000
-0.008070
0.048938
0.114048
0.156306
0.185481
0.213740
0.237549
0.250714
0.247930
0.213436
0.158503
0.127566
0.072623
0.015257
0.001923
-0.022289
-0.054682
-0.041454
-0.015048
-0.006939
0.027134
0.055530
0.067807
0.121841
0.148743
0.163672
0.215954
0.247518
0.237083
0.213630
0.207356
0.224714
0.181449
0.092686
0.016254
-0.035870
-0.062603
-0.039394
0.003261
0.059471
0.043893
0.079518
0.145423
0.170972
0.186282
0.194464
0.183014
0.196035
0.207733
0.199209
0.152995
0.107478
0.065407
0.044254
0.029805
0.025174
-0.004426
-0.011002
0.005315
0.019376
0.063667
0.110618
0.168105
0.233946
0.264899
0.300120
0.316898
0.343508
0.374461
0.339143
0.278084
0.236113
0.189598
0.129388
0.082690
0.057748
0.056646
0.017845
0.013638
0.027295
0.077491
0.130551
0.186902
0.244611
0.297370
0.319746
0.324423
0.301253
0.304715
0.267773
0.241779
0.186897
0.141524
0.126580
0.100168
0.048996
0.003989
0.009690
0.025458
0.038363
0.090359
0.170535
0.214650
0.216517
0.217823
0.240359
0.285430
0.325860
0.300063
0.279506
0.253014
0.194459
0.131039
0.119042
0.063670
0.009485
-0.022630
-0.016133
-0.001486
0.023764
0.040449
0.085331
0.125219
0.190663
0.249127
0.280934
0.302802
0.343769
0.327149
0.255441
0.197750
0.126590
0.090451
0.072819
0.029151
-0.000862
-0.005551
-0.019141
-0.042684
-0.026608
0.009809
0.013241
0.058706
0.110865
0.167175
0.211114
0.243816
0.253395
0.281415
0.258603
0.223109
0.157636
0.098135
0.045045
-0.007961
-0.029035
-0.062144
-0.082277
-0.098111
-0.062577
0.028025
0.032839
0.056453
0.148561
0.232076
0.218428
0.204607
0.218221
0.189110
0.176772
0.123478
0.088691
0.057578
-0.021993
-0.064147
-0.092793
-0.093822
-0.118854
-0.119397
-0.081655
-0.010575
0.021336
0.089574
0.116150
0.148299
0.136817
0.126158
0.124464
0.165910
0.199593
0.176961
0.133216
0.078815
0.027707
-0.054080
-0.077287
-0.117743
-0.140275
-0.096482
-0.029140
0.014538
0.037961
0.059438
0.113007
0.127964
0.137783
0.128883
0.119377
0.105355
0.105672
0.119605
0.140570
0.122723
0.079787
0.074769
0.030068
-0.022556
-0.089090
-0.086795
-0.067819
-0.018503
0.035365
0.068920
0.117762
0.153965
0.184693
0.204615
0.207923
0.187789
0.141644
0.115331
0.064984
0.004343
-0.051009
-0.088973
-0.097519
-0.102769
-0.066908
-0.044670
-0.015722
0.006348
0.050346
0.110076
0.158016
0.202971
0.219737
0.204386
0.205703
0.194933
0.170689
0.118823
0.087437
0.010342
-0.042459
-0.070879
-0.079780
-0.068543
-0.047522
-0.001255
0.020565
0.012991
0.002660
0.024257
0.078078
0.139518
0.196208
0.230913
0.245194
0.225947
0.183232
0.129154
0.101574
0.032244
-0.028208
-0.079129
-0.109173
-0.140286
-0.163141
-0.128218
-0.092458
-0.063057
-0.049453
0.025662
0.119492
0.164407
0.183356
0.202727
0.212853
0.243869
0.161143
0.103508
0.089930
0.097643
0.071187
-0.006057
-0.049273
-0.076366
-0.059312
-0.067116
-0.051933
-0.019701
0.019258
0.052467
0.097419
0.129835
0.165073
0.183924
0.201852
0.191149
0.180843
0.140436
0.094589
0.038387
0.003827
-0.029858
-0.031160
-0.047876
-0.047422
-0.040571
-0.053825
-0.046572
-0.005041
0.060312
0.098958
0.113398
0.108962
0.093684
0.112567
0.143496
0.136967
0.128059
0.105945
0.067910
-0.005552
-0.044854
-0.062944
-0.077320
-0.093696
-0.100505
-0.127538
-0.120088
-0.094494
-0.047399
-0.033699
0.021539
0.059310
0.121233
0.189700
0.218976
0.217350
0.193757
0.128488
0.045592
-0.012186
-0.047618
-0.083353
-0.096597
-0.098352
-0.107643
-0.121905
-0.109490
-0.071779
-0.021289
0.052327
0.121966
0.157929
0.162932
0.175137
0.247080
0.238698
0.172669
0.092082
0.024799
-0.032530
-0.075534
-0.086654
-0.086800
-0.072428
-0.077576
-0.078069
-0.048868
-0.016204
0.047865
0.113656
0.145682
0.176955
0.184748
0.199571
0.188605
0.134633
0.080162
0.041290
0.009869
-0.025663
-0.067207
-0.111202
-0.139368
-0.143091
-0.129455
-0.134369
-0.078808
-0.022254
0.002707
0.038814
0.078893
0.104933
0.119747
0.096327
0.110575
0.105637
0.090275
0.061197
0.006738
-0.048969
-0.083049
-0.111663
-0.121534
-0.115564
-0.085963
-0.039705
-0.036129
0.004077
0.056837
0.109194
0.135494
0.147646
0.143449
0.144970
0.149355
0.138738
0.061309
0.003093
-0.038714
-0.073249
-0.139067
-0.174421
-0.157425
-0.131177
-0.083563
-0.031097
0.032927
0.056642
0.082825
0.124707
0.180442
0.188539
0.177991
0.146260
0.148115
0.169849
0.162099
0.119006
0.056782
-0.007905
-0.056135
-0.080873
-0.079912
-0.081539
-0.087128
-0.074785
-0.056648
-0.047384
0.021603
0.095955
0.143689
0.190770
0.210309
0.210343
0.207407
0.194732
0.162807
0.131950
0.085498
0.011222
-0.080803
-0.134366
-0.116698
-0.074161
-0.081072
-0.083732
-0.067149
-0.023549
0.024795
0.120398
0.127229
0.156790
0.163915
0.183870
0.189205
0.190593
0.177826
0.112060
0.085184
0.065017
0.025290
0.011166
-0.002309
-0.039199
-0.060469
-0.056848
-0.049225
0.000460
0.044623
0.074030
0.099922
0.171085
0.225263
0.236080
0.220425
0.173529
0.122974
0.071561
0.005695
-0.043387
-0.090744
-0.101396
-0.110711
-0.127172
-0.094162
-0.070219
-0.005063
0.053963
0.050130
0.039627
0.071148
0.112850
0.154367
0.181747
0.219864
0.188419
0.121989
0.057304
0.002145
-0.052954
-0.084902
-0.099134
-0.110545
-0.126951
-0.140556
-0.123671
-0.097818
-0.061356
-0.030419
-0.005048
0.029521
0.071482
0.107299
0.128404
0.091768
0.123671
0.120735
0.025850
-0.025892
-0.042116
-0.089424
-0.129671
-0.142011
-0.136546
-0.126713
-0.114846
-0.100417
-0.063508
-0.020938
-0.009779
0.019576
0.031226
0.067826
0.092008
0.106096
0.077466
0.054224
0.038998
0.017203
-0.047693
-0.118159
-0.154413
-0.163806
-0.142506
-0.139835
-0.119093
-0.062414
-0.013356
0.036702
0.116433
0.139678
0.164232
0.180194
0.174153
0.176380
0.147853
0.096080
0.051313
-0.001099
-0.056553
-0.121891
-0.161675
-0.198087
-0.215485
-0.220591
-0.183355
-0.127186
-0.094907
-0.030559
0.021435
0.062727
0.108646
0.127290
0.098947
0.121598
0.112638
0.100438
0.077334
0.068887
0.054348
0.040466
0.004065
-0.043156
-0.043583
-0.016323
0.008738
0.046692
0.103573
0.155364
0.212805
0.286507
0.352070
0.397262
0.436329
0.459725
0.494103
0.521999
0.514658
0.517611
0.493894
0.456820
0.441736
0.457924
0.506647
0.563292
0.633048
0.685226
0.747323
0.810592
0.838921
0.866528
0.892353
0.876100
0.832342
0.815410
0.810219
0.751536
0.637524
0.532761
0.414499
0.332111
0.257720
0.186099
0.096599
0.096908
0.122822
0.137088
0.126693
0.127319
0.171315
0.221238
0.223748
0.217779
0.202105
0.215856
0.208448
0.195212
0.185479
0.164497
0.133691
0.048139
-0.015206
-0.027392
-0.034054
-0.033532
-0.027614
-0.005236
0.030314
0.060639
0.110198
0.148490
0.166600
0.194582
0.206656
0.177354
0.134136
0.124162
0.071380
0.016791
-0.046383
-0.092018
-0.122671
-0.153743
-0.172139
-0.146657
-0.106595
-0.071183
-0.046751
0.028383
0.092767
0.122100
0.146686
0.175653
0.204590
0.186391
0.141500
0.126926
0.086936
0.032723
-0.023754
-0.093572
-0.095330
-0.098219
-0.131740
-0.136085
-0.107758
-0.054202
0.042711
0.090354
0.104662
0.129695
0.143569
0.143728
0.150574
0.153373
0.152157
0.145795
0.128922
0.085394
0.011564
-0.031849
-0.072388
-0.093360
-0.111807
-0.092727
-0.059922
-0.040865
-0.003435
0.033710
0.084920
0.141546
0.164442
0.173645
0.207409
0.194111
0.186253
0.174155
0.089120
0.033861
0.007968
-0.028525
-0.059729
-0.073771
-0.076818
-0.069567
-0.046562
-0.007981
0.052110
0.108246
0.131132
0.143494
0.182971
0.219215
0.213900
0.181592
0.154290
0.122042
0.109782
0.055049
0.038781
-0.008585
-0.034730
-0.069890
-0.088721
-0.061923
-0.015589
0.024730
0.066434
0.152295
0.165221
0.199177
0.235558
0.273716
0.256427
0.216012
0.173187
0.163935
0.153087
0.121706
0.084766
0.049505
-0.003894
-0.015319
-0.036333
-0.005141
0.007340
0.040803
0.100548
0.171618
0.187898
0.215324
0.231020
0.236163
0.252972
0.275242
0.263890
0.224180
0.185020
0.126907
0.090093
0.037188
0.024468
0.003654
-0.017509
-0.020630
0.016296
0.039846
0.092454
0.146678
0.188569
0.200639
0.249404
0.263955
0.276947
0.259212
0.238278
0.217835
0.193392
0.122672
0.065825
0.026108
0.000264
-0.009405
-0.028414
-0.021823
0.015257
0.033403
0.071792
0.126101
0.148863
0.190503
0.227201
0.246200
0.263283
0.241377
0.204429
0.148159
0.113914
0.064822
0.016885
-0.020785
-0.047986
-0.058044
-0.074476
-0.048447
-0.020722
0.020350
0.041703
0.060188
0.100107
0.130799
0.152961
0.142992
0.167848
0.176750
0.170805
0.124853
0.064380
0.018885
-0.026763
-0.061725
-0.087021
-0.101579
-0.113808
-0.091433
-0.039880
-0.005247
0.000768
0.032875
0.071375
0.118343
0.164938
0.179763
0.176680
0.178075
0.149191
0.115074
0.081447
0.033741
-0.038919
-0.073822
-0.083878
-0.128138
-0.131760
-0.117336
-0.103223
-0.082516
-0.049357
-0.005579
0.034475
0.090859
0.150152
0.147475
0.142607
0.135622
0.100345
0.071397
0.004648
-0.034369
-0.074063
-0.091743
-0.111830
-0.112526
-0.076209
-0.050726
-0.068279
-0.065128
-0.033029
0.017007
0.065229
0.103343
0.148891
0.163097
0.160401
0.155517
0.110060
0.057474
0.001977
-0.062385
-0.119186
-0.153550
-0.174155
-0.176833
-0.180324
-0.143764
-0.102278
-0.059629
-0.034920
-0.005815
0.030794
0.085999
0.140330
0.194754
0.179542
0.150996
0.136638
0.102845
0.044349
-0.014464
-0.051517
-0.109562
-0.152630
-0.167525
-0.174473
-0.162827
-0.131593
-0.086132
-0.021336
0.062250
0.131768
0.159159
0.154252
0.155654
0.168253
0.154936
0.119762
0.089407
0.035716
-0.027011
-0.070883
-0.115269
-0.144508
-0.146567
-0.147421
-0.143957
-0.101653
-0.027103
-0.001696
0.027355
0.096083
0.136595
0.174955
0.185306
0.163723
0.149285
0.149914
0.122016
0.056181
0.005210
-0.046727
-0.083888
-0.116352
-0.116630
-0.122493
-0.138899
-0.142600
-0.121390
-0.090450
-0.024374
0.043007
0.086276
0.119205
0.129068
0.157130
0.152171
0.140855
0.124685
0.064089
0.000020
-0.065660
-0.095090
-0.126476
-0.159461
-0.196017
-0.188635
-0.183394
-0.159352
-0.138358
-0.056096
0.060538
0.131895
0.190510
0.237262
0.246057
0.192382
0.151905
0.100297
0.043970
-0.002454
-0.074704
-0.113907
-0.142963
-0.169353
-0.199047
-0.202811
-0.166243
-0.108640
-0.031343
0.020571
0.058043
0.075187
0.105198
0.146444
0.156711
0.141163
0.111252
0.094351
0.057661
0.009659
-0.061825
-0.120289
-0.139311
-0.164300
-0.174152
-0.143432
-0.129410
-0.100789
-0.060619
-0.029948
0.002283
0.085368
0.138200
0.135974
0.144831
0.137829
0.107262
0.059584
0.017888
-0.035483
-0.074735
-0.093554
-0.128756
-0.168417
-0.162954
-0.163526
-0.139203
-0.105176
-0.071175
-0.048627
-0.012231
0.017420
0.066464
0.107569
0.132908
0.137752
0.091487
0.058815
0.020635
-0.028207
-0.054773
-0.078365
-0.112484
-0.146717
-0.183039
-0.161407
-0.112810
-0.070050
-0.055247
-0.037805
-0.000568
0.026614
0.067488
0.087995
0.091518
0.079577
0.083826
0.049881
0.036963
0.027471
-0.013090
-0.072859
-0.129821
-0.162146
-0.165574
-0.161244
-0.141031
-0.115213
-0.088586
-0.052909
0.009824
0.050809
0.074810
0.102833
0.132596
0.109299
0.063992
-0.003380
-0.050965
-0.083773
-0.139214
-0.173671
-0.188118
-0.157192
-0.169629
-0.168636
-0.128211
-0.095090
-0.039544
0.041953
0.085374
0.117723
0.138238
0.105195
0.100106
0.087978
0.068981
0.024205
-0.029107
-0.079406
-0.116915
-0.151136
-0.158431
-0.178112
-0.192773
-0.188833
-0.163814
-0.111725
-0.057243
0.016134
0.075031
0.105728
0.142795
0.167599
0.147343
0.111448
0.077862
0.058170
0.004211
-0.034149
-0.080033
-0.112499
-0.133258
-0.170281
-0.182874
-0.166413
-0.135745
-0.097495
-0.090476
-0.029670
0.035935
0.105020
0.137067
0.167846
0.181902
0.165165
0.118231
0.072945
0.028527
-0.015212
-0.016586
-0.008288
-0.056960
-0.120215
-0.143146
-0.165386
-0.144925
-0.102438
-0.066211
-0.021667
0.032088
0.088959
0.110791
0.142658
0.175975
0.181550
0.141515
0.083349
0.048887
0.047165
0.015752
-0.043263
-0.079303
-0.098792
-0.131002
-0.149907
-0.097876
-0.054198
-0.011654
0.029100
0.082689
0.124836
0.135157
0.137076
0.095825
0.093214
0.100989
0.053077
0.023160
-0.020668
-0.062343
-0.114475
-0.136853
-0.169165
-0.178291
-0.156893
-0.116419
-0.087351
-0.053526
-0.010669
0.013938
0.064226
0.121548
0.137518
0.142685
0.117902
0.105682
0.075099
0.023379
-0.026702
-0.082804
-0.142046
-0.184390
-0.217227
-0.224087
-0.219464
-0.190183
-0.124778
-0.079609
-0.046545
-0.030139
0.024940
0.070737
0.102704
0.084528
0.075375
0.066779
-0.000476
-0.054336
-0.077392
-0.108878
-0.166388
-0.196022
-0.225007
-0.216198
-0.216606
-0.168375
-0.132351
-0.094461
-0.069653
-0.040699
0.015703
0.074472
0.109943
0.104771
0.089932
0.043856
0.003848
-0.019877
-0.078743
-0.097909
-0.125145
-0.153323
-0.173617
-0.207821
-0.200536
-0.169432
-0.124144
-0.065211
-0.010069
0.029163
0.063767
0.091850
0.093780
0.116194
0.105367
0.065480
0.036531
-0.012205
-0.063357
-0.127162
-0.171759
-0.174928
-0.214431
-0.226479
-0.220874
-0.202306
-0.189872
-0.155307
-0.111466
-0.036566
0.009129
0.042612
0.040151
0.034330
0.033831
0.022416
-0.022340
-0.071110
-0.109165
-0.140850
-0.137875
-0.126734
-0.092049
-0.085355
-0.097976
-0.073466
-0.033771
0.018444
0.083071
0.160547
0.231833
0.268888
0.304324
0.332411
0.362279
0.365687
0.349821
0.343463
0.322151
0.300112
0.284005
0.261828
0.255427
0.309832
0.378241
0.459574
0.524298
0.577376
0.658978
0.747484
0.803140
0.844297
0.865857
0.892339
0.862010
0.821719
0.764908
0.725971
0.645007
0.533824
0.395032
0.284191
0.198081
0.146739
0.110447
0.085630
0.083424
0.109223
0.145038
0.167985
0.194227
0.216722
0.219948
0.203843
0.174481
0.142461
0.089266
0.024143
0.000356
0.003981
-0.027024
-0.061082
-0.075481
-0.091468
-0.092095
-0.110450
-0.074560
-0.013263
0.020936
0.057770
0.094233
0.127428
0.152514
0.145527
0.123516
0.087492
0.059425
0.004456
-0.056785
-0.103237
-0.127624
-0.159862
-0.172329
-0.190519
-0.183905
-0.153102
-0.095931
-0.052239
-0.050800
-0.034738
0.028374
0.080607
0.087836
0.083070
0.089420
0.075337
0.041417
-0.011116
-0.058587
-0.123746
-0.173382
-0.173091
-0.172502
-0.178578
-0.162503
-0.131631
-0.082270
-0.030424
0.006023
0.042390
0.076165
0.097788
0.133236
0.116445
0.094110
0.059650
0.007748
-0.035428
-0.061055
-0.089537
-0.122158
-0.161370
-0.182053
-0.173159
-0.171996
-0.154203
-0.112507
-0.056956
-0.001020
0.075994
0.136828
0.167540
0.152690
0.140599
0.132708
0.141147
0.121351
0.050767
-0.012988
-0.063242
-0.109024
-0.133848
-0.157826
-0.175963
-0.152585
-0.117200
-0.069602
-0.035614
0.017027
0.075997
0.118047
0.168693
0.175052
0.170555
0.155897
0.129164
0.104167
0.046312
-0.000615
-0.053036
-0.095556
-0.132735
-0.169740
-0.162518
-0.142320
-0.115601
-0.070159
-0.026705
0.002559
0.064150
0.114659
0.157198
0.177864
0.219284
0.229785
0.209606
0.167240
0.122502
0.084355
0.021709
-0.023522
-0.062822
-0.077548
-0.082144
-0.077744
-0.065524
-0.035333
0.015833
0.064437
0.113516
0.163190
0.206560
0.219763
0.237201
0.218377
0.203680
0.147277
0.099476
0.073020
0.016327
-0.034324
-0.069958
-0.085164
-0.123099
-0.097897
-0.059839
-0.022508
0.028151
0.067495
0.085106
0.100922
0.146024
0.184515
0.222640
0.243161
0.212975
0.164780
0.127490
0.105379
0.043911
-0.018210
-0.050600
-0.078153
-0.099507
-0.102192
-0.067377
-0.025197
0.005389
0.071137
0.116330
0.137922
0.187630
0.217298
0.237171
0.211697
0.181333
0.123449
0.076850
0.014184
-0.055291
-0.117942
-0.174126
-0.190757
-0.186423
-0.179213
-0.144517
-0.098614
-0.041112
0.072147
0.154019
0.184215
0.214008
0.218034
0.205690
0.176968
0.160433
0.122066
0.066488
0.011147
-0.020175
-0.057942
-0.101840
-0.141112
-0.153874
-0.159854
-0.136992
-0.102798
-0.070091
-0.024777
0.010434
0.054047
0.099125
0.113716
0.098519
0.084308
0.059314
0.029322
-0.006043
-0.059220
-0.075494
-0.095868
-0.163250
-0.174646
-0.176277
-0.178369
-0.143392
-0.124154
-0.076872
-0.024158
0.019592
0.073340
0.109577
0.114932
0.114575
0.095565
0.064198
0.025390
-0.006151
-0.032921
-0.087270
-0.146315
-0.200477
-0.210506
-0.193428
-0.177284
-0.157677
-0.166739
-0.132216
-0.091825
-0.041602
-0.001795
0.046565
0.081293
0.095840
0.113054
0.124875
0.097848
0.021070
-0.010511
-0.054338
-0.103810
-0.150708
-0.179259
-0.175508
-0.171605
-0.157903
-0.138757
-0.096546
-0.045843
-0.002801
0.035443
0.081316
0.114435
0.099988
0.095614
0.053341
0.019983
-0.017446
-0.049417
-0.062348
-0.109836
-0.141775
-0.170674
-0.181380
-0.203165
-0.175801
-0.124382
-0.091988
-0.062825
-0.023913
0.030505
0.069127
0.100842
0.118606
0.109693
0.125677
0.106305
0.051627
-0.010584
-0.065780
-0.117304
-0.153899
-0.171349
-0.190980
-0.194356
-0.155805
-0.110837
-0.064362
-0.005548
0.025612
0.070907
0.099108
0.125806
0.127763
0.125245
0.106038
0.070209
0.028365
-0.022013
-0.089156
-0.136922
-0.150214
-0.171709
-0.173281
-0.169769
-0.156354
-0.134529
-0.096397
-0.058284
-0.003521
0.040486
0.076707
0.104905
0.098669
0.075988
0.061114
0.042351
-0.010838
-0.086821
-0.145967
-0.169505
-0.159498
-0.174999
-0.201382
-0.184207
-0.153891
-0.108087
-0.039547
-0.004868
0.028532
0.084514
0.093252
0.101324
0.101269
0.089187
0.073780
0.046915
0.015427
-0.045188
-0.093450
-0.126422
-0.173245
-0.203116
-0.197839
-0.185917
-0.183904
-0.194587
-0.120576
-0.067548
-0.007186
0.049847
0.088639
0.144015
0.149648
0.140237
0.097635
0.056036
0.018377
-0.023650
-0.088644
-0.145833
-0.187229
-0.208523
-0.196435
-0.181074
-0.155676
-0.101003
-0.075648
-0.040246
0.023445
0.055975
0.059950
0.084848
0.091613
0.081645
0.062534
0.036782
-0.015466
-0.077888
-0.115119
-0.150451
-0.194372
-0.225305
-0.217489
-0.198782
-0.181567
-0.124836
-0.084825
-0.061244
-0.022228
0.026809
0.052588
0.101078
0.095171
0.078370
0.040995
-0.011126
-0.038063
-0.066183
-0.092909
-0.151941
-0.191023
-0.215932
-0.228188
-0.223274
-0.204283
-0.166796
-0.128945
-0.072629
-0.003554
0.021279
0.066230
0.087439
0.097621
0.082169
0.078908
0.073915
0.041454
-0.035283
-0.088271
-0.126018
-0.181186
-0.224487
-0.230156
-0.219812
-0.191815
-0.150348
-0.122236
-0.100034
-0.037630
0.021963
0.078449
0.106009
0.116687
0.105850
0.082680
0.053544
0.011768
-0.049623
-0.105469
-0.163103
-0.189611
-0.195629
-0.207565
-0.197675
-0.207864
-0.180928
-0.143443
-0.094696
-0.041274
0.028899
0.066208
0.084172
0.062202
0.043739
0.021001
-0.005706
-0.015029
-0.030521
-0.081958
-0.133213
-0.190856
-0.222096
-0.204536
-0.154787
-0.125812
-0.096194
-0.061667
0.014648
0.088352
0.124115
0.140788
0.147852
0.143037
0.124350
0.115572
0.068658
0.017007
-0.039608
-0.090675
-0.145556
-0.181879
-0.213687
-0.213767
-0.180858
-0.124076
-0.075363
-0.060176
-0.021952
0.039257
0.076476
0.102881
0.130253
0.123229
0.120114
0.111601
0.077838
0.064365
0.023845
-0.036751
-0.077559
-0.107401
-0.144602
-0.169030
-0.166831
-0.147448
-0.110470
-0.076493
-0.039354
0.039572
0.096122
0.115734
0.132340
0.129558
0.130942
0.090539
0.057658
0.000520
-0.042101
-0.077735
-0.126565
-0.153963
-0.193855
-0.222260
-0.205801
-0.186862
-0.133770
-0.073342
-0.030208
-0.005759
0.026991
0.071266
0.088111
0.081671
0.072591
0.051178
0.019576
-0.005949
-0.030885
-0.091142
-0.155585
-0.207097
-0.242571
-0.245011
-0.217903
-0.198793
-0.167203
-0.095883
-0.049247
-0.027251
0.041935
0.106674
0.095231
0.099063
0.084395
0.056834
0.015632
-0.047263
-0.115943
-0.164330
-0.202742
-0.232969
-0.247636
-0.252818
-0.232225
-0.203542
-0.148132
-0.084478
-0.038945
-0.014924
0.015169
0.051670
0.064710
0.049502
0.059410
0.039823
0.003286
-0.046894
-0.092542
-0.127396
-0.164367
-0.192556
-0.212351
-0.232492
-0.229457
-0.223373
-0.187118
-0.151509
-0.113548
-0.063835
-0.015236
0.036573
0.058708
0.057423
0.029629
0.019261
-0.005379
-0.040944
-0.092272
-0.140874
-0.182073
-0.208012
-0.224096
-0.232025
-0.239404
-0.211594
-0.174021
-0.114417
-0.065027
-0.023895
0.015189
0.042225
0.057115
0.057502
0.053502
0.032845
-0.007865
-0.048636
-0.082785
-0.118303
-0.157426
-0.188235
-0.201890
-0.210217
-0.200953
-0.164994
-0.110026
-0.050167
0.010260
0.071147
0.119173
0.166224
0.195161
0.231153
0.245328
0.240653
0.234733
0.225299
0.208080
0.209716
0.208254
0.195620
0.186202
0.198535
0.262856
0.323622
0.391963
0.463556
0.548648
0.644692
0.719273
0.758490
0.819009
0.861495
0.863077
0.836885
0.795681
0.738952
0.667856
0.585050
0.522544
0.491901
0.437454
0.351970
0.287200
0.263921
0.238710
0.230122
0.231518
0.212181
0.212314
0.244660
0.268733
0.285019
0.265090
0.227233
0.191034
0.130989
0.068100
0.008442
-0.042593
-0.083042
-0.106140
-0.119199
-0.120510
-0.102858
-0.076828
-0.034021
0.013665
0.056590
0.090543
0.116191
0.141427
0.149112
0.131875
0.111334
0.075844
0.019499
-0.032325
-0.078563
-0.131050
-0.165586
-0.174458
-0.202765
-0.201784
-0.180406
-0.128952
-0.077185
-0.037060
0.004389
0.057941
0.087020
0.098965
0.111620
0.094713
0.080319
0.050343
0.000508
-0.048841
-0.089407
-0.142236
-0.170955
-0.198171
-0.212780
-0.181742
-0.170418
-0.149695
-0.105244
-0.046964
0.000097
0.047628
0.079203
0.099565
0.108331
0.113677
0.086297
0.054554
0.013343
-0.035303
-0.090218
-0.139312
-0.168521
-0.184678
-0.193592
-0.184378
-0.162542
-0.154605
-0.120529
-0.063964
-0.002046
0.043157
0.092321
0.131778
0.146801
0.138791
0.125738
0.085870
0.042212
-0.009996
-0.077186
-0.111917
-0.139469
-0.155456
-0.152843
-0.138380
-0.119401
-0.094335
-0.044537
-0.010569
0.044616
0.075879
0.092241
0.131814
0.153082
0.158809
0.137310
0.111185
0.034274
-0.005167
-0.051398
-0.079103
-0.104442
-0.117433
-0.139863
-0.138442
-0.133623
-0.099492
-0.045116
-0.000824
0.064022
0.108454
0.155341
0.175025
0.175792
0.179984
0.161844
0.128090
0.070833
0.013729
-0.025878
-0.063604
-0.091479
-0.098856
-0.099027
-0.089792
-0.061376
-0.025118
0.019997
0.057208
0.095622
0.146790
0.193064
0.216622
0.220578
0.203296
0.182651
0.147555
0.097166
0.051091
-0.009194
-0.048585
-0.063917
-0.092473
-0.092936
-0.080921
-0.062640
-0.032015
0.009455
0.059732
0.109527
0.154691
0.185541
0.202206
0.193878
0.195621
0.191801
0.154482
0.095765
0.040490
-0.021827
-0.046705
-0.057135
-0.074880
-0.091032
-0.090537
-0.061670
-0.036080
0.005948
0.044976
0.082498
0.123022
0.155719
0.165385
0.162431
0.151021
0.115142
0.078780
0.047544
0.010731
-0.041525
-0.095863
-0.127775
-0.142000
-0.143356
-0.116643
-0.073100
-0.046929
0.004545
0.053471
0.092661
0.132928
0.177576
0.185432
0.175061
0.163338
0.122024
0.072688
0.022767
-0.026836
-0.073590
-0.103610
-0.148440
-0.172114
-0.171160
-0.161308
-0.153792
-0.120682
-0.084950
-0.027155
0.033823
0.071383
0.086962
0.102924
0.119738
0.117452
0.107933
0.086165
0.023622
-0.033675
-0.075385
-0.129481
-0.172189
-0.201435
-0.211417
-0.209734
-0.186657
-0.155684
-0.109589
-0.061136
-0.016209
0.035459
0.077761
0.106691
0.104593
0.099556
0.077874
0.038383
-0.013003
-0.047834
-0.084548
-0.121889
-0.170316
-0.196828
-0.208265
-0.222962
-0.202467
-0.166051
-0.108522
-0.067944
-0.021990
0.016218
0.051081
0.072412
0.085267
0.064111
0.028144
0.000101
-0.027190
-0.069107
-0.122035
-0.161325
-0.183930
-0.213611
-0.232751
-0.238449
-0.204553
-0.157462
-0.141902
-0.108324
-0.045609
0.006729
0.049052
0.064971
0.082067
0.080230
0.059009
0.028028
-0.001982
-0.046233
-0.090556
-0.133710
-0.164388
-0.204416
-0.207263
-0.187225
-0.166936
-0.131729
-0.092159
-0.026244
0.021111
0.056193
0.096023
0.115505
0.099568
0.080005
0.054499
0.021642
-0.011862
-0.060695
-0.115841
-0.149052
-0.186647
-0.213977
-0.224101
-0.207030
-0.170861
-0.132175
-0.098213
-0.056444
-0.005628
0.047010
0.078517
0.103974
0.116880
0.123605
0.090090
0.034621
-0.000080
-0.055867
-0.106945
-0.156401
-0.191937
-0.214775
-0.220015
-0.218913
-0.177505
-0.144412
-0.104044
-0.046605
0.005362
0.044281
0.071476
0.090473
0.096538
0.088301
0.070746
0.050479
-0.009669
-0.061030
-0.105546
-0.172361
-0.207001
-0.245296
-0.211615
-0.206718
-0.182749
-0.145214
-0.110469
-0.061757
-0.022932
0.025501
0.055472
0.080349
0.077199
0.065841
0.036648
0.035538
0.012148
-0.054753
-0.102360
-0.149712
-0.189461
-0.206455
-0.222243
-0.226413
-0.206364
-0.178914
-0.137801
-0.085581
-0.029905
0.025524
0.069111
0.096908
0.089818
0.082089
0.074182
0.042619
0.013911
-0.043971
-0.105775
-0.154951
-0.194754
-0.212839
-0.226551
-0.216369
-0.185902
-0.154992
-0.106230
-0.045191
-0.016452
0.027289
0.051534
0.075507
0.091733
0.074204
0.047661
0.016601
-0.024100
-0.085594
-0.145322
-0.204809
-0.226671
-0.243183
-0.249893
-0.267878
-0.223395
-0.165223
-0.100170
-0.043979
-0.035869
0.004164
0.064481
0.080947
0.079228
0.079279
0.068221
0.019481
-0.040048
-0.079171
-0.114871
-0.149538
-0.196934
-0.227308
-0.241933
-0.221284
-0.207456
-0.166059
-0.128187
-0.093313
-0.068816
-0.015450
0.015497
0.032841
0.054998
0.053338
0.035512
0.011117
-0.022616
-0.071638
-0.119604
-0.176767
-0.207238
-0.212471
-0.222704
-0.223966
-0.202086
-0.162956
-0.118145
-0.078088
-0.031961
0.013240
0.043533
0.047792
0.067838
0.055279
0.046625
0.019119
-0.031867
-0.081630
-0.116821
-0.158339
-0.185443
-0.207779
-0.220867
-0.216494
-0.208244
-0.172718
-0.120170
-0.052681
-0.011756
0.038639
0.076438
0.099891
0.118404
0.107174
0.094259
0.058183
0.004313
-0.043123
-0.083791
-0.126653
-0.166094
-0.176573
-0.182548
-0.181961
-0.171838
-0.133434
-0.095947
-0.045577
-0.006240
0.050776
0.082647
0.104449
0.120641
0.107205
0.098917
0.065274
0.021723
-0.027443
-0.075272
-0.114545
-0.141343
-0.173165
-0.178987
-0.182443
-0.181618
-0.150849
-0.090008
-0.018602
0.036216
0.059919
0.066383
0.080035
0.098002
0.091070
0.073623
0.034052
-0.004689
-0.053122
-0.116560
-0.165454
-0.200963
-0.219940
-0.224951
-0.223396
-0.211287
-0.186561
-0.154369
-0.096937
-0.051916
0.001192
0.054855
0.084740
0.091125
0.083876
0.046855
-0.003543
-0.032838
-0.068694
-0.135601
-0.195710
-0.236146
-0.261547
-0.259508
-0.224412
-0.204895
-0.164281
-0.103338
-0.061987
-0.012988
0.013283
0.031970
0.046789
0.046707
0.041627
0.023849
-0.012108
-0.050483
-0.093845
-0.136271
-0.191678
-0.230068
-0.250819
-0.263806
-0.252326
-0.229892
-0.187990
-0.151627
-0.100547
-0.053715
-0.008821
0.014672
0.041576
0.055439
0.046693
0.031706
-0.001904
-0.057346
-0.114690
-0.175022
-0.213129
-0.243189
-0.264864
-0.274782
-0.274545
-0.253179
-0.235927
-0.194287
-0.135007
-0.073710
-0.028704
0.003175
0.022925
0.027824
0.016233
0.002560
-0.020945
-0.042848
-0.087953
-0.146392
-0.198901
-0.244656
-0.257026
-0.255336
-0.238698
-0.214415
-0.182098
-0.133379
-0.094027
-0.055999
-0.027877
-0.001697
0.005967
0.020303
0.013566
-0.020069
-0.045269
-0.087244
-0.123790
-0.160106
-0.179875
-0.194241
-0.200561
-0.223697
-0.206388
-0.186571
-0.139940
-0.073290
-0.009508
0.054067
0.104741
0.149254
0.186502
0.206051
0.211637
0.218384
0.211976
0.197802
0.174245
0.145929
0.133491
0.121939
0.144159
0.173290
0.204018
0.264887
0.328030
0.401084
0.482419
0.576628
0.650537
0.714822
0.751897
0.790489
0.818852
0.806664
0.762603
0.708643
0.652974
0.571013
0.524617
0.481850
0.445142
0.411247
0.362392
0.331283
0.284983
0.254084
0.268295
0.274846
0.276438
0.253652
0.249270
0.250268
0.226863
0.191633
0.157995
0.106371
0.040126
-0.023448
-0.062618
-0.096799
-0.128733
-0.154929
-0.152377
-0.130032
-0.092812
-0.048218
0.015257
0.061217
0.083969
0.110468
0.124057
0.139596
0.124416
0.106018
0.066595
0.017330
-0.042724
-0.091080
-0.136622
-0.155652
-0.162300
-0.194543
-0.194035
-0.183323
-0.155254
-0.113043
-0.058735
-0.019304
0.010926
0.051021
0.089803
0.105925
0.091098
0.098595
0.046504
-0.018342
-0.062219
-0.098271
-0.142487
-0.186867
-0.215625
-0.213303
-0.199507
-0.193292
-0.152747
-0.108689
-0.050693
0.000789
0.035039
0.055679
0.080668
0.087861
0.091344
0.070279
0.045085
-0.008721
-0.049657
-0.089555
-0.138568
-0.172461
-0.193288
-0.200980
-0.206151
-0.190585
-0.163104
-0.131891
-0.073885
-0.009383
0.055729
0.086031
0.083342
0.079083
0.099270
0.098510
0.073454
0.029359
-0.017123
-0.061262
-0.106068
-0.136145
-0.159259
-0.164608
-0.164888
-0.145515
-0.125829
-0.077621
-0.016528
0.040139
0.077170
0.108852
0.124495
0.139903
0.134195
0.106997
0.074740
0.034561
-0.006611
-0.043004
-0.086023
-0.113576
-0.133768
-0.148667
-0.136482
-0.117873
-0.086067
-0.034207
-0.000146
0.057159
0.102538
0.136931
0.158973
0.176685
0.168641
0.143294
0.106986
0.053232
0.011433
-0.030176
-0.058044
-0.092884
-0.098895
-0.104037
-0.105001
-0.086205
-0.055551
-0.017180
0.027719
0.074727
0.133002
0.163966
0.178182
0.190065
0.187397
0.160076
0.133505
0.087091
0.046293
0.014574
-0.040642
-0.069971
-0.082571
-0.085281
-0.086495
-0.067414
-0.043341
-0.000102
0.023807
0.057890
0.115202
0.161225
0.176652
0.185461
0.167531
0.143591
0.142453
0.122998
0.088929
0.041453
-0.026482
-0.045696
-0.070302
-0.088411
-0.086517
-0.069071
-0.040242
-0.000492
0.026648
0.071882
0.125207
0.161313
0.173632
0.173858
0.157176
0.159404
0.130414
0.071832
0.022760
-0.010582
-0.053524
-0.080681
-0.101273
-0.114627
-0.104874
-0.085430
-0.063703
-0.035538
0.008012
0.056717
0.103998
0.124281
0.132238
0.143881
0.143224
0.122497
0.082994
0.036020
-0.004017
-0.046655
-0.091886
-0.138959
-0.178968
-0.188823
-0.184714
-0.151111
-0.121306
-0.071793
-0.017181
0.025483
0.063880
0.082026
0.099382
0.108037
0.100549
0.068927
0.041489
-0.003549
-0.047817
-0.099069
-0.146096
-0.191052
-0.210894
-0.214727
-0.206567
-0.189751
-0.157534
-0.125947
-0.072772
-0.032262
0.023741
0.054883
0.075327
0.093561
0.091958
0.048019
0.014264
-0.014786
-0.058448
-0.097182
-0.116785
-0.148930
-0.196070
-0.213350
-0.206302
-0.179056
-0.143429
-0.110679
-0.074786
-0.022836
0.026152
0.063190
0.080775
0.089784
0.076168
0.052582
0.023912
-0.024009
-0.060649
-0.103667
-0.151802
-0.181868
-0.203396
-0.207912
-0.203952
-0.194148
-0.166485
-0.123382
-0.079354
-0.037288
0.010339
0.058539
0.095158
0.111602
0.096367
0.081039
0.046430
-0.004435
-0.062757
-0.111468
-0.146741
-0.184779
-0.219772
-0.218851
-0.211723
-0.192913
-0.166429
-0.123693
-0.058116
-0.003637
0.032712
0.074545
0.095430
0.105409
0.102086
0.080391
0.048303
0.012405
-0.034257
-0.088861
-0.153508
-0.182228
-0.190482
-0.195669
-0.196988
-0.177453
-0.147810
-0.121538
-0.070853
-0.027569
0.015691
0.049358
0.078875
0.087843
0.071667
0.068244
0.040449
-0.007959
-0.060069
-0.101261
-0.127827
-0.170484
-0.191330
-0.196681
-0.194224
-0.190517
-0.165057
-0.123790
-0.065738
-0.014920
0.035633
0.072681
0.091668
0.096831
0.108548
0.091407
0.063080
0.019305
-0.032057
-0.087895
-0.117951
-0.165265
-0.194820
-0.199111
-0.196141
-0.178092
-0.138736
-0.095355
-0.048546
-0.000869
0.035266
0.062051
0.069601
0.078666
0.072711
0.057886
0.021953
0.004869
-0.035427
-0.088454
-0.129183
-0.165425
-0.189852
-0.199682
-0.203214
-0.196960
-0.156772
-0.124758
-0.076739
-0.029683
0.005535
0.038742
0.073678
0.098528
0.108198
0.081531
0.026467
-0.026080
-0.070582
-0.123683
-0.156276
-0.167321
-0.187160
-0.226453
-0.218227
-0.188018
-0.156099
-0.132108
-0.070438
-0.014221
0.031183
0.050812
0.080101
0.084426
0.062316
0.037421
0.010171
-0.021019
-0.060509
-0.112289
-0.154437
-0.194909
-0.215119
-0.221996
-0.222944
-0.207059
-0.159205
-0.117336
-0.061533
-0.023472
0.012133
0.049480
0.082120
0.082166
0.080756
0.057413
0.029193
-0.010404
-0.056183
-0.097163
-0.137639
-0.187591
-0.201212
-0.212887
-0.211919
-0.194785
-0.159676
-0.121043
-0.083260
-0.026970
0.013361
0.057057
0.075310
0.082775
0.079947
0.051904
0.012351
-0.033937
-0.066483
-0.119806
-0.157782
-0.206882
-0.232956
-0.238289
-0.234484
-0.214601
-0.175801
-0.131776
-0.064054
-0.034302
0.002583
0.033138
0.063506
0.073485
0.072384
0.051274
0.022806
-0.025400
-0.074555
-0.131440
-0.176181
-0.206331
-0.226546
-0.220229
-0.217560
-0.213222
-0.187248
-0.138763
-0.090547
-0.027854
0.016641
0.074713
0.103879
0.121096
0.108804
0.077290
0.057500
0.015392
-0.032089
-0.077086
-0.112932
-0.162053
-0.182742
-0.185780
-0.175675
-0.154647
-0.128270
-0.095721
-0.048564
0.009949
0.051561
0.084541
0.104595
0.135283
0.127394
0.102237
0.058723
0.016958
-0.032915
-0.069525
-0.110942
-0.141644
-0.157941
-0.164261
-0.145937
-0.128520
-0.095415
-0.054847
-0.026820
0.022346
0.066281
0.104697
0.139178
0.149771
0.139551
0.104231
0.064917
0.017355
-0.029097
-0.076603
-0.124482
-0.151522
-0.188091
-0.198943
-0.189165
-0.164681
-0.135586
-0.095623
-0.053366
0.000228
0.034652
0.058372
0.077146
0.085285
0.075381
0.051719
0.027916
-0.025232
-0.087489
-0.130786
-0.175212
-0.215542
-0.238762
-0.253019
-0.256575
-0.232712
-0.187374
-0.138747
-0.097300
-0.044709
0.005065
0.035685
0.041328
0.058759
0.071563
0.052862
0.012996
-0.039375
-0.079995
-0.134699
-0.173743
-0.213088
-0.250780
-0.264027
-0.259659
-0.237035
-0.204293
-0.169831
-0.120802
-0.052387
0.010109
0.036293
0.033215
0.034094
0.032664
0.016156
-0.015848
-0.057359
-0.092440
-0.139671
-0.166780
-0.189064
-0.223581
-0.238496
-0.224384
-0.203949
-0.181434
-0.137014
-0.093102
-0.044215
0.003396
0.034012
0.055201
0.054523
0.039432
0.022913
0.004721
-0.039525
-0.084502
-0.135109
-0.176868
-0.220788
-0.239285
-0.244443
-0.227736
-0.209378
-0.181563
-0.146461
-0.104952
-0.064023
-0.026506
0.010903
0.045411
0.061063
0.036762
0.003131
-0.026562
-0.064398
-0.108981
-0.157544
-0.208583
-0.240221
-0.265763
-0.275049
-0.260800
-0.222357
-0.167991
-0.120173
-0.076481
-0.037021
0.000821
0.052449
0.101493
0.132228
0.138530
0.129115
0.106271
0.068568
0.039406
0.000512
-0.024686
-0.019081
0.003902
0.032553
0.068723
0.102503
0.159928
0.212650
0.285660
0.384655
0.462753
0.532521
0.593996
0.634757
0.681857
0.714375
0.713431
0.701887
0.682648
0.647497
0.613926
0.578651
0.556399
0.533172
0.518350
0.520462
0.531636
0.565804
0.555580
0.547166
0.530043
0.491860
0.456384
0.427876
0.364764
0.288005
0.224698
0.161856
0.100260
0.052070
0.000037
-0.036868
-0.087090
-0.099624
-0.100906
-0.090685
-0.072524
-0.035866
0.010601
0.075600
0.124176
0.143261
0.169695
0.162971
0.141366
0.105144
0.068805
0.033027
-0.023171
-0.088927
-0.140166
-0.169950
-0.205826
-0.206432
-0.183649
-0.145817
-0.113528
-0.081032
-0.048815
0.011339
0.038688
0.055487
0.074275
0.086953
0.073102
0.068154
0.039130
-0.008732
-0.043899
-0.088431
-0.138621
-0.169620
-0.193865
-0.196103
-0.190732
-0.184702
-0.153367
-0.111473
-0.076559
-0.019361
0.031523
0.068257
0.095723
0.111523
0.105078
0.086149
0.041120
-0.010696
-0.051315
-0.099496
-0.138409
-0.160675
-0.189926
-0.194515
-0.181807
-0.160514
-0.124645
-0.075170
-0.024213
0.030731
0.058356
0.094366
0.107583
0.118528
0.119595
0.093222
0.059049
0.023197
-0.022281
-0.066119
-0.109372
-0.148988
-0.159480
-0.173247
-0.162428
-0.144463
-0.113649
-0.086923
-0.036842
0.014993
0.055872
0.091213
0.116322
0.119319
0.123707
0.113934
0.075003
0.032957
-0.011215
-0.052535
-0.100030
-0.118861
-0.136776
-0.142470
-0.138046
-0.121455
-0.086919
-0.046265
-0.000442
0.040459
0.085492
0.118171
0.138690
0.147889
0.142311
0.126754
0.086150
0.058692
-0.003384
-0.044823
-0.086061
-0.125105
-0.151149
-0.145276
-0.110409
-0.084594
-0.044008
-0.001077
0.043633
0.081564
0.128428
0.174343
0.186926
0.189480
0.189823
0.166096
0.132279
0.094660
0.043886
0.004888
-0.037276
-0.068910
-0.080670
-0.098675
-0.093929
-0.067145
-0.033046
0.006739
0.073414
0.113030
0.152833
0.193193
0.210831
0.212482
0.205791
0.183812
0.152819
0.110592
0.061224
0.029292
-0.028683
-0.074662
-0.101653
-0.088734
-0.095700
-0.083682
-0.044796
-0.001273
0.038451
0.073635
0.110132
0.145097
0.177378
0.190114
0.170397
0.152561
0.110128
0.068054
0.016078
-0.006489
-0.036303
-0.059518
-0.095219
-0.104543
-0.096780
-0.077101
-0.054694
-0.022987
0.017217
0.056658
0.100791
0.125339
0.144262
0.140830
0.139596
0.112786
0.097654
0.048771
-0.004465
-0.028797
-0.074526
-0.113141
-0.143622
-0.140416
-0.144587
-0.117005
-0.090822
-0.056105
-0.005488
0.022792
0.077535
0.104381
0.107300
0.116668
0.121525
0.092019
0.061011
0.018132
-0.026420
-0.063557
-0.109482
-0.146968
-0.179796
-0.191818
-0.186769
-0.163695
-0.131685
-0.086055
-0.043184
-0.005756
0.031548
0.052216
0.075019
0.090106
0.086439
0.064535
0.037951
-0.005547
-0.065610
-0.108907
-0.148704
-0.180297
-0.196760
-0.209304
-0.208485
-0.194106
-0.164603
-0.119621
-0.067533
-0.031550
0.008489
0.040724
0.054643
0.070905
0.085522
0.062688
0.026187
-0.014856
-0.063054
-0.096878
-0.143203
-0.180104
-0.197270
-0.212028
-0.216080
-0.198123
-0.156428
-0.114030
-0.047276
-0.002695
0.041632
0.082892
0.095479
0.104015
0.084669
0.054467
0.033933
-0.008530
-0.040993
-0.080383
-0.125896
-0.168076
-0.193057
-0.211144
-0.200081
-0.180476
-0.145571
-0.104930
-0.058275
-0.013184
0.031843
0.066375
0.085770
0.110550
0.101903
0.079808
0.051811
0.004440
-0.042913
-0.087023
-0.133017
-0.178570
-0.195486
-0.202827
-0.189580
-0.172202
-0.142837
-0.109690
-0.073393
-0.031043
0.024096
0.059624
0.090928
0.105235
0.090451
0.075144
0.049565
0.000415
-0.039234
-0.079729
-0.126336
-0.155405
-0.183930
-0.207132
-0.204789
-0.185045
-0.163971
-0.127870
-0.083153
-0.041586
0.009607
0.045623
0.067151
0.070994
0.073376
0.065192
0.052451
0.016566
-0.019363
-0.045370
-0.101730
-0.150474
-0.182141
-0.187779
-0.176151
-0.154451
-0.117403
-0.085045
-0.033692
0.012846
0.045713
0.081952
0.094648
0.105777
0.087314
0.060876
0.032600
0.003305
-0.033043
-0.088063
-0.136426
-0.157209
-0.182096
-0.194529
-0.185612
-0.165283
-0.142546
-0.099865
-0.058536
-0.016323
0.021550
0.051080
0.070227
0.076466
0.069495
0.050511
0.022067
-0.017214
-0.064881
-0.102247
-0.142116
-0.169730
-0.190159
-0.197271
-0.206557
-0.182224
-0.152804
-0.120848
-0.074863
-0.007135
0.033395
0.038797
0.053311
0.056975
0.061606
0.045001
0.010648
-0.019329
-0.059557
-0.115867
-0.157477
-0.183213
-0.194503
-0.201831
-0.200519
-0.184452
-0.157873
-0.118468
-0.067335
-0.026171
0.000612
0.043242
0.050474
0.049659
0.046489
0.040522
0.012529
-0.027627
-0.065585
-0.111599
-0.136969
-0.166956
-0.170415
-0.188967
-0.192071
-0.179565
-0.152561
-0.105077
-0.068213
-0.021904
0.015476
0.059636
0.069354
0.069413
0.073187
0.050499
0.010784
-0.021607
-0.067482
-0.111340
-0.155955
-0.192912
-0.220517
-0.218940
-0.218270
-0.192565
-0.150759
-0.112505
-0.065888
-0.023203
0.003401
0.027718
0.058765
0.072152
0.065658
0.042414
0.002406
-0.022834
-0.074628
-0.130672
-0.167333
-0.198416
-0.211497
-0.218805
-0.221158
-0.197481
-0.161384
-0.138229
-0.094555
-0.047095
0.010978
0.047738
0.070533
0.075445
0.067359
0.044553
0.009189
-0.027868
-0.068890
-0.100162
-0.129819
-0.172619
-0.195803
-0.205378
-0.200246
-0.181372
-0.142968
-0.096741
-0.052093
0.011332
0.049397
0.080781
0.088685
0.103781
0.108639
0.088243
0.055703
0.010351
-0.039273
-0.090235
-0.143215
-0.182064
-0.195327
-0.202048
-0.201296
-0.172462
-0.143206
-0.096716
-0.066574
-0.020671
0.025479
0.057811
0.077973
0.098751
0.112570
0.093320
0.059695
0.032173
-0.012398
-0.055982
-0.087670
-0.122715
-0.145186
-0.159847
-0.159491
-0.126683
-0.082671
-0.044073
-0.011387
0.042231
0.077161
0.113540
0.131734
0.113884
0.095736
0.086100
0.052460
0.009632
-0.054647
-0.108659
-0.133333
-0.170888
-0.172017
-0.178549
-0.174986
-0.164492
-0.134812
-0.100502
-0.056333
-0.012125
0.019631
0.061272
0.085910
0.085855
0.075932
0.054805
0.013825
-0.030236
-0.066410
-0.113227
-0.155630
-0.192908
-0.221995
-0.234038
-0.236290
-0.218865
-0.173934
-0.136470
-0.096853
-0.057583
-0.007309
0.029735
0.035751
0.054148
0.051152
0.023153
-0.003634
-0.044130
-0.105912
-0.154763
-0.188198
-0.218135
-0.231303
-0.236765
-0.232323
-0.217766
-0.186935
-0.147446
-0.102278
-0.056129
-0.023859
0.018326
0.043758
0.044783
0.050850
0.026905
0.001968
-0.053221
-0.104576
-0.144637
-0.174500
-0.202588
-0.227582
-0.235148
-0.226959
-0.216147
-0.189570
-0.153489
-0.106929
-0.055540
-0.020676
0.007975
0.027217
0.020463
0.034813
0.018394
-0.017917
-0.054513
-0.097445
-0.142732
-0.179707
-0.213615
-0.235461
-0.241540
-0.233566
-0.212545
-0.183334
-0.144520
-0.106536
-0.045143
-0.003220
0.027270
0.041576
0.051282
0.031209
0.009374
-0.026645
-0.061319
-0.100338
-0.143103
-0.185622
-0.206009
-0.223208
-0.230811
-0.209198
-0.180251
-0.128373
-0.065320
-0.010367
0.044229
0.100693
0.141085
0.168864
0.204837
0.229359
0.227127
0.231363
0.194133
0.173222
0.150675
0.140099
0.144818
0.170186
0.177829
0.213904
0.264651
0.323996
0.385016
0.474375
0.564460
0.636797
0.708542
0.761036
0.790740
0.820161
0.804664
0.769947
0.722538
0.671706
0.609318
0.557080
0.500135
0.442125
0.395254
0.337510
0.294241
0.265716
0.247884
0.252652
0.240505
0.223981
0.207626
0.219257
0.220019
0.202370
0.185306
0.156339
0.099698
0.044235
-0.006288
-0.058331
-0.079865
-0.109753
-0.126345
-0.125224
-0.102464
-0.063998
-0.025796
0.009604
0.042935
0.086461
0.115431
0.138479
0.138804
0.128552
0.100819
0.066810
0.026421
-0.020167
-0.067708
-0.105341
-0.133520
-0.163338
-0.176807
-0.167468
-0.152975
-0.127900
-0.093600
-0.045686
-0.003947
0.037511
0.064991
0.088852
0.093439
0.091811
0.067663
0.038344
-0.009630
-0.056024
-0.096235
-0.135496
-0.164538
-0.192782
-0.199669
-0.182984
-0.169493
-0.138240
-0.095293
-0.048369
-0.004936
0.034830
0.058555
0.088153
0.093298
0.075325
0.065154
0.032099
-0.005650
-0.053631
-0.093574
-0.135686
-0.154959
-0.170218
-0.178646
-0.174181
-0.163446
-0.132683
-0.090408
-0.057839
-0.006530
0.035166
0.066279
0.085659
0.099701
0.096608
0.070602
0.048359
0.001345
-0.037946
-0.071139
-0.102117
-0.124646
-0.155260
-0.156912
-0.148563
-0.121851
-0.086755
-0.043779
0.006874
0.051091
0.092487
0.103574
0.119670
0.125241
0.118375
0.106447
0.069075
0.034668
-0.002076
-0.047289
-0.095910
-0.116700
-0.157110
-0.168882
-0.130671
-0.104177
-0.065138
-0.017575
0.020562
0.070632
0.118260
0.150917
0.170254
0.184020
0.172725
0.161127
0.119497
0.086248
0.036846
-0.007112
-0.052553
-0.072367
-0.096249
-0.104393
-0.098468
-0.073801
-0.035664
-0.002151
0.049111
0.103495
0.135867
0.173035
0.192137
0.196906
0.187312
0.171285
0.128241
0.078200
0.037517
0.000703
-0.038949
-0.067045
-0.086266
-0.099286
-0.088770
-0.065030
-0.031343
0.014394
0.056312
0.110585
0.151724
0.177649
0.191743
0.202057
0.203629
0.178699
0.137449
0.097324
0.049675
0.002045
-0.032524
-0.064796
-0.086284
-0.086753
-0.085947
-0.067642
-0.043635
-0.009198
0.047944
0.086476
0.122198
0.145340
0.175912
0.179220
0.166774
0.154884
0.124085
0.086644
0.045827
-0.005336
-0.051588
-0.076210
-0.108715
-0.122431
-0.120702
-0.107372
-0.073875
-0.027032
0.020879
0.057165
0.091778
0.126303
0.129085
0.125085
0.121520
0.112523
0.075297
0.032753
-0.010541
-0.045114
-0.083422
-0.119078
-0.146684
-0.169417
-0.162015
-0.145824
-0.112308
-0.067643
-0.023375
0.025583
0.066890
0.096598
0.104089
0.114108
0.092856
0.079738
0.043755
-0.000722
-0.047036
-0.088079
-0.128228
-0.157010
-0.168787
-0.176203
-0.179301
-0.159595
-0.134345
-0.092728
-0.043948
0.015015
0.048151
0.081847
0.088960
0.104277
0.093826
0.060536
0.029407
-0.009032
-0.068091
-0.117982
-0.142100
-0.179881
-0.206808
-0.212374
-0.200251
-0.176526
-0.138955
-0.096698
-0.063153
-0.013696
0.032453
0.065320
0.078950
0.084179
0.069775
0.043168
0.013929
-0.012099
-0.053138
-0.099257
-0.152316
-0.180985
-0.201188
-0.200554
-0.203281
-0.183480
-0.144455
-0.107331
-0.056327
-0.006744
0.029766
0.055268
0.065059
0.081295
0.067855
0.043204
0.015182
-0.012782
-0.061181
-0.107477
-0.141828
-0.193063
-0.205128
-0.201506
-0.191950
-0.163337
-0.136879
-0.104461
-0.066346
-0.028320
0.009651
0.057410
0.089162
0.096128
0.086709
0.058193
0.031849
-0.012240
-0.059285
-0.100964
-0.141766
-0.165544
-0.179264
-0.187304
-0.174040
-0.152925
-0.116595
-0.077402
-0.032719
0.007530
0.042375
0.079067
0.091624
0.105658
0.096282
0.068050
0.040022
0.001532
-0.043906
-0.085748
-0.128114
-0.164386
-0.187234
-0.197357
-0.188922
-0.158078
-0.128704
-0.100522
-0.055758
-0.007648
0.046978
0.075743
0.090594
0.099730
0.102403
0.065583
0.034213
-0.009451
-0.054802
-0.092106
-0.134950
-0.168683
-0.179943
-0.189322
-0.185848
-0.158042
-0.139833
-0.096090
-0.043471
-0.011396
0.028778
0.063529
0.082127
0.085394
0.080811
0.061334
0.030767
-0.021546
-0.055183
-0.102239
-0.144361
-0.192572
-0.202730
-0.212542
-0.200533
-0.182588
-0.150629
-0.109093
-0.071226
-0.028202
0.004477
0.031174
0.058568
0.084827
0.076362
0.051072
0.009433
-0.034744
-0.074667
-0.111516
-0.147497
-0.199620
-0.217363
-0.211657
-0.196364
-0.174322
-0.144983
-0.092521
-0.056757
-0.005719
0.027853
0.053842
0.067141
0.069243
0.062089
0.041493
0.009993
-0.013918
-0.053422
-0.104599
-0.145076
-0.184627
-0.210387
-0.214892
-0.202546
-0.168949
-0.140489
-0.111273
-0.063027
-0.012361
0.024920
0.056648
0.077644
0.085516
0.069904
0.043642
0.016071
-0.024900
-0.067229
-0.112022
-0.150644
-0.185981
-0.214604
-0.225404
-0.214232
-0.192645
-0.152920
-0.113743
-0.064240
-0.016995
0.021474
0.054494
0.065989
0.066575
0.049995
0.031305
0.000641
-0.040952
-0.094298
-0.148599
-0.193454
-0.215207
-0.226972
-0.236964
-0.231902
-0.196039
-0.175601
-0.123524
-0.073884
-0.018033
0.025136
0.055091
0.056352
0.056605
0.060183
0.055108
0.014168
-0.046050
-0.081974
-0.103118
-0.140266
-0.163790
-0.190465
-0.200542
-0.196917
-0.171103
-0.136767
-0.091692
-0.041999
0.006376
0.047402
0.078296
0.098186
0.102870
0.094453
0.080760
0.051912
0.013491
-0.050140
-0.099538
-0.134627
-0.168753
-0.190028
-0.191240
-0.182590
-0.171476
-0.139753
-0.107080
-0.049182
0.001725
0.044736
0.073528
0.105350
0.113766
0.116994
0.105716
0.072610
0.030213
-0.018482
-0.069662
-0.110952
-0.148786
-0.168858
-0.162844
-0.157263
-0.138711
-0.108965
-0.071730
-0.026097
0.013207
0.045812
0.075450
0.091479
0.088369
0.084246
0.076089
0.033754
-0.010526
-0.058629
-0.104575
-0.148637
-0.169624
-0.202272
-0.211678
-0.208330
-0.199278
-0.165413
-0.126973
-0.084824
-0.035725
0.001491
0.020153
0.032034
0.053673
0.056525
0.035582
0.019190
-0.028798
-0.083903
-0.130954
-0.167731
-0.199985
-0.226468
-0.223925
-0.211741
-0.196990
-0.157276
-0.122816
-0.081046
-0.050763
-0.019787
0.013428
0.035944
0.040111
0.037485
0.014107
-0.015214
-0.059067
-0.111056
-0.155443
-0.194346
-0.223361
-0.249387
-0.257755
-0.237510
-0.215658
-0.195159
-0.158895
-0.111409
-0.072641
-0.021175
0.006542
0.029190
0.034677
0.040089
0.013432
-0.022466
-0.054722
-0.098881
-0.146278
-0.191248
-0.212813
-0.226395
-0.231680
-0.228780
-0.216146
-0.174772
-0.134417
-0.089980
-0.041904
-0.003014
0.024651
0.040148
0.044518
0.039067
0.018415
-0.022134
-0.068074
-0.108347
-0.158415
-0.199251
-0.234981
-0.247720
-0.269327
-0.266210
-0.216421
-0.179565
-0.144163
-0.105227
-0.052394
-0.020320
0.017912
0.030378
0.021869
0.023941
-0.003347
-0.038318
-0.072417
-0.117381
-0.160492
-0.189747
-0.211936
-0.221239
-0.200531
-0.174812
-0.138575
-0.072645
-0.017522
0.034813
0.102568
0.160444
0.206545
0.240692
0.284638
0.314857
0.308980
0.285332
0.267181
0.268541
0.249408
0.254118
0.256587
0.243431
0.271797
0.311837
0.379748
0.461951
0.516594
0.598018
0.684826
0.759363
0.806798
0.831216
0.842734
0.825997
0.786162
0.736108
0.675614
0.603316
0.522469
0.428166
0.318905
0.243707
0.173883
0.132926
0.111599
0.108394
0.097490
0.113692
0.123866
0.140357
0.140616
0.153960
0.161067
0.151572
0.110374
0.067188
0.039386
0.006014
-0.037335
-0.095455
-0.135771
-0.160873
-0.175167
-0.162667
-0.124145
-0.090595
-0.064289
-0.032364
0.006880
0.048423
0.083468
0.113091
0.119085
0.091949
0.059446
0.030045
0.008698
-0.026261
-0.076579
-0.114738
-0.155657
-0.184809
-0.204080
-0.184731
-0.162966
-0.134479
-0.096875
-0.061890
-0.020663
0.011129
0.048210
0.069693
0.070429
0.066122
0.064105
0.032654
-0.013115
-0.069831
-0.106717
-0.143167
-0.166374
-0.183124
-0.190435
-0.182417
-0.174394
-0.136655
-0.096098
-0.044658
0.000322
0.040562
0.070608
0.082794
0.087383
0.082053
0.048331
0.007585
-0.021565
-0.062201
-0.105771
-0.145142
-0.173688
-0.185499
-0.206351
-0.191873
-0.163854
-0.120523
-0.074661
-0.029004
0.013470
0.050705
0.084738
0.106587
0.109485
0.106541
0.089451
0.059252
0.022859
-0.038111
-0.084555
-0.124692
-0.155295
-0.165286
-0.155308
-0.143618
-0.125158
-0.104976
-0.058195
-0.013511
0.032415
0.076866
0.110799
0.124650
0.138494
0.114661
0.102321
0.076898
0.019355
-0.015278
-0.065597
-0.097455
-0.128982
-0.153258
-0.148277
-0.147730
-0.129668
-0.090886
-0.055504
-0.013957
0.048215
0.103935
0.138484
0.158916
0.170620
0.152731
0.137347
0.108995
0.073865
0.040807
-0.004941
-0.047543
-0.082116
-0.099093
-0.112948
-0.092118
-0.077765
-0.045379
-0.005927
0.050767
0.090731
0.137046
0.171996
0.179036
0.180753
0.154605
0.147972
0.125946
0.100683
0.049536
0.006369
-0.034850
-0.076142
-0.089218
-0.094062
-0.093917
-0.069274
-0.027686
0.012449
0.054109
0.095040
0.132706
0.160141
0.179776
0.186635
0.196435
0.171913
0.132073
0.085194
0.043863
-0.000842
-0.052494
-0.083247
-0.108055
-0.109865
-0.100930
-0.083586
-0.061093
-0.030273
0.017332
0.054300
0.094511
0.138828
0.152402
0.158449
0.146155
0.124140
0.090130
0.053446
0.008344
-0.038287
-0.084360
-0.120178
-0.139730
-0.139128
-0.141206
-0.126577
-0.110733
-0.072180
-0.011928
0.035919
0.067196
0.120449
0.139208
0.129711
0.113386
0.083179
0.059590
0.011198
-0.033156
-0.080273
-0.111871
-0.153643
-0.168257
-0.180766
-0.176248
-0.143122
-0.110453
-0.060725
-0.012414
0.016072
0.044928
0.069000
0.088953
0.113088
0.098610
0.068486
0.034096
-0.003278
-0.058408
-0.108449
-0.152491
-0.169796
-0.180276
-0.185695
-0.183113
-0.171173
-0.141393
-0.105667
-0.052319
-0.010493
0.033781
0.065401
0.081799
0.088456
0.076743
0.052968
0.009882
-0.032913
-0.074413
-0.122544
-0.147369
-0.180329
-0.194063
-0.200805
-0.197004
-0.187891
-0.159847
-0.118683
-0.073344
-0.024591
0.009319
0.045883
0.064960
0.076174
0.069531
0.049728
0.010688
-0.034540
-0.077610
-0.129481
-0.158924
-0.192107
-0.213241
-0.228384
-0.220280
-0.197043
-0.161709
-0.120055
-0.068561
-0.017558
0.012323
0.039720
0.064358
0.080773
0.066655
0.050709
0.015729
-0.037439
-0.076468
-0.107347
-0.139701
-0.171497
-0.195999
-0.217612
-0.217820
-0.187768
-0.150722
-0.115847
-0.081195
-0.024221
0.028453
0.064782
0.070603
0.076740
0.059429
0.046448
0.013162
-0.026010
-0.063834
-0.103811
-0.145063
-0.186339
-0.211130
-0.210735
-0.195506
-0.170451
-0.135546
-0.101161
-0.043119
-0.009695
0.020259
0.064560
0.082026
0.085402
0.080388
0.046631
0.015252
-0.022462
-0.063520
-0.110982
-0.151655
-0.186140
-0.193762
-0.199053
-0.186819
-0.163508
-0.131582
-0.098072
-0.056108
-0.004768
0.025696
0.069213
0.091840
0.091550
0.077982
0.050635
0.013641
-0.029162
-0.081652
-0.124453
-0.157160
-0.184300
-0.196949
-0.209283
-0.189943
-0.171205
-0.144769
-0.115191
-0.072242
-0.034951
0.002925
0.047957
0.074941
0.085585
0.074053
0.054710
0.014018
-0.032967
-0.087304
-0.139777
-0.170833
-0.197123
-0.221730
-0.225114
-0.202415
-0.173692
-0.154244
-0.119671
-0.082906
-0.037239
-0.012558
0.033584
0.058564
0.067921
0.061406
0.038348
0.015917
-0.033692
-0.084282
-0.128696
-0.167495
-0.200877
-0.209742
-0.216821
-0.218132
-0.185883
-0.155198
-0.114290
-0.051706
-0.016198
0.016990
0.046473
0.063710
0.068361
0.063285
0.030621
0.000993
-0.027726
-0.078483
-0.130690
-0.176756
-0.212485
-0.231877
-0.250671
-0.237637
-0.197403
-0.172226
-0.136978
-0.087535
-0.038391
0.006611
0.037563
0.070804
0.072317
0.053111
0.024807
-0.014750
-0.053396
-0.096182
-0.134846
-0.178008
-0.215919
-0.236618
-0.247044
-0.234318
-0.196453
-0.169845
-0.133390
-0.087836
-0.045350
-0.000052
0.024956
0.056843
0.067642
0.059576
0.028373
-0.001477
-0.037902
-0.088554
-0.139006
-0.174207
-0.193378
-0.201396
-0.212859
-0.204754
-0.171928
-0.127760
-0.088097
-0.048928
-0.005280
0.032295
0.070346
0.087230
0.083737
0.088388
0.061475
0.027255
-0.019920
-0.064364
-0.106888
-0.158340
-0.197560
-0.208278
-0.205573
-0.187945
-0.159302
-0.136334
-0.093241
-0.065925
-0.022127
0.015474
0.064649
0.094943
0.096449
0.089677
0.071950
0.047514
0.015349
-0.043143
-0.090649
-0.121854
-0.151949
-0.159763
-0.175987
-0.162344
-0.131287
-0.117619
-0.070159
-0.032323
0.013439
0.040932
0.067036
0.087792
0.091594
0.071780
0.042907
0.010844
-0.022683
-0.068507
-0.117652
-0.165158
-0.198856
-0.219709
-0.237327
-0.228517
-0.200710
-0.159689
-0.124717
-0.084880
-0.047664
-0.005380
0.029269
0.049640
0.061097
0.054030
0.024164
-0.012245
-0.061442
-0.113223
-0.161587
-0.201896
-0.237758
-0.262329
-0.262045
-0.248724
-0.227113
-0.194016
-0.156117
-0.106199
-0.067079
-0.034284
-0.000800
0.015630
0.018455
0.010633
-0.026709
-0.049959
-0.095372
-0.137225
-0.182702
-0.226945
-0.256255
-0.285799
-0.269985
-0.253256
-0.234418
-0.212954
-0.174169
-0.125160
-0.070770
-0.027114
0.004479
0.027115
0.021321
0.029067
0.016615
-0.025167
-0.079728
-0.124216
-0.173789
-0.219027
-0.245259
-0.273472
-0.278535
-0.259911
-0.229693
-0.188670
-0.149428
-0.103739
-0.077398
-0.034195
-0.002008
0.020000
0.022477
0.029527
-0.007272
-0.038038
-0.079579
-0.127631
-0.176342
-0.217996
-0.252900
-0.270846
-0.281079
-0.271164
-0.252641
-0.209719
-0.175989
-0.144831
-0.113452
-0.054195
-0.011339
0.021602
0.028824
0.009190
-0.008942
-0.041639
-0.068461
-0.114091
-0.147127
-0.175652
-0.190665
-0.196735
-0.177130
-0.167042
-0.129833
-0.085433
-0.032594
0.021096
0.079974
0.128468
0.190714
0.239633
0.268744
0.290222
0.293557
0.281441
0.275965
0.256147
0.256755
0.253219
0.231963
0.244605
0.260400
0.317918
0.374821
0.446829
0.515963
0.596369
0.683464
0.748614
0.779691
0.811527
0.818437
0.790850
0.753675
0.706053
0.640671
0.563628
0.455433
0.343101
0.243409
0.169876
0.105621
0.084470
0.053015
0.045434
0.051199
0.082642
0.104163
0.116213
0.144408
0.166523
0.153796
0.147139
0.111233
0.064547
0.032580
-0.008449
-0.060378
-0.104728
-0.139131
-0.160401
-0.166987
-0.167335
-0.155781
-0.126796
-0.095581
-0.045829
-0.003718
0.031036
0.066240
0.074485
0.073205
0.064623
0.061966
0.010919
-0.029561
-0.069048
-0.117507
-0.171520
-0.197939
-0.219953
-0.237042
-0.222728
-0.195455
-0.169324
-0.125481
-0.088515
-0.042493
0.003361
0.026125
0.052688
0.066364
0.058691
0.036604
0.011493
-0.030255
-0.093375
-0.143709
-0.180215
-0.209548
-0.243809
-0.252399
-0.245376
-0.206604
-0.169254
-0.129296
-0.082339
-0.027714
0.009276
0.045556
0.072004
0.082803
0.069482
0.043111
0.003878
-0.026591
-0.076071
-0.132255
-0.162540
-0.209104
-0.225337
-0.229039
-0.219274
-0.200370
-0.165232
-0.127716
-0.078684
-0.033297
0.007728
0.050719
0.075438
0.073657
0.056950
0.019530
-0.000492
-0.018210
-0.063912
-0.107621
-0.135378
-0.163867
-0.193654
-0.194318
-0.181193
-0.173517
-0.129841
-0.079848
-0.024306
0.020444
0.051204
0.085876
0.111804
0.117795
0.106636
0.082431
0.047556
0.004610
-0.034827
-0.082878
-0.122657
-0.145709
-0.169254
-0.171018
-0.162172
-0.134472
-0.101315
-0.077357
-0.016849
0.045967
0.070883
0.107363
0.115689
0.127048
0.119736
0.103585
0.072907
0.036573
-0.003125
-0.051818
-0.091082
-0.127447
-0.141365
-0.150949
-0.143036
-0.113821
-0.073329
-0.038769
-0.003142
0.059549
0.093221
0.133869
0.150910
0.142190
0.133979
0.113223
0.068906
0.028598
-0.008174
-0.059170
-0.093684
-0.126895
-0.159067
-0.173837
-0.152468
-0.113528
-0.074173
-0.020216
0.023867
0.075257
0.112080
0.140104
0.141981
0.155507
0.149173
0.121607
0.086416
0.043960
-0.001406
-0.043913
-0.092500
-0.135845
-0.163340
-0.174049
-0.148413
-0.112819
-0.090760
-0.051316
-0.000955
0.038697
0.078790
0.120507
0.130267
0.129477
0.133694
0.103271
0.068274
0.026168
-0.026576
-0.078330
-0.112383
-0.154746
-0.168322
-0.168832
-0.169341
-0.152867
-0.129591
-0.078225
-0.024644
-0.000902
0.041384
0.070904
0.090567
0.112653
0.105842
0.076529
0.035415
-0.012067
-0.066996
-0.112593
-0.157175
-0.195158
-0.210127
-0.208139
-0.208432
-0.191468
-0.156676
-0.112287
-0.081769
-0.042096
-0.012129
0.024191
0.063614
0.062182
0.073214
0.048233
0.000499
-0.046065
-0.077233
-0.123814
-0.167107
-0.231150
-0.242648
-0.257606
-0.235384
-0.216361
-0.183299
-0.144807
-0.099142
-0.045572
0.003538
0.022524
0.051433
0.059211
0.051430
0.011958
-0.016476
-0.059846
-0.098880
-0.155701
-0.189508
-0.214802
-0.230940
-0.245552
-0.240244
-0.218757
-0.192051
-0.143255
-0.097217
-0.046081
-0.012257
0.014002
0.034338
0.046825
0.050804
0.030938
0.004524
-0.041698
-0.091913
-0.150973
-0.186116
-0.221398
-0.248828
-0.251791
-0.241954
-0.222501
-0.185089
-0.124548
-0.085284
-0.035582
-0.003241
0.032413
0.042409
0.062492
0.053578
0.040858
0.002271
-0.040470
-0.075896
-0.123904
-0.172564
-0.203345
-0.219491
-0.243088
-0.236231
-0.219310
-0.176712
-0.128769
-0.093291
-0.036474
-0.004696
0.019157
0.041941
0.056955
0.053458
0.043296
0.012935
-0.043210
-0.086700
-0.145571
-0.193540
-0.218183
-0.227957
-0.225701
-0.214558
-0.198378
-0.167564
-0.129077
-0.087422
-0.048373
0.006874
0.018697
0.033079
0.057348
0.056763
0.032307
0.001645
-0.043366
-0.094813
-0.148102
-0.191849
-0.217046
-0.242362
-0.246396
-0.235479
-0.204514
-0.172880
-0.125914
-0.075861
-0.033476
0.005484
0.050675
0.064923
0.063725
0.060179
0.045122
0.011577
-0.036442
-0.083630
-0.131384
-0.202335
-0.222847
-0.239983
-0.234821
-0.221076
-0.197829
-0.171449
-0.128242
-0.096822
-0.040153
-0.009251
0.016854
0.051437
0.053392
0.055734
0.031680
0.001866
-0.049464
-0.094039
-0.150970
-0.186841
-0.204959
-0.222208
-0.218746
-0.207964
-0.200465
-0.174043
-0.140121
-0.084111
-0.049607
0.005212
0.029680
0.049360
0.060567
0.038727
0.007305
-0.026647
-0.074582
-0.115652
-0.164174
-0.210640
-0.220259
-0.240292
-0.255960
-0.243414
-0.217164
-0.169938
-0.129694
-0.083848
-0.044504
0.000579
0.026808
0.045758
0.049510
0.039530
0.024440
-0.013997
-0.054249
-0.104411
-0.150314
-0.201044
-0.225389
-0.252706
-0.249041
-0.243766
-0.212778
-0.175430
-0.133095
-0.102581
-0.052499
-0.004486
0.017522
0.036640
0.036959
0.031807
0.011843
-0.022300
-0.061549
-0.113002
-0.163605
-0.198247
-0.228403
-0.241603
-0.244623
-0.248719
-0.223153
-0.181399
-0.130148
-0.086161
-0.046819
0.013511
0.039180
0.060247
0.059353
0.062644
0.051655
0.021324
-0.022059
-0.077484
-0.119470
-0.174140
-0.205794
-0.233277
-0.229595
-0.225424
-0.192525
-0.153597
-0.109480
-0.064649
-0.013888
0.022844
0.052227
0.062644
0.070577
0.063131
0.038908
-0.005454
-0.060219
-0.092433
-0.129812
-0.166993
-0.208278
-0.224056
-0.212007
-0.199678
-0.186497
-0.149047
-0.113010
-0.050075
-0.000859
0.027246
0.059366
0.090395
0.094772
0.091661
0.069050
0.037916
-0.009379
-0.066940
-0.094010
-0.147610
-0.192858
-0.210216
-0.208963
-0.210305
-0.194876
-0.165112
-0.118851
-0.072612
-0.028365
0.002725
0.022069
0.040695
0.056074
0.054161
0.028615
-0.011232
-0.052077
-0.102151
-0.146623
-0.187640
-0.219368
-0.241330
-0.261438
-0.259660
-0.237181
-0.199579
-0.157356
-0.101691
-0.063654
-0.023189
0.011767
0.033632
0.029281
0.024426
-0.005958
-0.050273
-0.090596
-0.145525
-0.174512
-0.223863
-0.257107
-0.285291
-0.282684
-0.279459
-0.265398
-0.234315
-0.185107
-0.141157
-0.094123
-0.037264
-0.005168
0.012844
0.015040
0.005651
-0.022213
-0.065404
-0.110973
-0.151116
-0.184220
-0.224141
-0.267579
-0.291025
-0.295577
-0.283638
-0.271844
-0.229555
-0.179929
-0.140093
-0.092541
-0.040681
-0.002176
0.017282
0.021720
0.009032
-0.025719
-0.063506
-0.088567
-0.141531
-0.183817
-0.229859
-0.262553
-0.275551
-0.276973
-0.278552
-0.256877
-0.212563
-0.169488
-0.113992
-0.076969
-0.028389
0.015073
0.020943
0.017072
0.005588
-0.022609
-0.046559
-0.098141
-0.150589
-0.190858
-0.241112
-0.273324
-0.284797
-0.301235
-0.292823
-0.254637
-0.225964
-0.182660
-0.123337
-0.069352
-0.015621
0.023281
0.046526
0.063614
0.083303
0.084919
0.062094
0.039034
0.002970
-0.018711
-0.061422
-0.099527
-0.087409
-0.065227
-0.037766
0.015807
0.072755
0.137404
0.206654
0.274964
0.343398
0.420856
0.483860
0.521257
0.542903
0.535072
0.555184
0.565443
0.546828
0.527464
0.522583
0.515519
0.516077
0.518059
0.535345
0.549369
0.553159
0.577899
0.617109
0.643605
0.631022
0.592098
0.555850
0.513658
0.432351
0.360610
0.276160
0.189844
0.103050
0.022929
-0.029033
-0.083495
-0.106529
-0.124055
-0.115124
-0.107448
-0.087564
-0.057369
-0.008879
0.033591
0.078817
0.124583
0.137752
0.150910
0.138504
0.102563
0.058275
0.019284
-0.040926
-0.097323
-0.146515
-0.188014
-0.201151
-0.205045
-0.201155
-0.179810
-0.165182
-0.120399
-0.074559
-0.024936
0.017426
0.049181
0.063318
0.061092
0.058614
0.035673
0.000658
-0.051949
-0.103153
-0.158831
-0.206145
-0.239629
-0.255709
-0.254820
-0.235919
-0.192753
-0.164568
-0.135563
-0.085836
-0.035010
0.002957
0.031064
0.050381
0.069360
0.060807
0.032941
-0.011549
-0.063209
-0.102875
-0.126726
-0.166597
-0.197673
-0.225860
-0.244528
-0.240152
-0.212556
-0.173970
-0.137768
-0.081855
-0.021065
0.014043
0.041699
0.058116
0.075683
0.071198
0.052564
0.024278
-0.011249
-0.057115
-0.106794
-0.165355
-0.205711
-0.227427
-0.231249
-0.218844
-0.181542
-0.159029
-0.121491
-0.081601
-0.025356
0.022561
0.051901
0.079450
0.083028
0.075033
0.059081
0.041016
-0.006918
-0.051478
-0.113933
-0.151246
-0.174794
-0.192507
-0.205554
-0.187630
-0.165371
-0.128880
-0.086209
-0.031366
0.011927
0.043153
0.068161
0.097667
0.109226
0.104166
0.093697
0.073373
0.035034
-0.011188
-0.070884
-0.108292
-0.145669
-0.164832
-0.168316
-0.157457
-0.128428
-0.103657
-0.045777
-0.001773
0.059731
0.090175
0.118037
0.157081
0.163675
0.147443
0.111457
0.069453
0.035883
0.004193
-0.044212
-0.102950
-0.127521
-0.129696
-0.134730
-0.128130
-0.105546
-0.075724
-0.034452
0.000775
0.059268
0.106697
0.141361
0.160159
0.163544
0.155405
0.129396
0.090057
0.049304
0.003281
-0.047832
-0.081420
-0.120604
-0.153629
-0.155087
-0.146509
-0.122583
-0.089572
-0.048994
-0.004162
0.052492
0.087956
0.122960
0.146475
0.144101
0.128431
0.107709
0.076348
0.028022
-0.025612
-0.079139
-0.115673
-0.155631
-0.173968
-0.175293
-0.161658
-0.147895
-0.105648
-0.080687
-0.032126
0.023828
0.071700
0.100341
0.115598
0.112017
0.095862
0.078316
0.046988
0.018556
-0.041168
-0.086915
-0.137790
-0.175439
-0.195877
-0.196555
-0.190556
-0.165962
-0.143311
-0.102543
-0.048231
0.002597
0.036368
0.069524
0.089848
0.099492
0.085406
0.057967
0.016722
-0.028423
-0.071421
-0.116731
-0.148629
-0.185381
-0.213954
-0.216401
-0.219158
-0.206492
-0.159959
-0.118309
-0.079483
-0.033009
0.004030
0.025136
0.052725
0.057306
0.051466
0.028218
-0.000653
-0.057864
-0.099034
-0.152264
-0.198448
-0.221681
-0.241517
-0.253703
-0.252673
-0.225019
-0.183597
-0.142234
-0.099621
-0.033263
0.019951
0.038814
0.057084
0.060514
0.045408
0.018044
-0.015172
-0.060324
-0.109604
-0.163871
-0.202361
-0.223459
-0.237322
-0.235083
-0.226667
-0.213395
-0.172782
-0.125194
-0.078715
-0.035345
0.003885
0.030949
0.048045
0.062648
0.048129
0.026429
-0.009193
-0.048286
-0.102669
-0.145703
-0.184810
-0.214085
-0.238324
-0.247557
-0.245062
-0.206016
-0.170546
-0.135698
-0.077003
-0.035824
-0.000049
0.025902
0.057531
0.060159
0.060156
0.026726
0.004925
-0.030820
-0.079585
-0.142302
-0.186767
-0.214189
-0.234559
-0.249415
-0.236451
-0.205553
-0.170514
-0.132501
-0.081366
-0.021913
0.028071
0.055384
0.073501
0.084332
0.070292
0.032378
-0.014266
-0.049690
-0.095791
-0.145177
-0.195167
-0.225420
-0.241941
-0.224808
-0.217509
-0.192794
-0.153784
-0.111044
-0.059949
-0.011035
0.023188
0.057340
0.081212
0.096223
0.089657
0.041145
0.009892
-0.034428
-0.079660
-0.122023
-0.177066
-0.210941
-0.226158
-0.233588
-0.226163
-0.209272
-0.181748
-0.144404
-0.091396
-0.034649
0.022282
0.067379
0.083768
0.089505
0.084648
0.054764
0.025377
-0.025454
-0.078425
-0.144886
-0.182995
-0.220244
-0.232958
-0.228384
-0.215713
-0.197152
-0.174475
-0.122829
-0.076253
-0.033024
0.006328
0.037060
0.056312
0.067770
0.056582
0.029888
0.012141
-0.035668
-0.089011
-0.136886
-0.179944
-0.210321
-0.239897
-0.244404
-0.238906
-0.208448
-0.183047
-0.128296
-0.069238
-0.020841
0.020127
0.051029
0.070972
0.074466
0.055031
0.031453
-0.002061
-0.038115
-0.092101
-0.143235
-0.187262
-0.218614
-0.233832
-0.254192
-0.249248
-0.228174
-0.203376
-0.145936
-0.089752
-0.040410
0.012507
0.051381
0.062420
0.064720
0.058672
0.028120
-0.012081
-0.056569
-0.089288
-0.139708
-0.191979
-0.213546
-0.241266
-0.251411
-0.236622
-0.226802
-0.200355
-0.144390
-0.101457
-0.056442
-0.000187
0.037715
0.051120
0.044703
0.047363
0.033494
0.006256
-0.044860
-0.083665
-0.142560
-0.196938
-0.234540
-0.255859
-0.270979
-0.273745
-0.259071
-0.204534
-0.134151
-0.077797
-0.026539
0.033807
0.055397
0.070485
0.078672
0.067875
0.059189
0.024972
-0.021732
-0.065020
-0.112197
-0.154979
-0.194181
-0.210823
-0.207869
-0.195951
-0.173079
-0.141436
-0.097784
-0.052466
-0.007967
0.025024
0.068716
0.083821
0.096039
0.105064
0.083511
0.030930
-0.004695
-0.056779
-0.112891
-0.151231
-0.194276
-0.210891
-0.203596
-0.197947
-0.179037
-0.138167
-0.089319
-0.035222
0.008954
0.048069
0.074808
0.094817
0.103062
0.096906
0.084092
0.046000
0.004428
-0.049959
-0.101463
-0.146751
-0.182123
-0.210096
-0.226485
-0.209157
-0.190935
-0.166049
-0.114154
-0.052580
-0.006257
0.030320
0.057539
0.073198
0.071698
0.058551
0.034819
0.009085
-0.042042
-0.093030
-0.143706
-0.196957
-0.221093
-0.238699
-0.248862
-0.242572
-0.228503
-0.193007
-0.145527
-0.107649
-0.065087
-0.020694
0.005973
0.016829
0.019954
0.036103
0.018129
-0.018871
-0.067097
-0.121865
-0.167105
-0.205231
-0.232523
-0.263715
-0.268124
-0.266918
-0.252112
-0.213630
-0.168141
-0.139464
-0.090159
-0.032911
0.007886
0.025861
0.024900
0.021266
0.002372
-0.030867
-0.070941
-0.125362
-0.173655
-0.214874
-0.251353
-0.268918
-0.283000
-0.265529
-0.246361
-0.200761
-0.153650
-0.123456
-0.073078
-0.036205
0.002690
0.021596
0.037189
0.025632
0.004887
-0.035558
-0.089895
-0.129946
-0.169987
-0.211176
-0.249402
-0.277402
-0.289522
-0.274114
-0.244501
-0.201235
-0.168313
-0.127944
-0.064746
-0.023286
0.011207
0.031906
0.035058
0.030404
0.009174
-0.025662
-0.071862
-0.127909
-0.170536
-0.228551
-0.266148
-0.297844
-0.301483
-0.294418
-0.253865
-0.230707
-0.186950
-0.134550
-0.077739
-0.028650
0.017609
0.058229
0.068880
0.059173
0.044979
0.027751
0.000158
-0.026188
-0.059382
-0.079578
-0.113560
-0.119095
-0.106676
-0.070975
-0.033674
0.037327
0.107036
0.188267
0.271469
0.355026
0.428170
0.487209
0.530309
0.563080
0.564439
0.556613
0.558274
0.547232
0.543643
0.528695
0.514043
0.546552
0.570209
0.591341
0.601565
0.622975
0.673137
0.704698
0.725359
0.740232
0.776634
0.760144
0.711277
0.624758
0.526897
0.419291
0.319143
0.215759
0.129449
0.047678
-0.015569
-0.050446
-0.063066
-0.066857
-0.043300
-0.013574
0.002398
0.041227
0.065970
0.103327
0.142722
0.157678
0.162727
0.153382
0.128210
0.081320
0.049870
0.005533
-0.070900
-0.111973
-0.168020
-0.191041
-0.190651
-0.185705
-0.157050
-0.140543
-0.108317
-0.068278
-0.014145
0.035437
0.073348
0.096262
0.084999
0.085891
0.062615
0.015957
-0.029619
-0.079585
-0.125399
-0.169458
-0.213402
-0.218995
-0.222908
-0.217775
-0.197040
-0.171359
-0.116025
-0.067155
-0.022169
0.012103
0.053323
0.076940
0.088120
0.096041
0.080282
0.039496
-0.016932
-0.073634
-0.120738
-0.169533
-0.198742
-0.216958
-0.225644
-0.213409
-0.179225
-0.139615
-0.104011
-0.051712
-0.017155
0.034639
0.073397
0.100384
0.110749
0.103160
0.078487
0.036673
0.001834
-0.043610
-0.091659
-0.132337
-0.170305
-0.187295
-0.198579
-0.194035
-0.166101
-0.126498
-0.091369
-0.041263
0.002134
0.052568
0.087837
0.113341
0.113212
0.110673
0.084221
0.048390
0.005790
-0.044523
-0.086103
-0.115335
-0.147915
-0.179136
-0.184443
-0.173666
-0.152720
-0.114710
-0.072346
-0.019167
0.022752
0.073876
0.103524
0.125529
0.144846
0.146149
0.113436
0.084710
0.036844
-0.010602
-0.053050
-0.091349
-0.124933
-0.139637
-0.140828
-0.139018
-0.110027
-0.071969
-0.025115
0.018162
0.065341
0.103585
0.146608
0.154962
0.169281
0.159221
0.132049
0.105642
0.065265
0.016815
-0.025591
-0.066856
-0.099444
-0.124225
-0.125234
-0.121137
-0.092223
-0.051531
-0.008277
0.039607
0.075710
0.121581
0.147506
0.186358
0.190607
0.177559
0.139282
0.108666
0.068298
0.025391
-0.028462
-0.076635
-0.113041
-0.126078
-0.125002
-0.110372
-0.091138
-0.047795
0.011621
0.049596
0.081775
0.115426
0.143614
0.170281
0.167784
0.183343
0.162016
0.129701
0.069070
0.024502
-0.010718
-0.065651
-0.095852
-0.134493
-0.154596
-0.134327
-0.106232
-0.075565
-0.033651
0.004999
0.055405
0.099678
0.129113
0.135608
0.139374
0.143008
0.120050
0.086013
0.043919
-0.006799
-0.050761
-0.098533
-0.138727
-0.159416
-0.169317
-0.162874
-0.151085
-0.109457
-0.061265
-0.016345
0.023068
0.067143
0.097486
0.120324
0.120219
0.113171
0.087352
0.053128
0.006362
-0.042102
-0.098410
-0.146617
-0.178435
-0.196248
-0.204506
-0.191023
-0.177055
-0.141478
-0.100730
-0.051026
-0.008417
0.036759
0.062592
0.090818
0.099166
0.094150
0.062989
0.024074
-0.021452
-0.071158
-0.116493
-0.166164
-0.201830
-0.229151
-0.228044
-0.214452
-0.189191
-0.159490
-0.111306
-0.068474
-0.013487
0.023805
0.053431
0.079993
0.089035
0.083287
0.061548
0.030077
-0.013722
-0.064958
-0.114172
-0.164375
-0.196436
-0.215372
-0.224622
-0.227300
-0.198562
-0.159643
-0.113249
-0.057516
-0.022876
0.020955
0.048713
0.068319
0.071294
0.070449
0.042596
0.003011
-0.030862
-0.070634
-0.118893
-0.157367
-0.200893
-0.232457
-0.229819
-0.221398
-0.194997
-0.151070
-0.108437
-0.065211
-0.030478
0.023040
0.064324
0.087894
0.092437
0.094243
0.080474
0.033495
-0.004496
-0.043896
-0.091376
-0.132803
-0.154964
-0.189407
-0.203248
-0.204351
-0.178843
-0.145094
-0.103265
-0.058687
-0.011147
0.023380
0.041972
0.076909
0.097889
0.088295
0.086462
0.043100
-0.012239
-0.053882
-0.093380
-0.136096
-0.179849
-0.196120
-0.193523
-0.184132
-0.164654
-0.128771
-0.088221
-0.038498
0.004091
0.044223
0.072748
0.101019
0.110463
0.092534
0.084699
0.038753
-0.005273
-0.047920
-0.098847
-0.141389
-0.174825
-0.195843
-0.212137
-0.199078
-0.186087
-0.142630
-0.095149
-0.049746
-0.002692
0.038789
0.073619
0.104641
0.102632
0.084777
0.078861
0.035343
-0.003651
-0.057753
-0.096578
-0.149154
-0.183519
-0.206535
-0.215225
-0.208600
-0.179949
-0.141332
-0.101060
-0.053791
-0.009964
0.027111
0.064356
0.099255
0.109035
0.091785
0.077960
0.042284
0.004079
-0.050063
-0.103233
-0.149456
-0.182985
-0.214155
-0.222468
-0.207059
-0.177632
-0.148820
-0.106851
-0.065320
-0.027232
0.016464
0.058432
0.093720
0.107295
0.096790
0.069177
0.030522
-0.012666
-0.052578
-0.097548
-0.136324
-0.174682
-0.206708
-0.222215
-0.211110
-0.189882
-0.151099
-0.114552
-0.069410
-0.024210
0.019946
0.047575
0.081595
0.093450
0.084994
0.061147
0.026515
-0.020216
-0.057266
-0.099267
-0.147680
-0.179951
-0.207181
-0.216021
-0.210624
-0.200602
-0.162377
-0.118226
-0.068290
-0.017813
0.012732
0.048461
0.067497
0.081792
0.072859
0.046340
0.005472
-0.025168
-0.088162
-0.127840
-0.157282
-0.198242
-0.216469
-0.231611
-0.234803
-0.227106
-0.179458
-0.124888
-0.069519
-0.026370
0.009649
0.047182
0.071609
0.078789
0.068577
0.045548
0.012349
-0.028857
-0.065809
-0.117014
-0.153732
-0.186822
-0.214545
-0.225124
-0.216538
-0.188740
-0.163751
-0.121051
-0.070363
-0.025975
0.026429
0.063376
0.091500
0.108728
0.101072
0.074289
0.034000
-0.002699
-0.054483
-0.100611
-0.136643
-0.174366
-0.181760
-0.196716
-0.194615
-0.176466
-0.139985
-0.088409
-0.029363
0.021176
0.067669
0.098299
0.127034
0.132639
0.112428
0.087029
0.047630
0.016696
-0.028265
-0.060741
-0.117461
-0.160931
-0.174885
-0.192226
-0.190131
-0.162489
-0.116657
-0.074874
-0.021981
0.032346
0.079952
0.124542
0.143031
0.155302
0.142023
0.109679
0.076153
0.035213
-0.012424
-0.053705
-0.087330
-0.124372
-0.159285
-0.179503
-0.175042
-0.155435
-0.123562
-0.089440
-0.035464
0.007768
0.055719
0.086049
0.101796
0.103709
0.104428
0.083799
0.030444
-0.014073
-0.042353
-0.079879
-0.136666
-0.180139
-0.205755
-0.225218
-0.214895
-0.185990
-0.158339
-0.115426
-0.074329
-0.019840
0.022740
0.060852
0.081352
0.092283
0.069139
0.043133
0.008203
-0.042299
-0.086490
-0.136309
-0.176318
-0.212718
-0.237406
-0.245716
-0.231430
-0.222078
-0.197487
-0.145864
-0.099758
-0.046163
-0.003153
0.028842
0.049053
0.057395
0.052769
0.031257
0.004546
-0.041080
-0.096033
-0.139888
-0.176775
-0.210735
-0.226285
-0.245544
-0.230032
-0.218490
-0.181681
-0.136314
-0.082127
-0.045570
-0.006740
0.029713
0.045432
0.049033
0.047561
0.030815
0.008587
-0.049577
-0.096289
-0.134811
-0.173493
-0.207520
-0.235694
-0.249097
-0.237286
-0.225916
-0.183680
-0.131245
-0.085884
-0.043904
-0.005032
0.029145
0.049030
0.062174
0.057313
0.028431
0.006427
-0.048651
-0.084879
-0.135039
-0.175810
-0.217560
-0.252339
-0.261612
-0.237561
-0.221750
-0.185286
-0.152261
-0.105170
-0.059618
-0.024288
0.014403
0.030458
0.043604
0.039898
0.036382
0.005630
-0.027892
-0.071634
-0.115092
-0.133386
-0.152955
-0.161881
-0.145682
-0.098018
-0.069188
-0.022915
0.026907
0.100942
0.171620
0.236112
0.294009
0.345868
0.387451
0.411306
0.414719
0.408092
0.399649
0.408293
0.401292
0.391802
0.380823
0.399211
0.439255
0.500420
0.553686
0.606396
0.683430
0.771237
0.827754
0.866252
0.894550
0.909870
0.898658
0.889574
0.844888
0.787861
0.685989
0.579881
0.457727
0.351955
0.255793
0.173116
0.109095
0.058414
0.039269
0.044986
0.079338
0.114017
0.176440
0.206860
0.223167
0.226969
0.230141
0.209828
0.189384
0.141878
0.082427
0.035567
-0.007286
-0.061134
-0.095358
-0.133872
-0.148727
-0.134584
-0.119899
-0.104113
-0.066741
-0.019797
0.031979
0.079149
0.106304
0.127845
0.131657
0.123874
0.101591
0.073356
0.020139
-0.031765
-0.089029
-0.131036
-0.169832
-0.198437
-0.195050
-0.183634
-0.157116
-0.123794
-0.078548
-0.032014
0.007964
0.047749
0.083546
0.101525
0.105793
0.101300
0.067602
0.043152
0.006797
-0.026130
-0.070920
-0.112521
-0.155493
-0.178317
-0.183242
-0.190282
-0.174713
-0.129079
-0.085219
-0.038223
0.005399
0.055157
0.087966
0.110237
0.104665
0.106883
0.089104
0.058976
0.015715
-0.029891
-0.069295
-0.115452
-0.145583
-0.175097
-0.182375
-0.177774
-0.141689
-0.113644
-0.066951
-0.017907
0.035677
0.073478
0.117768
0.135215
0.151946
0.138132
0.108125
0.075013
0.042109
-0.014635
-0.056405
-0.093166
-0.125832
-0.149771
-0.161645
-0.154355
-0.133829
-0.093184
-0.045987
0.012889
0.055581
0.091572
0.131402
0.144367
0.140124
0.150941
0.136381
0.110699
0.075028
0.025518
-0.019842
-0.058968
-0.097777
-0.114477
-0.122604
-0.124509
-0.096832
-0.053378
-0.011168
0.033855
0.081238
0.141114
0.184250
0.219754
0.215415
0.199824
0.175450
0.139072
0.111524
0.060672
0.009894
-0.031503
-0.064423
-0.098391
-0.100383
-0.093970
-0.060487
-0.038058
0.005880
0.052405
0.103699
0.154739
0.196732
0.218383
0.226319
0.225032
0.190309
0.157422
0.117542
0.069378
0.038828
0.007634
-0.025118
-0.061520
-0.070386
-0.071305
-0.047711
-0.018094
0.010028
0.059493
0.111887
0.160613
0.190467
0.217240
0.218592
0.217786
0.187792
0.158609
0.120284
0.058542
0.020702
-0.024393
-0.057626
-0.076728
-0.087628
-0.092116
-0.075255
-0.047196
-0.023220
0.024439
0.077733
0.131592
0.174702
0.191702
0.194559
0.187013
0.164778
0.129662
0.099657
0.045187
-0.013101
-0.051680
-0.080426
-0.114682
-0.131775
-0.122164
-0.091779
-0.076548
-0.024815
0.018269
0.058291
0.098211
0.126722
0.147107
0.162417
0.152352
0.124070
0.086393
0.033080
-0.019031
-0.065852
-0.109390
-0.149048
-0.168192
-0.165763
-0.155387
-0.134743
-0.106489
-0.070434
-0.020503
0.032691
0.069654
0.101115
0.114500
0.124692
0.114757
0.084199
0.063057
0.025516
-0.022465
-0.072764
-0.114417
-0.150142
-0.169786
-0.178333
-0.181543
-0.165689
-0.130417
-0.094578
-0.045452
-0.001208
0.038537
0.079253
0.106345
0.112717
0.108245
0.087887
0.044369
0.001632
-0.053090
-0.097835
-0.137787
-0.168328
-0.193023
-0.192222
-0.191097
-0.173854
-0.145307
-0.103775
-0.064442
0.006958
0.056177
0.077040
0.100865
0.110787
0.100677
0.083681
0.050977
0.016705
-0.030792
-0.081709
-0.129046
-0.166958
-0.188092
-0.195142
-0.188557
-0.172909
-0.140661
-0.108738
-0.067028
-0.009291
0.044696
0.082350
0.085395
0.108414
0.125884
0.092798
0.057054
0.022530
-0.032021
-0.076397
-0.111476
-0.158177
-0.178923
-0.189971
-0.184357
-0.177381
-0.138657
-0.091671
-0.034618
0.016072
0.063583
0.089021
0.114265
0.117065
0.109309
0.093977
0.061615
0.013925
-0.029313
-0.076948
-0.121787
-0.149649
-0.173452
-0.177279
-0.176625
-0.156078
-0.117076
-0.071472
-0.022798
0.024492
0.070225
0.095353
0.125915
0.137156
0.119702
0.101240
0.060273
0.018819
-0.029187
-0.079708
-0.111856
-0.141404
-0.167964
-0.180536
-0.175264
-0.151719
-0.116401
-0.069823
-0.027673
0.021545
0.061199
0.097388
0.113040
0.123869
0.115165
0.090603
0.064318
0.025645
-0.020601
-0.071990
-0.126580
-0.150142
-0.169769
-0.192195
-0.176348
-0.150114
-0.115723
-0.074879
-0.042145
0.006953
0.056845
0.095263
0.098333
0.105393
0.111632
0.090116
0.056997
0.017120
-0.022726
-0.084149
-0.135460
-0.151802
-0.168997
-0.167016
-0.167788
-0.152838
-0.118928
-0.078388
-0.040921
0.012251
0.054137
0.092856
0.123602
0.124837
0.096887
0.083491
0.050003
0.021714
-0.024205
-0.081589
-0.127739
-0.158849
-0.180964
-0.194681
-0.177400
-0.162698
-0.130466
-0.093186
-0.049517
0.005990
0.049074
0.078772
0.105957
0.125530
0.109550
0.080979
0.044556
0.006389
-0.027350
-0.080561
-0.123817
-0.160760
-0.180432
-0.203706
-0.187504
-0.169155
-0.134557
-0.098267
-0.058192
-0.008687
0.034381
0.066617
0.083190
0.091733
0.102925
0.085090
0.060598
0.019824
-0.030476
-0.077652
-0.121971
-0.162625
-0.182276
-0.197804
-0.209487
-0.180695
-0.126998
-0.081779
-0.039985
0.004151
0.038890
0.069829
0.087880
0.092589
0.090447
0.075178
0.037774
0.000821
-0.042808
-0.093695
-0.134342
-0.172489
-0.182935
-0.193359
-0.194040
-0.177783
-0.146381
-0.102285
-0.054254
0.002827
0.038995
0.074759
0.111710
0.121033
0.105856
0.082036
0.050150
0.008562
-0.035242
-0.090116
-0.138482
-0.170849
-0.193646
-0.203522
-0.195611
-0.171839
-0.141193
-0.102003
-0.063608
-0.013177
0.023575
0.057420
0.091696
0.098354
0.088580
0.081414
0.050049
-0.000812
-0.049642
-0.098382
-0.138714
-0.181065
-0.195895
-0.199399
-0.191716
-0.171839
-0.143702
-0.113158
-0.066150
-0.016529
0.026370
0.072277
0.100307
0.102740
0.091205
0.078444
0.041994
0.001360
-0.041256
-0.082409
-0.135821
-0.173608
-0.203197
-0.205856
-0.195424
-0.167535
-0.134904
-0.087390
-0.042187
0.009263
0.062336
0.095137
0.119171
0.127744
0.115618
0.099049
0.066765
0.019011
-0.016526
-0.066297
-0.103132
-0.134422
-0.144519
-0.156259
-0.140701
-0.117411
-0.086336
-0.057354
-0.024303
0.013268
0.067702
0.092337
0.116595
0.133497
0.128293
0.109322
0.060669
0.020234
-0.018920
-0.060080
-0.098363
-0.120050
-0.137250
-0.147575
-0.140260
-0.109458
-0.077984
-0.044630
-0.004451
0.041044
0.090063
0.124625
0.149397
0.161320
0.171994
0.157924
0.115740
0.053105
-0.003917
-0.058082
-0.093641
-0.133854
-0.162060
-0.172595
-0.164798
-0.150062
-0.127080
-0.069958
-0.023696
0.026404
0.068817
0.105472
0.109932
0.108406
0.092304
0.070818
0.037974
0.003117
-0.038841
-0.087938
-0.134685
-0.174261
-0.209964
-0.209496
-0.191894
-0.172485
-0.144915
-0.098456
-0.060641
-0.009858
0.029102
0.066636
0.082515
0.088614
0.090735
0.065593
0.048871
-0.003230
-0.051909
-0.104888
-0.156487
-0.198273
-0.208703
-0.218322
-0.212572
-0.183567
-0.160909
-0.131840
-0.080235
-0.043679
0.012532
0.035576
0.056666
0.075359
0.073735
0.048339
0.011902
-0.035407
-0.077527
-0.113836
-0.154595
-0.190570
-0.223788
-0.223389
-0.216414
-0.197947
-0.169715
-0.127470
-0.076847
-0.031808
0.011888
0.054710
0.083773
0.085344
0.067879
0.057323
0.028434
-0.030418
-0.073212
-0.112825
-0.145565
-0.174312
-0.205679
-0.211831
-0.211911
-0.197635
-0.170557
-0.120236
-0.073972
-0.030424
0.013670
0.039268
0.071119
0.077112
0.064877
0.046637
0.013579
-0.034799
-0.087442
-0.129244
-0.164202
-0.194858
-0.220069
-0.238790
-0.224915
-0.197970
-0.162600
-0.118544
-0.055555
-0.014097
0.030751
0.076672
0.099526
0.122230
0.140871
0.135992
0.128607
0.096378
0.059411
0.019113
-0.013990
-0.017721
-0.011403
-0.000939
0.034210
0.090935
0.152223
0.215131
0.308121
0.393925
0.475167
0.537747
0.593458
0.628190
0.649236
0.657110
0.679194
0.683341
0.676896
0.659995
0.647808
0.653092
0.625143
0.610624
0.619518
0.633131
0.633666
0.652860
0.672881
0.698366
0.695338
0.649037
0.604502
0.564736
0.499864
0.433234
0.346533
0.240812
0.153412
0.084377
0.030833
-0.007434
-0.029256
-0.047723
-0.051906
-0.044849
-0.016463
0.008515
0.040475
0.085206
0.114958
0.156551
0.191235
0.191031
0.172726
0.141415
0.104159
0.070107
0.030977
-0.015794
-0.058953
-0.107594
-0.138486
-0.153372
-0.146006
-0.117738
-0.085971
-0.057245
-0.012903
0.030101
0.072217
0.103746
0.116094
0.129796
0.126841
0.106559
0.072025
0.021768
-0.028034
-0.068730
-0.109821
-0.132849
-0.168044
-0.170311
-0.159281
-0.145203
-0.121947
-0.079840
-0.033890
0.011886
0.055507
0.089834
0.106641
0.119696
0.112683
0.081827
0.049521
0.008145
-0.032687
-0.079211
-0.117991
-0.146625
-0.165619
-0.169421
-0.158988
-0.133645
-0.106093
-0.064071
-0.007753
0.038261
0.079090
0.111889
0.142219
0.141084
0.140091
0.115737
0.082351
0.036439
-0.019249
-0.067801
-0.117446
-0.147669
-0.155901
-0.155198
-0.136415
-0.122752
-0.083411
-0.051097
-0.004482
0.046131
0.095082
0.119412
0.153975
0.158339
0.164361
0.147281
0.117163
0.082968
0.023398
-0.029163
-0.080597
-0.115051
-0.139211
-0.130413
-0.123775
-0.098670
-0.070292
-0.023890
0.026729
0.090249
0.132419
0.163626
0.188121
0.194617
0.194425
0.178454
0.139027
0.104439
0.054979
0.003120
-0.037645
-0.068078
-0.087970
-0.102620
-0.091026
-0.069436
-0.029105
0.014765
0.055868
0.101034
0.142726
0.179743
0.203358
0.223618
0.217876
0.202316
0.158960
0.126354
0.080787
0.031319
-0.009842
-0.039861
-0.054367
-0.056434
-0.052715
-0.041702
-0.001796
0.029764
0.076696
0.127320
0.183445
0.222553
0.238695
0.241165
0.237618
0.217337
0.181219
0.147405
0.098688
0.052960
0.020426
-0.026846
-0.050540
-0.059076
-0.064749
-0.045467
-0.013779
0.030832
0.075743
0.124404
0.158511
0.199784
0.222193
0.217577
0.222809
0.204082
0.163899
0.130210
0.072609
0.025374
-0.013508
-0.051968
-0.068178
-0.063158
-0.069933
-0.064443
-0.021858
0.011639
0.059597
0.109068
0.156329
0.177337
0.194108
0.202498
0.197188
0.162835
0.136370
0.088282
0.040447
-0.011445
-0.063854
-0.092414
-0.108930
-0.123965
-0.115510
-0.095836
-0.073235
-0.036778
0.004528
0.064793
0.114850
0.150206
0.168626
0.164614
0.143936
0.124086
0.090673
0.047477
-0.001079
-0.055203
-0.088184
-0.135675
-0.148413
-0.156569
-0.148966
-0.122795
-0.105093
-0.078994
-0.027875
0.016024
0.054199
0.100793
0.125585
0.132751
0.116351
0.106423
0.065552
0.028688
-0.027364
-0.074793
-0.116826
-0.153959
-0.181005
-0.187599
-0.177107
-0.152822
-0.114450
-0.082885
-0.045932
0.006700
0.054134
0.088007
0.100222
0.103966
0.102654
0.094380
0.070909
0.024553
-0.023197
-0.070371
-0.113502
-0.154032
-0.186341
-0.190539
-0.183841
-0.164930
-0.137692
-0.104401
-0.062359
-0.009861
0.044672
0.079155
0.089505
0.086603
0.091849
0.066263
0.049909
0.017167
-0.022303
-0.057578
-0.108989
-0.150477
-0.168590
-0.177721
-0.174245
-0.156051
-0.107823
-0.060756
-0.027155
0.013031
0.054657
0.091308
0.114523
0.118678
0.107867
0.084034
0.043084
0.002865
-0.033513
-0.076103
-0.116413
-0.144804
-0.167358
-0.174035
-0.163366
-0.144955
-0.115398
-0.066620
-0.027318
0.022128
0.063100
0.087539
0.098270
0.109532
0.099330
0.092401
0.057304
0.018214
-0.029484
-0.069085
-0.106643
-0.147944
-0.158876
-0.175952
-0.168786
-0.147868
-0.119680
-0.076278
-0.048576
-0.001158
0.061771
0.102897
0.121029
0.129947
0.124941
0.094282
0.063596
0.024112
-0.016664
-0.069243
-0.118011
-0.152914
-0.174291
-0.178150
-0.163249
-0.145789
-0.117795
-0.080008
-0.036991
0.013991
0.068155
0.109868
0.127126
0.120847
0.118233
0.090101
0.058049
0.008030
-0.025013
-0.071645
-0.122590
-0.153729
-0.181954
-0.182477
-0.174616
-0.154049
-0.124661
-0.076133
-0.040074
0.014387
0.056194
0.094015
0.113648
0.113957
0.101463
0.088057
0.058076
0.014823
-0.022176
-0.075900
-0.123199
-0.139376
-0.159930
-0.186224
-0.177423
-0.161346
-0.133063
-0.093613
-0.050587
-0.003233
0.049838
0.078497
0.104216
0.118587
0.101730
0.081055
0.050960
0.000505
-0.037034
-0.073192
-0.123879
-0.154039
-0.182441
-0.198851
-0.191883
-0.180558
-0.148631
-0.098591
-0.054028
-0.015567
0.032669
0.059073
0.085783
0.104667
0.102140
0.072631
0.038644
-0.005460
-0.044670
-0.081067
-0.127299
-0.156468
-0.183758
-0.199127
-0.190979
-0.175773
-0.136852
-0.084651
-0.051271
-0.007145
0.030320
0.065933
0.082179
0.098376
0.093612
0.076175
0.032354
-0.013229
-0.050924
-0.102319
-0.140960
-0.173805
-0.206813
-0.201093
-0.187335
-0.168451
-0.147037
-0.095025
-0.055589
-0.000879
0.033097
0.063251
0.094793
0.119435
0.109286
0.073574
0.023544
-0.017321
-0.055637
-0.096310
-0.132331
-0.165301
-0.194085
-0.205292
-0.191324
-0.176682
-0.144319
-0.102563
-0.047702
-0.005642
0.042606
0.064304
0.088588
0.088209
0.085908
0.068002
0.029774
-0.013571
-0.053187
-0.093885
-0.134920
-0.167070
-0.194688
-0.194881
-0.196519
-0.186527
-0.164730
-0.118782
-0.068165
-0.017684
0.022555
0.048467
0.086986
0.086359
0.088044
0.059945
0.025002
-0.010395
-0.050440
-0.094056
-0.137406
-0.168193
-0.205578
-0.216292
-0.214571
-0.194748
-0.146215
-0.103328
-0.055046
-0.026820
0.007366
0.045776
0.072356
0.082528
0.074198
0.054059
0.042839
0.009344
-0.030561
-0.088587
-0.129057
-0.159286
-0.187898
-0.196362
-0.199655
-0.192437
-0.152716
-0.101114
-0.050658
-0.001046
0.037466
0.081707
0.108959
0.116715
0.125864
0.109718
0.074309
0.024184
-0.017576
-0.057703
-0.097079
-0.135381
-0.152745
-0.155248
-0.152621
-0.145664
-0.124597
-0.079895
-0.029818
0.006278
0.051175
0.080627
0.114331
0.112528
0.097386
0.073132
0.052940
0.034823
-0.007539
-0.047503
-0.084561
-0.112350
-0.140667
-0.150304
-0.141531
-0.127160
-0.105302
-0.073091
-0.011331
0.051375
0.092619
0.122793
0.147131
0.144536
0.139686
0.113873
0.076493
0.027095
-0.014750
-0.063863
-0.110951
-0.150535
-0.160103
-0.178373
-0.182184
-0.165731
-0.124965
-0.078248
-0.039229
0.009207
0.042731
0.066772
0.100788
0.099491
0.091216
0.068997
0.039889
0.000790
-0.044071
-0.093127
-0.156471
-0.181594
-0.206523
-0.208370
-0.199003
-0.180542
-0.154645
-0.106745
-0.070789
-0.032930
0.009844
0.042378
0.059430
0.068440
0.062247
0.049677
0.015750
-0.029210
-0.088698
-0.127427
-0.170777
-0.204277
-0.236166
-0.233198
-0.225771
-0.208489
-0.182202
-0.145586
-0.091488
-0.043326
-0.001595
0.029355
0.048416
0.048471
0.054200
0.033386
0.008553
-0.039167
-0.090297
-0.144403
-0.173563
-0.189708
-0.223927
-0.241789
-0.242999
-0.208888
-0.157367
-0.132397
-0.081207
-0.042178
0.012403
0.041358
0.059018
0.067775
0.064172
0.041502
0.012531
-0.030936
-0.073211
-0.123608
-0.167647
-0.210527
-0.222306
-0.239641
-0.235088
-0.205949
-0.174206
-0.124015
-0.078882
-0.049156
-0.001648
0.031257
0.041562
0.059660
0.052772
0.025168
-0.002546
-0.045668
-0.089669
-0.139790
-0.183459
-0.221762
-0.237525
-0.243410
-0.240585
-0.217699
-0.182129
-0.127304
-0.061288
-0.011250
0.031456
0.079997
0.119161
0.149029
0.154389
0.149372
0.121909
0.101830
0.068928
0.057764
0.033153
0.024162
0.032956
0.033660
0.075276
0.138038
0.205387
0.274289
0.343915
0.421159
0.502925
0.551523
0.606331
0.648147
0.689416
0.713450
0.719491
0.708273
0.698439
0.682242
0.645754
0.609289
0.590325
0.582460
0.560611
0.551918
0.541463
0.569525
0.592272
0.562412
0.542512
0.508875
0.465344
0.427842
0.375994
0.306162
0.235043
0.174611
0.107950
0.054163
0.002614
-0.030863
-0.060919
-0.083746
-0.088055
-0.080207
-0.053565
-0.011797
0.027953
0.061925
0.102169
0.134880
0.146600
0.162235
0.154917
0.130445
0.078102
0.038615
-0.005183
-0.053097
-0.101980
-0.133013
-0.160501
-0.173464
-0.172086
-0.153379
-0.109601
-0.073621
-0.034469
0.013434
0.049078
0.078563
0.100563
0.109151
0.114160
0.093117
0.058303
0.006184
-0.033870
-0.078868
-0.126113
-0.159813
-0.175114
-0.185295
-0.181725
-0.164101
-0.122361
-0.084015
-0.042874
-0.004108
0.032625
0.061939
0.094584
0.116886
0.101918
0.083771
0.059705
0.017502
-0.010337
-0.050405
-0.105223
-0.144119
-0.167498
-0.176120
-0.161904
-0.141250
-0.118924
-0.077389
-0.030242
0.009208
0.047830
0.089094
0.121546
0.129329
0.121494
0.109208
0.074745
0.031385
-0.014500
-0.054717
-0.097959
-0.136878
-0.168034
-0.170203
-0.147838
-0.120049
-0.086974
-0.065725
-0.031538
0.031186
0.081523
0.110955
0.144024
0.147397
0.122855
0.109186
0.081391
0.042264
0.008822
-0.026627
-0.065397
-0.099655
-0.126865
-0.122373
-0.108440
-0.103313
-0.067399
-0.025146
0.018186
0.066331
0.107165
0.137218
0.157700
0.169257
0.169055
0.152887
0.129265
0.093346
0.050014
-0.005295
-0.037900
-0.076555
-0.097771
-0.098969
-0.090602
-0.076410
-0.037866
0.022324
0.059643
0.092312
0.137479
0.184389
0.209238
0.213354
0.206443
0.186630
0.147926
0.112406
0.070806
0.037049
0.004610
-0.029142
-0.059792
-0.065951
-0.052046
-0.028678
-0.006274
0.023778
0.066921
0.129438
0.170356
0.197112
0.219670
0.219881
0.210525
0.184407
0.149720
0.116254
0.075454
0.032089
-0.006496
-0.036243
-0.061955
-0.079251
-0.072479
-0.040032
-0.007881
0.032352
0.064984
0.124854
0.160102
0.195608
0.218102
0.225096
0.213620
0.195359
0.154104
0.099090
0.059218
0.026091
-0.005496
-0.057940
-0.088055
-0.101000
-0.090985
-0.065817
-0.034576
-0.011431
0.031004
0.081416
0.127821
0.155080
0.177673
0.176742
0.177916
0.161210
0.135268
0.088912
0.033088
-0.008400
-0.052760
-0.095619
-0.126376
-0.130538
-0.123419
-0.109550
-0.074806
-0.038804
-0.004974
0.041191
0.081057
0.119366
0.123042
0.121342
0.119689
0.107348
0.071005
0.039219
0.005527
-0.055435
-0.099922
-0.138646
-0.159639
-0.152513
-0.163391
-0.139873
-0.108107
-0.064979
-0.029106
0.013517
0.060050
0.076830
0.094364
0.091735
0.083820
0.074489
0.046826
0.012750
-0.031850
-0.085673
-0.112370
-0.144571
-0.166395
-0.174973
-0.175509
-0.156257
-0.129516
-0.089023
-0.042496
0.002324
0.049375
0.082441
0.106689
0.105204
0.091127
0.069202
0.044686
0.009059
-0.039261
-0.091609
-0.127314
-0.158277
-0.180359
-0.195285
-0.199900
-0.162992
-0.127374
-0.087031
-0.043660
-0.000140
0.044986
0.071854
0.093662
0.094958
0.089638
0.064096
0.039054
0.004445
-0.045432
-0.084979
-0.132194
-0.165350
-0.177601
-0.174871
-0.171738
-0.151266
-0.111703
-0.078908
-0.039531
-0.003238
0.034953
0.077885
0.106682
0.112568
0.104600
0.078454
0.054462
0.016394
-0.026415
-0.080196
-0.118828
-0.149479
-0.171638
-0.181107
-0.187657
-0.155320
-0.111066
-0.063946
-0.020792
0.022187
0.055049
0.077217
0.094239
0.110739
0.112242
0.086475
0.055842
0.021216
-0.035687
-0.075701
-0.115289
-0.144611
-0.166145
-0.178708
-0.169639
-0.146718
-0.115749
-0.062338
-0.015291
0.022844
0.052510
0.079233
0.099070
0.109431
0.135529
0.111796
0.075294
0.016348
-0.030671
-0.073578
-0.110299
-0.145767
-0.171190
-0.173885
-0.167669
-0.146534
-0.110968
-0.074411
-0.030692
0.019172
0.040736
0.076010
0.099118
0.127234
0.119219
0.084907
0.053546
0.035489
-0.011408
-0.065625
-0.104474
-0.141812
-0.161405
-0.164608
-0.163490
-0.143254
-0.109357
-0.064413
-0.024002
0.005769
0.043043
0.067127
0.091527
0.108804
0.109137
0.083449
0.060514
0.011478
-0.034302
-0.082743
-0.127490
-0.151679
-0.172424
-0.192893
-0.190962
-0.162440
-0.128571
-0.079982
-0.041539
0.005054
0.039234
0.053068
0.081352
0.098038
0.093191
0.060579
0.045908
0.003638
-0.040757
-0.092179
-0.133160
-0.157922
-0.171858
-0.175106
-0.172955
-0.158598
-0.126251
-0.080398
-0.037934
0.012157
0.057546
0.080563
0.082368
0.086014
0.086773
0.087703
0.049876
0.009732
-0.040147
-0.085899
-0.135042
-0.161296
-0.191234
-0.193864
-0.188671
-0.173698
-0.135419
-0.091890
-0.043540
0.003347
0.047951
0.073742
0.095053
0.102839
0.090221
0.072047
0.042454
-0.016934
-0.051710
-0.099839
-0.150212
-0.177662
-0.189285
-0.192255
-0.183708
-0.173205
-0.139878
-0.101633
-0.063680
-0.017509
0.027471
0.068703
0.089048
0.091417
0.085195
0.077590
0.047328
0.001916
-0.040697
-0.079602
-0.137189
-0.171698
-0.195852
-0.206249
-0.195608
-0.168085
-0.141734
-0.105022
-0.064024
-0.010917
0.030627
0.059454
0.083657
0.086873
0.085932
0.068801
0.034649
-0.008798
-0.043219
-0.095761
-0.151881
-0.162404
-0.175649
-0.196184
-0.184248
-0.154916
-0.134244
-0.095351
-0.049010
-0.002734
0.036660
0.055899
0.081470
0.087474
0.085691
0.073838
0.033659
0.000876
-0.046487
-0.093860
-0.133615
-0.164885
-0.189619
-0.195208
-0.189218
-0.178581
-0.156277
-0.118562
-0.063552
-0.007208
0.044712
0.069859
0.089790
0.101036
0.092772
0.076753
0.037796
0.014041
-0.027898
-0.079599
-0.114956
-0.149833
-0.173986
-0.181075
-0.183695
-0.166402
-0.120567
-0.071136
-0.026209
0.001307
0.048689
0.088809
0.122680
0.118921
0.110582
0.100142
0.072170
0.046243
-0.009658
-0.069017
-0.104165
-0.131329
-0.161128
-0.164088
-0.147413
-0.127452
-0.088592
-0.048768
-0.004973
0.033204
0.073995
0.100054
0.118281
0.126063
0.124936
0.108394
0.080201
0.049458
0.009837
-0.030591
-0.078589
-0.120592
-0.135412
-0.133596
-0.114606
-0.088196
-0.063579
-0.022944
0.024364
0.069878
0.091316
0.115908
0.122998
0.131077
0.123681
0.109408
0.070201
0.020922
-0.020594
-0.066003
-0.114613
-0.140317
-0.155014
-0.167371
-0.174545
-0.168427
-0.129956
-0.081285
-0.042104
0.008139
0.056629
0.086175
0.099045
0.111401
0.102991
0.079104
0.030918
-0.008791
-0.051107
-0.094960
-0.137981
-0.170155
-0.200574
-0.200865
-0.196155
-0.175112
-0.135378
-0.104179
-0.062889
-0.023954
0.022408
0.052979
0.074086
0.080232
0.072837
0.051993
0.011714
-0.032171
-0.075694
-0.116806
-0.156200
-0.191997
-0.206579
-0.214047
-0.209107
-0.192408
-0.149406
-0.110365
-0.066790
-0.023579
0.021071
0.055979
0.066240
0.076255
0.055078
0.045880
0.013429
-0.023602
-0.064126
-0.107520
-0.152082
-0.192789
-0.207078
-0.211195
-0.198403
-0.173364
-0.149109
-0.118283
-0.082588
-0.042906
-0.001122
0.047613
0.060346
0.075457
0.071710
0.050202
0.006985
-0.022300
-0.072684
-0.119371
-0.162622
-0.175577
-0.188900
-0.206789
-0.206007
-0.185114
-0.149821
-0.121632
-0.077409
-0.027328
0.007950
0.035651
0.055745
0.067447
0.064547
0.034528
0.004882
-0.031359
-0.070688
-0.122648
-0.165434
-0.179947
-0.195056
-0.192590
-0.176438
-0.140686
-0.102858
-0.051474
0.007930
0.071005
0.121350
0.172656
0.198774
0.219319
0.231410
0.231508
0.212004
0.197658
0.179496
0.163503
0.153725
0.148390
0.169733
0.183426
0.232073
0.304700
0.375096
0.433987
0.512554
0.603226
0.687338
0.766737
0.814357
0.856445
0.877888
0.869793
0.839011
0.791987
0.749967
0.692330
0.629043
0.577348
0.540268
0.496687
0.444174
0.402701
0.363104
0.332618
0.346305
0.348703
0.325306
0.316319
0.315531
0.292205
0.279738
0.247799
0.210782
0.162848
0.091164
0.036733
-0.014015
-0.063392
-0.081791
-0.100342
-0.101971
-0.077406
-0.048527
-0.004387
0.036456
0.081149
0.126430
0.158859
0.170952
0.167335
0.163232
0.135247
0.110958
0.060974
0.005371
-0.037817
-0.080043
-0.117930
-0.139232
-0.146634
-0.154044
-0.142420
-0.099722
-0.058547
-0.008431
0.033528
0.070807
0.110738
0.121231
0.130753
0.118622
0.094432
0.071973
0.028811
-0.015053
-0.060089
-0.109574
-0.134709
-0.146441
-0.157475
-0.151635
-0.130407
-0.110120
-0.064428
-0.030595
0.034205
0.080735
0.115597
0.127572
0.135543
0.124685
0.098732
0.075799
0.048188
-0.002416
-0.048193
-0.099196
-0.118694
-0.147280
-0.152231
-0.144330
-0.135664
-0.103199
-0.056554
0.001761
0.055861
0.094583
0.130803
0.159653
0.153624
0.141434
0.121254
0.091801
0.051225
0.012113
-0.033071
-0.072424
-0.102091
-0.121737
-0.139096
-0.135854
-0.102709
-0.065681
-0.020536
0.028437
0.077679
0.121556
0.163787
0.178001
0.182689
0.171006
0.161086
0.141937
0.099937
0.039979
-0.001553
-0.045778
-0.077099
-0.112964
-0.113257
-0.099106
-0.071376
-0.044288
0.002247
0.053079
0.095484
0.137653
0.174567
0.187675
0.189897
0.195440
0.178171
0.158422
0.119513
0.075080
0.034078
-0.012067
-0.046893
-0.066307
-0.066456
-0.054481
-0.035782
0.004481
0.049385
0.094976
0.157905
0.192178
0.219728
0.240770
0.250225
0.242471
0.229594
0.195050
0.151133
0.102864
0.050436
0.019547
-0.018859
-0.035794
-0.049419
-0.038188
-0.015159
0.023945
0.065911
0.110169
0.154688
0.203596
0.234533
0.249350
0.250348
0.245944
0.222902
0.187714
0.137664
0.104251
0.061162
0.016803
-0.023214
-0.041115
-0.039729
-0.030954
-0.013367
0.012432
0.054373
0.095017
0.142084
0.181415
0.195278
0.223699
0.237428
0.231757
0.208190
0.176833
0.128529
0.077637
0.029899
-0.013403
-0.033541
-0.058977
-0.070079
-0.073023
-0.048311
-0.012350
0.031046
0.063913
0.104795
0.138889
0.176336
0.193392
0.187598
0.196222
0.177915
0.133766
0.088536
0.047632
-0.006965
-0.044346
-0.083781
-0.112615
-0.130308
-0.126607
-0.094255
-0.049179
-0.014170
0.017752
0.059219
0.094308
0.133619
0.147106
0.153522
0.140893
0.123871
0.085411
0.054824
0.002513
-0.048151
-0.082203
-0.109410
-0.138522
-0.144100
-0.147673
-0.128738
-0.094488
-0.043435
-0.007928
0.035834
0.077055
0.097246
0.123155
0.147532
0.149179
0.109770
0.072011
0.032831
-0.003136
-0.060382
-0.102755
-0.133223
-0.152919
-0.153780
-0.148585
-0.127939
-0.103537
-0.071405
-0.014279
0.025470
0.064623
0.098391
0.122777
0.124929
0.107919
0.084779
0.061121
0.035277
-0.008813
-0.058495
-0.099324
-0.135895
-0.157956
-0.160184
-0.154845
-0.143728
-0.098113
-0.053647
-0.008741
0.027158
0.060141
0.099681
0.120398
0.122877
0.115406
0.088210
0.059777
0.033659
-0.014128
-0.062872
-0.102053
-0.125915
-0.139559
-0.148195
-0.143658
-0.117876
-0.084384
-0.048639
-0.004653
0.043087
0.085078
0.114348
0.119652
0.124576
0.112911
0.085452
0.038273
0.001756
-0.039237
-0.066305
-0.097826
-0.132027
-0.152275
-0.155109
-0.145729
-0.123307
-0.098667
-0.056695
0.007101
0.055200
0.106125
0.150624
0.162164
0.168185
0.153726
0.129436
0.097203
0.054796
0.011698
-0.042334
-0.081624
-0.116082
-0.131693
-0.140278
-0.130830
-0.099603
-0.069263
-0.033624
0.012009
0.057557
0.108976
0.131753
0.153577
0.154321
0.144147
0.118700
0.076958
0.048041
0.008434
-0.033312
-0.078335
-0.122248
-0.144163
-0.153866
-0.150653
-0.133131
-0.098922
-0.049353
-0.006889
0.042734
0.081339
0.123114
0.128497
0.140560
0.138710
0.134024
0.100047
0.055749
0.003752
-0.039269
-0.086945
-0.123993
-0.164183
-0.171319
-0.136684
-0.117852
-0.085219
-0.060522
-0.013421
0.030932
0.083955
0.124584
0.143485
0.147052
0.125436
0.107655
0.086508
0.046654
-0.007764
-0.056433
-0.094237
-0.125979
-0.145052
-0.154779
-0.147843
-0.135348
-0.096148
-0.065474
-0.022112
0.023428
0.073903
0.106552
0.128719
0.131043
0.113039
0.102623
0.074640
0.034415
-0.007990
-0.061206
-0.102596
-0.127736
-0.153022
-0.162750
-0.155555
-0.149814
-0.114143
-0.064431
0.003533
0.056957
0.096296
0.121306
0.137137
0.145132
0.131773
0.111355
0.070148
0.028251
-0.020446
-0.058993
-0.109761
-0.130621
-0.153026
-0.175530
-0.157783
-0.129803
-0.099905
-0.048220
-0.002462
0.041363
0.077096
0.101967
0.123450
0.136193
0.121461
0.105383
0.064977
0.032115
-0.022555
-0.066272
-0.102898
-0.141697
-0.157040
-0.168588
-0.151106
-0.142397
-0.104037
-0.059998
-0.010995
0.030778
0.071407
0.104164
0.123664
0.139606
0.121063
0.094393
0.058300
0.020412
-0.018570
-0.072040
-0.120838
-0.149878
-0.170863
-0.182902
-0.167804
-0.146000
-0.101208
-0.061913
-0.031646
0.015803
0.064241
0.100569
0.133530
0.135199
0.121450
0.098296
0.058001
0.022703
-0.014187
-0.065254
-0.114904
-0.143216
-0.171304
-0.176886
-0.159199
-0.134528
-0.109661
-0.071900
-0.037213
0.019697
0.074991
0.105859
0.116773
0.123920
0.116482
0.102170
0.064879
0.021980
-0.020554
-0.067763
-0.105393
-0.146149
-0.174433
-0.173390
-0.152739
-0.135108
-0.103952
-0.063262
-0.023223
0.026056
0.069694
0.101185
0.132481
0.146607
0.142816
0.109624
0.085555
0.045518
0.003815
-0.053069
-0.089932
-0.117597
-0.121580
-0.125678
-0.112675
-0.094289
-0.058478
-0.023772
0.025450
0.070983
0.110777
0.140878
0.170109
0.170303
0.156078
0.139171
0.113068
0.069122
0.017159
-0.021686
-0.062364
-0.101588
-0.139936
-0.150401
-0.131426
-0.117116
-0.086897
-0.037237
0.011741
0.074955
0.128192
0.168659
0.191023
0.200682
0.174543
0.155686
0.124800
0.090132
0.040057
0.009714
-0.031297
-0.075518
-0.101430
-0.107239
-0.109044
-0.099860
-0.080458
-0.027005
0.023121
0.067184
0.107104
0.139795
0.148926
0.154862
0.144567
0.111915
0.080683
0.047663
0.000986
-0.038973
-0.075314
-0.097372
-0.122024
-0.139361
-0.144886
-0.120637
-0.092142
-0.067984
-0.032766
0.023383
0.068402
0.098685
0.131171
0.138580
0.133196
0.114255
0.066029
0.005984
-0.031071
-0.067092
-0.103275
-0.142157
-0.167148
-0.179718
-0.165031
-0.148079
-0.124041
-0.083261
-0.040692
0.013270
0.051456
0.086214
0.102950
0.107018
0.101405
0.075260
0.039056
0.015633
-0.024763
-0.074080
-0.117904
-0.155778
-0.182070
-0.191429
-0.177074
-0.154537
-0.118104
-0.074838
-0.036051
0.006624
0.043610
0.084945
0.102252
0.110231
0.098804
0.076433
0.048464
0.012076
-0.034564
-0.070734
-0.111051
-0.150266
-0.160885
-0.177108
-0.167139
-0.156945
-0.119956
-0.083944
-0.035205
0.011310
0.045886
0.081725
0.099369
0.108996
0.099768
0.069354
0.042796
0.011299
-0.036059
-0.092483
-0.129960
-0.152824
-0.178873
-0.190811
-0.180535
-0.150176
-0.118301
-0.083620
-0.044804
0.005007
0.035337
0.062776
0.091196
0.098759
0.098943
0.075573
0.053053
0.019676
-0.020972
-0.049174
-0.084805
-0.108878
-0.116161
-0.103734
-0.068660
-0.026535
0.023319
0.078991
0.123819
0.187484
0.255268
0.310160
0.355918
0.389981
0.414679
0.414296
0.415481
0.413706
0.399722
0.385585
0.379836
0.374205
0.387202
0.416524
0.484635
0.563285
0.631359
0.696594
0.780138
0.842299
0.877506
0.909512
0.936313
0.927548
0.901238
0.842869
0.791106
0.721360
0.614056
0.489335
0.386458
0.282572
0.226976
0.175140
0.123951
0.102977
0.103406
0.128849
0.161324
0.190297
0.237827
0.261102
0.271750
0.276648
0.253304
0.216809
0.180958
0.138825
0.080724
0.040395
-0.010694
-0.045937
-0.070356
-0.079570
-0.078774
-0.058882
-0.038704
0.001358
0.044597
0.084368
0.113061
0.144692
0.157196
0.167135
0.161552
0.133659
0.114054
0.064869
0.009259
-0.039316
-0.080476
-0.106088
-0.116433
-0.127089
-0.122085
-0.087801
-0.064032
-0.028286
0.015268
0.042056
0.088530
0.128330
0.144875
0.149140
0.144606
0.116850
0.090246
0.039295
-0.001992
-0.050550
-0.083247
-0.113423
-0.123816
-0.122982
-0.117398
-0.091831
-0.065898
-0.036550
0.015973
0.062545
0.094735
0.128993
0.151618
0.167188
0.158502
0.138202
0.099487
0.047072
0.002735
-0.041326
-0.077270
-0.104844
-0.133086
-0.141252
-0.131987
-0.095166
-0.053117
-0.016603
0.033758
0.072830
0.113801
0.150586
0.175098
0.182832
0.168937
0.153911
0.122220
0.080983
0.036746
-0.015566
-0.059468
-0.059350
-0.079974
-0.086932
-0.076764
-0.056171
-0.036021
0.003032
0.052853
0.118129
0.166505
0.189939
0.221848
0.237596
0.225341
0.191199
0.147526
0.106179
0.060641
0.043020
-0.009674
-0.048363
-0.067356
-0.080671
-0.053070
-0.035395
-0.001724
0.050357
0.091302
0.143426
0.188176
0.210780
0.232190
0.238141
0.241672
0.219929
0.190203
0.148222
0.109498
0.058544
0.010740
-0.015139
-0.040774
-0.038563
-0.035647
-0.013173
0.030565
0.070491
0.128582
0.174474
0.210874
0.243954
0.261698
0.267810
0.263131
0.239996
0.192035
0.164369
0.130182
0.082405
0.042319
0.000143
-0.030152
-0.032959
-0.018064
0.003543
0.037148
0.088610
0.132434
0.167114
0.207719
0.234653
0.262407
0.268865
0.259913
0.239248
0.214851
0.168909
0.118804
0.068955
0.019908
-0.012485
-0.027988
-0.041084
-0.028813
-0.003196
0.030460
0.054804
0.101976
0.145090
0.184014
0.215564
0.236084
0.242390
0.234195
0.208863
0.175028
0.141507
0.092008
0.044155
-0.008637
-0.044246
-0.070036
-0.080046
-0.071912
-0.053860
-0.030832
0.023500
0.068330
0.114891
0.154505
0.188363
0.204174
0.206750
0.188004
0.160540
0.121758
0.091128
0.046480
-0.007743
-0.050133
-0.078049
-0.101270
-0.110818
-0.102215
-0.078074
-0.035421
0.001937
0.048131
0.082654
0.118617
0.143131
0.155525
0.150329
0.146772
0.127707
0.088311
0.042809
-0.005735
-0.059759
-0.100007
-0.132657
-0.166274
-0.170844
-0.145709
-0.114425
-0.075450
-0.038246
0.001811
0.047938
0.085253
0.120865
0.149925
0.153036
0.135893
0.115984
0.073469
0.045356
-0.001524
-0.054084
-0.091409
-0.115327
-0.142082
-0.149763
-0.139998
-0.126932
-0.089903
-0.048978
-0.006817
0.040037
0.076057
0.098891
0.122411
0.132993
0.125830
0.106337
0.072809
0.032755
-0.018679
-0.063151
-0.093182
-0.118654
-0.138517
-0.145699
-0.130940
-0.122039
-0.088159
-0.050768
0.000893
0.054847
0.097624
0.126272
0.126225
0.143758
0.138356
0.109375
0.064112
0.033938
-0.012662
-0.058206
-0.085727
-0.121129
-0.151948
-0.162175
-0.151427
-0.129611
-0.082302
-0.043447
0.004716
0.037963
0.080444
0.116720
0.140151
0.142845
0.137563
0.124957
0.093780
0.059212
0.007187
-0.048696
-0.083535
-0.124003
-0.139507
-0.134743
-0.135502
-0.120595
-0.083894
-0.054940
-0.009219
0.049683
0.081698
0.119368
0.138316
0.139542
0.141503
0.131575
0.087858
0.046626
-0.002737
-0.042306
-0.077806
-0.120504
-0.137168
-0.141030
-0.136072
-0.115783
-0.089968
-0.047270
-0.010162
0.043493
0.083208
0.127481
0.147801
0.150310
0.141755
0.126907
0.087931
0.042118
0.002497
-0.043965
-0.077853
-0.106485
-0.130025
-0.146801
-0.150797
-0.143004
-0.094484
-0.055686
-0.005186
0.041057
0.091480
0.133608
0.149846
0.145089
0.155796
0.131687
0.077247
0.031435
-0.019605
-0.060935
-0.100075
-0.138478
-0.148058
-0.152722
-0.146151
-0.133366
-0.099626
-0.054986
-0.006784
0.044159
0.082407
0.103818
0.134261
0.142285
0.122227
0.102721
0.072038
0.020288
-0.019929
-0.061515
-0.096585
-0.135324
-0.158345
-0.166909
-0.158307
-0.132699
-0.089271
-0.049181
-0.010495
0.027050
0.064752
0.103517
0.122778
0.123033
0.118733
0.092792
0.059209
0.007283
-0.030489
-0.082185
-0.119315
-0.157966
-0.174444
-0.178946
-0.158582
-0.126376
-0.098477
-0.053179
0.003998
0.050551
0.086521
0.122707
0.136383
0.146219
0.132090
0.105366
0.063763
0.007455
-0.033108
-0.079274
-0.123781
-0.158773
-0.179292
-0.187767
-0.179472
-0.153880
-0.113126
-0.065088
-0.018587
0.023570
0.055455
0.086640
0.111337
0.126806
0.116412
0.101868
0.062232
0.009540
-0.030989
-0.071763
-0.116309
-0.144992
-0.171607
-0.174570
-0.179469
-0.154859
-0.120971
-0.077461
-0.022511
0.027368
0.063390
0.096820
0.116846
0.127941
0.118138
0.103001
0.062704
0.009691
-0.048156
-0.068636
-0.122788
-0.159019
-0.174317
-0.191066
-0.182900
-0.161131
-0.127971
-0.087871
-0.043735
0.000384
0.057606
0.077440
0.101451
0.112360
0.108716
0.086734
0.051592
0.004265
-0.027077
-0.081655
-0.117986
-0.158220
-0.174726
-0.183011
-0.173392
-0.152684
-0.114434
-0.074116
-0.015982
0.018380
0.051824
0.079560
0.103899
0.099802
0.104157
0.095395
0.060253
0.007086
-0.038826
-0.074730
-0.116982
-0.153455
-0.171221
-0.179321
-0.164871
-0.144476
-0.106934
-0.050408
0.000004
0.032514
0.072952
0.107790
0.127450
0.140819
0.132391
0.113255
0.079522
0.034750
-0.006586
-0.051425
-0.091214
-0.115081
-0.140879
