-0.077776
-0.035130
-0.005560
0.019023
0.032744
0.030868
0.023354
0.003606
-0.035922
-0.099709
-0.134559
-0.180250
-0.233149
-0.246969
-0.250359
-0.254491
-0.233749
-0.222598
-0.210250
-0.188679
-0.127950
-0.097375
-0.060012
-0.012120
0.002367
0.017941
-0.000598
-0.038247
-0.078611
-0.116255
-0.156698
-0.177719
-0.230409
-0.251109
-0.255342
-0.259338
-0.272532
-0.244380
-0.213674
-0.167717
-0.141183
-0.103183
-0.056495
-0.019975
-0.007497
-0.005960
-0.015789
-0.033630
-0.060768
-0.090914
-0.127183
-0.171489
-0.218175
-0.229525
-0.240279
-0.246334
-0.254269
-0.236231
-0.206953
-0.166662
-0.130115
-0.092283
-0.066939
-0.026582
0.013135
0.015003
0.013941
-0.016990
-0.046110
-0.072414
-0.109879
-0.150858
-0.187253
-0.232401
-0.236282
-0.234802
-0.236373
-0.217811
-0.191579
-0.155180
-0.100896
-0.065232
-0.044713
0.004371
0.032909
0.034219
0.025023
0.007564
-0.017695
-0.056619
-0.085607
-0.122565
-0.169946
-0.219181
-0.233217
-0.230724
-0.222563
-0.198734
-0.175900
-0.133939
-0.070447
-0.028805
0.006480
0.030565
0.047414
0.066109
0.070781
0.041210
0.016515
-0.032009
-0.083095
-0.120808
-0.158616
-0.179194
-0.197971
-0.202853
-0.195835
-0.185231
-0.158921
-0.111760
-0.067322
-0.042860
-0.003518
0.050321
0.073022
0.084657
0.084121
0.073160
0.052356
-0.001510
-0.066541
-0.104386
-0.131056
-0.156367
-0.178246
-0.188957
-0.183737
-0.160296
-0.139012
-0.097747
-0.048080
-0.005414
0.018121
0.043968
0.058860
0.066956
0.054570
0.045827
0.014919
-0.020976
-0.066827
-0.116274
-0.165932
-0.209994
-0.219634
-0.219026
-0.205023
-0.176775
-0.151538
-0.120563
-0.073811
-0.027463
0.010934
0.034993
0.060359
0.074056
0.070438
0.037751
0.013578
-0.029422
-0.079368
-0.134995
-0.179508
-0.218076
-0.237150
-0.231949
-0.235618
-0.212385
-0.189580
-0.155657
-0.112317
-0.068165
-0.030456
0.014076
0.055886
0.059806
0.046572
0.001315
-0.042084
-0.064338
-0.089318
-0.125500
-0.180398
-0.222742
-0.252397
-0.268870
-0.255925
-0.236049
-0.215388
-0.183695
-0.126531
-0.083321
-0.055965
-0.024368
-0.000197
0.002664
0.019409
-0.005479
-0.063675
-0.090963
-0.138596
-0.185259
-0.221359
-0.259097
-0.303508
-0.302741
-0.296616
-0.251015
-0.240614
-0.203321
-0.154049
-0.109846
-0.072378
-0.038212
-0.015368
-0.014495
-0.018946
-0.051700
-0.079367
-0.116548
-0.159560
-0.200429
-0.236354
-0.260045
-0.286813
-0.301113
-0.305099
-0.279549
-0.245390
-0.205645
-0.162249
-0.118750
-0.076589
-0.040048
-0.026213
-0.023662
-0.027103
-0.047394
-0.078975
-0.113845
-0.164977
-0.211514
-0.260668
-0.288134
-0.297268
-0.302141
-0.301548
-0.279099
-0.241000
-0.198856
-0.151920
-0.122194
-0.072399
-0.046908
-0.049894
-0.015536
0.001058
-0.020884
-0.059059
-0.118095
-0.159307
-0.212216
-0.250569
-0.256198
-0.283318
-0.303348
-0.299691
-0.271672
-0.239124
-0.197706
-0.158103
-0.101074
-0.061778
-0.031083
-0.008808
0.002982
-0.013260
-0.028714
-0.044388
-0.087360
-0.143610
-0.192441
-0.231719
-0.262918
-0.279595
-0.298195
-0.288751
-0.263166
-0.220510
-0.181452
-0.137306
-0.098508
-0.066764
-0.032787
-0.004159
0.008171
-0.006009
-0.035008
-0.069515
-0.117153
-0.153463
-0.194009
-0.235419
-0.273681
-0.291731
-0.296914
-0.287058
-0.272766
-0.239665
-0.195777
-0.135919
-0.111887
-0.060142
-0.022216
-0.016222
-0.006997
-0.004971
-0.042808
-0.067074
-0.109553
-0.151587
-0.202198
-0.233598
-0.276884
-0.288448
-0.288954
-0.288523
-0.264682
-0.242823
-0.207930
-0.160653
-0.110900
-0.073191
-0.049688
-0.020911
-0.009411
-0.024188
-0.054260
-0.078013
-0.114812
-0.170801
-0.210571
-0.270500
-0.284452
-0.307704
-0.308045
-0.292507
-0.265351
-0.227923
-0.198029
-0.158641
-0.107653
-0.066901
-0.052714
-0.028304
-0.011268
-0.019639
-0.041761
-0.076951
-0.120186
-0.167041
-0.211930
-0.249136
-0.295367
-0.307265
-0.310721
-0.307714
-0.290563
-0.252317
-0.198824
-0.167415
-0.121626
-0.090686
-0.045161
-0.033394
-0.024330
-0.033615
-0.067821
-0.102008
-0.131497
-0.169966
-0.210950
-0.250273
-0.278245
-0.309986
-0.340232
-0.317454
-0.278583
-0.244632
-0.199053
-0.158241
-0.121044
-0.079070
-0.040425
-0.023187
-0.040045
-0.032721
-0.062649
-0.095888
-0.140653
-0.175158
-0.227829
-0.264466
-0.307842
-0.313511
-0.310542
-0.305778
-0.280798
-0.257662
-0.211908
-0.171789
-0.140805
-0.089108
-0.058332
-0.034287
-0.029645
-0.037157
-0.071202
-0.079896
-0.112952
-0.174729
-0.220608
-0.243521
-0.285854
-0.321653
-0.335177
-0.314095
-0.285725
-0.247075
-0.204430
-0.167495
-0.132337
-0.089263
-0.055794
-0.034420
-0.021910
-0.024186
-0.063846
-0.099110
-0.133462
-0.178941
-0.200913
-0.242384
-0.267617
-0.289976
-0.301375
-0.293673
-0.264293
-0.231905
-0.188783
-0.143576
-0.105387
-0.067969
-0.039834
-0.016442
-0.003659
-0.011169
-0.050936
-0.068694
-0.096890
-0.130711
-0.163286
-0.203253
-0.241160
-0.257594
-0.257897
-0.260039
-0.234510
-0.206546
-0.175291
-0.138106
-0.096339
-0.053345
-0.023819
-0.004592
-0.007782
0.001524
-0.020391
-0.055029
-0.107239
-0.142309
-0.185565
-0.231202
-0.261645
-0.255208
-0.245410
-0.250414
-0.219182
-0.181916
-0.144178
-0.096881
-0.067654
-0.027237
-0.002636
0.025402
0.028292
0.017273
-0.008157
-0.034300
-0.080212
-0.120112
-0.178473
-0.232555
-0.278736
-0.266399
-0.266815
-0.263396
-0.252374
-0.210658
-0.178446
-0.155486
-0.111551
-0.066726
-0.030685
-0.008320
0.001922
-0.010078
-0.046713
-0.077018
-0.111057
-0.164527
-0.217315
-0.258209
-0.283762
-0.295380
-0.308795
-0.303466
-0.289819
-0.258872
-0.221887
-0.175621
-0.123833
-0.088301
-0.061712
-0.046926
-0.035949
-0.044894
-0.078133
-0.107940
-0.147433
-0.188418
-0.242106
-0.280214
-0.317982
-0.349183
-0.355825
-0.355201
-0.323343
-0.290905
-0.232484
-0.185479
-0.137166
-0.091234
-0.063772
-0.059133
-0.067028
-0.057582
-0.078061
-0.120805
-0.157098
-0.186825
-0.235817
-0.271251
-0.314018
-0.333486
-0.347677
-0.344189
-0.302548
-0.277889
-0.238571
-0.192849
-0.141201
-0.113167
-0.089916
-0.067334
-0.053751
-0.068244
-0.085956
-0.116166
-0.159728
-0.201900
-0.247968
-0.282616
-0.320168
-0.335663
-0.335549
-0.333971
-0.314116
-0.289867
-0.240774
-0.189800
-0.146203
-0.107027
-0.070017
-0.051205
-0.052321
-0.062237
-0.064595
-0.105438
-0.143760
-0.191732
-0.241113
-0.291250
-0.321759
-0.354229
-0.347400
-0.353237
-0.322375
-0.285005
-0.232495
-0.176625
-0.102422
-0.057522
-0.026912
-0.001483
0.013749
0.013517
0.015691
0.003937
-0.019960
-0.055936
-0.091137
-0.119893
-0.133024
-0.136401
-0.111079
-0.077179
-0.014365
0.064291
0.142843
0.229477
0.318399
0.386433
0.432511
0.489454
0.520504
0.557787
0.586775
0.595373
0.577930
0.549659
0.540192
0.534906
0.518956
0.481459
0.464415
0.475991
0.474849
0.481950
0.512371
0.531046
0.541416
0.530248
0.488375
0.432391
0.373111
0.328348
0.256523
0.180080
0.090889
0.023580
-0.027142
-0.050381
-0.084448
-0.115914
-0.144508
-0.149871
-0.135108
-0.113700
-0.085336
-0.066032
-0.032148
0.015233
0.037540
0.046249
0.045062
0.036721
0.011472
-0.027293
-0.071597
-0.116653
-0.160982
-0.210949
-0.248452
-0.266666
-0.265911
-0.271902
-0.246293
-0.210198
-0.176398
-0.130597
-0.087036
-0.060539
-0.037720
-0.010044
-0.009946
-0.005174
-0.027608
-0.056153
-0.098636
-0.149310
-0.192562
-0.224274
-0.261441
-0.280382
-0.277092
-0.267761
-0.252786
-0.232476
-0.186552
-0.136043
-0.097309
-0.056877
-0.017800
0.000873
0.005001
-0.006364
-0.031944
-0.071513
-0.108037
-0.150959
-0.192631
-0.222671
-0.268504
-0.275612
-0.263524
-0.269147
-0.256832
-0.231868
-0.185126
-0.135759
-0.095346
-0.036246
-0.011473
0.006743
0.021864
0.019138
-0.010762
-0.040898
-0.084106
-0.119259
-0.173572
-0.218646
-0.248041
-0.274768
-0.272565
-0.253047
-0.216346
-0.193947
-0.158297
-0.120352
-0.070548
-0.035826
-0.027707
-0.001066
0.033215
0.021131
-0.007608
-0.020981
-0.052164
-0.087820
-0.145484
-0.185632
-0.215205
-0.233685
-0.250181
-0.235370
-0.203136
-0.174561
-0.129461
-0.093843
-0.038196
0.000993
0.030169
0.051881
0.075706
0.064075
0.043582
0.011226
-0.023772
-0.079170
-0.130501
-0.163134
-0.197241
-0.232694
-0.232984
-0.203356
-0.176126
-0.150690
-0.114499
-0.071981
-0.018269
0.026488
0.063248
0.080821
0.089366
0.072258
0.049885
0.026164
-0.008881
-0.067885
-0.109096
-0.148108
-0.171128
-0.177415
-0.176859
-0.180946
-0.159880
-0.124989
-0.086758
-0.054042
0.003391
0.045231
0.082358
0.091194
0.105752
0.098504
0.076360
0.037000
0.005922
-0.048776
-0.088358
-0.128508
-0.165993
-0.182614
-0.185453
-0.171311
-0.155370
-0.132364
-0.090659
-0.064786
-0.029605
0.017598
0.045631
0.063073
0.092471
0.091715
0.056328
0.014204
-0.019920
-0.064791
-0.117303
-0.163778
-0.196313
-0.212893
-0.224878
-0.201454
-0.180621
-0.152679
-0.121382
-0.086804
-0.050877
0.001038
0.032944
0.051842
0.071239
0.079366
0.059925
0.025648
-0.030060
-0.079339
-0.137453
-0.182764
-0.215421
-0.225410
-0.239628
-0.237825
-0.215401
-0.214700
-0.176887
-0.109226
-0.061961
-0.040115
-0.010806
0.014700
0.026617
0.032977
-0.006319
-0.037371
-0.075425
-0.105718
-0.152422
-0.194126
-0.235942
-0.265531
-0.269443
-0.255223
-0.239939
-0.212453
-0.180206
-0.143194
-0.099282
-0.055021
-0.033342
0.003276
-0.000934
0.002293
-0.014498
-0.041164
-0.088251
-0.139696
-0.173186
-0.218081
-0.249137
-0.279879
-0.296758
-0.288400
-0.271700
-0.243885
-0.196535
-0.149903
-0.100643
-0.056800
-0.021828
-0.005978
-0.002098
-0.005871
-0.019456
-0.045385
-0.088746
-0.131730
-0.180516
-0.236865
-0.272539
-0.293386
-0.302543
-0.281974
-0.269133
-0.248289
-0.218558
-0.165400
-0.100590
-0.059880
-0.016536
0.009845
0.013896
0.017434
-0.010755
-0.040571
-0.077528
-0.125378
-0.177296
-0.225112
-0.265833
-0.283362
-0.289768
-0.276928
-0.265773
-0.240935
-0.194505
-0.144847
-0.068731
-0.042232
-0.010013
0.008858
0.029239
0.020004
-0.004834
-0.043010
-0.076224
-0.122946
-0.170791
-0.208740
-0.257970
-0.279911
-0.271466
-0.265325
-0.251106
-0.214779
-0.165932
-0.123399
-0.082535
-0.045661
-0.008381
0.024453
0.026692
0.019585
-0.012879
-0.040951
-0.081185
-0.131358
-0.168608
-0.203691
-0.238341
-0.273089
-0.277206
-0.260900
-0.241319
-0.207362
-0.167739
-0.126469
-0.077268
-0.043033
-0.017753
0.004708
0.013618
-0.000680
-0.026732
-0.058181
-0.089902
-0.143425
-0.190874
-0.208140
-0.242097
-0.260150
-0.261032
-0.250113
-0.224303
-0.207782
-0.169738
-0.116976
-0.078751
-0.054525
-0.028190
0.004506
0.035140
0.016190
-0.012667
-0.025212
-0.068323
-0.121687
-0.159941
-0.209691
-0.250391
-0.270013
-0.267256
-0.262375
-0.241668
-0.207709
-0.174080
-0.115160
-0.077098
-0.044881
-0.016464
0.011856
0.013627
-0.005659
-0.017635
-0.058335
-0.102220
-0.139776
-0.182821
-0.215538
-0.233553
-0.256820
-0.249803
-0.233411
-0.206661
-0.188681
-0.169051
-0.131458
-0.091753
-0.059209
-0.023382
0.003440
0.021094
0.008197
-0.007134
-0.047615
-0.096562
-0.150557
-0.182673
-0.218706
-0.254515
-0.275193
-0.276782
-0.270971
-0.244464
-0.214325
-0.168343
-0.126883
-0.095074
-0.048537
-0.011290
-0.004438
-0.001343
-0.016223
-0.051750
-0.068759
-0.109790
-0.135925
-0.184370
-0.221593
-0.259779
-0.288402
-0.294408
-0.261285
-0.249103
-0.219478
-0.184757
-0.139611
-0.091931
-0.047161
-0.016833
-0.006498
0.013309
-0.001213
-0.023492
-0.055269
-0.094904
-0.132776
-0.178922
-0.218344
-0.252746
-0.270744
-0.280712
-0.279097
-0.260431
-0.225829
-0.170226
-0.123029
-0.083331
-0.036485
-0.006991
0.006880
0.027634
0.022052
0.008738
-0.021414
-0.056994
-0.105979
-0.153936
-0.187732
-0.223425
-0.241205
-0.255081
-0.249815
-0.228057
-0.187777
-0.132014
-0.095908
-0.065791
-0.024777
0.017041
0.038770
0.044535
0.033680
0.012803
-0.012269
-0.041847
-0.087854
-0.131130
-0.172992
-0.203845
-0.230720
-0.230517
-0.224042
-0.216555
-0.189598
-0.150450
-0.106619
-0.059220
-0.038986
0.016738
0.051649
0.062779
0.044159
0.010900
0.013498
-0.014821
-0.046565
-0.113111
-0.153896
-0.189325
-0.204670
-0.213300
-0.215499
-0.208811
-0.186898
-0.138701
-0.103646
-0.049904
-0.017530
0.007081
0.024545
0.018180
0.014441
0.006396
-0.021270
-0.062172
-0.110372
-0.158174
-0.195210
-0.223709
-0.255983
-0.269811
-0.273848
-0.244037
-0.213186
-0.170393
-0.138133
-0.104689
-0.057145
-0.017690
0.025512
0.028745
0.019133
0.002080
-0.034675
-0.079101
-0.136701
-0.177395
-0.223050
-0.270026
-0.285157
-0.298913
-0.282777
-0.264846
-0.218927
-0.180028
-0.156517
-0.106157
-0.068993
-0.040851
-0.007700
0.007209
-0.012351
-0.044749
-0.070172
-0.113068
-0.156219
-0.203804
-0.244466
-0.266192
-0.282066
-0.298529
-0.283179
-0.249178
-0.225230
-0.190694
-0.158216
-0.114946
-0.079071
-0.044140
-0.013418
-0.006863
-0.015734
-0.037307
-0.063715
-0.106915
-0.155934
-0.212474
-0.241978
-0.278861
-0.295406
-0.299399
-0.292134
-0.267769
-0.262310
-0.209728
-0.160828
-0.099449
-0.062916
-0.023663
0.005797
0.008818
-0.005343
-0.027292
-0.074005
-0.120813
-0.170647
-0.202239
-0.236238
-0.280145
-0.299815
-0.305640
-0.294675
-0.293521
-0.252141
-0.214113
-0.156886
-0.090291
-0.050346
-0.026914
-0.009355
-0.014104
-0.031653
-0.068919
-0.097515
-0.133195
-0.165955
-0.213213
-0.237918
-0.243596
-0.241789
-0.242976
-0.205333
-0.173107
-0.139077
-0.056929
-0.010640
0.034283
0.091579
0.138383
0.187685
0.218225
0.228543
0.234374
0.222401
0.210600
0.196985
0.198592
0.181881
0.181624
0.191331
0.216197
0.262453
0.318378
0.387641
0.465541
0.527817
0.611751
0.683852
0.747106
0.807133
0.813145
0.785874
0.751461
0.692701
0.656491
0.604983
0.537508
0.466909
0.371066
0.279170
0.220813
0.173518
0.131530
0.130372
0.113266
0.115234
0.132783
0.149676
0.170626
0.190596
0.196223
0.165860
0.128254
0.095091
0.027348
-0.022471
-0.052349
-0.098760
-0.140551
-0.180336
-0.193229
-0.165778
-0.154252
-0.133695
-0.106045
-0.062244
-0.015132
0.020180
0.037367
0.073668
0.079567
0.053474
0.040694
0.013345
-0.042720
-0.080998
-0.124902
-0.170203
-0.202787
-0.220363
-0.225775
-0.210169
-0.186778
-0.161156
-0.121506
-0.084329
-0.042581
-0.005023
0.032520
0.048238
0.064131
0.045796
0.025475
-0.003650
-0.053078
-0.083264
-0.138704
-0.180902
-0.213792
-0.226665
-0.232298
-0.230605
-0.202821
-0.169806
-0.126590
-0.089835
-0.054972
-0.022558
0.005437
0.025093
0.049548
0.040159
0.029477
-0.002906
-0.050652
-0.093169
-0.137518
-0.173898
-0.195468
-0.211108
-0.211786
-0.202564
-0.183001
-0.148643
-0.119796
-0.096494
-0.035723
0.009212
0.038677
0.066073
0.078639
0.072691
0.058562
0.024333
-0.025357
-0.060634
-0.096331
-0.125107
-0.156945
-0.180531
-0.206758
-0.209411
-0.194025
-0.138599
-0.077473
-0.037161
0.002050
0.040787
0.072110
0.090530
0.090256
0.068597
0.072307
0.042361
-0.000849
-0.041382
-0.064513
-0.106629
-0.144188
-0.176541
-0.175195
-0.156422
-0.133754
-0.105360
-0.063658
-0.031703
0.009864
0.048919
0.085205
0.109231
0.116284
0.100150
0.090703
0.074931
0.058343
0.026987
-0.016863
-0.076221
-0.111801
-0.123071
-0.135085
-0.128778
-0.122342
-0.090433
-0.039284
0.008323
0.049554
0.076786
0.104207
0.132217
0.146814
0.140532
0.121698
0.093251
0.050375
0.013806
-0.035337
-0.077927
-0.109147
-0.126954
-0.134112
-0.121567
-0.114257
-0.089510
-0.058158
-0.004486
0.048032
0.075597
0.106172
0.134355
0.155461
0.152927
0.133110
0.088677
0.065277
0.020598
-0.027478
-0.069462
-0.113438
-0.138761
-0.150254
-0.137357
-0.120215
-0.094867
-0.058394
-0.028014
0.022772
0.053217
0.090257
0.118398
0.139395
0.136187
0.092396
0.066879
0.024687
-0.032896
-0.064752
-0.094218
-0.132384
-0.148698
-0.164564
-0.153689
-0.142772
-0.112383
-0.080994
-0.042488
-0.001379
0.033371
0.064636
0.097069
0.109498
0.104928
0.097916
0.059740
0.005997
-0.038300
-0.088226
-0.141674
-0.174071
-0.194506
-0.202361
-0.184876
-0.169064
-0.140810
-0.106099
-0.069782
-0.028892
0.009669
0.049884
0.064657
0.060957
0.060801
0.036018
-0.001402
-0.029676
-0.067858
-0.116680
-0.163245
-0.189017
-0.205434
-0.223287
-0.216678
-0.206018
-0.192146
-0.129149
-0.066627
-0.023274
0.004135
0.034486
0.051949
0.058811
0.054007
0.039273
0.011606
-0.033692
-0.061906
-0.118957
-0.170587
-0.192858
-0.218441
-0.226765
-0.214377
-0.207270
-0.169892
-0.124804
-0.085285
-0.030882
0.003331
0.023645
0.047932
0.049102
0.045531
0.041117
0.008974
-0.032830
-0.075279
-0.123840
-0.163755
-0.201195
-0.218770
-0.232351
-0.210559
-0.207038
-0.167605
-0.121422
-0.078918
-0.059823
-0.014605
0.024076
0.048758
0.055146
0.054747
0.031627
-0.012616
-0.044373
-0.090272
-0.125363
-0.143925
-0.171794
-0.201200
-0.226345
-0.205342
-0.178061
-0.157819
-0.107177
-0.077877
-0.034894
0.005605
0.042698
0.056526
0.069881
0.064155
0.045683
0.012596
-0.017902
-0.055194
-0.103111
-0.160538
-0.185861
-0.199117
-0.210273
-0.196537
-0.179094
-0.150358
-0.113083
-0.070414
-0.026927
0.015180
0.051741
0.087018
0.102541
0.088745
0.069366
0.036500
-0.006771
-0.059320
-0.112968
-0.149114
-0.191443
-0.193985
-0.206134
-0.205072
-0.179387
-0.148399
-0.112864
-0.072411
-0.036547
0.010062
0.053974
0.073639
0.076337
0.052069
0.049742
0.016710
-0.015323
-0.058366
-0.096338
-0.132447
-0.164298
-0.195000
-0.199800
-0.191862
-0.179454
-0.153202
-0.110492
-0.070702
-0.037691
0.012606
0.046956
0.070273
0.071715
0.056818
0.049460
0.004375
-0.030189
-0.071500
-0.109347
-0.156865
-0.194646
-0.212132
-0.233098
-0.232599
-0.203083
-0.166730
-0.138133
-0.088953
-0.037948
0.006474
0.053162
0.074416
0.085684
0.089805
0.055245
0.024403
-0.028142
-0.069667
-0.103828
-0.154568
-0.197566
-0.209225
-0.198298
-0.191841
-0.177608
-0.144968
-0.115113
-0.076744
-0.037115
0.003782
0.032062
0.051675
0.057879
0.059249
0.043202
0.020356
-0.018502
-0.070092
-0.112260
-0.159725
-0.193463
-0.215359
-0.224303
-0.221579
-0.186436
-0.156757
-0.108934
-0.066555
-0.027335
0.011242
0.041451
0.066992
0.068304
0.059018
0.025802
-0.013028
-0.055001
-0.089947
-0.127356
-0.173052
-0.218047
-0.233188
-0.232907
-0.222980
-0.212611
-0.171100
-0.137627
-0.089890
-0.039124
0.002211
0.038532
0.057754
0.070662
0.056568
0.043191
0.013912
-0.031905
-0.084015
-0.115287
-0.166556
-0.195463
-0.214694
-0.220589
-0.221283
-0.204724
-0.175212
-0.121599
-0.072570
-0.035023
0.003255
0.025368
0.059501
0.069008
0.053553
0.042776
0.020211
-0.028724
-0.069060
-0.095366
-0.144425
-0.175934
-0.195845
-0.188951
-0.182242
-0.162454
-0.134395
-0.094311
-0.050483
-0.002001
0.036502
0.064233
0.082588
0.088675
0.072571
0.078235
0.046393
0.012428
-0.036006
-0.091391
-0.137265
-0.170935
-0.178857
-0.179716
-0.164493
-0.159311
-0.126836
-0.090119
-0.043103
0.001275
0.031624
0.074308
0.088983
0.113663
0.121101
0.098314
0.066268
0.035008
-0.016536
-0.055591
-0.112097
-0.131518
-0.150579
-0.164134
-0.146330
-0.129085
-0.105139
-0.068789
-0.033937
0.005939
0.031005
0.056132
0.086627
0.090054
0.073756
0.062924
0.018313
-0.017558
-0.042171
-0.085866
-0.138335
-0.179369
-0.208613
-0.220005
-0.197504
-0.180807
-0.147321
-0.104337
-0.071630
-0.038768
0.006827
0.040821
0.059027
0.065096
0.078257
0.053191
0.018973
-0.031524
-0.074376
-0.121137
-0.169125
-0.202284
-0.229251
-0.252929
-0.234782
-0.209275
-0.176971
-0.133054
-0.095041
-0.049813
-0.017803
0.014256
0.042195
0.051872
0.048018
0.026366
-0.005534
-0.046708
-0.094230
-0.129667
-0.174438
-0.199616
-0.223681
-0.236823
-0.236167
-0.214990
-0.175505
-0.148400
-0.113874
-0.074711
-0.021330
0.020386
0.036571
0.052751
0.041819
0.022442
-0.008773
-0.060710
-0.100446
-0.138488
-0.184591
-0.228170
-0.255276
-0.256306
-0.229143
-0.190595
-0.159251
-0.130388
-0.105900
-0.066941
-0.016240
0.013477
0.041710
0.046292
0.038583
0.026735
-0.025115
-0.068882
-0.118147
-0.151335
-0.196660
-0.218261
-0.229601
-0.224872
-0.227644
-0.218609
-0.199097
-0.162936
-0.103286
-0.060833
-0.020935
0.007956
0.030854
0.044563
0.039807
0.032094
0.006532
-0.046379
-0.089514
-0.140325
-0.162391
-0.175735
-0.190411
-0.184232
-0.162084
-0.119836
-0.078159
-0.027938
0.025716
0.074446
0.128332
0.183693
0.238374
0.248173
0.248804
0.255729
0.240414
0.250067
0.254995
0.240842
0.218668
0.219949
0.228756
0.263376
0.308068
0.361882
0.437512
0.511546
0.586457
0.660170
0.723592
0.783002
0.826582
0.839043
0.825698
0.814080
0.785805
0.705839
0.631539
0.566778
0.508973
0.441627
0.357884
0.293815
0.241135
0.199602
0.190844
0.172731
0.190755
0.191247
0.205931
0.227617
0.241130
0.237572
0.215791
0.198548
0.170860
0.120849
0.062847
0.000919
-0.045825
-0.087625
-0.131727
-0.135307
-0.118354
-0.110483
-0.077377
-0.048811
-0.014688
0.025946
0.068200
0.116122
0.143844
0.141011
0.133861
0.094158
0.042903
0.003716
-0.038485
-0.092580
-0.123091
-0.137719
-0.178544
-0.177879
-0.161400
-0.153834
-0.131386
-0.076904
-0.035369
-0.004645
0.030166
0.077865
0.091298
0.101966
0.101302
0.091726
0.063768
0.022596
-0.024418
-0.070010
-0.114599
-0.164791
-0.177459
-0.183266
-0.174485
-0.175245
-0.139747
-0.088267
-0.055056
-0.007944
0.044969
0.073416
0.101643
0.110001
0.101035
0.083893
0.059650
0.011808
-0.028112
-0.062615
-0.109484
-0.127801
-0.153567
-0.175099
-0.156814
-0.139086
-0.126262
-0.095488
-0.038200
0.001620
0.046948
0.066069
0.094262
0.118055
0.102640
0.092995
0.062325
0.024106
-0.006251
-0.038380
-0.075331
-0.105768
-0.125870
-0.142838
-0.140727
-0.131093
-0.087079
-0.054548
-0.001508
0.039761
0.070092
0.109628
0.135499
0.151381
0.160345
0.134125
0.105719
0.073655
0.018294
-0.022367
-0.059297
-0.096442
-0.123443
-0.146317
-0.127974
-0.082457
-0.038633
0.010977
0.042991
0.073474
0.114893
0.152285
0.191499
0.186782
0.178487
0.167008
0.128457
0.088276
0.038582
-0.013079
-0.068179
-0.100695
-0.123162
-0.114818
-0.102565
-0.078876
-0.029394
0.015511
0.054838
0.100058
0.140361
0.175701
0.196704
0.203551
0.190040
0.176264
0.138060
0.100457
0.049404
-0.003415
-0.051575
-0.064431
-0.069453
-0.091217
-0.093863
-0.067629
-0.036893
-0.011305
0.030522
0.070808
0.121322
0.158134
0.192770
0.211203
0.206730
0.172833
0.134580
0.110176
0.072131
0.023635
-0.024820
-0.057747
-0.090938
-0.106462
-0.089696
-0.076593
-0.041801
-0.005004
0.048514
0.096769
0.122249
0.132977
0.174370
0.177684
0.167659
0.142458
0.102487
0.058446
0.021145
-0.018555
-0.048438
-0.085969
-0.107081
-0.119203
-0.112016
-0.093325
-0.057034
-0.015828
0.034722
0.083812
0.111099
0.134458
0.158879
0.156218
0.142321
0.134455
0.106294
0.071302
0.025290
-0.022693
-0.068647
-0.108894
-0.145848
-0.170230
-0.143194
-0.097689
-0.066857
-0.053284
-0.021717
0.015163
0.056242
0.096627
0.127803
0.126359
0.113138
0.100245
0.072515
0.024020
-0.014621
-0.048368
-0.100903
-0.135371
-0.159481
-0.155017
-0.152490
-0.147472
-0.118588
-0.082355
-0.041887
0.002067
0.040079
0.065128
0.091499
0.094132
0.079187
0.054401
0.014303
-0.006908
-0.040468
-0.075032
-0.116568
-0.145917
-0.176040
-0.163461
-0.152990
-0.131985
-0.112077
-0.085802
-0.044018
0.011643
0.056121
0.087941
0.115023
0.108431
0.093379
0.060778
0.039628
0.009800
-0.031631
-0.077174
-0.110159
-0.137344
-0.168145
-0.176788
-0.177601
-0.157932
-0.099614
-0.074573
-0.036488
0.013094
0.053475
0.089407
0.109146
0.124054
0.105321
0.082793
0.054700
0.013443
-0.037229
-0.068408
-0.105653
-0.133651
-0.170561
-0.175758
-0.172259
-0.143336
-0.114115
-0.071746
-0.031194
0.012264
0.041058
0.060133
0.115733
0.123480
0.105692
0.087714
0.049455
0.026491
0.013979
-0.028259
-0.090276
-0.136706
-0.139695
-0.147995
-0.154297
-0.136126
-0.120258
-0.090838
-0.046307
0.012315
0.048838
0.093080
0.130857
0.139663
0.118050
0.108862
0.068029
0.022525
-0.010547
-0.068011
-0.112598
-0.144753
-0.157137
-0.166486
-0.154326
-0.135459
-0.116257
-0.085529
-0.020272
0.024161
0.055901
0.103447
0.119593
0.107959
0.104865
0.084167
0.058783
0.016464
-0.015591
-0.049427
-0.090481
-0.138562
-0.167401
-0.160501
-0.156336
-0.145068
-0.118470
-0.082830
-0.031347
-0.001035
0.053894
0.108052
0.120730
0.119654
0.126160
0.093958
0.073126
0.033623
-0.008431
-0.059992
-0.114990
-0.141929
-0.172502
-0.181153
-0.171101
-0.146270
-0.105862
-0.068159
-0.035411
-0.000667
0.039060
0.088180
0.110686
0.123152
0.100258
0.051313
0.035568
0.023900
-0.024996
-0.068733
-0.108825
-0.137828
-0.175912
-0.198396
-0.188656
-0.152143
-0.109376
-0.022723
-0.011134
-0.010280
0.028209
0.087274
0.125078
0.113270
0.085597
0.092272
0.041333
0.000331
-0.033534
-0.062011
-0.113612
-0.165685
-0.180412
-0.195507
-0.190959
-0.164881
-0.154922
-0.105880
-0.032805
0.018239
0.044552
0.087239
0.128372
0.143560
0.133204
0.085313
0.057223
0.018729
-0.024935
-0.068138
-0.109016
-0.143546
-0.179237
-0.208816
-0.196506
-0.164556
-0.126394
-0.093144
-0.061665
-0.010874
0.028836
0.059661
0.082589
0.101912
0.092702
0.070599
0.036994
0.001582
-0.047559
-0.098688
-0.147357
-0.152507
-0.186959
-0.187156
-0.170717
-0.162624
-0.139799
-0.103478
-0.061572
-0.026072
0.029554
0.063761
0.079520
0.081487
0.081973
0.080893
0.070183
0.049229
-0.002743
-0.079192
-0.125597
-0.160647
-0.185215
-0.184434
-0.172395
-0.147122
-0.130090
-0.110086
-0.052849
0.011388
0.071338
0.104240
0.119012
0.135954
0.135846
0.111050
0.077614
0.063876
0.018913
-0.042296
-0.084099
-0.121959
-0.164952
-0.158736
-0.166276
-0.141151
-0.099842
-0.073847
-0.019605
0.028125
0.072617
0.108844
0.149014
0.154722
0.148224
0.123933
0.090745
0.050883
-0.004527
-0.053739
-0.092555
-0.133905
-0.140990
-0.139877
-0.141640
-0.107176
-0.092135
-0.057646
0.004659
0.048757
0.098222
0.139054
0.142129
0.132648
0.128230
0.098630
0.073787
0.025294
-0.030287
-0.068632
-0.112663
-0.151415
-0.176840
-0.178931
-0.184631
-0.183174
-0.128516
-0.085133
-0.048155
-0.015150
0.024409
0.075471
0.078171
0.060611
0.047122
0.038413
0.003395
-0.006732
-0.037587
-0.082533
-0.136601
-0.199356
-0.222664
-0.205634
-0.185979
-0.155219
-0.141971
-0.120412
-0.071422
-0.024548
0.030244
0.052404
0.075532
0.077889
0.074079
0.051252
0.016582
-0.012874
-0.065696
-0.120994
-0.164722
-0.202982
-0.220842
-0.216184
-0.205860
-0.192556
-0.150137
-0.119094
-0.077005
-0.022026
-0.006547
0.012707
0.051342
0.065121
0.053045
0.046563
0.029893
-0.012869
-0.082923
-0.132631
-0.156461
-0.184968
-0.210220
-0.213402
-0.189490
-0.172786
-0.144126
-0.110768
-0.072923
-0.028255
0.014008
0.035484
0.055942
0.053867
0.050139
0.021810
-0.016966
-0.035451
-0.052050
-0.113050
-0.145116
-0.193984
-0.213664
-0.220102
-0.214413
-0.196768
-0.171020
-0.143148
-0.112039
-0.039146
0.007100
0.041019
0.065301
0.053138
0.040440
0.008659
-0.022462
-0.036327
-0.073687
-0.126275
-0.161898
-0.145022
-0.153582
-0.150911
-0.135753
-0.116964
-0.055887
0.005629
0.069325
0.130914
0.163813
0.218997
0.252763
0.290261
0.300348
0.297767
0.298201
0.292120
0.288274
0.269125
0.251544
0.251731
0.255865
0.261500
0.299970
0.345984
0.424407
0.494224
0.580297
0.645281
0.720558
0.786617
0.836736
0.838697
0.812802
0.790142
0.764813
0.727966
0.661512
0.583144
0.503367
0.433858
0.351791
0.284369
0.229680
0.191013
0.186455
0.188605
0.183395
0.172907
0.157174
0.173067
0.202150
0.204908
0.202548
0.176873
0.146720
0.113876
0.046649
0.000309
-0.045768
-0.080238
-0.092433
-0.113900
-0.114749
-0.102555
-0.074491
-0.056123
0.013256
0.050885
0.072773
0.101499
0.130139
0.120933
0.113969
0.107374
0.060063
0.017157
-0.054972
-0.090885
-0.121300
-0.144342
-0.160052
-0.145958
-0.145622
-0.143961
-0.122485
-0.079341
-0.046246
-0.009317
0.031521
0.067552
0.100955
0.099207
0.083660
0.089011
0.041330
-0.015219
-0.041780
-0.108419
-0.161335
-0.177338
-0.185670
-0.181052
-0.151549
-0.148465
-0.133704
-0.072675
-0.026565
0.027243
0.061895
0.094030
0.114639
0.117756
0.096546
0.089539
0.042213
0.006496
-0.004321
-0.054544
-0.113757
-0.147330
-0.194612
-0.175804
-0.148613
-0.133932
-0.108993
-0.072949
-0.023165
0.014341
0.054212
0.107817
0.148277
0.141827
0.131275
0.106133
0.066610
0.020761
-0.018818
-0.058080
-0.105374
-0.137799
-0.144934
-0.148193
-0.150889
-0.127316
-0.087766
-0.054492
-0.013472
0.024122
0.072625
0.111249
0.150943
0.154742
0.124486
0.110622
0.090393
0.073759
0.042153
-0.001727
-0.054356
-0.092019
-0.128241
-0.148155
-0.143989
-0.112850
-0.066864
-0.031900
0.014640
0.082233
0.121085
0.153806
0.170277
0.162499
0.156184
0.153493
0.116408
0.090163
0.024457
-0.042758
-0.064263
-0.095620
-0.114414
-0.071694
-0.073455
-0.050233
-0.028146
0.026453
0.056559
0.086187
0.152378
0.197315
0.213733
0.192947
0.177599
0.168212
0.120902
0.102966
0.047928
0.008904
-0.031992
-0.064315
-0.081976
-0.078149
-0.069839
-0.059299
-0.023559
0.009944
0.054536
0.093085
0.122439
0.145413
0.166120
0.181980
0.166606
0.140713
0.106695
0.066739
0.025959
0.005340
-0.039094
-0.085667
-0.104951
-0.117071
-0.120859
-0.082370
-0.052610
-0.009925
0.022765
0.071205
0.133142
0.169428
0.180936
0.174534
0.159575
0.139833
0.111856
0.072954
0.029723
-0.029499
-0.080883
-0.127178
-0.151106
-0.166258
-0.180163
-0.136015
-0.073353
-0.019669
0.049494
0.095811
0.104845
0.116228
0.127428
0.159535
0.149214
0.121650
0.067544
0.041375
-0.017465
-0.038097
-0.088153
-0.130528
-0.160152
-0.169699
-0.170838
-0.125858
-0.109308
-0.073390
-0.017171
0.019712
0.025667
0.053422
0.085793
0.103186
0.078487
0.056443
0.023487
-0.037391
-0.070483
-0.078268
-0.121232
-0.163395
-0.171245
-0.178595
-0.166876
-0.145582
-0.140801
-0.121511
-0.051117
0.016429
0.078245
0.095226
0.081022
0.058591
0.072944
0.085630
0.060221
0.012909
-0.046653
-0.107610
-0.151843
-0.173033
-0.188625
-0.205555
-0.224607
-0.192336
-0.125551
-0.085921
-0.040254
-0.016839
0.023847
0.046163
0.072621
0.077910
0.090924
0.082376
0.036280
-0.005219
-0.040312
-0.061423
-0.090428
-0.117556
-0.146611
-0.156753
-0.166458
-0.139173
-0.107210
-0.059788
-0.023196
0.023824
0.057218
0.085144
0.100825
0.084350
0.083698
0.074748
0.046489
0.007898
-0.038598
-0.088036
-0.122683
-0.173927
-0.203224
-0.196121
-0.163592
-0.148460
-0.116961
-0.069885
-0.033838
-0.009277
0.027222
0.069429
0.093952
0.090355
0.089876
0.085521
0.052304
0.007353
-0.050063
-0.102487
-0.130838
-0.161286
-0.198409
-0.177832
-0.176501
-0.168610
-0.142111
-0.080322
-0.027632
0.023294
0.055650
0.056086
0.084217
0.094876
0.105291
0.055239
0.038571
0.017562
-0.034834
-0.074868
-0.120308
-0.156849
-0.174854
-0.183550
-0.169695
-0.154705
-0.118018
-0.089313
-0.057005
-0.009249
0.029782
0.067151
0.081489
0.086847
0.097867
0.093831
0.056098
0.003118
-0.038713
-0.076476
-0.105478
-0.124821
-0.151002
-0.159749
-0.186625
-0.151114
-0.123895
-0.070366
-0.028782
-0.003479
0.036618
0.062684
0.071178
0.072279
0.070845
0.051019
0.029842
-0.006889
-0.046747
-0.094109
-0.119306
-0.154597
-0.186061
-0.193094
-0.194020
-0.184513
-0.146890
-0.091204
-0.057680
-0.016650
0.033568
0.077035
0.080514
0.086954
0.085648
0.051445
0.004505
-0.029154
-0.061980
-0.105015
-0.148748
-0.186380
-0.202243
-0.196274
-0.207307
-0.179530
-0.150610
-0.103508
-0.080668
-0.033552
0.007816
0.044365
0.072813
0.087170
0.083193
0.067451
0.013414
-0.018264
-0.044621
-0.108562
-0.154004
-0.176400
-0.191933
-0.212028
-0.213408
-0.187656
-0.157498
-0.120319
-0.085209
-0.012868
0.028566
0.052649
0.094470
0.098410
0.093767
0.073780
0.024592
-0.022992
-0.078086
-0.131978
-0.155809
-0.180914
-0.208204
-0.205152
-0.214061
-0.211946
-0.163707
-0.139167
-0.061625
0.000496
0.044106
0.078640
0.117116
0.110620
0.093076
0.068292
0.021295
-0.011539
-0.051896
-0.101568
-0.135963
-0.178660
-0.215151
-0.218662
-0.200120
-0.145607
-0.100698
-0.084796
-0.043944
-0.003655
0.050238
0.077717
0.119217
0.113180
0.113099
0.086414
0.044255
-0.008792
-0.053545
-0.096158
-0.136405
-0.163617
-0.187233
-0.181903
-0.183043
-0.165240
-0.135007
-0.089655
-0.038144
0.012880
0.060564
0.105360
0.136616
0.122550
0.114088
0.101914
0.058005
0.019802
-0.007136
-0.047416
-0.105391
-0.150999
-0.168894
-0.185500
-0.180531
-0.172603
-0.146161
-0.104376
-0.071709
-0.015081
0.047014
0.076976
0.052157
0.075248
0.095104
0.053144
0.014195
-0.024151
-0.064690
-0.121563
-0.160022
-0.191616
-0.227030
-0.209379
-0.198839
-0.176632
-0.152057
-0.094758
-0.068892
-0.042965
0.013107
0.055225
0.072601
0.056738
0.040143
0.032953
-0.015186
-0.069563
-0.105877
-0.144027
-0.194067
-0.229981
-0.248497
-0.266884
-0.262632
-0.241148
-0.198867
-0.154257
-0.087902
-0.051230
-0.011814
0.030980
0.045236
0.015052
0.025154
0.002256
-0.053274
-0.087575
-0.114902
-0.142890
-0.180665
-0.213177
-0.259346
-0.255005
-0.250581
-0.226103
-0.170739
-0.135183
-0.109447
-0.052978
-0.018938
0.008663
0.034580
0.027538
0.009658
-0.004705
-0.034256
-0.081369
-0.121959
-0.180681
-0.190098
-0.221068
-0.243211
-0.252798
-0.247625
-0.223074
-0.176842
-0.132800
-0.094341
-0.052815
-0.007339
0.009049
0.025523
0.032729
0.027081
-0.012489
-0.043699
-0.067088
-0.113276
-0.163144
-0.208895
-0.237558
-0.259716
-0.263711
-0.268295
-0.259888
-0.205074
-0.160860
-0.123027
-0.072509
-0.029761
-0.011514
-0.007224
0.006613
0.005821
0.015850
0.002465
-0.050891
-0.096360
-0.142700
-0.122581
-0.129967
-0.129788
-0.146282
-0.137257
-0.105305
-0.066882
-0.010036
0.066107
0.123153
0.185213
0.256024
0.305357
0.356658
0.373576
0.363845
0.355425
0.338855
0.324696
0.300934
0.311526
0.322564
0.301868
0.317959
0.373500
0.406169
0.458617
0.530111
0.606530
0.662128
0.739880
0.767727
0.799511
0.783832
0.773223
0.742273
0.689171
0.625697
0.523310
0.415464
0.313158
0.195299
0.097923
0.063148
0.013278
-0.021920
-0.015344
0.015371
0.040610
0.058499
0.091819
0.115189
0.121748
0.135191
0.110137
0.100260
0.083786
0.042375
-0.021411
-0.063266
-0.093275
-0.111900
-0.153857
-0.172848
-0.179944
-0.169879
-0.144795
-0.105889
-0.050059
-0.019476
-0.000105
0.033074
0.054904
0.069558
0.070840
0.042324
0.016634
-0.006702
-0.057152
-0.108915
-0.168540
-0.214902
-0.221285
-0.236573
-0.234861
-0.207078
-0.171882
-0.134180
-0.096471
-0.047849
-0.000351
0.045558
0.074968
0.083128
0.083581
0.058847
0.048577
0.011965
-0.047077
-0.106379
-0.156887
-0.198161
-0.229539
-0.212368
-0.202498
-0.175412
-0.147522
-0.105023
-0.057267
-0.031101
0.008439
0.035850
0.070801
0.078437
0.083330
0.054950
0.016742
-0.034106
-0.066160
-0.121899
-0.148122
-0.179407
-0.206610
-0.215114
-0.206980
-0.180190
-0.151929
-0.100552
-0.034023
0.008685
0.039394
0.074936
0.100788
0.087462
0.062193
0.067651
0.029723
-0.024168
-0.062859
-0.073771
-0.121490
-0.183807
-0.223031
-0.217273
-0.206595
-0.183033
-0.159477
-0.101912
-0.044657
0.009916
0.057784
0.114330
0.118632
0.119948
0.108711
0.073397
0.045536
0.004312
-0.040592
-0.116708
-0.156407
-0.153604
-0.159091
-0.167521
-0.171235
-0.152830
-0.117064
-0.048460
0.004893
0.044562
0.094345
0.121862
0.134422
0.125053
0.137401
0.135329
0.089633
0.041346
0.000980
-0.067642
-0.094518
-0.106646
-0.142133
-0.152187
-0.154198
-0.135327
-0.096153
-0.046763
-0.014033
0.031132
0.093361
0.142731
0.156514
0.147374
0.128978
0.110554
0.069141
0.020239
-0.015086
-0.054980
-0.109749
-0.149143
-0.160961
-0.164616
-0.154436
-0.145223
-0.117968
-0.081286
-0.036958
0.051866
0.109748
0.107375
0.122323
0.154260
0.164444
0.128422
0.091132
0.049487
-0.003509
-0.052724
-0.114103
-0.154965
-0.183059
-0.173859
-0.140241
-0.114587
-0.089789
-0.064942
-0.031853
-0.008072
0.011765
0.036452
0.076283
0.129699
0.108571
0.058846
0.015655
-0.022668
-0.056940
-0.088962
-0.103836
-0.162098
-0.221073
-0.213026
-0.172650
-0.148187
-0.126892
-0.085052
-0.023245
0.005110
0.045609
0.077927
0.103917
0.100684
0.074167
0.048485
0.025289
-0.027779
-0.065286
-0.114447
-0.168079
-0.191869
-0.221169
-0.239863
-0.271609
-0.242278
-0.184177
-0.124658
-0.103812
-0.065080
-0.026600
0.017928
0.040524
0.057852
0.045946
0.039450
0.018633
-0.014198
-0.067515
-0.103619
-0.164748
-0.222430
-0.238858
-0.224855
-0.243674
-0.236089
-0.198690
-0.134487
-0.095127
-0.069374
-0.035157
0.006445
0.053541
0.068442
0.043192
0.025164
0.011600
-0.041859
-0.098958
-0.175255
-0.218898
-0.243603
-0.218486
-0.206307
-0.227368
-0.221321
-0.186318
-0.145975
-0.118843
-0.054131
-0.017181
0.011606
0.019155
0.013464
0.024649
-0.005931
-0.028483
-0.071340
-0.109662
-0.156391
-0.182261
-0.224691
-0.243656
-0.260269
-0.210780
-0.197849
-0.172678
-0.117410
-0.097008
-0.044733
-0.009505
0.019717
0.036469
0.052313
0.039446
0.006867
-0.007245
-0.036325
-0.090258
-0.129419
-0.171850
-0.201614
-0.246647
-0.267817
-0.266306
-0.192162
-0.146939
-0.140891
-0.108145
-0.026819
0.011125
0.011093
0.047125
0.049436
0.023515
0.015257
-0.008208
-0.025636
-0.060778
-0.098017
-0.153496
-0.206788
-0.240390
-0.243820
-0.229551
-0.194573
-0.175643
-0.144676
-0.104609
-0.061335
-0.022093
0.042009
0.054424
0.057715
0.050264
0.037140
-0.005431
-0.058079
-0.096217
-0.142176
-0.196804
-0.210973
-0.212205
-0.200129
-0.219305
-0.190561
-0.157193
-0.129019
-0.105856
-0.064535
-0.025456
-0.000944
0.023822
0.058522
0.037598
0.017344
0.002793
-0.050581
-0.104978
-0.133680
-0.171651
-0.219884
-0.245576
-0.229047
-0.218955
-0.230305
-0.205959
-0.149397
-0.103860
-0.091353
-0.038404
-0.004136
0.018836
0.027356
0.018116
-0.011021
-0.031391
-0.069415
-0.123763
-0.156814
-0.174098
-0.185761
-0.212118
-0.226189
-0.245676
-0.247378
-0.233899
-0.179757
-0.127381
-0.060337
-0.014092
0.012694
0.048113
0.043117
0.042226
0.022917
-0.026085
-0.043726
-0.084851
-0.149689
-0.184967
-0.241139
-0.246677
-0.248770
-0.236640
-0.233968
-0.213560
-0.161290
-0.137125
-0.083281
-0.020446
0.014004
0.023659
0.049520
0.030901
0.000887
-0.014169
-0.035788
-0.061478
-0.118029
-0.166312
-0.219934
-0.244990
-0.237773
-0.248761
-0.230583
-0.232911
-0.129556
-0.103161
-0.099265
-0.047557
0.014924
0.034537
0.065925
0.069908
0.013026
-0.028230
-0.046511
-0.087503
-0.142103
-0.173313
-0.208933
-0.251401
-0.284463
-0.254674
-0.228685
-0.205150
-0.156072
-0.099462
-0.055480
0.004129
0.009305
0.020235
0.026929
0.044712
0.029701
0.015872
-0.024437
-0.052687
-0.100003
-0.172880
-0.217469
-0.223513
-0.230602
-0.205522
-0.164923
-0.112801
-0.097132
-0.076914
-0.004723
0.023947
0.064510
0.084116
0.102364
0.086621
0.048806
0.014424
-0.035451
-0.065730
-0.104394
-0.154902
-0.217391
-0.238368
-0.222467
-0.243373
-0.223166
-0.199709
-0.179839
-0.123709
-0.060988
-0.020043
0.017859
0.030381
0.027739
0.010866
-0.009705
-0.047643
-0.086039
-0.127960
-0.167311
-0.194093
-0.236795
-0.279775
-0.276704
-0.256957
-0.243496
-0.214265
-0.188115
-0.153271
-0.106922
-0.084884
-0.046542
-0.012629
0.001144
0.011464
-0.030619
-0.073375
-0.119139
-0.164464
-0.203918
-0.247526
-0.245348
-0.271590
-0.297560
-0.301766
-0.246644
-0.215325
-0.173283
-0.154772
-0.105184
-0.056072
-0.008767
-0.029498
-0.021569
-0.029377
-0.029644
-0.065688
-0.138684
-0.188682
-0.188790
-0.233649
-0.252392
-0.271194
-0.287262
-0.307109
-0.271420
-0.224258
-0.210250
-0.172867
-0.128328
-0.069691
-0.022615
-0.005824
-0.021792
-0.026273
-0.024935
-0.063525
-0.103858
-0.132330
-0.187534
-0.261296
-0.281667
-0.281322
-0.287274
-0.294309
-0.282099
-0.245571
-0.214802
-0.167316
-0.111574
-0.067651
-0.037279
-0.030863
-0.033069
-0.054948
-0.066033
-0.085141
-0.133765
-0.168760
-0.211440
-0.251336
-0.276819
-0.309791
-0.301606
-0.299027
-0.273267
-0.250911
-0.159329
-0.090639
-0.057927
-0.016501
0.049603
0.121528
0.151329
0.161907
0.123784
0.093385
0.081970
0.078200
0.026136
0.003928
0.015152
0.011312
0.021366
0.055797
0.107813
0.153634
0.237478
0.348417
0.447374
0.479112
0.530584
0.612381
0.644128
0.648917
0.663296
0.674146
0.700667
0.658406
0.634897
0.587083
0.522896
0.506596
0.473942
0.440467
0.454630
0.445388
0.439249
0.415075
0.393808
0.365819
0.334642
0.312395
0.268311
0.236726
0.163694
0.086176
0.031951
-0.023641
-0.080181
-0.095937
-0.148096
-0.196440
-0.213911
-0.211336
-0.178156
-0.125146
-0.099689
-0.062925
-0.027234
0.018125
0.033088
0.066149
0.085427
0.094887
0.029334
0.029530
-0.006438
-0.081868
-0.165113
-0.193981
-0.238821
-0.268498
-0.294577
-0.277980
-0.228610
-0.185879
-0.184430
-0.157755
-0.072949
-0.031475
-0.004727
0.018494
0.026054
0.000904
-0.047102
-0.049709
-0.074423
-0.094742
-0.139532
-0.193035
-0.235452
-0.260961
-0.273959
-0.257099
-0.209336
-0.174057
-0.156370
-0.104142
-0.060059
-0.019056
-0.002377
0.005565
0.044271
0.032479
-0.010856
-0.041800
-0.062186
-0.122690
-0.122159
-0.179718
-0.240946
-0.253610
-0.263799
-0.231927
-0.199587
-0.192692
-0.185959
-0.119209
-0.060861
0.004799
0.010964
0.016330
0.047602
0.038760
0.002482
-0.029600
-0.078576
-0.075512
-0.095494
-0.148207
-0.194227
-0.224152
-0.239830
-0.256879
-0.216915
-0.190187
-0.147309
-0.077606
-0.039641
-0.004616
0.012852
0.038514
0.058803
0.053577
0.045370
0.019019
-0.038940
-0.105100
-0.149544
-0.194419
-0.197173
-0.197822
-0.219050
-0.204818
-0.204317
-0.171011
-0.120926
-0.076989
-0.035884
0.035207
0.057012
0.068173
0.092345
0.095233
0.078778
0.042244
0.001639
-0.052502
-0.122683
-0.196099
-0.226267
-0.230984
-0.245958
-0.219051
-0.195178
-0.149088
-0.101625
-0.057360
0.007402
0.072833
0.107473
0.118067
0.093956
0.071754
0.022689
0.029151
-0.001733
-0.071995
-0.119222
-0.150018
-0.149719
-0.134001
-0.164951
-0.165899
-0.157565
-0.130164
-0.098560
-0.052094
0.003006
0.041637
0.069514
0.073988
0.066982
0.076799
0.045605
0.033741
-0.024212
-0.082149
-0.114730
-0.149380
-0.191676
-0.219108
-0.232017
-0.221645
-0.183314
-0.142660
-0.123270
-0.072660
-0.052240
-0.010292
0.038217
0.055051
0.045925
0.034860
0.023119
0.000042
-0.039368
-0.081709
-0.138307
-0.189651
-0.194587
-0.251028
-0.271281
-0.229386
-0.224223
-0.200904
-0.128247
-0.076627
-0.077338
-0.046707
0.003473
0.033832
0.049420
0.044499
0.013662
-0.005581
-0.044766
-0.099703
-0.141506
-0.191722
-0.223997
-0.245487
-0.263569
-0.258117
-0.241347
-0.229270
-0.219155
-0.166812
-0.101602
-0.043295
0.003534
0.015369
0.056626
0.045202
-0.015199
-0.019640
-0.045906
-0.116535
-0.173370
-0.210517
-0.254950
-0.278268
-0.315245
-0.273988
-0.227356
-0.203987
-0.126325
-0.087536
-0.051113
-0.030631
0.006119
0.017905
0.016749
-0.006498
-0.047237
-0.090446
-0.142994
-0.139861
-0.177355
-0.179634
-0.196548
-0.277682
-0.316464
-0.268572
-0.237717
-0.250649
-0.191013
-0.165867
-0.107089
-0.051847
-0.019440
-0.002159
0.029848
0.051166
0.010833
-0.023413
-0.078975
-0.149830
-0.182385
-0.223574
-0.242586
-0.263213
-0.273238
-0.262227
-0.251555
-0.227677
-0.182040
-0.118015
-0.072049
-0.048239
-0.013975
0.035188
0.043314
0.028856
0.005313
-0.031824
-0.082696
-0.149028
-0.168792
-0.209795
-0.259745
-0.274254
-0.261073
-0.260560
-0.249740
-0.230779
-0.201251
-0.154457
-0.086025
-0.002383
0.017454
0.022009
0.008215
-0.006406
0.000488
-0.028293
-0.065220
-0.113147
-0.163548
-0.194608
-0.235850
-0.222343
-0.244407
-0.264239
-0.240236
-0.191761
-0.170061
-0.129939
-0.087899
-0.039495
0.011809
0.022573
0.037920
0.006488
-0.001973
-0.015586
-0.062799
-0.126205
-0.155922
-0.170896
-0.197815
-0.263073
-0.296055
-0.268725
-0.225836
-0.197739
-0.147529
-0.120733
-0.049268
-0.031280
0.009357
0.041900
0.050143
0.034201
0.003278
-0.017284
-0.079147
-0.118198
-0.170507
-0.188430
-0.205442
-0.253556
-0.293369
-0.256063
-0.218219
-0.202494
-0.156851
-0.085759
-0.051859
-0.027724
-0.003954
0.020878
0.030571
-0.000875
-0.025967
-0.047153
-0.104101
-0.127969
-0.169662
-0.219505
-0.260579
-0.265508
-0.275737
-0.251171
-0.235731
-0.211510
-0.161903
-0.098028
-0.085439
-0.056477
-0.016414
0.023354
0.038001
0.012487
-0.000795
-0.028480
-0.084208
-0.149840
-0.186258
-0.227484
-0.261778
-0.290383
-0.290750
-0.276967
-0.254469
-0.220893
-0.164153
-0.114029
-0.049290
-0.019927
0.006493
0.012569
0.025771
0.004047
-0.050704
-0.038439
-0.032436
-0.071545
-0.132838
-0.178423
-0.210841
-0.231609
-0.241855
-0.256432
-0.251553
-0.209123
-0.179188
-0.129120
-0.066574
-0.011761
0.014020
0.034882
0.075524
0.054457
0.019114
0.005951
-0.056066
-0.101053
-0.155579
-0.219850
-0.222944
-0.218445
-0.233401
-0.251294
-0.238625
-0.183343
-0.114645
-0.071547
-0.028450
0.015801
0.039050
0.062131
0.043767
0.038292
0.040667
0.013752
-0.023315
-0.065323
-0.147217
-0.193264
-0.213411
-0.230262
-0.238082
-0.217847
-0.218029
-0.206119
-0.145023
-0.089827
-0.057087
-0.022760
0.003984
0.007567
0.012725
0.002078
-0.022391
0.035825
-0.044178
-0.124628
-0.197046
-0.206102
-0.251021
-0.287583
-0.276178
-0.252982
-0.236088
-0.209876
-0.204236
-0.147954
-0.095461
-0.045062
-0.024048
-0.004590
0.004508
-0.022517
-0.022364
-0.052003
-0.077506
-0.162256
-0.175506
-0.221338
-0.265356
-0.283453
-0.303661
-0.288794
-0.287818
-0.247250
-0.211397
-0.171165
-0.110290
-0.051932
-0.027660
-0.021313
-0.000847
-0.008085
-0.063488
-0.092550
-0.111300
-0.162704
-0.204553
-0.254221
-0.314297
-0.348321
-0.342486
-0.329091
-0.303493
-0.280680
-0.261620
-0.191984
-0.147733
-0.121309
-0.090758
-0.049576
0.026128
0.027401
-0.050093
-0.127083
-0.109469
-0.171341
-0.213365
-0.257362
-0.318040
-0.330744
-0.314425
-0.298296
-0.287452
-0.246539
-0.192091
-0.143620
-0.096751
-0.083184
-0.039656
-0.023052
-0.034599
-0.062448
-0.078279
-0.101093
-0.127324
-0.153116
-0.213370
-0.252241
-0.269886
-0.288643
-0.288500
-0.298628
-0.289201
-0.285613
-0.225882
-0.178776
-0.150138
-0.105999
-0.072970
-0.058639
-0.054602
-0.048900
-0.052246
-0.094314
-0.100524
-0.111549
-0.137628
-0.188272
-0.207946
-0.205482
-0.186133
-0.150735
-0.129227
-0.114886
-0.072470
-0.022636
0.031985
0.091841
0.183715
0.239490
0.249520
0.252897
0.264901
0.239827
0.246869
0.276817
0.267741
0.227751
0.240242
0.248290
0.245995
0.301991
0.352796
0.398866
0.480906
0.553737
0.616657
0.695555
0.708300
0.716120
0.740399
0.732942
0.689663
0.657427
0.593696
0.516099
0.407961
0.317725
0.229068
0.165346
0.102945
0.051135
0.015594
0.018660
0.007722
0.032017
0.050024
0.072174
0.128935
0.128029
0.119503
0.087488
0.054438
0.027779
-0.013098
-0.044061
-0.086722
-0.176232
-0.197802
-0.194402
-0.227051
-0.212961
-0.190237
-0.155057
-0.143104
-0.111354
-0.051433
-0.010270
0.039856
0.054037
0.045775
0.031029
0.005811
-0.006523
-0.065985
-0.114964
-0.156527
-0.230788
-0.247564
-0.244225
-0.264852
-0.268723
-0.264240
-0.220725
-0.182227
-0.134965
-0.079916
-0.030066
-0.002411
0.013528
0.000130
-0.021753
-0.041271
-0.077107
-0.097870
-0.134495
-0.188894
-0.214960
-0.243975
-0.270882
-0.284154
-0.274120
-0.236384
-0.233161
-0.193057
-0.135322
-0.087981
-0.057093
-0.035846
-0.021278
0.031390
0.032793
0.022214
-0.031293
-0.080872
-0.149253
-0.185785
-0.221067
-0.246836
-0.229326
-0.227531
-0.221946
-0.230032
-0.183007
-0.161827
-0.110400
-0.074239
-0.029589
-0.008232
0.021942
0.026624
0.020542
0.005590
-0.022986
-0.078879
-0.099898
-0.159181
-0.187581
-0.202498
-0.245028
-0.248133
-0.240595
-0.241530
-0.220892
-0.155304
-0.125686
-0.076912
-0.025709
0.024374
0.021109
0.047714
0.042923
0.043755
0.015573
-0.033137
-0.092568
-0.134136
-0.188634
-0.187000
-0.229966
-0.261103
-0.244317
-0.220069
-0.173687
-0.089132
-0.075433
-0.035208
0.042458
0.047612
0.064266
0.056203
0.038947
0.024958
-0.017959
-0.026341
-0.102953
-0.142308
-0.178844
-0.203638
-0.244861
-0.231403
-0.237902
-0.216054
-0.194285
-0.147987
-0.136268
-0.103485
0.007191
0.055359
0.071867
0.075187
0.072296
0.080641
0.030796
-0.010981
-0.089655
-0.118411
-0.148978
-0.201288
-0.223644
-0.259821
-0.243988
-0.210915
-0.180062
-0.172658
-0.113285
-0.067683
-0.024753
-0.017417
0.035385
0.038026
0.057178
0.029880
-0.018829
-0.071437
-0.114422
-0.168776
-0.200455
-0.224048
-0.220280
-0.269620
-0.246787
-0.227493
-0.190010
-0.189236
-0.116432
-0.073280
-0.042364
-0.011335
0.016394
0.067736
0.080526
0.022837
-0.026771
-0.066429
-0.106636
-0.170136
-0.241906
-0.268261
-0.297258
-0.303900
-0.283752
-0.257600
-0.220413
-0.155184
-0.138266
-0.054147
-0.028412
-0.002187
0.004877
0.036880
0.038103
0.006819
-0.052433
-0.084207
-0.136157
-0.191843
-0.240810
-0.280321
-0.289245
-0.304035
-0.276567
-0.265725
-0.224148
-0.185654
-0.134467
-0.110540
-0.058826
-0.017795
0.007319
0.015405
0.020681
-0.000104
-0.062678
-0.115481
-0.141175
-0.189629
-0.264535
-0.265461
-0.295571
-0.271871
-0.252477
-0.249293
-0.226785
-0.192276
-0.144488
-0.058562
-0.002099
0.015030
0.007251
0.027052
0.039106
0.008703
-0.036478
-0.094701
-0.139319
-0.181985
-0.211741
-0.264601
-0.297294
-0.295914
-0.298158
-0.258397
-0.223242
-0.172594
-0.096694
-0.066411
-0.065272
-0.048994
-0.020643
0.009949
0.003346
-0.004550
-0.023150
-0.040851
-0.104963
-0.163230
-0.205388
-0.250927
-0.282233
-0.294771
-0.291071
-0.242047
-0.200048
-0.165024
-0.119283
-0.094684
-0.032990
-0.020771
0.024481
0.016297
0.008613
-0.012441
-0.023677
-0.073204
-0.138926
-0.191386
-0.227865
-0.243638
-0.248244
-0.257396
-0.264953
-0.224108
-0.208041
-0.165720
-0.126490
-0.069854
-0.022464
0.009427
0.031340
0.033802
0.022854
0.026076
-0.001456
-0.049120
-0.114704
-0.166238
-0.228132
-0.236096
-0.255543
-0.250161
-0.249487
-0.275040
-0.209889
-0.167996
-0.134572
-0.086423
-0.047264
0.006772
0.026021
0.006721
-0.005063
0.008174
-0.016543
-0.051031
-0.093003
-0.143126
-0.192658
-0.243305
-0.254401
-0.295431
-0.280464
-0.259113
-0.224259
-0.164602
-0.122003
-0.058218
-0.029377
-0.023152
-0.002518
0.003124
-0.005252
-0.014446
-0.022504
-0.063414
-0.092731
-0.148941
-0.203603
-0.221782
-0.247685
-0.258846
-0.251300
-0.214923
-0.190406
-0.172452
-0.127046
-0.089834
-0.064057
0.006054
0.035614
0.024777
-0.000657
-0.024174
-0.054884
-0.100563
-0.144023
-0.183371
-0.234896
-0.258165
-0.273652
-0.264396
-0.251945
-0.252718
-0.219245
-0.192029
-0.151409
-0.111661
-0.060177
-0.050065
-0.029472
0.012461
-0.017864
-0.008443
-0.067751
-0.062351
-0.081421
-0.181574
-0.243153
-0.271996
-0.301300
-0.288956
-0.273772
-0.282670
-0.235518
-0.188632
-0.131498
-0.041286
0.000658
0.014546
0.031509
0.038481
0.031084
0.013299
-0.012175
-0.049658
-0.111841
-0.155237
-0.194364
-0.220169
-0.207025
-0.247376
-0.272979
-0.276714
-0.235511
-0.172182
-0.112155
-0.077654
-0.027360
-0.003401
0.007483
0.013604
-0.007549
-0.015485
-0.052853
-0.086213
-0.101548
-0.118394
-0.153667
-0.188989
-0.227550
-0.248881
-0.243767
-0.224377
-0.195506
-0.171150
-0.122760
-0.067026
-0.015637
0.008797
0.033885
0.041917
0.046445
0.040118
-0.010486
-0.016467
-0.064914
-0.130974
-0.164088
-0.191660
-0.225920
-0.237357
-0.243859
-0.239780
-0.218432
-0.186783
-0.114803
-0.076985
-0.050984
-0.016710
-0.011950
-0.004210
0.008902
0.018509
-0.041575
-0.102616
-0.138233
-0.181674
-0.243165
-0.268620
-0.289691
-0.305368
-0.292255
-0.320948
-0.278835
-0.224104
-0.167977
-0.112634
-0.065424
-0.044776
-0.024636
-0.017206
-0.030779
-0.034530
-0.071770
-0.112662
-0.143104
-0.203515
-0.241462
-0.277084
-0.333633
-0.347686
-0.346333
-0.340797
-0.298910
-0.254009
-0.189764
-0.144682
-0.102154
-0.062709
-0.040220
-0.032695
-0.052474
-0.048717
-0.079397
-0.114365
-0.164891
-0.233992
-0.277740
-0.284875
-0.287926
-0.296381
-0.301226
-0.310228
-0.282178
-0.251919
-0.200664
-0.146007
-0.089842
-0.060265
-0.038176
-0.043085
-0.052704
-0.048479
-0.072103
-0.141955
-0.195725
-0.234694
-0.251418
-0.258016
-0.315561
-0.327064
-0.327715
-0.309008
-0.285301
-0.210392
-0.164246
-0.145513
-0.087144
-0.039444
-0.017202
-0.011413
-0.034257
-0.049272
-0.074844
-0.142624
-0.187953
-0.228414
-0.273408
-0.297302
-0.329771
-0.330423
-0.304315
-0.258814
-0.225711
-0.189021
-0.148477
-0.093553
-0.040038
0.007258
0.058756
0.077940
0.089269
0.078812
0.051105
0.022542
-0.030302
-0.046083
-0.047633
-0.071329
-0.064643
-0.048617
-0.054912
-0.015298
0.045465
0.112258
0.199231
0.288557
0.368081
0.433602
0.480868
0.502371
0.517160
0.524144
0.540108
0.512317
0.503444
0.547544
0.527829
0.478289
0.455928
0.429897
0.424267
0.443494
0.470573
0.494487
0.500577
0.524390
0.509903
0.453006
0.411606
0.394552
0.334043
0.248036
0.150379
0.075157
-0.000960
-0.060197
-0.110537
-0.118446
-0.128458
-0.150061
-0.174067
-0.160533
-0.146935
-0.093854
-0.029525
0.008784
0.059063
0.090178
0.098440
0.077600
0.063125
0.040203
-0.000176
-0.040610
-0.087403
-0.127389
-0.190467
-0.227335
-0.249529
-0.244551
-0.237797
-0.230626
-0.210494
-0.156956
-0.130835
-0.079794
-0.041517
-0.014415
0.014782
0.016312
0.008849
-0.010236
0.003770
-0.061014
-0.137163
-0.192404
-0.232925
-0.258825
-0.291007
-0.284020
-0.285501
-0.296441
-0.248263
-0.196481
-0.135513
-0.089901
-0.043236
-0.019112
0.008827
0.022690
0.003306
-0.001454
-0.037588
-0.087679
-0.142152
-0.182130
-0.206353
-0.249095
-0.291933
-0.289734
-0.245043
-0.232415
-0.213102
-0.177368
-0.151006
-0.105954
-0.050367
-0.012724
0.002827
0.021039
-0.008236
0.006016
-0.017446
-0.056890
-0.113873
-0.147367
-0.206381
-0.244750
-0.284436
-0.290542
-0.260357
-0.225789
-0.191711
-0.162308
-0.128090
-0.091071
-0.060057
-0.033514
0.001307
0.036246
0.036133
0.005574
-0.024860
-0.050038
-0.093178
-0.137342
-0.185210
-0.208601
-0.231890
-0.254556
-0.265159
-0.261378
-0.212913
-0.175557
-0.116959
-0.068359
-0.030377
0.001054
0.039158
0.061294
0.042829
0.010863
-0.027285
-0.070067
-0.103465
-0.135952
-0.176295
-0.203368
-0.246342
-0.246932
-0.227203
-0.212034
-0.197024
-0.161541
-0.149796
-0.047479
0.002502
0.013640
0.041983
0.056663
0.062698
0.060329
0.013550
-0.034705
-0.105649
-0.148326
-0.177726
-0.194135
-0.240910
-0.269056
-0.290914
-0.256061
-0.211657
-0.160823
-0.087756
-0.083643
0.020916
0.068778
0.071244
0.047941
0.007667
-0.011114
-0.035380
-0.074668
-0.121460
-0.149091
-0.216707
-0.256403
-0.282368
-0.272284
-0.279188
-0.251302
-0.223663
-0.178880
-0.132010
-0.088185
-0.065975
-0.060820
-0.037365
-0.015696
0.029448
0.042034
0.010567
-0.055562
-0.118270
-0.161425
-0.200248
-0.239425
-0.265274
-0.270287
-0.282626
-0.261253
-0.236914
-0.183046
-0.145117
-0.088757
-0.033180
-0.021483
-0.018938
-0.011571
-0.011866
-0.016250
-0.022422
-0.105540
-0.160999
-0.183487
-0.210503
-0.245900
-0.246884
-0.259468
-0.263661
-0.246996
-0.208493
-0.162208
-0.129348
-0.087517
-0.048028
-0.037969
0.008269
-0.008657
-0.019457
-0.034079
-0.072210
-0.133496
-0.178141
-0.226577
-0.236624
-0.262607
-0.256114
-0.277200
-0.298273
-0.267375
-0.225203
-0.175177
-0.120816
-0.075006
-0.030975
-0.000561
0.045068
0.031373
-0.003337
-0.007847
-0.059655
-0.131683
-0.172140
-0.171028
-0.194282
-0.240112
-0.282145
-0.286697
-0.293217
-0.283604
-0.236589
-0.172747
-0.147070
-0.108552
-0.068351
-0.041387
0.005191
0.027211
0.002813
-0.010622
-0.055758
-0.086708
-0.086574
-0.127154
-0.202269
-0.237857
-0.285780
-0.269240
-0.263707
-0.231666
-0.207474
-0.185821
-0.138128
-0.088294
-0.047017
-0.000461
-0.013602
-0.009423
-0.010253
-0.017702
-0.054350
-0.086763
-0.131103
-0.183970
-0.217704
-0.235229
-0.273029
-0.279563
-0.291379
-0.241752
-0.209763
-0.181401
-0.151195
-0.101022
-0.043950
-0.000309
0.028064
0.014126
0.012415
0.006037
-0.044130
-0.094643
-0.124549
-0.159507
-0.190447
-0.237883
-0.262800
-0.272113
-0.278305
-0.276812
-0.242448
-0.156971
-0.105659
-0.090210
-0.010367
0.049506
0.070267
0.041010
0.035813
0.011708
-0.015498
-0.063434
-0.142375
-0.206533
-0.244965
-0.245447
-0.252153
-0.255204
-0.229608
-0.233430
-0.181542
-0.135867
-0.095959
-0.082476
-0.055217
-0.002609
0.012342
0.010913
-0.002065
-0.003646
0.009832
-0.047569
-0.125349
-0.173639
-0.190253
-0.224050
-0.261446
-0.286277
-0.270314
-0.238940
-0.217670
-0.185275
-0.149595
-0.086609
-0.042950
-0.022647
0.013190
0.020597
0.010821
-0.010685
-0.044656
-0.082257
-0.142851
-0.180811
-0.221891
-0.246018
-0.243762
-0.244376
-0.250468
-0.256833
-0.243622
-0.203210
-0.157620
-0.094611
-0.051281
-0.013405
-0.003509
0.025914
0.017389
-0.018437
-0.067603
-0.094615
-0.124970
-0.188190
-0.236550
-0.260020
-0.287877
-0.300408
-0.289516
-0.260947
-0.229803
-0.190828
-0.139428
-0.085535
-0.054371
-0.025020
0.003401
0.020889
0.001764
-0.033465
-0.060692
-0.086451
-0.114502
-0.170433
-0.216967
-0.248790
-0.286028
-0.313213
-0.304174
-0.265259
-0.225707
-0.174542
-0.139519
-0.113223
-0.092917
-0.054898
-0.038622
0.028083
0.003495
-0.015958
-0.030802
-0.085636
-0.132236
-0.153631
-0.193442
-0.275891
-0.296133
-0.287663
-0.278765
-0.267195
-0.248811
-0.200595
-0.141543
-0.097470
-0.052706
-0.029309
-0.007024
-0.022932
-0.011841
-0.033895
-0.041695
-0.055448
-0.104008
-0.158246
-0.195479
-0.230889
-0.267268
-0.294165
-0.291426
-0.265952
-0.234066
-0.190089
-0.137705
-0.093165
-0.076454
0.011598
0.070780
0.054076
0.029830
0.006151
-0.014617
-0.061376
-0.104708
-0.173108
-0.230801
-0.237799
-0.265379
-0.279905
-0.259999
-0.242907
-0.199204
-0.140938
-0.088956
-0.046940
-0.037999
-0.022660
0.039587
0.065705
0.069099
0.028965
-0.008214
-0.043704
-0.083502
-0.130980
-0.179949
-0.233047
-0.271969
-0.221431
-0.195681
-0.191752
-0.162326
-0.151207
-0.153490
-0.070175
0.042551
0.083085
0.067764
0.070200
0.051939
0.039291
0.027489
-0.019849
-0.081903
-0.142857
-0.183618
-0.241548
-0.268335
-0.271716
-0.270470
-0.265470
-0.232629
-0.169706
-0.163642
-0.123138
-0.033129
0.026264
0.031831
-0.003645
0.004980
-0.034622
-0.056786
-0.067328
-0.116189
-0.180738
-0.227042
-0.294077
-0.338220
-0.326423
-0.305233
-0.286319
-0.267221
-0.225812
-0.176935
-0.119230
-0.083595
-0.053046
-0.050293
-0.031223
-0.019946
-0.013617
-0.048465
-0.104618
-0.149196
-0.199738
-0.268568
-0.309894
-0.319046
-0.330593
-0.352627
-0.342089
-0.223270
-0.206736
-0.195617
-0.126019
-0.070892
-0.059423
-0.026955
-0.011269
-0.009197
-0.043597
-0.071200
-0.085828
-0.137923
-0.199645
-0.227345
-0.253366
-0.295661
-0.314579
-0.320212
-0.295068
-0.263224
-0.243542
-0.172033
-0.100371
-0.025486
-0.017403
-0.021687
-0.022874
-0.016511
0.002751
-0.019410
-0.088228
-0.143753
-0.199571
-0.244005
-0.284909
-0.301916
-0.301335
-0.300462
-0.295221
-0.267170
-0.220485
-0.174623
-0.125907
-0.066008
-0.015820
-0.005462
-0.018630
-0.030901
-0.054878
-0.083990
-0.127761
-0.179828
-0.207449
-0.249474
-0.266414
-0.308625
-0.302285
-0.264709
-0.233862
-0.219441
-0.179306
-0.134934
-0.071823
-0.009070
0.063658
0.098863
0.102603
0.127230
0.116591
0.034987
0.018948
-0.008474
-0.027333
-0.023182
-0.051653
-0.048695
0.002969
0.046274
0.105264
0.197436
0.289241
0.375960
0.443067
0.461613
0.492889
0.534081
0.633110
0.652405
0.661852
0.663140
0.646197
0.600600
0.552735
0.532862
0.509284
0.487991
0.489823
0.456244
0.446962
0.437696
0.419923
0.386635
0.374594
0.340940
0.334365
0.328029
0.279975
0.223310
0.171088
0.126853
0.049938
-0.028143
-0.074646
-0.070938
-0.104876
-0.133981
-0.143033
-0.159147
-0.183213
-0.169366
-0.095371
-0.031930
0.002667
0.022217
0.052852
0.105535
0.137613
0.112273
0.042279
-0.011702
-0.051004
-0.080370
-0.158446
-0.188774
-0.204786
-0.233249
-0.239479
-0.235014
-0.220630
-0.173721
-0.121270
-0.096969
-0.070393
-0.034432
-0.007948
0.015612
0.035971
0.024284
0.004997
-0.016027
-0.055013
-0.122100
-0.119952
-0.164615
-0.229289
-0.261594
-0.273430
-0.279251
-0.253152
-0.239137
-0.199990
-0.136249
-0.070727
-0.024510
0.025260
0.056178
0.059198
0.069414
0.049608
0.008992
-0.041716
-0.091246
-0.135736
-0.194311
-0.212233
-0.219626
-0.223729
-0.220486
-0.219876
-0.182650
-0.133234
-0.080721
-0.037938
-0.010200
0.018826
0.047396
0.044422
0.052899
0.035017
0.015995
-0.034502
-0.076714
-0.114843
-0.156874
-0.192530
-0.217513
-0.221271
-0.231350
-0.216227
-0.188201
-0.142205
-0.103036
-0.049974
0.006014
0.051639
0.064164
0.071729
0.046792
0.042477
0.040049
-0.026868
-0.092944
-0.119372
-0.133771
-0.144816
-0.170074
-0.211210
-0.210398
-0.158895
-0.150985
-0.112346
-0.072749
-0.028997
0.009563
0.043038
0.087199
0.090819
0.102102
0.075288
0.027020
-0.028627
-0.049332
-0.079617
-0.137463
-0.159191
-0.190010
-0.169280
-0.157865
-0.144893
-0.133629
-0.118103
-0.048123
0.008553
0.052527
0.081208
0.104901
0.105389
0.090499
0.077887
0.056011
0.010937
-0.069650
-0.100294
-0.120047
-0.152699
-0.171783
-0.173415
-0.159999
-0.151011
-0.123450
-0.078457
-0.016356
0.056492
0.098018
0.111610
0.105096
0.115637
0.098524
0.069846
0.030722
-0.003448
-0.049181
-0.098770
-0.137971
-0.184943
-0.194115
-0.191954
-0.188272
-0.159949
-0.116850
-0.082839
-0.038313
0.004260
0.041203
0.072942
0.087052
0.072696
0.063988
0.006802
0.042527
0.023004
-0.007287
-0.065152
-0.150587
-0.212878
-0.254610
-0.238238
-0.205545
-0.180319
-0.147257
-0.126565
-0.071712
-0.022821
0.025186
0.076625
0.086042
0.072293
0.062202
0.060363
0.031975
-0.021177
-0.047175
-0.095762
-0.112857
-0.130616
-0.193901
-0.238507
-0.223658
-0.209084
-0.210306
-0.164352
-0.089132
-0.052767
-0.020505
0.032700
0.056955
0.069614
0.065993
0.045196
0.022584
-0.016622
-0.066667
-0.127193
-0.159960
-0.185872
-0.196697
-0.208174
-0.204827
-0.200829
-0.182147
-0.124326
-0.090241
-0.064688
-0.021922
0.035112
0.075916
0.056215
0.050431
0.021763
0.001577
-0.046934
-0.085122
-0.127530
-0.185813
-0.226622
-0.241750
-0.238919
-0.202268
-0.211647
-0.199354
-0.145088
-0.102811
-0.040954
0.032966
0.042920
0.045465
0.050097
0.048325
0.035747
0.005417
-0.030865
-0.078259
-0.114847
-0.131687
-0.179972
-0.231125
-0.249172
-0.234327
-0.211990
-0.170712
-0.141114
-0.102983
-0.054875
-0.010486
0.039699
0.094041
0.083741
0.060689
0.038092
0.004954
-0.042943
-0.096051
-0.148929
-0.176341
-0.224160
-0.238363
-0.246811
-0.250843
-0.203513
-0.120360
-0.094600
-0.067119
-0.020673
0.018457
0.034553
0.023515
0.035834
0.069936
0.094036
0.073037
-0.007882
-0.073484
-0.114808
-0.155789
-0.186857
-0.226470
-0.224555
-0.220944
-0.186966
-0.150531
-0.124327
-0.067613
-0.037414
0.006743
0.059060
0.105033
0.118184
0.083151
0.042470
0.018250
-0.015796
-0.048059
-0.093987
-0.126744
-0.183143
-0.200272
-0.207323
-0.214497
-0.195287
-0.149793
-0.091442
-0.073656
-0.026941
0.010222
0.042691
0.085811
0.093396
0.076685
0.067388
0.028289
-0.025385
-0.084202
-0.127735
-0.150927
-0.180375
-0.211483
-0.207483
-0.212237
-0.196886
-0.180264
-0.119909
-0.074916
-0.025108
-0.032946
-0.005995
0.057336
0.099794
0.085714
0.060855
0.052243
0.009114
-0.068889
-0.105891
-0.142047
-0.177183
-0.207471
-0.213452
-0.230982
-0.205872
-0.186350
-0.150495
-0.089882
-0.033681
0.000685
0.048591
0.081284
0.083406
0.097435
0.059030
0.001654
-0.030929
-0.077542
-0.118017
-0.158379
-0.188033
-0.206928
-0.238162
-0.234693
-0.240275
-0.182039
-0.147348
-0.093981
0.020323
0.052557
0.046010
0.067009
0.059055
0.057920
0.050520
0.035361
-0.018044
-0.073767
-0.134103
-0.146519
-0.173064
-0.200254
-0.221181
-0.224985
-0.213855
-0.174057
-0.116967
-0.072180
-0.053741
-0.020696
0.045543
0.050451
0.047161
0.060827
0.035577
0.002647
-0.034756
-0.082530
-0.150764
-0.162692
-0.204821
-0.204957
-0.212241
-0.205622
-0.186877
-0.165782
-0.119935
-0.082114
-0.042483
-0.009872
0.028237
0.050561
0.064398
0.057858
0.039154
-0.000020
-0.028922
-0.082392
-0.136073
-0.150328
-0.174108
-0.213567
-0.227027
-0.226377
-0.233344
-0.216932
-0.149533
-0.088288
-0.044725
-0.006812
0.089750
0.088032
0.054587
0.039600
0.036997
0.033835
-0.009320
-0.071758
-0.135779
-0.172491
-0.200126
-0.208852
-0.223569
-0.221290
-0.218881
-0.210511
-0.179257
-0.131351
-0.037543
-0.011160
0.071427
0.075555
0.069324
0.081661
0.081034
0.055794
0.019060
-0.056169
-0.091134
-0.131898
-0.183833
-0.211663
-0.211884
-0.208711
-0.191766
-0.148692
-0.109155
-0.056297
0.002746
0.055168
0.086264
0.102189
0.100830
0.111873
0.089723
0.049816
0.011043
-0.025137
-0.065150
-0.111052
-0.147204
-0.169074
-0.193196
-0.198194
-0.164694
-0.110787
-0.100050
-0.033768
0.009581
0.034559
0.064327
0.093236
0.117074
0.107134
0.100402
0.079818
0.047608
-0.009564
-0.057607
-0.129205
-0.156700
-0.147316
-0.154554
-0.156293
-0.142649
-0.120022
-0.088111
-0.040785
0.009944
0.034493
0.063300
0.107464
0.115321
0.082583
0.071512
0.028651
-0.026945
-0.061042
-0.103974
-0.146559
-0.177918
-0.199901
-0.206055
-0.209774
-0.208602
-0.186643
-0.162915
-0.121287
-0.074009
0.017356
0.046038
0.020220
0.073576
0.066401
0.039952
0.034060
0.005026
-0.035824
-0.077018
-0.143193
-0.198783
-0.252800
-0.235861
-0.208600
-0.193339
-0.189627
-0.142521
-0.099950
-0.042793
-0.022171
0.005275
0.022453
0.045139
0.065418
0.059236
0.009156
-0.032017
-0.086533
-0.132493
-0.172517
-0.217859
-0.225986
-0.232453
-0.225273
-0.226309
-0.187108
-0.130505
-0.078014
-0.043975
-0.010229
0.011009
0.023224
0.043223
0.049945
0.021029
-0.021378
-0.026261
-0.055875
-0.156668
-0.189299
-0.196133
-0.212332
-0.215710
-0.215534
-0.209765
-0.176147
-0.118406
-0.098067
-0.055566
-0.018923
0.020105
0.062847
0.082574
0.087828
0.083301
0.036098
-0.050613
-0.103650
-0.167553
-0.203090
-0.230743
-0.224629
-0.257663
-0.267361
-0.234723
-0.209818
-0.184359
-0.139311
-0.073214
-0.002298
0.012185
0.042138
0.081987
0.065870
0.062294
0.000653
-0.041091
-0.072622
-0.113771
-0.148413
-0.192010
-0.230881
-0.206302
-0.194811
-0.135379
-0.050539
-0.011579
0.047550
0.095622
0.139058
0.163846
0.224439
0.273839
0.290433
0.291669
0.291290
0.275554
0.245293
0.239845
0.236089
0.239800
0.255957
0.289960
0.300964
0.355498
0.441323
0.534561
0.596500
0.653135
0.745009
0.805286
0.865005
0.891811
0.885969
0.860742
0.841609
0.770005
0.693520
0.598414
0.541357
0.486299
0.431050
0.344105
0.265378
0.224522
0.197097
0.186871
0.176188
0.182593
0.191801
0.213119
0.230339
0.242048
0.229901
0.187866
0.154800
0.093158
0.055409
-0.015524
-0.050922
-0.078206
-0.099865
-0.108833
-0.105256
-0.108169
-0.080414
-0.032182
0.002656
0.045351
0.071584
0.087068
0.108474
0.116150
0.119208
0.097799
0.039509
0.022352
0.001293
-0.031831
-0.082796
-0.151300
-0.171919
-0.160496
-0.144756
-0.115827
-0.086372
-0.074709
-0.066572
0.000361
0.048986
0.086006
0.104585
0.126891
0.107219
0.116088
0.079707
0.032350
-0.013105
-0.063983
-0.117966
-0.162998
-0.178778
-0.168352
-0.154345
-0.145642
-0.131333
-0.075011
-0.034565
0.047807
0.065408
0.086480
0.114478
0.116877
0.103043
0.085377
0.057260
0.033973
-0.010281
-0.062415
-0.119511
-0.158379
-0.188873
-0.189213
-0.166944
-0.129814
-0.084136
-0.039223
-0.001917
0.020740
0.056261
0.097063
0.127749
0.138756
0.129309
0.117844
0.094104
0.051654
-0.004244
-0.047743
-0.080466
-0.122505
-0.129990
-0.165202
-0.154479
-0.133882
-0.108186
-0.052668
-0.009532
0.018842
0.080337
0.132023
0.157350
0.182667
0.197033
0.159425
0.128241
0.083382
0.037190
-0.014307
-0.058951
-0.096306
-0.095366
-0.108461
-0.085315
-0.062666
-0.039570
-0.002323
0.035916
0.067393
0.093912
0.137901
0.181965
0.158799
0.129319
0.090821
0.143689
0.137752
0.067811
-0.024861
-0.034879
-0.043479
-0.069169
-0.073096
-0.096730
-0.079852
-0.050828
0.023227
0.092631
0.133169
0.146533
0.165429
0.223107
0.223290
0.205424
0.162896
0.186313
0.138815
0.062798
0.002843
-0.008027
-0.031877
-0.075294
-0.087664
-0.088846
-0.033160
-0.005155
0.016796
0.058399
0.096411
0.139184
0.178914
0.191099
0.203950
0.188828
0.151719
0.143622
0.106469
0.055204
-0.002530
-0.021687
-0.061521
-0.066831
-0.076213
-0.066612
-0.075155
-0.063067
-0.033308
0.029754
0.121318
0.147278
0.156770
0.183247
0.182746
0.162617
0.136290
0.128568
0.099237
0.041165
0.001402
-0.044827
-0.074105
-0.086940
-0.092086
-0.100823
-0.093452
-0.064463
-0.035819
0.013266
0.027049
0.068909
0.097600
0.122707
0.151284
0.168583
0.142054
0.096100
0.055942
0.004134
-0.020889
-0.038575
-0.088485
-0.148388
-0.148389
-0.115321
-0.098298
-0.045674
-0.011862
0.007221
0.033067
0.077842
0.125859
0.144722
0.146197
0.137099
0.120281
0.067431
0.070372
0.008817
-0.018134
-0.083201
-0.115056
-0.127553
-0.137018
-0.152156
-0.152745
-0.121998
-0.069679
-0.019269
0.039273
0.090684
0.115190
0.126486
0.144159
0.138968
0.103573
0.073818
0.032936
0.008763
-0.062782
-0.105853
-0.132097
-0.140460
-0.153813
-0.166599
-0.152023
-0.124450
-0.109702
-0.045837
0.031527
0.076042
0.107174
0.151532
0.123677
0.114637
0.114496
0.084858
0.038900
-0.016481
-0.062153
-0.101160
-0.138490
-0.172873
-0.178413
-0.172193
-0.129578
-0.076901
-0.054158
-0.014638
0.029893
0.059386
0.083747
0.117746
0.134190
0.111897
0.101321
0.075893
0.023777
-0.014012
-0.052055
-0.097919
-0.092100
-0.125475
-0.173731
-0.172212
-0.150130
-0.120518
-0.064592
-0.018469
0.045059
0.111710
0.130742
0.124662
0.147210
0.138261
0.140078
0.141238
0.077245
0.008484
-0.019006
-0.069282
-0.101064
-0.120061
-0.121947
-0.120600
-0.114023
-0.086673
-0.041945
-0.005027
0.041857
0.084884
0.126813
0.148765
0.155951
0.126557
0.118875
0.099299
0.039171
-0.025869
-0.055931
-0.067657
-0.104882
-0.144582
-0.179644
-0.144174
-0.114976
-0.076545
-0.057613
-0.020831
0.047186
0.087280
0.130322
0.162482
0.169197
0.148098
0.135523
0.082694
0.060449
0.021250
-0.057026
-0.089356
-0.107659
-0.131534
-0.138329
-0.108796
-0.117355
-0.098498
-0.081110
-0.007703
0.027473
0.060427
0.088622
0.119439
0.135259
0.133086
0.098366
0.063605
0.031171
-0.011776
-0.050901
-0.090865
-0.115985
-0.144644
-0.150094
-0.135760
-0.118965
-0.092975
-0.042489
-0.008729
0.007777
0.063203
0.111230
0.143716
0.162635
0.155663
0.140809
0.094906
0.055369
0.006455
-0.037348
-0.081571
-0.133135
-0.152981
-0.156455
-0.144987
-0.130529
-0.111918
-0.063022
0.001257
0.043479
0.079077
0.108142
0.131341
0.143742
0.139814
0.116867
0.084818
0.046476
0.006595
-0.047082
-0.128697
-0.159008
-0.195635
-0.162492
-0.152379
-0.136408
-0.111245
-0.084449
-0.036897
0.025432
0.089806
0.135227
0.134246
0.125572
0.106540
0.105583
0.092820
0.035342
-0.019507
-0.078226
-0.122923
-0.131417
-0.160322
-0.182589
-0.168305
-0.145475
-0.095530
-0.060222
-0.016210
0.025075
0.065128
0.095689
0.095928
0.111693
0.164076
0.116205
0.067863
0.029219
-0.022710
-0.075358
-0.106622
-0.111724
-0.129123
-0.152696
-0.163260
-0.126709
-0.108751
-0.085366
-0.046556
0.022422
0.062107
0.084342
0.118317
0.143418
0.125705
0.092932
0.056207
0.030963
-0.004847
-0.044328
-0.096106
-0.121743
-0.145013
-0.154314
-0.173668
-0.150096
-0.090961
-0.067861
-0.009444
0.014405
0.066214
0.117659
0.153745
0.180540
0.160488
0.128269
0.087135
0.025278
-0.007694
-0.031544
-0.063343
-0.114145
-0.116886
-0.154964
-0.152831
-0.123818
-0.086500
-0.036685
0.014090
0.041670
0.123544
0.170131
0.165342
0.177012
0.153727
0.151494
0.109412
0.061342
0.002576
-0.030390
-0.074641
-0.112564
-0.133040
-0.130172
-0.093564
-0.084245
-0.054080
-0.016004
0.006395
0.044688
0.114492
0.159276
0.160336
0.166666
0.142652
0.116016
0.100013
0.072292
0.043429
-0.004399
-0.053026
-0.089290
-0.124599
-0.104614
-0.086275
-0.069603
-0.041163
-0.008736
0.046903
0.084639
0.125674
0.160103
0.156833
0.149174
0.139575
0.111289
0.107029
0.073655
0.028136
-0.026937
-0.073710
-0.113576
-0.123589
-0.137703
-0.135089
-0.132739
-0.108232
-0.058101
-0.013890
0.027804
0.067800
0.098191
0.112293
0.133837
0.114640
0.092755
0.074810
0.020396
-0.033349
-0.086872
-0.115925
-0.139792
-0.167347
-0.185661
-0.179898
-0.149333
-0.102124
-0.050887
-0.017931
-0.022707
0.059229
0.096101
0.122478
0.095295
0.097085
0.077089
0.041566
-0.008979
-0.070951
-0.096989
-0.130083
-0.138630
-0.166998
-0.175648
-0.172450
-0.149056
-0.124483
-0.078584
-0.032085
0.021101
0.051262
0.084662
0.096699
0.100822
0.097906
0.094001
0.055167
0.014589
-0.030029
-0.075299
-0.121917
-0.150898
-0.169289
-0.181670
-0.167081
-0.158658
-0.142348
-0.114818
-0.046760
0.019784
0.065667
0.122477
0.143306
0.118389
0.068091
0.101125
0.060720
0.015209
-0.038004
-0.072326
-0.089226
-0.145691
-0.183262
-0.205097
-0.191050
-0.142844
-0.114840
-0.071873
-0.031647
0.003288
0.034619
0.069347
0.079766
0.096401
0.120743
0.109565
0.055552
0.013445
-0.019137
-0.047752
-0.113883
-0.123622
-0.120650
-0.134620
-0.125156
-0.085984
-0.041023
0.012053
0.073549
0.123326
0.169435
0.225626
0.258184
0.293807
0.297993
0.294028
0.310378
0.303434
0.289530
0.300508
0.300943
0.300533
0.329219
0.356650
0.407526
0.428694
0.487299
0.554059
0.680494
0.757946
0.836805
0.874319
0.939834
0.982502
0.972659
0.929456
0.913193
0.868516
0.783050
0.758405
0.679778
0.596545
0.512238
0.438205
0.371407
0.320369
0.285122
0.277547
0.255949
0.234031
0.226380
0.255270
0.290876
0.325238
0.293505
0.284727
0.243118
0.183532
0.139171
0.103171
0.037946
-0.029443
-0.076831
-0.105995
-0.081767
-0.035840
-0.014662
0.006900
0.070661
0.112942
0.137228
0.166831
0.182895
0.165056
0.160033
0.152165
0.127706
0.076530
0.025549
0.012399
-0.011292
-0.085047
-0.106847
-0.105071
-0.099800
-0.076502
-0.061488
-0.026619
0.018838
0.066041
0.113301
0.138064
0.162511
0.171226
0.158772
0.130298
0.094605
0.046191
0.013441
-0.008536
-0.055802
-0.107904
-0.124896
-0.151052
-0.143881
-0.128531
-0.107522
-0.055438
0.022710
0.096917
0.150878
0.163722
0.170853
0.182648
0.171077
0.146659
0.102880
0.063719
0.033186
0.003947
-0.024089
-0.069650
-0.094621
-0.122101
-0.116819
-0.107391
-0.088504
-0.024919
0.029592
0.066581
0.133531
0.167187
0.185347
0.200015
0.181798
0.160630
0.158022
0.106902
0.057504
0.017731
-0.048432
-0.079649
-0.107435
-0.091229
-0.086402
-0.079698
-0.045545
-0.002510
0.023281
0.099346
0.173448
0.199940
0.208138
0.227297
0.229670
0.223277
0.189749
0.136018
0.068600
0.021072
-0.008245
-0.037248
-0.047959
-0.062033
-0.060793
-0.056105
-0.017329
0.048112
0.097528
0.136948
0.161537
0.178004
0.205852
0.234582
0.241842
0.190020
0.150183
0.167158
0.149870
0.095068
0.046304
0.003282
-0.010029
-0.031775
-0.004428
0.021885
0.034868
0.062390
0.109484
0.156075
0.201021
0.261420
0.271039
0.283245
0.289788
0.258023
0.210608
0.172064
0.126002
0.100623
0.054743
0.009862
-0.023189
-0.027283
-0.024982
-0.017423
0.019271
0.070778
0.115649
0.161229
0.216890
0.230650
0.269895
0.297989
0.295814
0.263416
0.221183
0.166874
0.105454
0.061427
0.015287
-0.019284
-0.047667
-0.060803
-0.053315
-0.015180
0.026972
0.077071
0.130229
0.166174
0.202196
0.231150
0.249785
0.247039
0.227238
0.229655
0.216412
0.142869
0.082160
0.052419
0.008933
-0.023869
-0.043228
-0.069244
-0.084568
-0.056529
-0.041971
0.018411
0.067083
0.094734
0.146387
0.191240
0.208176
0.225623
0.227386
0.200557
0.143274
0.101851
0.040137
0.001327
-0.029129
-0.075895
-0.098244
-0.128027
-0.103347
-0.063599
-0.045912
-0.014906
0.029980
0.077056
0.123648
0.196820
0.197380
0.205342
0.203981
0.199995
0.153932
0.119632
0.066015
-0.008713
-0.078739
-0.117039
-0.144095
-0.094199
-0.079399
-0.053964
-0.020562
0.005760
0.034518
0.082468
0.120807
0.156213
0.153847
0.170503
0.161782
0.145959
0.120129
0.075627
0.019310
-0.025368
-0.059558
-0.110250
-0.134912
-0.143348
-0.153122
-0.102734
-0.061491
-0.041019
0.007018
0.056788
0.090100
0.116765
0.148741
0.152885
0.145092
0.130503
0.117575
0.068122
0.010114
-0.048598
-0.094300
-0.110860
-0.134042
-0.146983
-0.124591
-0.100145
-0.087380
-0.070934
-0.006390
0.056051
0.126260
0.192022
0.211423
0.199387
0.175623
0.147051
0.119693
0.084217
0.071322
0.002906
-0.067007
-0.092082
-0.128652
-0.124334
-0.105788
-0.074585
-0.046770
0.004218
0.044549
0.087829
0.124661
0.142471
0.170493
0.183941
0.169193
0.134037
0.093303
0.087783
0.026728
0.012877
-0.019727
-0.071497
-0.099691
-0.108639
-0.089403
-0.073205
-0.034947
0.002235
0.042399
0.063035
0.114242
0.142111
0.172671
0.187402
0.183284
0.159969
0.129942
0.095782
0.045266
-0.007557
-0.048956
-0.079774
-0.118791
-0.154646
-0.135286
-0.092269
-0.054359
-0.027705
0.009175
0.065205
0.135760
0.175221
0.189267
0.189016
0.158922
0.148873
0.129403
0.079256
0.030656
-0.004801
-0.034951
-0.089334
-0.123403
-0.147044
-0.132177
-0.104202
-0.047821
0.018674
0.072261
0.084862
0.096789
0.102570
0.134683
0.176382
0.176455
0.137335
0.117028
0.087702
0.050837
0.005718
-0.045079
-0.077415
-0.107782
-0.115519
-0.105177
-0.092526
-0.080815
-0.035875
0.020750
0.079162
0.138215
0.152213
0.160386
0.172365
0.183149
0.163054
0.119567
0.087352
0.038340
-0.005390
-0.045992
-0.083922
-0.113010
-0.115439
-0.118787
-0.099254
-0.071525
-0.029948
0.016577
0.055895
0.094956
0.137785
0.152243
0.161586
0.159313
0.148207
0.119472
0.051177
-0.001930
-0.047726
-0.067473
-0.096867
-0.118084
-0.133081
-0.124597
-0.109896
-0.082766
-0.043949
0.007583
0.034770
0.075509
0.120898
0.141591
0.167671
0.172579
0.127821
0.088837
0.051612
-0.000774
0.002227
-0.052350
-0.107243
-0.143354
-0.155619
-0.139655
-0.113082
-0.075042
-0.023877
0.024791
0.070041
0.111072
0.149700
0.179474
0.199313
0.179503
0.146712
0.098116
0.034526
-0.008791
-0.041050
-0.082857
-0.113585
-0.132398
-0.133542
-0.122093
-0.093345
-0.073196
-0.047116
0.004271
0.077042
0.109778
0.143494
0.179540
0.158340
0.141326
0.121042
0.098032
0.058390
0.018686
-0.018295
-0.061529
-0.103935
-0.131704
-0.123723
-0.131605
-0.122240
-0.092455
-0.059876
-0.012003
0.025126
0.074118
0.124879
0.158058
0.140427
0.104669
0.102118
0.109043
0.070662
0.015764
-0.044482
-0.110712
-0.130173
-0.125002
-0.128410
-0.126776
-0.106846
-0.087053
-0.034220
0.013602
0.065668
0.097705
0.132202
0.139826
0.143060
0.155369
0.138813
0.096560
0.041683
-0.004036
-0.051248
-0.089393
-0.107661
-0.115945
-0.134351
-0.135794
-0.107156
-0.052921
-0.017113
0.025357
0.075760
0.123805
0.140081
0.163702
0.162943
0.157812
0.161195
0.146138
0.115920
0.082931
0.021022
-0.051861
-0.085491
-0.111189
-0.108003
-0.074624
-0.054698
-0.046934
0.014568
0.054344
0.108100
0.140609
0.169895
0.164672
0.216804
0.190529
0.162055
0.124941
0.096665
0.051870
0.013210
-0.013500
-0.067847
-0.098481
-0.098934
-0.080651
-0.062008
-0.034102
0.000084
0.058945
0.102143
0.149728
0.193289
0.219784
0.211057
0.181946
0.158459
0.167706
0.124869
0.076001
0.025820
-0.020314
-0.059807
-0.093265
-0.109982
-0.113891
-0.098387
-0.074906
-0.028396
0.021681
0.055127
0.110894
0.161786
0.192786
0.200906
0.205693
0.184590
0.147366
0.106998
0.041972
-0.011726
-0.066835
-0.104562
-0.113109
-0.109159
-0.103756
-0.083336
-0.069293
-0.048590
0.014957
0.053313
0.090359
0.128183
0.143976
0.151910
0.140032
0.117658
0.077386
0.044990
0.004747
-0.036055
-0.081866
-0.126779
-0.156916
-0.162658
-0.161869
-0.156845
-0.133677
-0.083080
-0.054158
-0.028609
0.067585
0.114709
0.137072
0.176502
0.154227
0.114663
0.096447
0.069591
0.018697
-0.041998
-0.093745
-0.133337
-0.164338
-0.176958
-0.165774
-0.146283
-0.129734
-0.043432
0.018690
0.043420
0.088125
0.132427
0.150897
0.162983
0.124048
0.085511
0.124974
0.072900
0.005684
-0.052153
-0.092480
-0.143692
-0.153755
-0.172955
-0.154668
-0.147796
-0.098558
-0.057013
-0.008694
0.030925
0.076158
0.084234
0.104913
0.124838
0.130579
0.120984
0.086619
0.046148
-0.004567
-0.047991
-0.095619
-0.134063
-0.159974
-0.163484
-0.159868
-0.158438
-0.121920
-0.058353
-0.018116
0.013519
0.061318
0.092682
0.111984
0.132504
0.142300
0.127678
0.107147
0.072880
0.022526
0.001072
-0.001888
-0.015394
-0.039542
-0.049294
-0.009570
0.016542
0.076250
0.162732
0.215674
0.264746
0.347701
0.403652
0.459487
0.512671
0.533676
0.540864
0.544967
0.514146
0.505407
0.499980
0.497354
0.531326
0.550903
0.583270
0.625808
0.667000
0.725112
0.758735
0.842462
0.903584
0.952268
0.951773
0.921673
0.912386
0.880406
0.837678
0.750263
0.648567
0.534234
0.432486
0.313947
0.220137
0.137790
0.079839
0.064343
0.070525
0.097674
0.127902
0.155900
0.207363
0.259724
0.272371
0.282473
0.267819
0.252261
0.210083
0.172304
0.137185
0.093951
0.050072
0.003780
-0.033354
-0.053596
-0.072421
-0.071144
-0.052123
-0.030144
0.003360
0.065992
0.116052
0.137174
0.166506
0.201072
0.201752
0.172506
0.155378
0.150847
0.126318
0.070943
0.008088
-0.050362
-0.094412
-0.119651
-0.119687
-0.117385
-0.110387
-0.089629
-0.059272
-0.011744
0.059417
0.114979
0.151717
0.183134
0.209654
0.182849
0.202552
0.172676
0.103473
0.065348
0.001683
-0.043296
-0.092945
-0.113531
-0.138037
-0.132443
-0.094636
-0.034908
0.001172
0.066129
0.110435
0.115723
0.169360
0.198211
0.193339
0.198919
0.185906
0.150073
0.097872
0.048863
0.001101
-0.026553
-0.069419
-0.093390
-0.107793
-0.104867
-0.082515
-0.043181
-0.007731
0.046527
0.090976
0.135012
0.159838
0.187067
0.196025
0.190120
0.180168
0.161302
0.120253
0.083501
0.051200
0.010084
-0.027128
-0.063259
-0.085302
-0.073696
-0.030320
-0.009578
0.027545
0.048972
0.086462
0.127998
0.170614
0.225908
0.222872
0.223957
0.216178
0.179562
0.160822
0.127214
0.074548
0.021079
-0.001199
-0.032307
-0.041825
-0.061771
-0.037095
0.018496
0.056733
0.086334
0.132033
0.192994
0.225460
0.230495
0.250045
0.256632
0.246675
0.228945
0.189148
0.129449
0.102438
0.039394
-0.004752
-0.035037
-0.045405
-0.047981
-0.000765
0.053100
0.100440
0.146926
0.168426
0.209701
0.238552
0.251865
0.264201
0.299533
0.285707
0.239435
0.185570
0.126711
0.090716
0.080115
0.023496
0.011156
-0.004353
-0.000429
0.007395
0.031796
0.056657
0.110683
0.168198
0.206659
0.236461
0.262657
0.268336
0.258980
0.259719
0.237680
0.192466
0.142889
0.097308
0.056058
0.012834
-0.011241
-0.028067
-0.030528
-0.034051
-0.015364
0.044983
0.091593
0.144864
0.201868
0.237101
0.251887
0.258532
0.239004
0.229978
0.201032
0.158673
0.097974
0.057527
0.006837
-0.026938
-0.037359
-0.054182
-0.067383
-0.048988
-0.011532
0.012111
0.055523
0.112379
0.170058
0.201871
0.220251
0.214236
0.198287
0.193992
0.173426
0.115161
0.059785
0.004060
-0.045293
-0.075335
-0.111213
-0.115660
-0.104386
-0.082151
-0.057089
-0.021241
0.013476
0.064664
0.113288
0.146880
0.164569
0.184738
0.169072
0.158012
0.132133
0.100750
0.052728
-0.030479
-0.071647
-0.115604
-0.148582
-0.135077
-0.107195
-0.093316
-0.056836
-0.018642
0.010698
0.066738
0.116005
0.141647
0.170356
0.170308
0.169575
0.139989
0.111915
0.070860
0.020435
-0.031222
-0.074462
-0.109674
-0.122687
-0.126848
-0.111342
-0.096476
-0.061190
-0.037121
0.004416
0.054156
0.097496
0.138352
0.161583
0.163228
0.148354
0.133058
0.096721
0.050379
0.021763
-0.024866
-0.086933
-0.109639
-0.125359
-0.132313
-0.112150
-0.094450
-0.062931
-0.038147
-0.002737
0.060951
0.101310
0.134830
0.151394
0.161821
0.151809
0.140170
0.102353
0.061473
0.013301
-0.022024
-0.077043
-0.109837
-0.121791
-0.114328
-0.120313
-0.125981
-0.096375
-0.041679
0.012345
0.048883
0.090500
0.166570
0.191327
0.206245
0.179914
0.146459
0.109426
0.063997
0.034387
-0.022023
-0.064441
-0.076724
-0.108764
-0.140318
-0.145867
-0.114212
-0.043850
-0.003233
0.035257
0.078245
0.121306
0.157211
0.188025
0.199854
0.185317
0.154434
0.106663
0.041460
0.033948
-0.011089
-0.069431
-0.099370
-0.119739
-0.104243
-0.090857
-0.091017
-0.075033
-0.025202
0.035734
0.071737
0.102029
0.146355
0.176213
0.163688
0.145747
0.137884
0.117621
0.083943
0.041673
-0.003213
-0.058996
-0.101562
-0.138485
-0.132907
-0.119920
-0.094470
-0.074010
-0.034391
0.005595
0.043292
0.085685
0.128418
0.149371
0.177808
0.151876
0.120095
0.103118
0.082185
0.028501
-0.036350
-0.092459
-0.100440
-0.144925
-0.157333
-0.150627
-0.127326
-0.101637
-0.074222
0.011716
0.042075
0.092455
0.147514
0.185199
0.182369
0.182778
0.150004
0.110882
0.081661
0.033520
-0.041987
-0.073877
-0.099384
-0.113574
-0.128089
-0.131387
-0.096249
-0.074331
-0.060333
-0.017318
0.039016
0.090534
0.136696
0.160652
0.180509
0.170503
0.155456
0.114955
0.064409
0.013943
-0.047458
-0.080586
-0.097452
-0.159437
-0.158476
-0.132089
-0.097336
-0.078990
-0.042709
-0.009285
0.036906
0.067954
0.097002
0.140765
0.161054
0.158001
0.124616
0.081764
0.045054
0.007466
-0.036158
-0.088874
-0.106932
-0.143228
-0.175484
-0.158546
-0.124777
-0.090954
-0.038198
0.005627
0.036411
0.065068
0.110063
0.146699
0.155977
0.141897
0.120344
0.095107
0.060463
0.009046
-0.066115
-0.117560
-0.148479
-0.170569
-0.173729
-0.154396
-0.105730
-0.064887
-0.044480
0.001344
0.041757
0.073721
0.130227
0.177417
0.163494
0.125638
0.107737
0.082342
0.038310
-0.015273
-0.055725
-0.114475
-0.140976
-0.155266
-0.149756
-0.141948
-0.135644
-0.087274
-0.039411
0.004190
0.060062
0.082484
0.096544
0.111095
0.107125
0.140173
0.137065
0.107562
0.054217
-0.002755
-0.089293
-0.113930
-0.128342
-0.146777
-0.163441
-0.159846
-0.140295
-0.115347
-0.068787
-0.002918
0.055931
0.107860
0.125739
0.145629
0.137353
0.140793
0.111511
0.085979
0.036604
-0.023036
-0.057857
-0.098674
-0.136873
-0.167278
-0.149926
-0.136743
-0.135763
-0.083763
-0.045766
-0.013361
0.018097
0.060962
0.118659
0.156490
0.158569
0.154666
0.135341
0.109495
0.066732
0.012308
-0.056005
-0.089278
-0.126669
-0.142920
-0.139120
-0.119567
-0.104075
-0.050192
-0.016482
0.025271
0.072692
0.120092
0.130138
0.156753
0.162060
0.155611
0.133636
0.113114
0.082542
0.040007
-0.018431
-0.057830
-0.106380
-0.124136
-0.143734
-0.130998
-0.119447
-0.054770
-0.004754
0.026075
0.082673
0.143884
0.160651
0.178902
0.205029
0.203165
0.185388
0.138001
0.094160
0.054910
0.012129
-0.045572
-0.093081
-0.127810
-0.145912
-0.122826
-0.092282
-0.059957
-0.022751
0.012005
0.060579
0.114014
0.161133
0.149566
0.156288
0.179976
0.153934
0.112519
0.074607
0.036878
-0.015805
-0.065679
-0.086983
-0.114865
-0.140829
-0.140369
-0.113590
-0.081260
-0.057852
-0.021610
0.025278
0.074068
0.116535
0.128577
0.133495
0.129718
0.115423
0.069317
0.013595
-0.022970
-0.069523
-0.124526
-0.150501
-0.161950
-0.185737
-0.167440
-0.134831
-0.102104
-0.061585
-0.030176
0.013252
0.038814
0.090385
0.126756
0.126760
0.120874
0.075322
0.037112
0.014432
-0.033138
-0.091000
-0.128210
-0.154832
-0.168801
-0.176671
-0.172575
-0.149870
-0.135324
-0.114660
-0.059494
-0.018412
-0.003954
0.048582
0.103402
0.122358
0.116740
0.095077
0.081620
0.033847
-0.016132
-0.060549
-0.076973
-0.118488
-0.167398
-0.175095
-0.180109
-0.173488
-0.158841
-0.116984
-0.063620
0.004291
0.062149
0.108426
0.131788
0.132305
0.093924
0.077643
0.067184
0.013692
-0.035781
-0.074737
-0.110554
-0.142679
-0.169360
-0.177825
-0.177356
-0.156090
-0.127581
-0.080571
-0.033382
-0.017059
0.054385
0.079225
0.103522
0.134024
0.123488
0.079836
0.030536
-0.000220
-0.016301
-0.058411
-0.066760
-0.087527
-0.136143
-0.149295
-0.125876
-0.087917
-0.052800
0.002953
0.064373
0.134098
0.174899
0.242710
0.305215
0.343180
0.371936
0.368890
0.348976
0.345457
0.323096
0.307598
0.313975
0.324219
0.337064
0.355166
0.370878
0.414925
0.480270
0.581517
0.669528
0.748087
0.828952
0.895041
0.908084
0.917819
0.912140
0.902708
0.849398
0.793259
0.761077
0.676311
0.604672
0.506524
0.417143
0.332075
0.280997
0.242922
0.215994
0.213219
0.207513
0.221829
0.259409
0.272787
0.297990
0.300721
0.284122
0.245352
0.192244
0.138574
0.095469
0.037239
-0.026675
-0.076076
-0.098332
-0.097198
-0.083893
-0.082424
-0.054328
0.019798
0.060681
0.103706
0.153526
0.180750
0.193225
0.190886
0.171571
0.153418
0.125365
0.073151
0.010246
-0.039342
-0.076615
-0.096731
-0.111770
-0.119411
-0.120532
-0.120745
-0.079432
-0.031258
0.010376
0.069994
0.104410
0.136489
0.161529
0.159846
0.161791
0.143153
0.105889
0.063683
0.016540
-0.041595
-0.081795
-0.125930
-0.148701
-0.136778
-0.141981
-0.133199
-0.091611
-0.048477
0.004656
0.069106
0.104188
0.124644
0.173542
0.208419
0.181806
0.140860
0.103880
0.072520
0.006240
-0.037605
-0.068388
-0.080954
-0.099473
-0.109996
-0.128065
-0.096103
-0.059239
-0.013674
0.033547
0.078955
0.124640
0.163329
0.189462
0.199062
0.176758
0.148425
0.110347
0.058154
0.034179
-0.023789
-0.065378
-0.084823
-0.089305
-0.080381
-0.071899
-0.062003
-0.035134
0.018980
0.063005
0.101632
0.144712
0.156312
0.190978
0.209969
0.199762
0.186789
0.143072
0.100431
0.062351
0.000474
-0.036607
-0.046534
-0.058453
-0.063488
-0.048601
-0.029061
-0.006093
0.028450
0.052934
0.106782
0.168470
0.203157
0.232917
0.252609
0.254721
0.227136
0.196585
0.175859
0.129847
0.077450
0.023590
-0.026730
-0.037750
-0.029577
-0.018016
0.009256
0.030815
0.063729
0.101305
0.156145
0.193639
0.219863
0.248114
0.258266
0.250940
0.244700
0.223782
0.171341
0.119083
0.054649
0.026320
0.008539
-0.016598
-0.024388
-0.015579
-0.002564
0.023531
0.050886
0.078109
0.139427
0.206499
0.244759
0.255663
0.256576
0.254179
0.219858
0.193724
0.149067
0.111239
0.066320
0.027330
-0.024286
-0.020275
-0.028020
-0.025355
-0.009741
0.018227
0.054499
0.089781
0.143607
0.216001
0.213807
0.230624
0.238839
0.240094
0.219017
0.192959
0.155127
0.097101
0.042026
-0.009266
-0.033350
-0.053672
-0.079090
-0.066408
-0.042179
-0.015308
0.005661
0.041245
0.092354
0.142877
0.157788
0.181638
0.203469
0.202534
0.185193
0.165300
0.135366
0.087180
0.029966
-0.016537
-0.066914
-0.092635
-0.104790
-0.072994
-0.059092
-0.047996
-0.011365
0.024492
0.063489
0.106543
0.160921
0.185709
0.187274
0.186090
0.153602
0.123079
0.091495
0.050721
-0.018553
-0.082204
-0.116091
-0.140590
-0.137140
-0.127035
-0.119096
-0.079181
-0.042366
0.010636
0.044875
0.072169
0.120344
0.131631
0.152861
0.140408
0.101757
0.092490
0.055771
0.008917
-0.058870
-0.094356
-0.118008
-0.142129
-0.152295
-0.133031
-0.100943
-0.072652
-0.035967
0.003516
0.055656
0.101590
0.123384
0.151605
0.180645
0.156231
0.130037
0.088792
0.038109
-0.004634
-0.044937
-0.090657
-0.142926
-0.191642
-0.180785
-0.144467
-0.114635
-0.098025
-0.044194
0.008141
0.087950
0.117145
0.134449
0.153938
0.160893
0.153210
0.174618
0.115705
0.040374
-0.006081
-0.059313
-0.081144
-0.117714
-0.138614
-0.169017
-0.162852
-0.097089
-0.061495
-0.028577
0.001204
0.064205
0.116949
0.133106
0.169583
0.189328
0.175987
0.154885
0.118953
0.067156
0.007576
-0.034060
-0.048887
-0.093322
-0.147359
-0.140551
-0.135924
-0.124878
-0.086898
-0.037332
-0.014971
0.060126
0.099954
0.129682
0.150900
0.151083
0.152324
0.129084
0.097927
0.056893
0.022464
-0.014929
-0.054201
-0.110174
-0.148336
-0.124839
-0.099000
-0.085948
-0.053488
-0.021385
0.005219
0.054702
0.114905
0.155212
0.155445
0.165228
0.159600
0.144214
0.104536
0.050296
0.016832
-0.046875
-0.058631
-0.101791
-0.126406
-0.147191
-0.106610
-0.108681
-0.082178
-0.040567
0.018258
0.081210
0.112641
0.145728
0.153477
0.164224
0.155095
0.137817
0.097940
0.051134
0.018044
-0.029870
-0.065950
-0.097587
-0.121642
-0.137606
-0.126572
-0.102479
-0.061579
-0.012573
0.008086
0.058618
0.106699
0.133373
0.147045
0.161102
0.138517
0.143781
0.104546
0.050953
0.000061
-0.050318
-0.099693
-0.125338
-0.152937
-0.124745
-0.128927
-0.105527
-0.080967
-0.054928
-0.021870
0.031406
0.075161
0.123411
0.147469
0.168799
0.150826
0.111846
0.072676
0.021226
-0.019084
-0.057641
-0.091301
-0.116103
-0.145803
-0.155419
-0.154193
-0.127972
-0.099972
-0.055987
0.002271
0.047391
0.086089
0.103838
0.122866
0.119588
0.113440
0.097300
0.100732
0.047190
0.002402
-0.054217
-0.099604
-0.110164
-0.114823
-0.136813
-0.137999
-0.125865
-0.091715
-0.056612
-0.011433
0.033308
0.077481
0.117696
0.121543
0.134399
0.147424
0.113984
0.073904
0.048208
0.011726
-0.047687
-0.077715
-0.115402
-0.134919
-0.137482
-0.130566
-0.119797
-0.096713
-0.069102
-0.013003
0.039611
0.092571
0.122331
0.125168
0.135864
0.123378
0.118803
0.107713
0.064415
0.014947
-0.039982
-0.079881
-0.131312
-0.155524
-0.171202
-0.160096
-0.126570
-0.111763
-0.084198
-0.002765
0.021831
0.066952
0.111360
0.125343
0.145296
0.147751
0.125397
0.109791
0.052523
-0.001954
-0.052034
-0.098467
-0.127514
-0.142105
-0.160119
-0.145219
-0.133355
-0.105603
-0.070831
-0.012689
0.031108
0.074716
0.108143
0.140482
0.149976
0.130126
0.118427
0.089601
0.048877
-0.003514
-0.079532
-0.118477
-0.131787
-0.168368
-0.188755
-0.178643
-0.152473
-0.096296
-0.029276
0.002603
0.047342
0.086530
0.130469
0.141803
0.149336
0.134723
0.096952
0.099416
0.077026
0.025134
-0.024258
-0.069394
-0.124281
-0.147575
-0.164727
-0.144932
-0.113625
-0.103156
-0.087621
-0.032547
0.014442
0.046894
0.087104
0.146088
0.162132
0.148245
0.120754
0.088959
0.030805
-0.027343
-0.052337
-0.103164
-0.103519
-0.118706
-0.157044
-0.131823
-0.127912
-0.115381
-0.059719
-0.003526
0.054055
0.102882
0.130204
0.152189
0.164046
0.154565
0.122882
0.083510
0.026613
-0.003819
-0.043680
-0.091288
-0.118389
-0.137862
-0.165805
-0.160767
-0.117335
-0.081170
-0.044115
-0.003651
0.050130
0.097765
0.133828
0.162177
0.173765
0.156799
0.148098
0.122097
0.085265
0.028606
-0.037450
-0.080078
-0.092622
-0.089817
-0.105658
-0.111630
-0.098187
-0.068401
-0.029741
0.018407
0.089144
0.149757
0.176194
0.173693
0.136086
0.134493
0.132155
0.130220
0.107492
0.059419
-0.004357
-0.045222
-0.081124
-0.098127
-0.110561
-0.096604
-0.066911
-0.041364
-0.001334
0.043406
0.089918
0.131613
0.190037
0.221159
0.221108
0.199484
0.175211
0.144928
0.108350
0.054511
0.008489
-0.054127
-0.097179
-0.130184
-0.146329
-0.147050
-0.130213
-0.077255
-0.035409
0.022525
0.053720
0.083253
0.147835
0.192605
0.174748
0.150997
0.131391
0.097128
0.086072
0.014257
-0.037217
-0.080079
-0.140435
-0.141722
-0.153126
-0.131378
-0.104510
-0.081292
-0.054272
-0.027391
0.029257
0.091579
0.120975
0.150584
0.159394
0.134153
0.119876
0.080549
0.033275
-0.025509
-0.074924
-0.102201
-0.178977
-0.209181
-0.194688
-0.162210
-0.132893
-0.099519
-0.080608
-0.043851
0.002083
0.073574
0.125479
0.139405
0.147978
0.140777
0.111324
0.082184
0.046875
-0.019073
-0.064174
-0.107712
-0.148222
-0.163345
-0.173882
-0.159384
-0.139567
-0.101281
-0.074189
-0.054338
-0.009885
0.048654
0.104524
0.120017
0.129043
0.110755
0.099162
0.077409
0.045686
-0.028460
-0.089880
-0.120907
-0.157062
-0.166745
-0.162389
-0.160086
-0.142091
-0.115642
-0.080912
-0.041785
0.025780
0.092246
0.107800
0.142200
0.132377
0.128310
0.117805
0.078868
0.034563
-0.011402
-0.045460
-0.117426
-0.159142
-0.180384
-0.171247
-0.149670
-0.141563
-0.130911
-0.078226
-0.011764
0.035506
0.089141
0.137072
0.171904
0.204162
0.219483
0.202544
0.198220
0.164597
0.117861
0.062844
0.034156
0.029106
0.039895
0.056157
0.082553
0.126173
0.204196
0.273381
0.356497
0.448462
0.522653
0.583248
0.645242
0.714404
0.742148
0.751938
0.751219
0.744246
0.718135
0.685353
0.682941
0.677272
0.635537
0.604408
0.633567
0.625665
0.676371
0.684317
0.717284
0.731143
0.705404
0.666488
0.610833
0.565201
0.529622
0.460759
0.364570
0.276894
0.162899
0.130759
0.080981
0.031915
-0.013407
-0.031116
-0.025378
-0.005148
0.034635
0.060355
0.094772
0.123462
0.155871
0.200031
0.234080
0.241569
0.214499
0.194395
0.167259
0.131792
0.097370
0.053134
0.006785
-0.051129
-0.083970
-0.074695
-0.077288
-0.096495
-0.041323
-0.014436
0.036667
0.067177
0.106990
0.172800
0.211092
0.194386
0.162824
0.136170
0.105803
0.082786
0.038791
-0.013165
-0.075462
-0.106695
-0.120022
-0.121390
-0.118421
-0.100871
-0.069420
-0.010662
0.056748
0.069235
0.094281
0.148314
0.181025
0.200854
0.216784
0.180562
0.107975
0.035923
0.006750
-0.007148
-0.036524
-0.091502
-0.135633
-0.149797
-0.128375
-0.084041
-0.033068
-0.003394
0.056366
0.116815
0.157148
0.162085
0.206038
0.231230
0.217058
0.196830
0.140347
0.101245
0.071091
0.021952
-0.022146
-0.048807
-0.078748
-0.096266
-0.095953
-0.078042
-0.066962
-0.004225
0.052130
0.088252
0.120809
0.162510
0.203323
0.242249
0.248031
0.226424
0.168653
0.123299
0.075165
0.033944
-0.020339
-0.057507
-0.066205
-0.066300
-0.060403
-0.034966
0.004615
0.039575
0.081285
0.117729
0.147207
0.197546
0.252710
0.274186
0.259398
0.228915
0.198392
0.155870
0.104166
0.048919
0.018249
0.004736
-0.010126
-0.045292
-0.047580
-0.009319
0.016525
0.060416
0.127267
0.182262
0.224338
0.252270
0.295376
0.305716
0.312849
0.288100
0.212210
0.160214
0.123900
0.085031
0.057026
0.005027
-0.027190
-0.022358
-0.024115
-0.004578
0.041432
0.109738
0.186764
0.233755
0.256853
0.282547
0.286542
0.309183
0.302468
0.273997
0.231644
0.182482
0.128618
0.092497
0.052604
-0.003740
-0.009315
0.006551
0.004464
0.019711
0.048632
0.086386
0.131333
0.174903
0.194939
0.254664
0.271469
0.264218
0.250607
0.234088
0.194426
0.165172
0.119707
0.079229
0.036090
0.005947
-0.016408
-0.023123
-0.016692
0.004809
0.027289
0.063417
0.085086
0.157877
0.197530
0.223073
0.229565
0.241294
0.247127
0.219896
0.181571
0.151587
0.104540
0.045260
-0.018217
-0.038712
-0.024873
-0.017512
-0.021204
-0.026547
-0.024982
0.006398
0.068787
0.108261
0.140376
0.201523
0.236823
0.242267
0.234191
0.182412
0.135977
0.122060
0.088757
0.021721
-0.034977
-0.073545
-0.102212
-0.099730
-0.060171
-0.061522
-0.044809
-0.006947
0.034348
0.074176
0.125912
0.167667
0.194558
0.199323
0.195487
0.166717
0.122207
0.079200
0.043573
0.001649
-0.049275
-0.086557
-0.124757
-0.123755
-0.116963
-0.091061
-0.060428
-0.041559
0.014313
0.057401
0.109919
0.145274
0.177313
0.203733
0.171501
0.135314
0.149475
0.098095
0.015786
-0.037678
-0.085996
-0.095778
-0.121765
-0.139740
-0.117251
-0.106486
-0.066035
-0.033416
0.008192
0.038102
0.107985
0.178779
0.191275
0.167697
0.155483
0.153732
0.137801
0.081764
0.015935
-0.027374
-0.066886
-0.087004
-0.099241
-0.094156
-0.077513
-0.054664
-0.038944
-0.028321
0.009702
0.067343
0.105502
0.151399
0.187168
0.197022
0.181047
0.164198
0.124833
0.068573
0.018243
-0.021550
-0.044825
-0.078196
-0.086119
-0.099511
-0.101439
-0.090666
-0.066014
-0.027738
0.010714
0.080977
0.132701
0.181292
0.201903
0.196218
0.175261
0.154936
0.132758
0.103418
0.049239
-0.002431
-0.059127
-0.090086
-0.097570
-0.108238
-0.107786
-0.078778
-0.046269
-0.002618
0.041512
0.077967
0.114919
0.158946
0.188972
0.189498
0.172863
0.148798
0.113291
0.061303
0.003517
-0.021928
-0.041428
-0.069985
-0.085599
-0.099159
-0.098237
-0.098037
-0.052943
-0.026905
0.023206
0.083887
0.149637
0.193318
0.212247
0.187785
0.173940
0.160940
0.117484
0.071991
0.027987
-0.021938
-0.068970
-0.120915
-0.108376
-0.105323
-0.102318
-0.073323
-0.040750
-0.016283
0.035018
0.077846
0.115482
0.160209
0.194343
0.201156
0.177909
0.159442
0.123784
0.072817
0.012439
-0.007723
-0.051155
-0.082098
-0.112731
-0.094658
-0.081683
-0.092917
-0.066210
-0.018567
0.023946
0.071459
0.130259
0.146204
0.168064
0.172918
0.183889
0.158792
0.101008
0.065011
0.040306
-0.012973
-0.055280
-0.089113
-0.117353
-0.154000
-0.163460
-0.140124
-0.095583
-0.047416
0.019243
0.081494
0.103692
0.144260
0.177540
0.190284
0.172225
0.130742
0.098478
0.077604
0.033565
-0.020411
-0.037444
-0.080180
-0.113224
-0.129767
-0.134923
-0.125939
-0.113696
-0.072252
-0.042677
0.025730
0.056845
0.118287
0.145246
0.133758
0.145439
0.164378
0.147079
0.122207
0.063015
0.005151
-0.029971
-0.073677
-0.114509
-0.124622
-0.112524
-0.081648
-0.063234
-0.060604
-0.004335
0.053395
0.078959
0.109844
0.138931
0.165302
0.188726
0.174726
0.114991
0.077964
0.016471
-0.033743
-0.056135
-0.114864
-0.130425
-0.128376
-0.115854
-0.093574
-0.065972
-0.048987
-0.009760
0.052841
0.097344
0.138796
0.160761
0.162301
0.164891
0.141907
0.100611
0.068140
0.023441
-0.029461
-0.058552
-0.098989
-0.124929
-0.140229
-0.132773
-0.096049
-0.076338
-0.044093
0.003173
0.046535
0.087847
0.140495
0.155125
0.149006
0.150229
0.134378
0.118350
0.073013
0.019860
-0.039686
-0.090321
-0.130344
-0.147788
-0.140975
-0.139482
-0.123816
-0.086604
-0.047824
-0.002876
0.037080
0.079931
0.134251
0.166669
0.161442
0.159704
0.149513
0.131645
0.106604
0.034292
-0.031675
-0.058727
-0.097299
-0.142602
-0.173938
-0.123037
-0.102136
-0.078799
-0.031119
0.021754
0.060657
0.107066
0.127582
0.144214
0.175714
0.161695
0.137415
0.130152
0.045291
-0.005149
-0.023407
-0.078816
-0.109599
-0.113601
-0.121437
-0.122118
-0.099771
-0.080470
-0.048032
-0.004369
0.047727
0.088654
0.133101
0.160175
0.146568
0.138782
0.129574
0.104649
0.059297
0.003470
-0.046240
-0.082295
-0.113793
-0.136311
-0.140574
-0.135022
-0.112368
-0.077125
-0.040069
0.025659
0.077026
0.118480
0.155570
0.171954
0.177163
0.181880
0.148991
0.108843
0.066260
0.025218
-0.018238
-0.059658
-0.055026
-0.093749
-0.099417
-0.092506
-0.073105
-0.042250
-0.009050
0.038243
0.087747
0.133306
0.176746
0.195660
0.202395
0.202038
0.171126
0.134392
0.098849
0.041010
-0.006397
-0.049136
-0.068395
-0.094711
-0.105116
-0.099648
-0.068731
-0.019816
0.020043
0.071222
0.123996
0.153391
0.182004
0.196330
0.221878
0.210427
0.199797
0.151879
0.091912
0.048815
0.006854
-0.018733
-0.067306
-0.092442
-0.077884
-0.086433
-0.091869
-0.064959
-0.006971
0.035011
0.072637
0.116982
0.162563
0.208442
0.210728
0.187052
0.147201
0.100029
0.065586
0.014196
-0.044424
-0.081741
-0.116650
-0.143794
-0.147644
-0.133671
-0.109036
-0.076198
-0.050626
0.015942
0.061293
0.108723
0.133974
0.142792
0.153493
0.134299
0.116547
0.093020
0.081230
0.026056
-0.058468
-0.095934
-0.120852
-0.147412
-0.146871
-0.139760
-0.122537
-0.106939
-0.062741
-0.017483
0.049275
0.078128
0.122956
0.148205
0.151716
0.143372
0.134755
0.094644
0.048507
-0.000049
-0.055880
-0.102207
-0.137749
-0.166808
-0.193987
-0.156148
-0.153705
-0.121407
-0.097582
-0.012094
0.026730
0.058007
0.109675
0.137550
0.139807
0.141209
0.114118
0.082679
0.043424
0.009726
-0.063095
-0.114871
-0.141559
-0.159220
-0.171568
-0.168649
-0.129201
-0.094391
-0.065351
-0.028446
0.040397
0.075919
0.103607
0.123667
0.126586
0.123308
0.118487
0.087699
0.051325
-0.011683
-0.059111
-0.104692
-0.136875
-0.153045
-0.167736
-0.165041
-0.146073
-0.135619
-0.099299
-0.042573
0.002173
0.060989
0.088485
0.092951
0.104772
0.125039
0.115459
0.114516
0.069257
0.035332
-0.010477
-0.030377
-0.065301
-0.063029
-0.044703
-0.016324
0.013506
0.037423
0.089847
0.163564
0.237536
0.318713
0.403726
0.431575
0.476509
0.503831
0.514262
0.511556
0.506780
0.487395
0.457791
0.438170
0.427271
0.455590
0.496847
0.539884
0.591873
0.658254
0.734096
0.792724
0.824669
0.868245
0.901009
0.911092
0.900256
0.859421
0.816213
0.749109
0.668117
0.554567
0.426861
0.290841
0.236801
0.176631
0.113555
0.062368
0.055799
0.066375
0.099323
0.143976
0.196977
0.226104
0.249395
0.257518
0.265980
0.260193
0.242861
0.197325
0.137621
0.079832
0.021779
-0.027522
-0.060928
-0.082561
-0.090110
-0.082111
-0.068595
-0.051653
-0.020495
0.031334
0.077615
0.138966
0.181680
0.189108
0.190383
0.188542
0.167162
0.136726
0.089940
0.049459
0.010932
-0.027880
-0.075784
-0.100207
-0.124741
-0.111533
-0.088375
-0.056803
-0.033193
0.007932
0.077385
0.131735
0.162683
0.165229
0.163148
0.173077
0.158615
0.129307
0.099830
0.060494
-0.004714
-0.074403
-0.097090
-0.109907
-0.115889
-0.113687
-0.112263
-0.101683
-0.029145
0.074386
0.096811
0.122330
0.158480
0.192280
0.200533
0.190924
0.162246
0.132985
0.089764
0.041505
-0.001422
-0.040493
-0.079890
-0.112220
-0.118780
-0.112928
-0.077972
-0.030759
0.005859
0.046242
0.097350
0.127525
0.157842
0.206310
0.225488
0.211070
0.175012
0.154853
0.111938
0.074837
0.023157
-0.019379
-0.069247
-0.093961
-0.118130
-0.110535
-0.066090
0.009714
0.045045
0.088717
0.141184
0.185640
0.212864
0.232462
0.240002
0.236578
0.227705
0.188164
0.133943
0.101978
0.063597
0.011597
-0.018054
-0.050618
-0.050034
-0.032961
-0.017983
-0.031957
0.034449
0.099976
0.169601
0.222294
0.251491
0.265498
0.270287
0.254537
0.243760
0.213360
0.171846
0.129307
0.080759
0.040105
0.011964
-0.005062
-0.016794
-0.022397
-0.013768
0.019416
0.085540
0.148652
0.178901
0.222599
0.260792
0.269016
0.280744
0.278189
0.247060
0.222425
0.171532
0.105522
0.080976
0.052001
0.014017
-0.000294
-0.015712
-0.005702
0.015237
0.035436
0.086162
0.129470
0.208613
0.235371
0.255712
0.270360
0.274016
0.257479
0.240375
0.222103
0.179642
0.116417
0.070201
0.039458
0.010548
-0.015668
-0.027708
-0.041868
-0.034011
0.004041
0.061841
0.098960
0.154708
0.203546
0.236374
0.258725
0.281690
0.267135
0.235810
0.211417
0.169061
0.089590
0.037876
0.013614
-0.014741
-0.050014
-0.085570
-0.060577
-0.032013
-0.003845
0.032493
0.090651
0.136734
0.168940
0.194553
0.204170
0.226150
0.206719
0.181724
0.165135
0.131006
0.081791
0.026509
-0.034444
-0.082983
-0.078818
-0.093380
-0.093465
-0.072900
-0.051149
-0.017475
0.052507
0.094905
0.128299
0.173171
0.200872
0.195689
0.172627
0.169848
0.137955
0.079507
0.018733
-0.028806
-0.083573
-0.109422
-0.141395
-0.146092
-0.133182
-0.120766
-0.081409
-0.033985
0.018767
0.062934
0.111943
0.152255
0.176602
0.165946
0.167476
0.148980
0.118732
0.072336
0.031313
-0.026009
-0.086193
-0.124111
-0.139316
-0.159677
-0.148023
-0.117675
-0.090917
-0.051457
0.006462
0.047697
0.093046
0.145056
0.175464
0.185853
0.177544
0.130093
0.124614
0.093364
0.033030
-0.011854
-0.065876
-0.111400
-0.138191
-0.153275
-0.140288
-0.116064
-0.090624
-0.043013
0.010329
0.046636
0.092463
0.130813
0.160320
0.171247
0.163357
0.140813
0.112668
0.077722
0.032599
-0.025344
-0.086397
-0.119807
-0.138279
-0.154006
-0.147264
-0.118430
-0.087720
-0.060905
0.009883
0.079363
0.096461
0.151304
0.182794
0.176500
0.142543
0.136403
0.131713
0.089373
0.035334
0.003140
-0.036270
-0.078820
-0.121615
-0.128521
-0.113614
-0.082928
-0.060424
-0.022599
0.044326
0.076928
0.110511
0.147799
0.171414
0.200104
0.176271
0.155748
0.131685
0.091323
0.017227
-0.025890
-0.061527
-0.087286
-0.140657
-0.142400
-0.129582
-0.108032
-0.065044
-0.021700
0.024283
0.077663
0.124148
0.159272
0.179954
0.182155
0.169093
0.154347
0.125639
0.076934
0.012738
-0.022606
-0.072384
-0.110158
-0.137894
-0.141512
-0.146476
-0.095396
-0.064982
-0.035967
-0.000786
0.055988
0.102378
0.150083
0.169229
0.163391
0.156065
0.138525
0.085536
0.038689
0.005044
-0.018832
-0.063612
-0.097236
-0.124652
-0.124672
-0.126225
-0.110029
-0.071959
-0.016479
0.033185
0.059113
0.108667
0.131733
0.153653
0.158604
0.154287
0.145761
0.123939
0.067120
0.020189
-0.020500
-0.069489
-0.111448
-0.144999
-0.164415
-0.123826
-0.081307
-0.054374
-0.016949
0.011489
0.018827
0.080818
0.123093
0.151455
0.162792
0.160196
0.144521
0.098787
0.058684
0.008301
-0.045841
-0.103821
-0.130375
-0.157971
-0.156857
-0.143840
-0.123592
-0.104016
-0.050812
0.031941
0.075603
0.103400
0.127267
0.152685
0.168999
0.142299
0.128673
0.095635
0.044921
0.012062
-0.032639
-0.076199
-0.107028
-0.139587
-0.157699
-0.144561
-0.114769
-0.085218
-0.041251
0.002441
0.041843
0.079963
0.101148
0.123403
0.145441
0.155581
0.145133
0.097626
0.040555
-0.012809
-0.044475
-0.102488
-0.125414
-0.144780
-0.169593
-0.167116
-0.157883
-0.111835
-0.072571
-0.024207
0.010129
0.091236
0.134095
0.159365
0.163440
0.142988
0.121297
0.097545
0.055018
0.003377
-0.041752
-0.092900
-0.120432
-0.141250
-0.154054
-0.155200
-0.142790
-0.120612
-0.073690
-0.026504
0.031557
0.084710
0.122315
0.167399
0.165219
0.151133
0.127210
0.089229
0.046962
-0.016786
-0.052950
-0.099157
-0.117223
-0.155542
-0.175106
-0.136681
-0.131302
-0.129426
-0.027362
0.024455
0.050909
0.058045
0.096655
0.135129
0.124940
0.129682
0.129971
0.091234
0.041465
-0.004640
-0.052042
-0.105011
-0.154428
-0.192420
-0.195112
-0.159800
-0.102610
-0.084634
-0.063160
-0.021760
0.037117
0.068750
0.114582
0.148145
0.162057
0.149032
0.130522
0.084205
0.058873
0.023514
-0.002184
-0.070862
-0.120205
-0.137229
-0.178694
-0.167734
-0.143364
-0.108770
-0.058375
0.001264
0.036409
0.082512
0.104717
0.132307
0.146013
0.146709
0.121552
0.097969
0.053869
-0.003553
-0.047072
-0.101881
-0.133006
-0.154829
-0.168975
-0.162490
-0.134111
-0.094317
-0.050750
0.003410
0.065835
0.105272
0.138750
0.155795
0.165317
0.152653
0.139118
0.120912
0.076115
0.028561
-0.006781
-0.049480
-0.084917
-0.111550
-0.143842
-0.147147
-0.105463
-0.069959
-0.016406
0.049740
0.098702
0.138143
0.165456
0.174788
0.185264
0.185346
0.152510
0.102845
0.077206
0.057033
0.000773
-0.064631
-0.081550
-0.084095
-0.094615
-0.094170
-0.073312
-0.041759
0.009355
0.053519
0.093025
0.122913
0.160356
0.180072
0.182126
0.200830
0.171903
0.132603
0.067939
0.017457
-0.000849
-0.066641
-0.122697
-0.145521
-0.140313
-0.139455
-0.112445
-0.080081
-0.037932
-0.000619
0.039639
0.092544
0.138211
0.165315
0.153621
0.149864
0.117346
0.097250
0.062805
-0.000761
-0.053072
-0.102015
-0.138424
-0.172255
-0.173498
-0.137929
-0.113405
-0.076662
-0.043541
-0.008507
0.032001
0.078126
0.104809
0.109889
0.143406
0.155643
0.124780
0.099939
0.055000
-0.004345
-0.065493
-0.127065
-0.148206
-0.198908
-0.191955
-0.162891
-0.124308
-0.105670
-0.065605
-0.014245
0.008184
0.048572
0.084111
0.108228
0.115734
0.115345
0.098889
0.065202
0.003806
-0.047251
-0.093268
-0.150320
-0.165890
-0.180849
-0.181929
-0.150546
-0.133233
-0.119344
-0.087455
-0.028178
0.028320
0.038742
0.044992
0.112032
0.149290
0.125767
0.096448
0.042991
0.008804
-0.012515
-0.060598
-0.121177
-0.176831
-0.187335
-0.178930
-0.157001
-0.136701
-0.123402
-0.079073
-0.021072
0.033782
0.079636
0.098534
0.110158
0.139081
0.139733
0.123805
0.073105
0.026519
-0.018841
-0.065533
-0.100690
-0.135988
-0.173230
-0.203787
-0.194708
-0.164066
-0.122641
-0.075020
-0.035834
0.004708
0.054236
0.093850
0.126956
0.171829
0.170320
0.169452
0.146017
0.133262
0.100160
0.054457
0.010646
-0.002337
0.021872
0.029144
0.056084
0.099160
0.161852
0.241978
0.308520
0.391154
0.479364
0.531776
0.573724
0.602777
0.636972
0.655341
0.649955
0.667780
0.657255
0.647431
0.645687
0.628049
0.626665
0.615571
0.623007
0.647213
0.658794
0.675758
0.695786
0.706098
0.712634
0.721716
0.698470
0.658826
0.568031
0.498734
0.429047
0.341382
0.241906
0.138150
0.061816
0.035484
-0.018858
-0.039517
0.004356
0.023507
0.024399
0.064123
0.097115
0.137038
0.171481
0.203403
0.211508
0.230474
0.214360
0.198043
0.180706
0.140690
0.089501
0.022843
-0.034764
-0.085160
-0.082396
-0.116252
-0.117190
-0.091416
-0.062096
-0.036895
0.024098
0.056574
0.089800
0.121146
0.162082
0.178158
0.161454
0.143710
0.125077
0.060732
0.015474
-0.017226
-0.070408
-0.102022
-0.098697
-0.105354
-0.116378
-0.115175
-0.061022
-0.004626
0.030183
0.070669
0.119225
0.148099
0.167068
0.174441
0.165547
0.141694
0.115066
0.063583
0.015871
-0.000387
-0.055187
-0.111097
-0.133158
-0.114699
-0.113908
-0.106043
-0.081063
-0.031756
0.011096
0.065738
0.094296
0.148782
0.195000
0.207615
0.201406
0.180641
0.154370
0.100515
0.048219
-0.001445
-0.057876
-0.092191
-0.114187
-0.104505
-0.087035
-0.066148
-0.048614
-0.029771
0.010634
0.066417
0.112262
0.201345
0.217569
0.203489
0.201146
0.198455
0.171231
0.112710
0.074190
0.025976
-0.019800
-0.076661
-0.110794
-0.110790
-0.081142
-0.061850
-0.049876
-0.000295
0.063848
0.109298
0.177505
0.218446
0.234291
0.254898
0.249791
0.229347
0.211882
0.162555
0.113226
0.067219
0.013025
-0.025608
-0.038472
-0.042143
-0.039668
-0.010340
0.015646
0.056072
0.104589
0.154669
0.197641
0.229699
0.258500
0.256197
0.248356
0.211768
0.199018
0.168896
0.124625
0.064177
0.017416
-0.004430
-0.016097
-0.003869
0.007064
0.017179
0.065075
0.118663
0.145567
0.176309
0.219208
0.253348
0.282712
0.287204
0.262548
0.222304
0.213514
0.172534
0.121622
0.073345
0.053419
0.009896
-0.011056
-0.010193
-0.017701
-0.014311
-0.010983
0.036127
0.129987
0.195159
0.215555
0.236154
0.263196
0.286753
0.282745
0.251936
0.217710
0.153961
0.104971
0.063303
0.011946
-0.022578
-0.051707
-0.076098
-0.051764
-0.019069
0.015932
0.059509
0.108793
0.142904
0.180710
0.223899
0.255725
0.249991
0.250669
0.221668
0.179013
0.120816
0.071271
0.034295
-0.005386
-0.037443
-0.066401
-0.103844
-0.081488
-0.064126
-0.054626
0.011657
0.060730
0.115777
0.148031
0.178123
0.209583
0.235536
0.214231
0.181736
0.160095
0.100093
0.048294
-0.001361
-0.048441
-0.076571
-0.092270
-0.109426
-0.114881
-0.088506
-0.059904
-0.016454
0.026155
0.068239
0.096141
0.132882
0.168845
0.167580
0.163584
0.155005
0.102163
0.041806
-0.022502
-0.081325
-0.079664
-0.108980
-0.118708
-0.124674
-0.129620
-0.125512
-0.084433
-0.020603
0.016941
0.056880
0.098502
0.136057
0.159633
0.161506
0.149094
0.118185
0.095550
0.058231
0.005899
-0.045610
-0.081675
-0.098428
-0.109077
-0.124772
-0.130887
-0.132621
-0.119276
-0.073384
-0.034668
0.026686
0.065303
0.110505
0.148294
0.163319
0.159062
0.118644
0.101718
0.068822
0.012524
-0.030252
-0.066714
-0.111088
-0.139333
-0.141445
-0.125116
-0.107409
-0.080868
-0.038497
0.011768
0.059345
0.100431
0.149626
0.158889
0.176444
0.158321
0.121804
0.078763
0.047715
0.011383
-0.035622
-0.080403
-0.118788
-0.135535
-0.133332
-0.137544
-0.113044
-0.084256
-0.037344
0.018080
0.069577
0.096170
0.138026
0.177530
0.181842
0.151559
0.132238
0.082909
0.072167
0.009547
-0.024432
-0.086162
-0.120607
-0.133283
-0.129910
-0.120690
-0.113611
-0.086326
-0.041723
0.001697
0.053889
0.098461
0.135265
0.150749
0.166618
0.184040
0.166303
0.135201
0.074930
0.020738
-0.024693
-0.062034
-0.094919
-0.117552
-0.147633
-0.157714
-0.122759
-0.078736
-0.054061
-0.020057
0.034228
0.070516
0.132360
0.202923
0.204950
0.156977
0.124061
0.113485
0.074071
0.033366
-0.012982
-0.058952
-0.107953
-0.132176
-0.145660
-0.146623
-0.117687
-0.084372
-0.038870
0.005769
0.046322
0.068381
0.119725
0.150280
0.153631
0.150554
0.132308
0.102469
0.050613
0.026929
-0.011923
-0.063969
-0.133299
-0.154390
-0.150191
-0.148580
-0.131882
-0.107834
-0.075389
-0.016532
0.044591
0.083223
0.131408
0.157722
0.179315
0.170932
0.154056
0.125468
0.067112
0.007090
-0.037529
-0.094095
-0.139872
-0.147264
-0.153646
-0.151629
-0.153542
-0.081588
-0.043057
-0.010504
0.049188
0.091069
0.122119
0.138110
0.139218
0.132477
0.115427
0.073658
0.037421
-0.010488
-0.053528
-0.091537
-0.140745
-0.172773
-0.168246
-0.164688
-0.155815
-0.134322
-0.077609
-0.014409
0.052252
0.113099
0.149913
0.140332
0.153234
0.153151
0.124197
0.077989
0.021878
-0.026948
-0.061774
-0.097210
-0.135044
-0.152234
-0.156908
-0.178419
-0.169473
-0.108083
-0.045384
-0.005215
0.025113
0.056116
0.098943
0.119967
0.114953
0.132405
0.126394
0.105777
0.060322
0.008105
-0.042408
-0.097164
-0.138174
-0.149487
-0.160384
-0.157798
-0.149668
-0.115738
-0.066384
-0.023876
0.024891
0.072557
0.112618
0.135359
0.133663
0.116499
0.102287
0.084697
0.040824
-0.011015
-0.046691
-0.099587
-0.150783
-0.151332
-0.163944
-0.169978
-0.149021
-0.115137
-0.076903
-0.013567
0.022079
0.051904
0.112198
0.135035
0.143470
0.133039
0.095448
0.052860
0.022059
-0.027368
-0.078061
-0.143726
-0.186195
-0.177564
-0.166772
-0.156186
-0.139395
-0.112116
-0.088613
-0.041699
0.009439
0.062673
0.105153
0.127967
0.148949
0.139111
0.129400
0.109659
0.056148
0.010335
-0.046728
-0.105231
-0.160773
-0.193124
-0.209764
-0.165181
-0.136421
-0.104524
-0.063845
-0.015912
0.018579
0.075474
0.109937
0.134064
0.144359
0.133452
0.107173
0.079409
0.022184
-0.036469
-0.081598
-0.128738
-0.162062
-0.157768
-0.159785
-0.158150
-0.146489
-0.131058
-0.075597
-0.037552
0.015117
0.054934
0.089760
0.144532
0.176406
0.150715
0.112587
0.076665
0.026669
-0.008856
-0.043462
-0.071533
-0.107169
-0.128184
-0.150667
-0.141033
-0.119446
-0.096368
-0.057868
0.025322
0.068715
0.098835
0.131182
0.157004
0.170420
0.163399
0.138773
0.097014
0.065719
0.013416
-0.043154
-0.062473
-0.092441
-0.119063
-0.123397
-0.123015
-0.120000
-0.097199
-0.065184
0.006290
0.076356
0.133680
0.145671
0.161574
0.184229
0.171880
0.141225
0.118551
0.080119
0.018518
-0.035275
-0.065175
-0.088535
-0.114999
-0.117195
-0.092260
-0.068479
-0.050123
-0.016952
0.014506
0.053475
0.085026
0.118498
0.138674
0.122275
0.130604
0.123991
0.081923
0.075597
0.028052
-0.032523
-0.084526
-0.123465
-0.157170
-0.145564
-0.166994
-0.135582
-0.103890
-0.046104
0.015482
0.031550
0.061188
0.101352
0.137286
0.136915
0.120064
0.101052
0.071841
0.030712
-0.015061
-0.058979
-0.111503
-0.140222
-0.148132
-0.187162
-0.185917
-0.178564
-0.145964
-0.096246
-0.046197
0.011175
0.044488
0.075027
0.088285
0.083640
0.081377
0.069947
0.059121
0.016144
-0.053454
-0.084373
-0.129312
-0.157765
-0.178626
-0.191305
-0.185206
-0.170736
-0.123394
-0.091957
-0.045043
-0.003802
0.044113
0.092300
0.110813
0.111673
0.099650
0.076112
0.048662
0.017546
-0.039787
-0.093498
-0.128704
-0.170892
-0.200719
-0.213366
-0.207714
-0.178591
-0.149553
-0.100467
-0.069286
-0.025734
0.020434
0.063004
0.091880
0.107569
0.090409
0.087512
0.081567
0.028603
-0.028729
-0.097283
-0.154477
-0.201733
-0.182554
-0.184830
-0.193561
-0.175070
-0.140638
-0.082469
-0.038059
-0.007788
0.042815
0.077853
0.091504
0.073777
0.068772
0.043962
0.032182
-0.008567
-0.036779
-0.089277
-0.117666
-0.145330
-0.161234
-0.188403
-0.167902
-0.112044
-0.047397
0.022232
0.091119
0.139733
0.181551
0.219724
0.253617
0.279342
0.297188
0.295921
0.294881
0.279072
0.263412
0.247663
0.235485
0.240421
0.244177
0.275777
0.291094
0.324776
0.403745
0.489486
0.592263
0.698439
0.760597
0.812860
0.844578
0.859789
0.877165
0.885102
0.867269
0.806888
0.717320
0.639833
0.578653
0.521392
0.476140
0.396599
0.321752
0.283565
0.256217
0.260396
0.254883
0.242148
0.243474
0.257548
0.277132
0.279772
0.262226
0.239863
0.190247
0.134173
0.067052
0.014365
-0.032066
-0.086100
-0.106440
-0.115407
-0.114381
-0.094818
-0.068373
-0.028162
0.026900
0.107029
0.157136
0.157412
0.176753
0.187975
0.182602
0.162627
0.116696
0.067675
0.030675
-0.029259
-0.080479
-0.110947
-0.134855
-0.144881
-0.164168
-0.155626
-0.102306
-0.066365
-0.032816
0.024273
0.077851
0.108058
0.114263
0.124855
0.142729
0.131450
0.129198
0.060822
-0.017192
-0.047018
-0.071104
-0.095343
-0.126475
-0.122695
-0.131879
-0.117271
-0.074798
-0.021888
0.016628
0.083557
0.109159
0.138099
0.161405
0.156710
0.138246
0.113590
0.099539
0.064139
0.013667
-0.033507
-0.080478
-0.114851
-0.152391
-0.154421
-0.144938
-0.108744
-0.056919
-0.016505
0.019917
0.055573
0.115841
0.155472
0.178625
0.180445
0.167211
0.145201
0.114103
0.067627
0.032189
-0.002260
-0.055177
-0.103297
-0.132394
-0.145237
-0.112216
-0.092235
-0.067773
-0.020935
0.021071
0.077682
0.153016
0.188181
0.185542
0.186975
0.176110
0.163888
0.131269
0.084286
0.034741
-0.029419
-0.085052
-0.071440
-0.075261
-0.105315
-0.100988
-0.077863
-0.038192
0.009064
0.080098
0.126878
0.167432
0.193994
0.233413
0.261354
0.252235
0.221979
0.176916
0.146851
0.108569
0.051741
0.010837
-0.027387
-0.047425
-0.063516
-0.049892
-0.030758
0.004660
0.074848
0.120353
0.165534
0.207968
0.221229
0.235702
0.256002
0.257714
0.237299
0.206978
0.162407
0.115043
0.062981
0.019549
-0.026402
-0.053971
-0.057381
-0.029372
-0.008624
0.008765
0.051851
0.105190
0.168697
0.187119
0.215527
0.241656
0.237606
0.221997
0.214534
0.188813
0.148126
0.117753
0.071705
0.047461
0.013027
-0.025622
-0.053417
-0.048387
-0.040955
0.005374
0.064427
0.098618
0.149914
0.206757
0.231025
0.243416
0.236267
0.230755
0.206908
0.171908
0.128355
0.086470
0.039882
-0.004363
-0.048170
-0.081887
-0.095266
-0.109338
-0.070622
-0.026384
0.016992
0.066579
0.117165
0.144761
0.186180
0.218763
0.221240
0.208479
0.178118
0.129376
0.090495
0.064155
-0.006909
-0.048781
-0.071584
-0.097010
-0.114252
-0.109946
-0.076425
-0.047701
-0.010977
0.027545
0.074590
0.091024
0.107426
0.130074
0.133769
0.156797
0.118831
0.100023
0.081380
0.022085
-0.022205
-0.076066
-0.097032
-0.124306
-0.127370
-0.130471
-0.137107
-0.118572
-0.067894
-0.017422
0.040138
0.072993
0.096582
0.125763
0.149230
0.134889
0.121556
0.062700
0.024039
-0.002456
-0.035005
-0.098987
-0.134112
-0.168724
-0.179419
-0.173196
-0.157594
-0.135440
-0.076832
-0.016106
0.045585
0.078133
0.111004
0.123859
0.127690
0.116994
0.102670
0.073641
0.021358
-0.026835
-0.070368
-0.110801
-0.157871
-0.199233
-0.190988
-0.167024
-0.135444
-0.100798
-0.062206
-0.017263
0.034397
0.101345
0.124443
0.143378
0.138648
0.127039
0.120298
0.090305
0.044127
-0.003613
-0.053022
-0.098825
-0.141945
-0.171300
-0.192662
-0.178693
-0.138431
-0.098334
-0.060835
-0.026782
0.007584
0.053593
0.103263
0.131628
0.134809
0.128280
0.108869
0.077844
0.046660
-0.002366
-0.071101
-0.113800
-0.152319
-0.166219
-0.195359
-0.152703
-0.121097
-0.100318
-0.056888
-0.030449
0.030775
0.057847
0.101129
0.125205
0.131648
0.116251
0.143432
0.120995
0.049028
0.010841
-0.053228
-0.087737
-0.117946
-0.142323
-0.151501
-0.141031
-0.113550
-0.076980
-0.042493
-0.004447
0.054281
0.076130
0.109676
0.132849
0.152953
0.132255
0.110153
0.078467
0.044107
-0.006882
-0.047295
-0.104957
-0.148732
-0.175658
-0.164174
-0.143810
-0.141716
-0.122426
-0.075418
-0.035905
0.011758
0.066404
0.109980
0.134294
0.136223
0.139107
0.107607
0.093266
0.051655
0.014935
-0.066453
-0.107134
-0.140872
-0.154832
-0.150878
-0.152616
-0.142796
-0.119254
-0.075059
-0.013725
0.026340
0.061970
0.106867
0.143445
0.138328
0.111807
0.091895
0.048577
0.006614
-0.031488
-0.074499
-0.111262
-0.132877
-0.169403
-0.167539
-0.159643
-0.141608
-0.104973
-0.048928
-0.023686
0.036414
0.073465
0.101408
0.116582
0.134747
0.135000
0.099772
0.057021
0.032555
-0.021351
-0.059731
-0.109689
-0.147937
-0.175418
-0.201687
-0.194626
-0.194953
-0.164157
-0.109926
-0.033197
0.039218
0.064978
0.089072
0.103616
0.123203
0.119674
0.111566
0.061706
0.009408
-0.049349
-0.095312
-0.133881
-0.168775
-0.181475
-0.194605
-0.177979
-0.171383
-0.166538
-0.108317
-0.050434
0.013116
0.054885
0.085099
0.113384
0.127682
0.111366
0.082871
0.041467
0.023302
-0.036789
-0.094702
-0.129579
-0.150001
-0.155458
-0.167983
-0.175824
-0.157142
-0.124396
-0.092925
-0.054578
-0.000782
0.031479
0.078044
0.105281
0.097792
0.083189
0.092815
0.053301
0.006980
-0.021195
-0.074778
-0.131782
-0.185554
-0.226670
-0.232334
-0.182850
-0.153838
-0.117752
-0.077780
-0.026668
0.027076
0.076640
0.111139
0.123235
0.128705
0.097746
0.067765
0.043340
0.003006
-0.046028
-0.101473
-0.130041
-0.147609
-0.194494
-0.207677
-0.205918
-0.181533
-0.146941
-0.113939
-0.075431
-0.013710
0.025666
0.067355
0.095342
0.108222
0.112361
0.109940
0.052801
0.003500
-0.037051
-0.083118
-0.115741
-0.148201
-0.186055
-0.204755
-0.187482
-0.154220
-0.119455
-0.088576
-0.042946
0.020380
0.061611
0.077454
0.120143
0.131537
0.117703
0.107347
0.072349
0.023624
-0.031331
-0.075804
-0.104872
-0.134101
-0.159011
-0.172202
-0.157065
-0.133632
-0.100805
-0.061371
-0.010993
0.057733
0.097906
0.129560
0.147861
0.140596
0.134871
0.124471
0.091999
0.037960
0.001055
-0.048468
-0.101244
-0.145885
-0.163810
-0.165938
-0.161319
-0.131396
-0.095656
-0.060541
-0.014891
0.048666
0.101315
0.132354
0.145070
0.151224
0.144003
0.122352
0.069858
0.033411
0.018515
-0.007630
-0.068102
-0.093338
-0.112317
-0.139088
-0.140848
-0.116651
-0.097061
-0.051226
0.005153
0.036380
0.063321
0.101521
0.146573
0.150492
0.151708
0.121193
0.076896
0.035643
-0.009616
-0.079286
-0.124848
-0.155534
-0.180242
-0.192244
-0.181313
-0.162518
-0.143789
-0.105467
-0.055056
0.002352
0.061950
0.081035
0.089153
0.113176
0.109776
0.093908
0.058640
0.019243
-0.030953
-0.094701
-0.151334
-0.184752
-0.214695
-0.220228
-0.203968
-0.182157
-0.154795
-0.103319
-0.062517
-0.014611
0.035064
0.061906
0.081829
0.083243
0.079265
0.081120
0.040568
-0.017603
-0.080928
-0.121461
-0.165043
-0.196060
-0.220344
-0.235995
-0.243136
-0.226354
-0.178508
-0.111544
-0.049546
-0.005122
0.025297
0.062743
0.076753
0.100473
0.084807
0.062714
0.031837
-0.007258
-0.040828
-0.081571
-0.147234
-0.204505
-0.226102
-0.224696
-0.220815
-0.226460
-0.168284
-0.105442
-0.039348
0.012372
0.045892
0.056781
0.082256
0.091432
0.069095
0.059905
0.042421
-0.002457
-0.053441
-0.120992
-0.175023
-0.199671
-0.210756
-0.222200
-0.209375
-0.191455
-0.159127
-0.110697
-0.076383
-0.024877
0.011308
0.044859
0.070939
