-0.001060
0.031381
0.068928
0.098207
0.117916
0.117726
0.102973
0.088155
0.056193
0.010564
-0.046876
-0.061851
-0.112520
-0.144869
-0.169839
-0.178448
-0.194689
-0.145415
-0.102533
-0.074750
-0.007443
0.004902
0.057076
0.088379
0.105036
0.098750
0.084325
0.044662
-0.007050
-0.028990
-0.064685
-0.096755
-0.151613
-0.139278
-0.177516
-0.214000
-0.205842
-0.187794
-0.154250
-0.090407
-0.060276
0.019995
0.054907
0.067801
0.094807
0.079732
0.075639
0.076320
0.026851
-0.045954
-0.062043
-0.099037
-0.147918
-0.194439
-0.206025
-0.231410
-0.210667
-0.179988
-0.151451
-0.094830
-0.045641
-0.023336
0.021723
0.065950
0.106042
0.096574
0.069611
0.040084
0.012310
0.000562
-0.081382
-0.138597
-0.164006
-0.178000
-0.200594
-0.197903
-0.198315
-0.166934
-0.129328
-0.099288
-0.040567
0.008269
0.043762
0.061459
0.060045
0.050316
0.089368
0.053427
0.023030
-0.004342
-0.063172
-0.091212
-0.137300
-0.145800
-0.155344
-0.183512
-0.166644
-0.168648
-0.140064
-0.093000
-0.024680
0.008652
0.032562
0.056024
0.079426
0.103675
0.080837
0.059811
0.031958
-0.015031
-0.134590
-0.105709
-0.138947
-0.154717
-0.164822
-0.170072
-0.165210
-0.156956
-0.140620
-0.091693
-0.043741
-0.001008
0.050962
0.079250
0.090713
0.086967
0.084210
0.066405
0.054327
-0.016193
-0.059093
-0.083569
-0.115907
-0.171571
-0.199387
-0.183715
-0.192791
-0.152166
-0.141180
-0.104681
-0.083786
-0.018442
0.030414
0.061174
0.113492
0.143631
0.121575
0.056882
0.002557
-0.045566
-0.075321
-0.129990
-0.171130
-0.171517
-0.142453
-0.159637
-0.187170
-0.170350
-0.139656
-0.099991
-0.049864
-0.002399
0.027107
0.067839
0.088350
0.100476
0.085425
0.054136
0.022196
-0.035215
-0.089462
-0.126145
-0.181467
-0.223182
-0.211514
-0.226933
-0.218661
-0.195076
-0.151259
-0.136793
-0.082060
-0.044211
-0.017253
0.057497
0.079652
0.087039
0.096514
0.064842
0.021969
-0.024994
-0.066725
-0.137202
-0.181686
-0.220748
-0.218853
-0.238838
-0.219158
-0.175391
-0.144723
-0.111553
-0.067159
-0.034486
0.008995
0.049000
0.050301
0.038398
0.061820
0.036158
0.003232
-0.021724
-0.088420
-0.133417
-0.151356
-0.190665
-0.208639
-0.196934
-0.207425
-0.167713
-0.142864
-0.118663
-0.038223
0.006195
0.051722
0.062178
0.079793
0.083528
0.068278
0.051731
0.036327
-0.005538
-0.069285
-0.105163
-0.144456
-0.153226
-0.178328
-0.206708
-0.199219
-0.175731
-0.123466
-0.081344
-0.044553
0.030500
0.091686
0.098501
0.086062
0.085153
0.101848
0.077239
0.033414
-0.002762
-0.069971
-0.128409
-0.198250
-0.190247
-0.200896
-0.184300
-0.173830
-0.137338
-0.086507
-0.068576
-0.012725
0.025009
0.077354
0.113137
0.127244
0.130260
0.118158
0.097908
0.065895
0.023114
-0.042423
-0.087570
-0.132194
-0.146160
-0.178205
-0.189611
-0.171807
-0.143813
-0.149602
-0.028410
0.006453
0.003965
0.022280
0.068556
0.088433
0.131121
0.128582
0.102024
0.034003
-0.057058
-0.080806
-0.130418
-0.160094
-0.195063
-0.243036
-0.234996
-0.199290
-0.164617
-0.153619
-0.123979
-0.079843
-0.045817
-0.018484
0.032500
0.053190
0.059054
0.045883
0.006600
-0.020414
-0.059489
-0.118844
-0.135943
-0.183660
-0.232521
-0.217468
-0.267105
-0.271877
-0.213609
-0.155518
-0.109403
-0.084770
-0.055576
-0.002675
0.012919
0.008848
0.025631
0.043547
0.017418
-0.003644
-0.050080
-0.127405
-0.135940
-0.162547
-0.166641
-0.184457
-0.249526
-0.285988
-0.259840
-0.210279
-0.168878
-0.138646
-0.068605
0.009766
0.052216
0.042575
0.029918
0.012519
0.012696
-0.032309
-0.089899
-0.122264
-0.172914
-0.185703
-0.214541
-0.233157
-0.245287
-0.247567
-0.203033
-0.166309
-0.124872
-0.088919
-0.055094
-0.020500
0.020938
0.042513
0.050234
0.023031
0.003010
-0.016635
-0.061205
-0.122679
-0.154288
-0.214715
-0.259958
-0.262011
-0.274560
-0.294058
-0.248652
-0.222426
-0.198260
-0.121320
-0.070755
-0.024554
0.013256
0.036753
0.052878
0.054964
0.049030
0.022116
-0.011715
-0.071787
-0.072068
-0.091330
-0.103833
-0.098040
-0.097022
-0.091549
-0.060764
-0.002096
0.092782
0.157776
0.211813
0.298130
0.377483
0.416070
0.424874
0.419760
0.400581
0.387404
0.376174
0.381659
0.394561
0.385090
0.396295
0.421426
0.428262
0.468237
0.525794
0.561659
0.620717
0.672100
0.693410
0.696068
0.714127
0.720734
0.718605
0.648891
0.550160
0.416194
0.334288
0.239401
0.157497
0.054359
0.003544
-0.053464
-0.123115
-0.105543
-0.072844
-0.041267
-0.017870
-0.018814
-0.013641
0.024763
0.063886
0.098197
0.151014
0.147440
0.101563
0.051936
0.013744
-0.023966
-0.074349
-0.112048
-0.146484
-0.188060
-0.192526
-0.179327
-0.141455
-0.143790
-0.113552
-0.047361
-0.011467
0.028790
0.067511
0.068384
0.075967
0.070408
0.056149
0.023744
-0.031743
-0.089717
-0.123002
-0.156738
-0.189723
-0.206448
-0.216826
-0.227767
-0.185377
-0.151307
-0.116965
-0.070093
-0.023407
0.022440
0.049326
0.075708
0.086696
0.058509
0.017381
-0.001472
-0.025186
-0.043309
-0.108476
-0.181165
-0.198521
-0.206736
-0.200053
-0.189897
-0.185621
-0.151170
-0.148846
-0.078256
0.000912
0.031635
0.060882
0.074975
0.094068
0.122513
0.066822
0.000630
-0.025618
-0.054098
-0.097387
-0.129567
-0.162592
-0.178854
-0.194794
-0.190719
-0.161268
-0.151645
-0.096977
-0.025330
0.026796
0.045714
0.071549
0.119391
0.084306
0.069586
0.067720
0.047249
-0.006008
-0.007286
-0.058791
-0.099249
-0.137112
-0.156925
-0.176900
-0.160669
-0.113049
-0.092335
-0.050986
-0.013263
0.008217
0.059215
0.101684
0.114536
0.124760
0.136926
0.117526
0.083638
0.051151
-0.004426
-0.053578
-0.086342
-0.123740
-0.133536
-0.114283
-0.121263
-0.095617
-0.061389
-0.042597
0.036895
0.094438
0.135181
0.159502
0.147253
0.158351
0.154312
0.126982
0.096089
0.061436
0.030209
-0.010609
-0.069689
-0.101602
-0.113307
-0.104789
-0.096318
-0.064694
-0.027482
-0.001151
0.044710
0.087136
0.108281
0.149226
0.151212
0.102903
0.142738
0.172687
0.138324
0.084607
0.033868
-0.013920
-0.051967
-0.091230
-0.124454
-0.118448
-0.133043
-0.065097
-0.038013
-0.027775
0.018684
0.043438
0.109299
0.145485
0.184721
0.204024
0.210202
0.157288
0.104927
0.085151
0.022652
-0.012823
-0.064192
-0.080877
-0.118973
-0.154755
-0.157382
-0.105031
-0.073204
-0.049386
-0.003975
0.066492
0.106461
0.140130
0.168915
0.151963
0.128837
0.089739
0.068873
0.053719
0.010602
-0.050986
-0.090929
-0.119662
-0.132071
-0.143581
-0.146995
-0.128080
-0.090647
-0.056183
-0.017397
0.029559
0.059403
0.104438
0.128766
0.129722
0.123460
0.086879
0.039593
-0.014884
-0.086547
-0.129257
-0.171426
-0.111191
-0.138771
-0.180110
-0.185055
-0.173404
-0.140350
-0.093150
-0.050652
-0.002635
0.025320
0.056290
0.075434
0.078489
0.077810
0.044348
0.021411
-0.033576
-0.082305
-0.118801
-0.152042
-0.215667
-0.232988
-0.217327
-0.223438
-0.230305
-0.160904
-0.108119
-0.061514
-0.044588
-0.008132
0.013361
0.048442
0.050573
0.053398
0.033899
0.007741
-0.027547
-0.069395
-0.131471
-0.183602
-0.207041
-0.246950
-0.255009
-0.239848
-0.189549
-0.134799
-0.102321
-0.086192
-0.064730
-0.025095
0.009403
0.066212
0.090940
0.081072
0.031233
-0.002276
-0.053303
-0.094074
-0.130527
-0.161038
-0.212338
-0.237961
-0.210918
-0.166692
-0.159260
-0.139789
-0.122413
-0.087417
-0.018908
0.026305
0.066996
0.078927
0.069658
0.063188
0.031821
-0.007039
-0.040226
-0.082417
-0.153315
-0.149885
-0.130072
-0.169809
-0.190736
-0.211399
-0.216651
-0.197030
-0.158530
-0.090478
-0.010237
0.039360
0.056710
0.099017
0.113351
0.057568
0.001629
0.008493
-0.034963
-0.095548
-0.144531
-0.175996
-0.178776
-0.229653
-0.235112
-0.210478
-0.191165
-0.155368
-0.116791
-0.041760
0.014233
0.029370
0.022598
0.035046
0.024591
0.029885
0.013708
0.000573
-0.038477
-0.077407
-0.110928
-0.143510
-0.179054
-0.195450
-0.202578
-0.213856
-0.180386
-0.147059
-0.097573
-0.063949
-0.027152
0.012443
0.032948
0.019564
0.018102
0.060110
0.063159
0.045577
0.000447
-0.068154
-0.114019
-0.162262
-0.161083
-0.187384
-0.210830
-0.188427
-0.162542
-0.151779
-0.120811
-0.093104
-0.038793
0.014139
0.027915
0.051757
0.083666
0.079415
0.037431
-0.001364
-0.030826
-0.066833
-0.101719
-0.158265
-0.190381
-0.219172
-0.228854
-0.234929
-0.203896
-0.164229
-0.101493
-0.056952
-0.027477
0.001558
0.036694
0.076946
0.085754
0.074911
0.031715
-0.005155
-0.027826
-0.099789
-0.157334
-0.168842
-0.195916
-0.219448
-0.240602
-0.256215
-0.196564
-0.155308
-0.118801
-0.095104
-0.058316
0.009221
0.004344
0.053392
0.073572
0.057033
0.028584
0.010189
-0.018126
-0.080050
-0.135990
-0.169044
-0.166807
-0.206628
-0.219857
-0.203488
-0.165834
-0.133759
-0.107213
-0.072993
-0.028240
0.045117
0.084753
0.087552
0.074766
0.070867
0.046203
0.003211
-0.042392
-0.072812
-0.092605
-0.137695
-0.154398
-0.168558
-0.173394
-0.208210
-0.176240
-0.147850
-0.106366
-0.039749
-0.002834
0.054154
0.091466
0.095571
0.081515
0.088146
0.078392
0.061781
0.012161
-0.035072
-0.090747
-0.141672
-0.165130
-0.184359
-0.183532
-0.188628
-0.150623
-0.111489
-0.060965
-0.006566
0.035601
0.045731
0.074584
0.074418
0.120896
0.107805
0.054808
0.000854
-0.019698
-0.069908
-0.108746
-0.151684
-0.173476
-0.204715
-0.211357
-0.218731
-0.203190
-0.172687
-0.108828
-0.073046
-0.034314
-0.009981
0.008298
0.061277
0.031861
0.006921
-0.012093
-0.027148
-0.071323
-0.135776
-0.174730
-0.236387
-0.244871
-0.238612
-0.239991
-0.226300
-0.202591
-0.179860
-0.137387
-0.116980
-0.114368
-0.080592
-0.030210
-0.002616
0.049851
0.037867
0.011280
-0.026598
-0.096941
-0.133086
-0.172860
-0.188501
-0.221277
-0.240727
-0.255264
-0.229796
-0.212646
-0.191494
-0.167538
-0.122388
-0.070573
-0.029033
0.001630
0.026098
0.021307
0.024132
-0.001337
-0.054812
-0.117789
-0.133963
-0.141927
-0.217035
-0.295318
-0.278763
-0.261019
-0.243577
-0.209535
-0.186236
-0.153198
-0.120287
-0.107827
-0.034565
0.018392
0.031776
0.025524
0.011385
0.011633
-0.020507
-0.066910
-0.127069
-0.165680
-0.218709
-0.246708
-0.281199
-0.262571
-0.221028
-0.247734
-0.207907
-0.186634
-0.158769
-0.087898
-0.053666
-0.019730
-0.008828
-0.018426
-0.017351
-0.007148
-0.031028
-0.086054
-0.116487
-0.126554
-0.122767
-0.134310
-0.141169
-0.128775
-0.103442
-0.083346
-0.026342
0.030065
0.071283
0.129860
0.203813
0.277757
0.290665
0.309866
0.360384
0.372137
0.363761
0.344109
0.320831
0.346188
0.342648
0.331922
0.346323
0.389217
0.418517
0.493261
0.554605
0.630883
0.692440
0.728464
0.749909
0.756330
0.796579
0.782468
0.763931
0.699324
0.602850
0.512824
0.439059
0.326551
0.199990
0.119124
0.070959
0.031548
-0.014760
-0.019232
-0.032457
-0.004948
0.003689
0.042878
0.071861
0.091860
0.108476
0.105840
0.110574
0.072153
0.046622
0.009354
-0.049872
-0.095143
-0.160917
-0.195897
-0.192508
-0.199904
-0.167445
-0.173641
-0.141669
-0.107980
-0.078758
-0.027098
-0.011229
0.061167
0.075891
0.040780
0.026175
0.002510
0.012474
-0.007708
-0.050481
-0.085321
-0.134731
-0.191624
-0.227819
-0.223882
-0.235303
-0.209841
-0.154634
-0.128547
-0.084941
-0.071721
-0.045190
0.028421
0.052198
0.057613
0.058561
0.040415
-0.001948
-0.038224
-0.069259
-0.112204
-0.175411
-0.225219
-0.193578
-0.203158
-0.218725
-0.214648
-0.157572
-0.098650
-0.072380
-0.047670
0.010879
0.064811
0.071813
0.076399
0.079754
0.048933
-0.001054
-0.055686
-0.089243
-0.149479
-0.149470
-0.209143
-0.220013
-0.208589
-0.200372
-0.170814
-0.144252
-0.116708
-0.071239
-0.025883
0.034536
0.081988
0.084148
0.073415
0.056781
0.042344
0.031189
0.000298
-0.045112
-0.116302
-0.140797
-0.180908
-0.198203
-0.191631
-0.195277
-0.162341
-0.127370
-0.077235
-0.050711
-0.014641
0.054061
0.095565
0.125402
0.107621
0.104302
0.080997
0.030428
-0.013898
-0.048683
-0.092626
-0.122445
-0.165590
-0.184676
-0.181990
-0.183498
-0.135053
-0.104172
-0.064146
-0.019086
0.031845
0.064081
0.103560
0.126462
0.141337
0.112607
0.120176
0.089085
0.016862
-0.031944
-0.057724
-0.095962
-0.159179
-0.161051
-0.156838
-0.121688
-0.113044
-0.091861
-0.026475
0.019163
0.061940
0.116533
0.108688
0.151515
0.176729
0.152630
0.103940
0.057432
0.042242
0.000828
-0.047104
-0.084017
-0.136515
-0.184339
-0.187963
-0.162420
-0.131658
-0.076623
-0.021360
0.007029
0.058577
0.077410
0.090199
0.095247
0.119573
0.128902
0.105946
0.100366
0.039469
-0.026344
-0.057234
-0.112382
-0.128073
-0.148073
-0.170106
-0.162644
-0.160410
-0.122087
-0.067692
-0.030641
0.004470
0.042380
0.071071
0.084489
0.103501
0.074142
0.042168
0.016325
0.007185
0.003931
-0.020600
-0.075382
-0.157419
-0.187163
-0.198675
-0.179448
-0.142014
-0.129759
-0.101368
-0.051026
-0.016854
0.023386
0.058289
0.080747
0.084417
0.084520
0.049754
0.031247
-0.015502
-0.057338
-0.114232
-0.144820
-0.196828
-0.231065
-0.234554
-0.245260
-0.209846
-0.144843
-0.082773
-0.056904
-0.025522
0.020393
0.046134
0.063049
0.048785
0.044959
-0.000910
-0.051725
-0.095419
-0.107323
-0.109517
-0.158518
-0.185273
-0.207886
-0.215270
-0.237914
-0.187305
-0.169928
-0.105939
-0.099392
-0.026008
-0.004333
0.010233
0.051911
0.051202
0.031094
0.002143
-0.031397
-0.075820
-0.126568
-0.156546
-0.200284
-0.210937
-0.210746
-0.232760
-0.235930
-0.225958
-0.199340
-0.153502
-0.112629
-0.059012
-0.010342
0.029386
0.047599
0.051590
0.033035
0.009289
-0.018191
-0.071207
-0.114009
-0.151077
-0.188669
-0.222703
-0.258332
-0.296291
-0.227565
-0.175154
-0.153961
-0.140478
-0.105566
-0.021276
0.024694
0.036293
0.051867
0.046170
0.048679
0.056061
0.016200
-0.039727
-0.084666
-0.138789
-0.168786
-0.188387
-0.226440
-0.236480
-0.220909
-0.202444
-0.180021
-0.119525
-0.083896
-0.017712
0.006004
0.025152
0.052682
0.053944
0.073376
0.056656
0.034661
-0.013936
-0.092417
-0.136753
-0.163777
-0.192838
-0.214828
-0.228766
-0.224953
-0.206808
-0.175300
-0.137519
-0.079306
-0.043387
-0.003803
0.017759
0.045277
0.053288
0.028988
0.019860
-0.029234
-0.058726
-0.100363
-0.140295
-0.175265
-0.215143
-0.230357
-0.223239
-0.206904
-0.191265
-0.173165
-0.131675
-0.083401
-0.018079
0.027297
0.056680
0.071742
0.073722
0.062489
0.025378
-0.004287
-0.076668
-0.126326
-0.145007
-0.169066
-0.208956
-0.246612
-0.243337
-0.232739
-0.219599
-0.156390
-0.128548
-0.058986
-0.023041
0.027086
0.067830
0.048704
0.062523
0.075335
0.042813
0.003264
-0.028570
-0.081484
-0.137775
-0.183681
-0.204948
-0.230473
-0.225530
-0.228746
-0.220113
-0.175901
-0.140131
-0.095567
-0.070446
-0.045657
0.032287
0.061597
0.075138
0.069643
0.047965
0.017758
-0.019469
-0.051102
-0.101461
-0.147567
-0.196738
-0.207653
-0.213174
-0.210640
-0.198007
-0.166386
-0.116136
-0.062078
-0.024743
0.034138
0.056065
0.066877
0.072700
0.090959
0.063166
0.012790
-0.026998
-0.039639
-0.065836
-0.089705
-0.162824
-0.185995
-0.206442
-0.201271
-0.176200
-0.155505
-0.116979
-0.046804
0.011468
0.026961
0.033137
0.038819
0.051012
0.037743
0.105881
0.068241
-0.008298
-0.042159
-0.068476
-0.128318
-0.168850
-0.187088
-0.189724
-0.184947
-0.170567
-0.158148
-0.096776
-0.040553
0.004298
0.044511
0.068246
0.072417
0.091271
0.110696
0.089396
0.056259
-0.002198
-0.044904
-0.102745
-0.139833
-0.159460
-0.200941
-0.229344
-0.242996
-0.193506
-0.151577
-0.106274
-0.071849
-0.015490
0.007580
0.053212
0.095108
0.124814
0.080611
0.008470
-0.028703
-0.050067
-0.090960
-0.142059
-0.172842
-0.195448
-0.214157
-0.218619
-0.194014
-0.190159
-0.185262
-0.118547
-0.082454
-0.033211
-0.003869
0.014956
0.033554
0.030336
0.022882
0.002273
-0.027642
-0.099251
-0.112472
-0.136161
-0.208687
-0.248556
-0.262991
-0.269912
-0.264483
-0.236832
-0.187788
-0.148449
-0.098782
-0.074987
-0.027467
0.008996
0.023867
0.017658
0.027612
0.007170
-0.018387
-0.088115
-0.133136
-0.154619
-0.193848
-0.245559
-0.292041
-0.293471
-0.283926
-0.238147
-0.206255
-0.190570
-0.129907
-0.088760
-0.067199
-0.004722
0.026773
0.037451
0.008313
-0.022589
-0.044113
-0.061798
-0.105070
-0.162867
-0.207442
-0.234513
-0.273506
-0.263182
-0.225384
-0.194001
-0.170720
-0.149218
-0.108679
-0.066901
-0.023579
0.016367
0.027670
0.015055
0.009823
-0.047197
-0.046777
-0.109609
-0.123310
-0.194220
-0.235176
-0.262217
-0.270225
-0.257848
-0.219403
-0.177006
-0.147970
-0.088727
-0.026323
0.032220
0.071626
0.134057
0.183179
0.193821
0.171389
0.147544
0.139381
0.123524
0.073828
0.023691
0.074563
0.083345
0.101421
0.089136
0.139765
0.209866
0.254533
0.335674
0.406485
0.477886
0.571686
0.635116
0.675980
0.710933
0.727727
0.753355
0.741073
0.707456
0.663484
0.611608
0.555896
0.494352
0.468765
0.463998
0.416616
0.394206
0.383813
0.359338
0.335450
0.308261
0.307190
0.287458
0.274421
0.225821
0.192702
0.144949
0.092556
0.077656
0.052663
-0.038880
-0.076842
-0.113111
-0.105560
-0.103835
-0.150693
-0.118080
-0.089228
-0.039527
-0.002438
0.041722
0.064210
0.071377
0.084297
0.118848
0.101593
0.064397
0.034818
-0.008741
-0.093786
-0.119221
-0.146873
-0.193490
-0.208354
-0.194121
-0.191395
-0.164284
-0.113057
-0.039361
-0.016153
-0.021222
-0.015252
0.042517
0.053460
0.073390
0.076016
0.051864
0.032446
-0.014323
-0.059309
-0.111514
-0.144559
-0.181879
-0.223860
-0.219858
-0.229051
-0.183773
-0.144175
-0.109156
-0.072999
-0.010638
0.023649
0.051009
0.070382
0.082947
0.085874
0.057743
-0.021680
-0.024157
-0.081480
-0.118278
-0.156124
-0.163831
-0.167835
-0.203910
-0.194614
-0.157169
-0.114042
-0.073998
-0.046758
-0.009725
0.040133
0.067576
0.107395
0.092617
0.076605
0.063543
0.023980
-0.027585
-0.081457
-0.115516
-0.126576
-0.148489
-0.175276
-0.187627
-0.187298
-0.157416
-0.128447
-0.089866
-0.045496
0.019980
0.067553
0.086329
0.074955
0.069808
0.081882
0.051915
0.021272
0.005410
-0.036916
-0.069903
-0.140864
-0.147819
-0.162378
-0.149848
-0.157104
-0.088809
-0.068228
-0.019538
0.004938
0.032301
0.079272
0.099781
0.122088
0.167033
0.151744
0.098197
0.066290
0.027340
0.011835
-0.005313
-0.063403
-0.121250
-0.138187
-0.137378
-0.118276
-0.081501
-0.058623
-0.004065
0.040651
0.072413
0.087098
0.151613
0.154606
0.180336
0.167860
0.142136
0.124216
0.080727
0.037521
-0.028349
-0.052099
-0.094697
-0.115535
-0.140974
-0.116436
-0.098194
-0.072706
-0.026012
0.018494
0.063913
0.096637
0.132710
0.148201
0.151053
0.161957
0.145312
0.115421
0.079432
0.008779
-0.055446
-0.119270
-0.154103
-0.170256
-0.167775
-0.175394
-0.140600
-0.100064
-0.066597
-0.004958
0.071684
0.124714
0.152691
0.173456
0.190174
0.174735
0.144073
0.095974
0.046920
-0.005359
-0.040805
-0.079072
-0.135659
-0.154093
-0.160505
-0.138728
-0.115890
-0.080356
-0.049290
-0.024314
0.020575
0.064799
0.116596
0.110770
0.103778
0.110170
0.098684
0.074860
0.048261
0.013313
-0.045117
-0.079779
-0.129716
-0.165448
-0.198186
-0.190055
-0.174258
-0.100209
-0.057119
-0.027564
0.037492
0.071381
0.080158
0.108799
0.110579
0.082582
0.081840
0.040429
-0.009545
-0.056561
-0.132404
-0.151828
-0.177319
-0.191939
-0.211166
-0.182821
-0.160583
-0.124445
-0.088368
-0.042642
-0.014137
0.015720
0.041845
0.072939
0.096601
0.086956
0.047975
0.005359
-0.032945
-0.052616
-0.103401
-0.171184
-0.203520
-0.216384
-0.218426
-0.202147
-0.180882
-0.148607
-0.121226
-0.065797
-0.011589
0.013719
0.062555
0.092888
0.087140
0.081587
0.055551
0.028517
0.005958
-0.032003
-0.104258
-0.173077
-0.187399
-0.201322
-0.218284
-0.218431
-0.140468
-0.130902
-0.111129
-0.069513
-0.024107
0.044271
0.066904
0.082319
0.093487
0.081547
0.066711
0.014064
-0.014213
-0.044550
-0.094630
-0.127723
-0.151082
-0.172967
-0.189527
-0.195236
-0.186405
-0.157977
-0.113419
-0.080344
-0.013097
0.072418
0.104080
0.092891
0.068206
0.071878
0.078084
0.055744
0.022653
-0.020626
-0.074711
-0.155482
-0.194424
-0.204354
-0.183726
-0.176595
-0.151204
-0.109944
-0.084525
-0.054792
-0.010288
0.044075
0.089347
0.114537
0.116105
0.110775
0.093672
0.047189
-0.021123
-0.073027
-0.097210
-0.135528
-0.164929
-0.184538
-0.222962
-0.194857
-0.147139
-0.129996
-0.088594
-0.026995
0.013801
0.055953
0.084411
0.105959
0.105132
0.076473
0.049522
0.027653
-0.010063
-0.042388
-0.076656
-0.137635
-0.187351
-0.187548
-0.217889
-0.180779
-0.168848
-0.149988
-0.109380
-0.050011
0.002205
0.028216
0.076848
0.087016
0.103738
0.098456
0.041637
0.004720
-0.023090
-0.042167
-0.094512
-0.127608
-0.175119
-0.191068
-0.191361
-0.179267
-0.185298
-0.158645
-0.082104
-0.026091
0.019781
0.036671
0.074899
0.102302
0.102490
0.035411
0.002715
0.041048
0.032044
-0.045393
-0.112252
-0.170525
-0.225417
-0.233000
-0.195492
-0.198592
-0.168825
-0.156137
-0.111802
-0.051798
-0.006557
0.037618
0.070293
0.084883
0.108633
0.124509
0.104197
0.035144
-0.020784
-0.063602
-0.100829
-0.151315
-0.183328
-0.192019
-0.194148
-0.205214
-0.179677
-0.136438
-0.086691
-0.029347
0.018741
0.053142
0.099668
0.122670
0.115674
0.108198
0.109119
0.087724
0.031508
-0.036221
-0.082501
-0.087330
-0.116774
-0.178744
-0.201180
-0.163235
-0.123026
-0.096801
-0.076243
-0.045886
0.008478
0.038194
0.061280
0.075858
0.110103
0.116546
0.077973
0.049575
0.029516
-0.006641
-0.045914
-0.097512
-0.141201
-0.174331
-0.175496
-0.159389
-0.115655
-0.079970
-0.019088
0.010218
0.053521
0.090918
0.094016
0.116215
0.121865
0.133421
0.107361
0.058021
0.005325
-0.051116
-0.084868
-0.091240
-0.139492
-0.164399
-0.145689
-0.135343
-0.130962
-0.133575
-0.098934
-0.035409
0.005671
0.011431
0.021764
0.086969
0.112199
0.088561
0.067279
0.027656
-0.017909
-0.056202
-0.098130
-0.127141
-0.160054
-0.191682
-0.206011
-0.205407
-0.168140
-0.157870
-0.130811
-0.093148
-0.044499
0.012886
0.048459
0.095272
0.091912
0.048748
0.027880
0.007325
-0.044585
-0.079457
-0.130274
-0.178280
-0.210219
-0.234732
-0.246440
-0.252407
-0.241043
-0.183584
-0.127918
-0.087154
-0.068226
-0.028023
0.019627
0.026996
0.024452
0.057492
0.051890
0.003981
-0.072493
-0.091220
-0.121753
-0.173579
-0.201501
-0.222722
-0.240506
-0.237523
-0.193482
-0.165924
-0.129492
-0.096794
-0.036979
-0.020027
0.024600
0.059677
0.066143
0.071080
0.033782
0.000039
-0.050991
-0.120105
-0.190401
-0.186825
-0.213552
-0.224839
-0.248382
-0.251528
-0.207741
-0.143883
-0.132405
-0.116457
-0.055255
-0.010244
0.033176
0.065940
0.059970
0.049475
0.052844
0.026926
-0.048833
-0.115624
-0.150527
-0.197772
-0.258167
-0.240207
-0.238523
-0.212895
-0.167701
-0.120071
-0.060951
-0.004195
0.042525
0.086356
0.151678
0.178601
0.196615
0.190526
0.203180
0.227648
0.187479
0.153828
0.139731
0.125083
0.133539
0.137332
0.157890
0.196337
0.245275
0.307961
0.393395
0.457822
0.525586
0.594676
0.664275
0.726483
0.751325
0.780083
0.806343
0.813617
0.816125
0.732316
0.666898
0.629905
0.558960
0.509311
0.494705
0.513776
0.507279
0.494537
0.440396
0.404384
0.367346
0.367399
0.352878
0.332393
0.302428
0.267476
0.213809
0.152980
0.104369
0.074806
0.022898
-0.025089
-0.063817
-0.093852
-0.086618
-0.088947
-0.075551
-0.053307
-0.029185
-0.002939
0.047062
0.079998
0.119067
0.135657
0.138238
0.137898
0.122966
0.082814
0.029599
-0.014968
-0.068724
-0.117942
-0.141521
-0.136050
-0.136206
-0.148407
-0.155075
-0.140228
-0.082263
-0.038983
-0.004500
0.045719
0.082471
0.101067
0.107865
0.092573
0.070447
0.037085
-0.007112
-0.043854
-0.089548
-0.125092
-0.166254
-0.185126
-0.172716
-0.156518
-0.147704
-0.121296
-0.079717
-0.050563
0.023147
0.086667
0.096355
0.080441
0.098185
0.099327
0.068383
0.034594
0.008853
-0.031886
-0.089315
-0.117705
-0.154135
-0.176440
-0.147137
-0.130002
-0.125110
-0.094439
-0.052127
-0.029300
0.005223
0.030242
0.092023
0.111670
0.143465
0.144605
0.097767
0.071494
0.027554
-0.027447
-0.073597
-0.121996
-0.166880
-0.159967
-0.157478
-0.158583
-0.124934
-0.079692
-0.028723
0.007526
0.070871
0.097007
0.112062
0.131810
0.125723
0.132326
0.132996
0.099499
0.069549
0.007754
-0.040939
-0.072814
-0.090357
-0.137408
-0.140840
-0.116303
-0.102479
-0.054043
0.002424
0.051982
0.077340
0.116434
0.171112
0.207041
0.188303
0.159273
0.127033
0.117761
0.081858
0.033382
0.005137
-0.024000
-0.060197
-0.091699
-0.101679
-0.114249
-0.076841
-0.050704
-0.037480
0.036052
0.082677
0.137563
0.179003
0.184774
0.176830
0.213035
0.199272
0.156229
0.124183
0.074016
0.037796
-0.025540
-0.068851
-0.088786
-0.078973
-0.074188
-0.060587
-0.027880
-0.000007
0.061881
0.100045
0.143225
0.176215
0.202933
0.208958
0.184031
0.142667
0.141841
0.125198
0.077103
0.011725
-0.026632
-0.051516
-0.067162
-0.076730
-0.083179
-0.049409
-0.025384
0.018847
0.051737
0.082991
0.132429
0.181915
0.182142
0.158012
0.147938
0.154049
0.119727
0.108224
0.065402
0.025032
-0.035377
-0.110165
-0.105248
-0.111482
-0.108912
-0.077514
-0.066221
-0.018790
0.027779
0.061880
0.102038
0.135280
0.169931
0.170698
0.183005
0.152624
0.086456
0.033670
-0.007473
-0.046488
-0.110270
-0.144865
-0.177741
-0.151748
-0.157413
-0.145688
-0.111183
-0.022730
0.025432
0.057390
0.101037
0.121120
0.118754
0.132317
0.129265
0.084145
0.065855
0.018704
-0.017814
-0.058749
-0.120580
-0.171778
-0.171845
-0.173751
-0.191285
-0.182786
-0.151871
-0.049587
0.049417
0.074439
0.072999
0.067054
0.084588
0.091616
0.091207
0.088557
0.052177
0.005090
-0.028706
-0.063708
-0.126193
-0.180024
-0.199512
-0.185574
-0.168235
-0.144497
-0.158111
-0.095349
-0.016514
0.058506
0.092891
0.116392
0.118673
0.116900
0.107552
0.076377
0.029918
-0.007301
-0.060403
-0.133317
-0.188501
-0.181505
-0.194687
-0.188921
-0.169537
-0.145604
-0.116761
-0.070677
-0.040380
-0.030863
0.049896
0.080428
0.127870
0.133586
0.107569
0.099561
0.062396
0.018701
-0.026068
-0.060185
-0.121069
-0.141432
-0.199116
-0.208749
-0.153680
-0.140156
-0.125571
-0.118343
-0.072916
0.005987
0.092133
0.139042
0.151164
0.129866
0.102759
0.063598
0.009152
-0.007609
-0.037065
-0.091537
-0.118232
-0.144534
-0.164007
-0.155650
-0.153032
-0.139822
-0.111436
-0.058092
-0.011240
0.010876
0.055786
0.090864
0.120480
0.127489
0.105809
0.084917
0.032823
-0.026680
-0.053786
-0.057936
-0.100006
-0.144914
-0.187367
-0.186109
-0.164380
-0.148188
-0.127021
-0.071133
-0.002025
0.029917
0.060130
0.108943
0.121574
0.112682
0.098849
0.069672
0.034805
0.016874
0.029106
-0.012903
-0.083654
-0.149041
-0.177851
-0.186216
-0.149276
-0.115255
-0.100226
-0.042984
-0.013527
0.032551
0.063775
0.077935
0.096653
0.112753
0.098556
0.079496
0.066451
0.028795
-0.021234
-0.088423
-0.151203
-0.203498
-0.161826
-0.121288
-0.127232
-0.155687
-0.126541
-0.083498
-0.005383
0.024854
0.039539
0.079657
0.123227
0.113187
0.102648
0.076374
0.053904
0.006816
-0.041345
-0.113932
-0.142903
-0.165278
-0.182780
-0.188562
-0.166242
-0.150550
-0.125084
-0.099965
-0.057536
0.002749
0.015882
0.038646
0.056771
0.095279
0.086222
0.054048
0.023866
-0.022039
-0.057861
-0.080385
-0.109821
-0.140939
-0.166881
-0.152186
-0.165150
-0.130784
-0.103030
-0.069502
-0.032364
0.024002
0.065069
0.108142
0.103396
0.123954
0.126066
0.112474
0.058979
0.002525
0.004687
-0.049780
-0.114444
-0.143130
-0.149281
-0.151624
-0.155906
-0.125703
-0.078160
-0.042516
0.012205
0.059554
0.085825
0.127932
0.150980
0.186492
0.181324
0.156821
0.092894
0.036446
-0.025154
-0.063259
-0.103700
-0.146555
-0.160423
-0.159810
-0.160496
-0.126730
-0.077317
-0.047892
0.007773
0.068286
0.106350
0.135121
0.155491
0.164734
0.163023
0.146816
0.120550
0.042478
-0.004694
-0.054408
-0.103191
-0.153599
-0.161952
-0.168653
-0.160976
-0.144284
-0.108285
-0.067252
-0.029070
0.018581
0.041852
0.056887
0.088952
0.139438
0.120220
0.094035
0.052019
-0.003026
-0.044196
-0.098725
-0.130543
-0.137607
-0.146798
-0.142713
-0.151797
-0.141365
-0.126138
-0.074713
-0.045920
-0.015758
0.008835
0.067825
0.099400
0.099542
0.099258
0.059911
0.010551
-0.033701
-0.070473
-0.126720
-0.175323
-0.206737
-0.233982
-0.176927
-0.171131
-0.165894
-0.192543
-0.152784
-0.075313
-0.003783
0.036034
0.078169
0.104932
0.105610
0.064639
0.037683
0.015880
-0.045458
-0.097284
-0.125654
-0.140105
-0.184910
-0.204643
-0.226117
-0.217962
-0.212843
-0.171773
-0.115844
-0.072698
-0.027337
-0.002178
0.026418
0.057288
0.081791
0.077044
0.064339
0.037816
-0.016595
-0.086185
-0.135820
-0.126244
-0.158278
-0.187749
-0.195478
-0.192190
-0.177993
-0.139189
-0.085956
-0.031975
-0.023625
0.010547
0.045408
0.080452
0.075269
0.063280
0.014018
-0.036992
-0.044729
-0.058963
-0.147007
-0.162836
-0.131849
-0.176859
-0.198024
-0.202791
-0.173924
-0.138392
-0.098188
-0.058454
-0.007656
0.038431
0.067337
0.078908
0.110640
0.116259
0.106102
0.086662
0.053053
0.018494
0.005014
-0.054985
-0.078361
-0.050455
-0.003042
0.003163
0.075945
0.138060
0.184921
0.224364
0.302150
0.396925
0.496757
0.548751
0.577801
0.607377
0.650643
0.662597
0.643285
0.621379
0.626830
0.614998
0.613238
0.624144
0.648614
0.675265
0.695048
0.732644
0.793086
0.773038
0.784688
0.780692
0.803215
0.791890
0.754249
0.669782
0.557173
0.443974
0.371717
0.261415
0.160747
0.109658
0.066780
0.034662
0.022230
0.001063
0.024500
0.051803
0.080774
0.106035
0.125390
0.157358
0.172795
0.178890
0.196025
0.191010
0.171859
0.145426
0.087929
0.024007
-0.012739
-0.059662
-0.103541
-0.109172
-0.120792
-0.108950
-0.090085
-0.066570
-0.039071
0.012061
0.041633
0.082177
0.120450
0.138986
0.140892
0.119430
0.076744
0.055129
0.015715
-0.005765
-0.052087
-0.084916
-0.118442
-0.143075
-0.182627
-0.155904
-0.136665
-0.143903
-0.079733
-0.035687
0.010625
0.056255
0.097238
0.114296
0.117107
0.125282
0.088932
0.055622
0.013822
-0.022977
-0.062839
-0.098257
-0.126415
-0.164167
-0.172520
-0.177916
-0.107096
-0.068305
-0.030527
0.000699
0.047844
0.096802
0.113847
0.129425
0.165753
0.162249
0.142405
0.098078
0.033632
-0.006250
-0.056713
-0.083714
-0.117059
-0.136616
-0.144014
-0.138474
-0.084262
-0.051629
-0.032542
0.007247
0.056500
0.103172
0.139024
0.151432
0.168272
0.153594
0.135933
0.104709
0.085907
0.055873
-0.002265
-0.084660
-0.099450
-0.118860
-0.108646
-0.082221
-0.034656
-0.011643
-0.008339
0.005538
0.103545
0.150210
0.168362
0.163580
0.199653
0.174002
0.154916
0.144834
0.079125
0.024346
-0.007466
-0.022719
-0.061177
-0.085883
-0.064878
-0.045162
-0.036371
-0.019120
0.020229
0.039759
0.082378
0.125987
0.184900
0.218956
0.228221
0.236191
0.228063
0.196425
0.129870
0.078120
0.021324
-0.037462
-0.002300
-0.031704
-0.051870
-0.046747
-0.027940
-0.014514
0.038665
0.093565
0.160059
0.187943
0.223168
0.231379
0.240506
0.211501
0.182417
0.173317
0.130675
0.096619
0.073583
0.026875
-0.015839
-0.042292
-0.044685
-0.048668
-0.026067
0.013908
0.040218
0.083933
0.106221
0.165203
0.171730
0.202872
0.238039
0.234484
0.215768
0.196930
0.156050
0.094105
0.024568
-0.012560
-0.071215
-0.079220
-0.057110
-0.050279
-0.044632
-0.019459
0.044365
0.085286
0.123339
0.146336
0.171399
0.197447
0.213329
0.196763
0.164415
0.112964
0.082175
0.042672
-0.015054
-0.063451
-0.099238
-0.104961
-0.099621
-0.084711
-0.070050
-0.037835
-0.005209
0.027214
0.088134
0.124486
0.115982
0.123928
0.141990
0.112844
0.105067
0.089051
0.060060
0.003177
-0.062123
-0.125155
-0.139196
-0.166245
-0.177017
-0.138481
-0.105062
-0.085440
-0.051052
-0.005888
0.043499
0.065243
0.112743
0.134936
0.105691
0.118026
0.107238
0.065978
0.026514
-0.021333
-0.060591
-0.087589
-0.126423
-0.172453
-0.165755
-0.152775
-0.137156
-0.107624
-0.059404
0.000663
0.021971
0.025910
0.089332
0.134807
0.116227
0.106740
0.085750
0.065772
0.016318
-0.027421
-0.084644
-0.101676
-0.120082
-0.144173
-0.155036
-0.175688
-0.176202
-0.116973
-0.071241
-0.009340
0.034572
0.069255
0.110773
0.138458
0.121086
0.118743
0.071061
0.041951
-0.001475
-0.020979
-0.040814
-0.088254
-0.134555
-0.159731
-0.157082
-0.137685
-0.130038
-0.112524
-0.086101
-0.024401
0.019052
0.066006
0.097351
0.123630
0.111357
0.068913
0.065033
0.055456
0.022279
-0.019741
-0.084716
-0.115235
-0.151895
-0.183699
-0.205118
-0.185452
-0.142704
-0.088437
-0.047586
-0.021448
0.015999
0.082494
0.141426
0.153656
0.132819
0.139598
0.105449
0.095278
0.042321
-0.036812
-0.062221
-0.066993
-0.098383
-0.161099
-0.164736
-0.142541
-0.123210
-0.090807
-0.032699
0.015095
0.046812
0.080640
0.112142
0.140400
0.149387
0.140890
0.088574
0.051463
0.010357
0.003239
-0.034202
-0.081191
-0.114311
-0.153455
-0.151528
-0.153229
-0.143886
-0.100282
-0.052445
-0.013565
0.020836
0.062117
0.096108
0.123838
0.135297
0.134126
0.101200
0.072394
0.032870
-0.020187
-0.088131
-0.082268
-0.094205
-0.136565
-0.159652
-0.150066
-0.130450
-0.123211
-0.062346
-0.028579
0.036406
0.067084
0.099847
0.102177
0.120016
0.129717
0.098210
0.067679
0.019301
-0.028855
-0.064479
-0.129593
-0.171898
-0.189863
-0.197176
-0.173100
-0.164890
-0.116585
-0.034590
-0.003766
0.011096
0.049863
0.072416
0.111431
0.123001
0.149304
0.142520
0.074049
0.017364
-0.011770
-0.069583
-0.109421
-0.114645
-0.148013
-0.175318
-0.179001
-0.176633
-0.140473
-0.083962
-0.004527
0.024992
0.037870
0.089196
0.092965
0.080010
0.088101
0.076628
0.057931
0.037473
-0.019209
-0.090422
-0.127373
-0.164267
-0.171432
-0.156793
-0.147141
-0.141785
-0.116872
-0.074365
-0.038931
0.010784
0.077727
0.125818
0.141644
0.128762
0.103334
0.113994
0.073234
0.022889
-0.027740
-0.093768
-0.125350
-0.149267
-0.143636
-0.142473
-0.127144
-0.097098
-0.055382
-0.027577
0.020249
0.030385
0.085599
0.105094
0.122553
0.136219
0.129239
0.112090
0.078473
0.019028
-0.016530
-0.050703
-0.073829
-0.097097
-0.106625
-0.131218
-0.114079
-0.089118
-0.083109
-0.069175
-0.006606
0.043184
0.094260
0.132025
0.164779
0.164168
0.161396
0.147495
0.091524
0.042429
-0.001395
-0.039913
-0.076924
-0.105231
-0.112847
-0.111078
-0.106318
-0.085541
-0.041152
-0.007277
0.015081
0.039885
0.102125
0.122068
0.139216
0.135827
0.132140
0.128332
0.096520
0.057352
0.002643
-0.048900
-0.090344
-0.144239
-0.149851
-0.175116
-0.189108
-0.180192
-0.126256
-0.105249
-0.022998
0.025216
0.058365
0.073248
0.084495
0.094843
0.095721
0.082048
0.059981
0.003459
-0.053481
-0.105550
-0.153204
-0.154798
-0.160441
-0.173443
-0.176821
-0.181363
-0.144316
-0.111757
-0.061388
-0.023815
0.014577
0.048452
0.077105
0.097740
0.078328
0.049540
-0.009171
-0.070270
-0.075048
-0.078505
-0.121353
-0.164927
-0.195187
-0.205119
-0.179055
-0.172858
-0.123389
-0.090536
-0.061754
-0.010778
0.026603
0.070297
0.076775
0.068710
0.066460
0.028344
0.001338
-0.030435
-0.095940
-0.116966
-0.149971
-0.173009
-0.200307
-0.214344
-0.222328
-0.183867
-0.138686
-0.113364
-0.045597
-0.002136
0.036508
0.060454
0.092518
0.112127
0.092216
0.053428
0.016725
-0.031826
-0.078259
-0.130264
-0.171818
-0.202020
-0.214235
-0.209367
-0.189024
-0.146196
-0.128347
-0.094631
-0.051433
-0.017278
0.021233
0.082543
0.102973
0.100399
0.095122
0.085503
0.041010
-0.023474
-0.090263
-0.125745
-0.133239
-0.110184
-0.138420
-0.182893
-0.152315
-0.110023
-0.063952
-0.037978
0.004424
0.090439
0.176040
0.232716
0.246514
0.245014
0.291052
0.295450
0.308999
0.288866
0.265400
0.258813
0.254731
0.248648
0.273569
0.289239
0.338587
0.412575
0.485181
0.577088
0.633155
0.711058
0.789995
0.874652
0.912599
0.918514
0.892012
0.854401
0.828278
0.764706
0.698734
0.634163
0.563242
0.513037
0.432551
0.354928
0.292047
0.249848
0.241963
0.231796
0.230844
0.237810
0.260260
0.283284
0.292494
0.251778
0.242310
0.238399
0.186196
0.130563
0.073728
0.022062
-0.030550
-0.060813
-0.071450
-0.082813
-0.095557
-0.079843
-0.056101
-0.014976
0.010040
0.057018
0.104605
0.136177
0.166547
0.177920
0.145328
0.133195
0.049737
-0.006941
-0.015720
-0.036335
-0.076881
-0.119041
-0.118812
-0.128115
-0.143014
-0.122941
-0.094610
-0.046831
0.012800
0.045888
0.072226
0.085420
0.121403
0.120953
0.113657
0.085175
0.037027
0.024515
-0.007102
-0.059473
-0.096808
-0.118892
-0.164857
-0.186575
-0.175707
-0.146330
-0.102196
-0.062697
-0.018732
0.026871
0.063923
0.097453
0.132229
0.154148
0.144141
0.103197
0.070372
0.026338
-0.010646
-0.052464
-0.090234
-0.116390
-0.148346
-0.160632
-0.151003
-0.111434
-0.083531
-0.022065
0.031052
0.056891
0.104663
0.130362
0.164224
0.185626
0.188019
0.162662
0.108263
0.033962
-0.018422
-0.070770
-0.101319
-0.105410
-0.134761
-0.143879
-0.105080
-0.070818
-0.033411
-0.005429
0.027689
0.078955
0.131482
0.164904
0.182139
0.189646
0.184256
0.145512
0.112854
0.072698
0.031006
0.017429
-0.015297
-0.052936
-0.090630
-0.098841
-0.092125
-0.062652
-0.037104
-0.002438
0.032808
0.081040
0.139248
0.218281
0.210970
0.238185
0.237043
0.189060
0.163099
0.105780
0.072996
0.023111
-0.023282
-0.043093
-0.044394
-0.053126
-0.059391
-0.031088
-0.007206
0.009545
0.064519
0.109045
0.209102
0.244386
0.223813
0.247579
0.196067
0.166627
0.145075
0.110241
0.079047
0.071830
0.030089
-0.045031
-0.065421
-0.040547
-0.019892
-0.008082
-0.002116
0.045019
0.119921
0.161748
0.176482
0.208603
0.240960
0.249028
0.241677
0.214890
0.178493
0.132826
0.076450
0.027877
-0.005838
-0.046211
-0.058967
-0.048270
-0.029370
-0.013214
0.018007
0.040239
0.085902
0.149712
0.174520
0.209364
0.205450
0.200656
0.211235
0.192485
0.148900
0.110477
0.059925
-0.017813
-0.029587
-0.078744
-0.075684
-0.100046
-0.087585
-0.043841
0.009549
0.065570
0.088629
0.141792
0.167554
0.173693
0.191569
0.177448
0.177532
0.162097
0.114826
0.061731
0.012508
-0.009688
-0.052376
-0.079482
-0.137586
-0.152207
-0.126409
-0.086899
-0.056512
-0.014507
0.002983
0.043007
0.075450
0.122858
0.132874
0.150737
0.110229
0.096889
0.067708
0.005786
0.006872
0.001650
-0.073452
-0.142780
-0.164580
-0.147735
-0.130907
-0.127226
-0.107041
-0.054599
-0.044150
0.009603
0.071775
0.111707
0.125468
0.127266
0.131730
0.075746
0.049684
0.024117
-0.043418
-0.059695
-0.099067
-0.159610
-0.193741
-0.200439
-0.183745
-0.147781
-0.102967
-0.069997
-0.036761
0.021722
0.092131
0.092055
0.114470
0.119106
0.161789
0.128669
0.039959
-0.000067
-0.020564
-0.040715
-0.082210
-0.111712
-0.121663
-0.152564
-0.163289
-0.154116
-0.104764
-0.085525
-0.044678
-0.001689
0.049243
0.079277
0.120403
0.148883
0.131723
0.113648
0.084512
0.026301
-0.026201
-0.072316
-0.100925
-0.137691
-0.156706
-0.153137
-0.149376
-0.112058
-0.083602
-0.041398
-0.001492
0.034431
0.073152
0.089222
0.105437
0.151482
0.138795
0.106674
0.075534
0.035043
-0.012209
-0.052610
-0.087591
-0.123109
-0.165004
-0.158170
-0.129823
-0.089725
-0.063483
-0.023839
-0.004912
0.022539
0.027562
0.058593
0.092989
0.116081
0.109171
0.098993
0.095841
0.065146
0.038427
-0.022558
-0.088631
-0.147771
-0.158196
-0.143814
-0.124305
-0.104805
-0.059393
-0.040114
-0.034021
0.001122
0.057265
0.122295
0.150978
0.143236
0.119633
0.094767
0.052463
0.020285
-0.012827
-0.071845
-0.117682
-0.148121
-0.154346
-0.167525
-0.142283
-0.126281
-0.102422
-0.062361
-0.030187
0.023003
0.080276
0.118844
0.159004
0.146919
0.114123
0.093022
0.077104
0.038317
-0.018585
-0.066627
-0.103545
-0.125972
-0.157018
-0.167187
-0.131279
-0.106931
-0.093550
-0.062170
-0.021881
0.035767
0.053583
0.085175
0.123597
0.147894
0.138207
0.113628
0.070254
0.047254
-0.018108
-0.090404
-0.116225
-0.148049
-0.167454
-0.160007
-0.156612
-0.122812
-0.087760
-0.040278
-0.014181
0.027403
0.037808
0.102520
0.141664
0.141756
0.111955
0.093034
0.032772
0.003716
-0.037275
-0.073542
-0.118217
-0.157350
-0.148563
-0.160677
-0.187437
-0.147243
-0.100710
-0.069874
-0.024256
0.034801
0.066821
0.082048
0.104774
0.095028
0.104249
0.076663
0.052195
0.005976
-0.042073
-0.072693
-0.116169
-0.158058
-0.188141
-0.171166
-0.186335
-0.142781
-0.113065
-0.074834
-0.034730
0.020848
0.034474
0.089956
0.104810
0.112741
0.103388
0.085939
0.052703
0.009594
-0.051510
-0.108422
-0.122586
-0.145091
-0.167209
-0.179426
-0.176455
-0.145609
-0.105983
-0.076397
-0.030588
0.015753
0.070294
0.103835
0.121184
0.126785
0.096195
0.077969
0.038471
0.001498
-0.061661
-0.125438
-0.136118
-0.164543
-0.140137
-0.176748
-0.166002
-0.133692
-0.123403
-0.091757
-0.012128
0.020659
0.050872
0.108030
0.100082
0.085355
0.106489
0.099228
0.071697
0.017250
-0.019516
-0.061672
-0.087590
-0.147898
-0.219848
-0.161802
-0.137952
-0.093313
-0.054066
-0.023273
0.001134
0.026637
0.078388
0.098187
0.136556
0.170154
0.151839
0.191396
0.136377
0.014824
-0.065508
-0.075666
-0.086556
-0.122898
-0.119724
-0.108490
-0.139267
-0.122170
-0.085971
-0.049694
-0.021028
0.034274
0.098333
0.139761
0.155618
0.143661
0.134558
0.108890
0.081029
0.037692
-0.010237
-0.052444
-0.101017
-0.114101
-0.119291
-0.109835
-0.094137
-0.108083
-0.068366
-0.047054
-0.036773
0.059473
0.096163
0.134900
0.142181
0.146604
0.117724
0.084510
0.058355
0.012227
-0.007023
-0.022278
-0.069841
-0.141008
-0.206424
-0.200137
-0.181492
-0.136314
-0.104308
-0.078180
-0.028303
0.018306
0.038939
0.082031
0.106702
0.123469
0.122111
0.109490
0.053104
0.030213
-0.036659
-0.091866
-0.135044
-0.156341
-0.173125
-0.185403
-0.187877
-0.167955
-0.132558
-0.063682
-0.016589
0.017699
0.040573
0.071027
0.065326
0.092780
0.085305
0.038539
-0.000023
-0.017265
-0.071745
-0.107798
-0.145360
-0.166015
-0.196277
-0.211854
-0.208388
-0.174994
-0.162996
-0.120737
-0.081016
-0.003184
0.039833
0.063840
0.096075
0.105501
0.091533
0.048520
0.051798
0.014710
-0.073099
-0.102622
-0.142780
-0.204623
-0.212019
-0.214889
-0.169725
-0.162726
-0.137685
-0.097048
-0.043761
-0.012802
0.015939
0.047066
0.068073
0.105356
0.078701
0.090385
0.043031
0.025281
-0.053602
-0.085969
-0.131434
-0.196839
-0.206471
-0.188985
-0.160263
-0.125427
-0.119468
-0.117920
-0.053762
-0.011929
0.030148
0.040877
0.055175
0.084455
0.077772
0.032940
0.007687
-0.006115
-0.040923
-0.100334
-0.117439
-0.150222
-0.166599
-0.137161
-0.146302
-0.128941
-0.087501
-0.043896
0.038561
0.107833
0.178629
0.247506
0.258958
0.287553
0.281676
0.296034
0.277730
0.214670
0.230069
0.246456
0.256716
0.236721
0.253858
0.296663
0.342240
0.396498
0.455530
0.538392
0.645805
0.708832
0.762805
0.823644
0.887491
0.927962
0.888508
0.827278
0.804774
0.755375
0.656969
0.596317
0.563347
0.503673
0.366578
0.313770
0.280804
0.233457
0.233118
0.220469
0.231672
0.239554
0.267699
0.282156
0.257141
0.249813
0.235844
0.229687
0.197632
0.122486
0.066959
0.009800
-0.010876
-0.061428
-0.087801
-0.105515
-0.090290
-0.053532
-0.034530
-0.013657
0.034484
0.084896
0.098326
0.111392
0.122212
0.119156
0.112319
0.088579
0.094817
0.041140
0.035595
-0.028997
-0.071662
-0.099676
-0.111611
-0.128963
-0.156398
-0.120546
-0.091804
-0.051658
-0.002200
0.044684
0.040765
0.075845
0.134120
0.186347
0.142093
0.097466
0.058900
0.039075
-0.025931
-0.051873
-0.103652
-0.123863
-0.126259
-0.118190
-0.114600
-0.129055
-0.111353
-0.075571
-0.044934
-0.009552
0.076183
0.127084
0.128031
0.110462
0.110813
0.096349
0.074588
0.040304
-0.014166
-0.087419
-0.112717
-0.144354
-0.137220
-0.121620
-0.132545
-0.104927
-0.068439
-0.014993
0.034372
0.039452
0.070703
0.102499
0.159856
0.164087
0.184944
0.139783
0.103778
0.062565
0.006768
-0.044105
-0.063112
-0.095049
-0.104865
-0.096584
-0.097456
-0.077990
-0.043760
-0.003340
0.044843
0.088863
0.106342
0.132348
0.167207
0.189532
0.185399
0.140922
0.135081
0.098885
0.066438
0.028312
-0.018907
-0.065678
-0.103172
-0.105306
-0.080976
-0.054530
-0.018125
0.038869
0.056027
0.079366
0.131271
0.193926
0.203889
0.206803
0.202279
0.203043
0.176941
0.137084
0.083489
0.048716
0.007348
-0.047690
-0.064839
-0.101807
-0.066695
-0.007661
0.034867
0.046684
0.092800
0.133427
0.167626
0.244393
0.260424
0.236507
0.257611
0.224361
0.179227
0.126560
0.088490
0.043195
0.015651
-0.012089
-0.026198
-0.051655
-0.060527
-0.028197
0.013825
0.060043
0.120158
0.170195
0.200739
0.206297
0.193007
0.213185
0.219122
0.200417
0.169324
0.130806
0.103627
0.051801
0.003641
-0.032551
-0.049529
-0.049279
-0.051371
-0.027359
-0.000007
0.054226
0.084749
0.141839
0.182397
0.201889
0.210232
0.203352
0.226021
0.204927
0.195211
0.151667
0.082315
0.018704
-0.000868
-0.038017
-0.053336
-0.090829
-0.058528
-0.045203
-0.019973
0.014026
0.059986
0.083990
0.081091
0.160696
0.177140
0.231724
0.205198
0.180144
0.133488
0.124697
0.047470
-0.030194
-0.053683
-0.099516
-0.121907
-0.120019
-0.111756
-0.091885
-0.072788
-0.048629
-0.000251
0.048666
0.089204
0.120808
0.136273
0.131477
0.148557
0.134296
0.094205
0.052301
-0.004572
-0.044361
-0.084710
-0.135346
-0.161444
-0.173414
-0.160600
-0.108151
-0.083780
-0.054586
-0.002542
0.018117
0.048747
0.081527
0.108281
0.146898
0.154212
0.135660
0.096525
0.022550
-0.027135
-0.084000
-0.130710
-0.155623
-0.161121
-0.175100
-0.161761
-0.164053
-0.116990
-0.067653
-0.059286
-0.004739
0.052495
0.116149
0.164380
0.155141
0.128522
0.072223
0.034399
0.000797
-0.019474
-0.081052
-0.112208
-0.122718
-0.131434
-0.129042
-0.148643
-0.150218
-0.103570
-0.046463
0.000120
0.044979
0.075383
0.114798
0.137931
0.161656
0.139660
0.074042
0.043537
0.019660
-0.012831
-0.057511
-0.093081
-0.126135
-0.158034
-0.167700
-0.160491
-0.138893
-0.095971
-0.055719
-0.031618
0.008817
0.067805
0.113296
0.143665
0.159221
0.142311
0.104653
0.076649
0.044080
-0.003163
-0.050724
-0.086155
-0.106911
-0.152129
-0.153402
-0.143077
-0.116800
-0.089185
-0.073428
-0.029469
0.034355
0.075633
0.106926
0.142110
0.141329
0.118035
0.107355
0.089103
0.040683
-0.023897
-0.049177
-0.074086
-0.106121
-0.134058
-0.124634
-0.135077
-0.153396
-0.105759
-0.065675
0.010090
0.046293
0.051757
0.105431
0.129249
0.137727
0.095638
0.084353
0.114247
0.084879
0.023079
-0.042321
-0.065340
-0.106383
-0.157368
-0.203471
-0.195330
-0.169771
-0.113460
-0.090192
-0.043026
0.079678
0.156544
0.122508
0.112599
0.110406
0.090479
0.058956
0.062530
0.119358
0.031982
-0.064746
-0.119899
-0.119896
-0.146432
-0.173796
-0.137182
-0.103186
-0.068301
-0.032133
0.025424
0.041844
0.071541
0.129248
0.140192
0.138243
0.132853
0.079194
0.059044
-0.000004
-0.046796
-0.077108
-0.120779
-0.165453
-0.161630
-0.149993
-0.161133
-0.146713
-0.120119
-0.074674
-0.026493
0.010863
0.062856
0.113976
0.125020
0.135749
0.136110
0.106787
0.073972
0.029628
-0.026656
-0.060308
-0.097095
-0.157160
-0.175271
-0.171792
-0.156545
-0.148279
-0.133157
-0.063461
-0.014870
0.021830
0.071460
0.120823
0.134275
0.115846
0.103606
0.109754
0.103214
0.036570
-0.031256
-0.070389
-0.103870
-0.161509
-0.199019
-0.169693
-0.160748
-0.144587
-0.070463
-0.057257
-0.014486
0.003580
0.029889
0.064877
0.118218
0.131306
0.119707
0.092026
0.068390
-0.001242
-0.047423
-0.090210
-0.132475
-0.141419
-0.156047
-0.164939
-0.159263
-0.129692
-0.096703
-0.061615
-0.027140
0.030413
0.063195
0.089901
0.107262
0.093812
0.078979
0.069863
0.038715
0.000798
-0.055817
-0.088249
-0.114052
-0.140487
-0.166429
-0.185998
-0.192057
-0.157577
-0.096477
-0.077510
-0.027085
0.036004
0.093663
0.120024
0.120155
0.109985
0.109190
0.099802
0.044386
-0.027103
-0.067559
-0.110324
-0.130265
-0.149132
-0.162048
-0.193888
-0.176687
-0.157194
-0.100512
-0.066127
-0.018516
0.040944
0.066295
0.085301
0.094578
0.086407
0.067911
0.029160
0.031571
0.003102
-0.022341
-0.074004
-0.092034
-0.162233
-0.206872
-0.203351
-0.205014
-0.127953
-0.097194
-0.091391
-0.048798
0.018024
0.067195
0.092889
0.112429
0.110836
0.098577
0.071845
0.046669
0.020154
-0.025504
-0.060585
-0.091296
-0.129221
-0.139008
-0.141912
-0.139481
-0.120253
-0.080423
-0.062283
-0.023089
0.034710
0.077112
0.101756
0.147121
0.149721
0.135266
0.096953
0.069839
0.028860
0.002894
-0.027791
-0.058318
-0.111041
-0.135101
-0.105151
-0.105251
-0.102835
-0.068448
-0.020992
-0.001074
-0.008703
0.052225
0.105898
0.140732
0.155839
0.139967
0.132030
0.073997
0.022650
-0.016234
-0.048732
-0.072236
-0.083365
-0.085356
-0.121974
-0.112241
-0.073671
-0.057107
-0.025929
0.022939
0.069963
0.116806
0.141231
0.150903
0.135374
0.117996
0.106878
0.053488
0.023156
0.007333
-0.027656
-0.082183
-0.128457
-0.148850
-0.148329
-0.157212
-0.158187
-0.100732
-0.070565
-0.042207
-0.017606
0.026052
0.061280
0.109039
0.134125
0.120006
0.083388
0.057435
-0.003767
-0.030343
-0.079186
-0.136878
-0.150950
-0.176576
-0.174950
-0.185135
-0.151920
-0.116269
-0.091560
-0.040785
0.000315
0.021845
0.044758
0.082045
0.099851
0.109266
0.059988
0.055302
0.007929
-0.033858
-0.097996
-0.124062
-0.159844
-0.182916
-0.213538
-0.211729
-0.193181
-0.147739
-0.135259
-0.078088
0.008242
0.057063
0.079220
0.080180
0.077842
0.083087
0.056985
0.045611
0.026975
-0.029901
-0.077823
-0.137544
-0.175028
-0.209572
-0.215769
-0.208693
-0.175051
-0.138224
-0.121690
-0.100423
-0.010895
0.037941
0.057923
0.084781
0.087259
0.074697
0.033749
-0.001533
-0.023049
-0.055030
-0.107427
-0.150680
-0.172131
-0.198538
-0.217391
-0.227016
-0.191649
-0.162631
-0.107752
-0.059535
-0.009475
0.024192
0.045593
0.051075
0.084184
0.111654
0.082906
0.034310
-0.016591
-0.064423
-0.104584
-0.153199
-0.191885
-0.225508
-0.193953
-0.173050
-0.165407
-0.127787
-0.046881
0.013900
0.062961
0.129421
0.151968
0.177535
0.204977
0.214961
0.193830
0.182456
0.177097
0.149125
0.143726
0.136837
0.115815
0.103418
0.124159
0.177957
0.227736
0.284068
0.377453
0.473269
0.576381
0.636549
0.687767
0.742666
0.771956
0.815952
0.821475
0.818546
0.806415
0.780026
0.709604
0.669543
0.604726
0.526914
0.506488
0.497613
0.495920
0.453086
0.426237
0.407744
0.393448
0.379023
0.368803
0.346726
0.321148
0.294483
0.246782
0.192937
0.172111
0.119002
0.077249
0.005943
-0.066199
-0.087505
-0.086799
-0.099690
-0.105089
-0.044170
-0.002201
0.033570
0.059611
0.104994
0.136332
0.154019
0.147183
0.150377
0.141701
0.087051
0.097175
0.050830
0.007698
-0.040366
-0.087459
-0.103631
-0.141797
-0.179946
-0.137344
-0.080965
-0.054069
-0.018821
0.023169
0.077891
0.086408
0.123114
0.143981
0.130460
0.121573
0.094710
0.056580
-0.015848
-0.059871
-0.097644
-0.155670
-0.198531
-0.188571
-0.149540
-0.124909
-0.093924
-0.065414
-0.018391
0.024433
0.070703
0.116090
0.123797
0.158163
0.155014
0.131872
0.082404
0.026435
-0.008041
-0.053684
-0.091024
-0.146564
-0.161612
-0.158958
-0.108734
-0.109610
-0.112199
-0.054710
-0.009613
0.041828
0.110134
0.139231
0.129038
0.142117
0.153397
0.125454
0.096352
0.029483
0.005174
-0.024772
-0.071686
-0.120007
-0.107942
-0.112543
-0.119990
-0.092257
-0.057244
-0.009534
0.024861
0.066396
0.116731
0.157068
0.191469
0.184117
0.179000
0.174943
0.110807
0.054634
0.003746
-0.018946
-0.053279
-0.118769
-0.096644
-0.095162
-0.089156
-0.050690
-0.003508
0.035913
0.060120
0.115948
0.153538
0.187324
0.210036
0.227461
0.218771
0.199948
0.161381
0.093700
0.049200
-0.000954
-0.031027
-0.058037
-0.090071
-0.090291
-0.083136
-0.064137
-0.028411
0.059154
0.111317
0.148854
0.187775
0.215987
0.236610
0.245318
0.233155
0.219975
0.176384
0.145595
0.103396
0.053865
0.012364
-0.026481
-0.047688
-0.037943
-0.024736
-0.004765
0.012518
0.043018
0.085294
0.125700
0.182367
0.216195
0.224373
0.229946
0.215988
0.225362
0.175210
0.099402
0.088744
0.061853
0.026066
-0.020390
-0.050750
-0.060782
-0.051216
-0.051859
-0.020132
0.010250
0.052339
0.137627
0.172381
0.196415
0.237703
0.288559
0.275439
0.243640
0.172603
0.094806
0.063329
0.000853
-0.041269
-0.058071
-0.068411
-0.078410
-0.064371
-0.071599
-0.037238
0.025862
0.096435
0.130949
0.153376
0.175411
0.196449
0.197509
0.188163
0.156307
0.118208
0.080050
0.031049
-0.015094
-0.034350
-0.039518
-0.078355
-0.106857
-0.117745
-0.098599
-0.061037
-0.002932
0.045382
0.073370
0.101348
0.156359
0.155422
0.149314
0.129553
0.113585
0.095423
0.037892
-0.011522
-0.045603
-0.098134
-0.125807
-0.132629
-0.156223
-0.131291
-0.099211
-0.077455
-0.058723
-0.026589
0.022609
0.072075
0.105113
0.107608
0.121094
0.128753
0.137259
0.055612
0.016288
-0.016525
-0.086146
-0.127003
-0.151891
-0.168700
-0.187467
-0.187000
-0.138124
-0.090889
-0.070211
-0.047979
0.023042
0.074711
0.092725
0.115253
0.117958
0.102316
0.097212
0.069344
0.028153
-0.015544
-0.037190
-0.081223
-0.136276
-0.165807
-0.185850
-0.175962
-0.155066
-0.120716
-0.072160
-0.018857
0.028941
0.056644
0.072981
0.096009
0.117785
0.115455
0.087333
0.052927
0.014379
-0.044063
-0.104018
-0.139954
-0.165316
-0.178914
-0.186037
-0.160192
-0.101929
-0.068281
-0.026622
0.015582
0.048137
0.070813
0.088664
0.132455
0.142532
0.117770
0.081841
0.061533
0.025077
-0.016819
-0.055010
-0.090943
-0.122701
-0.159109
-0.146401
-0.128966
-0.096293
-0.079474
-0.048531
-0.029810
0.008791
0.068455
0.133550
0.150375
0.121833
0.092288
0.088887
0.084468
0.021420
-0.033377
-0.072412
-0.103131
-0.072190
-0.129479
-0.175176
-0.156355
-0.108474
-0.077245
-0.062339
-0.012160
0.032258
0.078049
0.102476
0.116268
0.129594
0.111041
0.102245
0.075396
0.036907
0.005900
-0.053372
-0.120872
-0.165276
-0.170348
-0.165402
-0.148058
-0.106994
-0.078381
-0.039988
0.004328
0.034668
0.078014
0.118363
0.142487
0.129653
0.113100
0.076624
0.057258
0.030681
-0.019070
-0.072206
-0.110833
-0.138464
-0.163141
-0.165545
-0.156880
-0.150811
-0.113363
-0.068173
-0.045885
0.023957
0.061597
0.073012
0.080521
0.095914
0.091275
0.094310
0.084579
0.061831
-0.004173
-0.026811
-0.117971
-0.169836
-0.181796
-0.167679
-0.143590
-0.111579
-0.080909
-0.074817
-0.034362
0.009453
0.020863
0.078404
0.104182
0.123764
0.111187
0.118490
0.069752
0.009279
-0.045496
-0.101560
-0.098677
-0.110643
-0.137716
-0.171196
-0.170776
-0.125724
-0.122144
-0.101305
-0.035440
0.016701
0.045338
0.083991
0.095841
0.098300
0.097123
0.074244
0.043299
0.003024
-0.035441
-0.081400
-0.124018
-0.160449
-0.188603
-0.193618
-0.196910
-0.178447
-0.136334
-0.089716
-0.044094
0.007347
0.047847
0.083498
0.109293
0.086647
0.066018
0.074650
0.057925
0.029969
-0.020300
-0.067043
-0.128528
-0.166202
-0.189521
-0.183778
-0.185637
-0.159671
-0.130575
-0.086972
-0.049769
0.003172
0.043458
0.068740
0.087463
0.078785
0.055636
0.052054
0.046956
0.003251
-0.024273
-0.095395
-0.119967
-0.153499
-0.215859
-0.253005
-0.202935
-0.169106
-0.123703
-0.084075
-0.027768
0.013766
0.028674
0.051509
0.105673
0.124183
0.117088
0.062736
0.046495
-0.021210
-0.059916
-0.067627
-0.122293
-0.178504
-0.213039
-0.203792
-0.176393
-0.149918
-0.132765
-0.093086
-0.060273
0.002901
0.023485
0.039008
0.059900
0.083102
0.076266
0.079105
0.037200
-0.025517
-0.057007
-0.074065
-0.114322
-0.143591
-0.156689
-0.166729
-0.190761
-0.194932
-0.177170
-0.135192
-0.067467
-0.019611
0.037877
0.058933
0.110857
0.111006
0.087254
0.076640
0.055974
0.018306
-0.023861
-0.049434
-0.071787
-0.157372
-0.179060
-0.170063
-0.176333
-0.143746
-0.114886
-0.040287
0.003300
0.053214
0.104117
0.112841
0.121178
0.133965
0.138780
0.082637
0.046507
0.027600
0.021082
-0.042386
-0.108222
-0.135353
-0.143957
-0.134327
-0.167470
-0.111139
-0.071724
-0.024537
0.000612
0.045168
0.094943
0.136411
0.161825
0.148147
0.136555
0.120575
0.074690
0.064842
0.003702
-0.021197
-0.056399
-0.097475
-0.124506
-0.131291
-0.125170
-0.128992
-0.080136
-0.031822
0.005046
0.047952
0.063942
0.088918
0.095454
0.095979
0.090442
0.077043
0.046083
-0.011786
-0.051162
-0.081028
-0.110181
-0.143641
-0.177937
-0.184407
-0.179869
-0.153070
-0.167855
-0.089512
-0.013637
0.017770
0.034427
0.053785
0.055745
0.068462
0.081810
0.071796
0.044758
0.026053
-0.053233
-0.112836
-0.141713
-0.160272
-0.180658
-0.178824
-0.186073
-0.179967
-0.143588
-0.093815
-0.068232
-0.029123
-0.009505
0.027314
0.104293
0.095286
0.071407
0.045787
0.015223
-0.022695
-0.057203
-0.120733
-0.175207
-0.222408
-0.222428
-0.213821
-0.206610
-0.168305
-0.140617
-0.101383
-0.066443
-0.031403
0.017206
0.061517
0.085933
0.097429
0.077736
0.040263
0.012079
-0.034038
-0.082787
-0.140179
-0.164768
-0.187466
-0.195752
-0.189304
-0.190818
-0.163041
-0.145480
-0.112893
-0.088967
-0.070067
-0.019900
0.044921
0.095706
0.082671
0.064950
0.028041
-0.008185
-0.044904
-0.074590
-0.160743
-0.179658
-0.184766
-0.188172
-0.214567
-0.222341
-0.202852
-0.177441
-0.133497
-0.096162
-0.069097
-0.020328
0.013884
0.050198
0.084884
0.106858
0.051976
0.032640
0.011726
-0.036018
-0.077027
-0.117835
-0.139738
-0.125060
-0.091734
-0.058113
-0.015605
-0.011385
0.017281
0.065915
0.145516
0.200336
0.251368
0.316796
0.373906
0.385598
0.396562
0.403185
0.390901
0.383032
0.365498
0.348623
0.351482
0.372376
0.393894
0.431396
0.480950
0.547264
0.621146
0.693815
0.737833
0.759332
0.788107
0.844879
0.845166
0.828641
0.801837
0.740565
0.643369
0.524960
0.426996
0.344921
0.259726
0.182913
0.115973
0.081001
0.055328
0.034967
0.074041
0.110065
0.135252
0.182073
0.198171
0.208777
0.192200
0.203106
0.173585
0.145777
0.106600
0.050010
-0.006151
-0.076910
-0.117279
-0.103362
-0.119911
-0.158683
-0.140125
-0.088556
-0.035070
-0.024880
-0.002488
0.061670
0.112498
0.127625
0.155508
0.151240
0.122818
0.073482
0.035779
0.002004
-0.034678
-0.096509
-0.137887
-0.151289
-0.165743
-0.186176
-0.152231
-0.093790
-0.047423
-0.042865
0.006909
0.061504
0.102876
0.119044
0.124740
0.124901
0.110334
0.079781
0.037374
0.002676
-0.051875
-0.117121
-0.179392
-0.194011
-0.162290
-0.130743
-0.092978
-0.084186
-0.050865
-0.020760
0.004048
0.049472
0.091331
0.123828
0.149170
0.126624
0.101667
0.072708
0.029491
-0.002496
-0.070386
-0.135862
-0.161507
-0.171039
-0.154161
-0.140382
-0.108566
-0.066080
-0.022464
0.002814
0.015735
0.039268
0.099543
0.135788
0.145906
0.148479
0.119706
0.104938
0.053915
-0.011530
-0.054175
-0.083266
-0.112186
-0.138080
-0.154149
-0.145950
-0.117933
-0.084671
0.003179
0.051358
0.094269
0.123242
0.136877
0.144992
0.175082
0.154442
0.132634
0.100298
0.064783
0.016326
-0.009596
-0.057749
-0.044065
-0.061260
-0.073046
-0.081728
-0.077593
-0.040921
-0.006687
0.042443
0.091921
0.143969
0.197640
0.242119
0.222108
0.190210
0.155608
0.134331
0.113315
0.074259
0.023585
-0.006976
-0.058601
-0.074865
-0.051959
-0.042960
-0.039059
-0.019174
0.035283
0.113309
0.153337
0.178634
0.185638
0.218881
0.237640
0.230578
0.207043
0.164170
0.126349
0.107042
0.060615
0.007864
-0.030969
-0.061142
-0.070969
-0.051319
-0.021778
0.006335
0.036741
0.078728
0.119070
0.180354
0.207341
0.224997
0.243294
0.225313
0.188677
0.156439
0.124513
0.083124
0.029010
-0.008577
-0.056659
-0.078278
-0.083977
-0.091628
-0.073642
-0.024405
0.030378
0.066598
0.120098
0.154460
0.186030
0.198317
0.199822
0.213197
0.161794
0.131369
0.083789
0.043653
-0.018179
-0.054235
-0.081779
-0.088277
-0.116590
-0.109998
-0.087562
-0.027509
0.014433
0.024323
0.068188
0.126279
0.162931
0.175693
0.181871
0.168325
0.145317
0.097907
0.036594
-0.027228
-0.079933
-0.094250
-0.130875
-0.155001
-0.152165
-0.135608
-0.109510
-0.100281
-0.070308
-0.007341
0.030622
0.086853
0.123758
0.135480
0.137347
0.119043
0.113984
0.063658
0.014487
-0.014690
-0.067820
-0.124050
-0.143209
-0.173139
-0.171143
-0.146676
-0.122428
-0.102364
-0.055068
-0.009057
0.018925
0.042550
0.029981
0.064282
0.092139
0.075348
0.071015
0.059331
0.013327
-0.043227
-0.083678
-0.127730
-0.159175
-0.176515
-0.217824
-0.185531
-0.137201
-0.113376
-0.079672
-0.050088
-0.009288
0.036948
0.079916
0.096609
0.112229
0.112234
0.081982
0.032582
-0.020116
-0.073034
-0.106870
-0.152129
-0.146668
-0.156202
-0.159070
-0.192915
-0.175857
-0.125767
-0.078449
-0.009715
0.023063
0.084483
0.101740
0.081677
0.049299
0.061912
0.068059
0.050912
0.022872
-0.009118
-0.060208
-0.099155
-0.147348
-0.167719
-0.164925
-0.171736
-0.160995
-0.138141
-0.083203
-0.048552
0.007754
0.073213
0.103575
0.124807
0.113899
0.128018
0.109068
0.064562
0.015223
-0.035268
-0.089663
-0.113737
-0.155596
-0.190217
-0.190670
-0.179271
-0.144681
-0.121834
-0.069289
-0.004576
0.032616
0.020542
0.058467
0.124555
0.139256
0.134556
0.098956
0.056774
0.028455
-0.028104
-0.074022
-0.128914
-0.137794
-0.145876
-0.170609
-0.200863
-0.131068
-0.121371
-0.064447
-0.013613
0.020402
0.081477
0.111898
0.089883
0.078956
0.092476
0.060109
0.058826
0.044933
0.009321
-0.055203
-0.126483
-0.165751
-0.186314
-0.204203
-0.213348
-0.186762
-0.163579
-0.080787
0.005481
0.024248
0.039361
0.087876
0.121933
0.141405
0.106895
0.083707
0.062977
0.027049
-0.019802
-0.083223
-0.121156
-0.155294
-0.166345
-0.181949
-0.184790
-0.144506
-0.116144
-0.084661
-0.046292
0.033149
0.055212
0.095908
0.094864
0.069322
0.063317
0.064877
0.048467
0.004710
-0.040703
-0.074475
-0.123961
-0.170521
-0.209266
-0.217387
-0.188120
-0.150510
-0.135195
-0.117522
-0.061398
0.004900
0.049382
0.070792
0.108815
0.124895
0.094374
0.083469
0.069620
0.015170
-0.035932
-0.082215
-0.128964
-0.161210
-0.188115
-0.202558
-0.197361
-0.154475
-0.125400
-0.100731
-0.056358
0.002784
0.055270
0.066555
0.092827
0.101774
0.084338
0.056779
0.022638
-0.007638
-0.069254
-0.125531
-0.157941
-0.175231
-0.197117
-0.177252
-0.172922
-0.148283
-0.109734
-0.056938
-0.022524
-0.023289
-0.028836
0.055091
0.105212
0.102428
0.081060
0.040617
0.026382
-0.020122
-0.099300
-0.124101
-0.151539
-0.201101
-0.211982
-0.163611
-0.178316
-0.150127
-0.129737
-0.087735
-0.041614
0.017894
0.046127
0.072449
0.079491
0.070655
0.074569
0.071147
0.017647
-0.017259
-0.063995
-0.109915
-0.146538
-0.181023
-0.203242
-0.215967
-0.192531
-0.156817
-0.150609
-0.117527
-0.071691
-0.016446
0.036263
0.087032
0.101707
0.093875
0.066097
0.038047
0.002321
-0.029243
-0.072632
-0.108672
-0.127235
-0.171465
-0.198143
-0.203663
-0.185666
-0.172472
-0.163989
-0.175863
-0.091346
0.003712
0.037331
0.055786
0.088423
0.098588
0.103289
0.065422
0.033754
-0.006949
-0.056085
-0.112549
-0.152844
-0.176881
-0.199421
-0.202967
-0.189381
-0.121201
-0.107955
-0.058166
-0.024029
-0.012011
0.024790
0.052666
0.092368
0.104631
0.107782
0.074281
0.055434
0.027588
-0.030210
-0.071629
-0.121186
-0.170125
-0.164653
-0.151392
-0.122317
-0.112411
-0.088617
-0.049364
-0.007662
0.019688
0.045879
0.103414
0.100091
0.104897
0.134471
0.109688
0.044880
0.008882
0.003194
-0.064972
-0.120955
-0.170933
-0.168807
-0.163892
-0.151507
-0.130227
-0.090182
-0.047041
0.004126
0.052036
0.046121
0.066335
0.107376
0.157662
0.137641
0.098322
0.053409
0.006744
-0.013800
-0.066334
-0.123993
-0.166380
-0.167389
-0.169850
-0.172092
-0.148993
-0.110441
-0.089742
-0.032967
0.014014
0.028496
0.030010
0.046441
0.060050
0.095883
0.107593
0.063316
0.014189
-0.036960
-0.098292
-0.131970
-0.156977
-0.172749
-0.200612
-0.210048
-0.190225
-0.150919
-0.088667
-0.043785
-0.024140
-0.004576
0.024007
0.073851
0.080212
0.081627
0.064281
0.022521
-0.035002
-0.076544
-0.116314
-0.165084
-0.194740
-0.205893
-0.223438
-0.230751
-0.193252
-0.196811
-0.146914
-0.092099
-0.046353
-0.038929
0.023129
0.054466
0.075538
0.053880
0.040664
0.020488
-0.026697
-0.081437
-0.120473
-0.157528
-0.194477
-0.229772
-0.244480
-0.217400
-0.190587
-0.171624
-0.147077
-0.106359
-0.049525
0.000351
0.044079
0.059484
0.055734
0.047316
0.025109
0.012439
-0.011351
-0.059212
-0.103038
-0.156767
-0.220322
-0.247761
-0.264602
-0.254824
-0.216051
-0.182222
-0.142265
-0.075722
-0.025440
0.001288
0.017863
0.013969
0.024508
0.036383
0.030138
0.006603
-0.056723
-0.103402
-0.151720
-0.190681
-0.258327
-0.238712
-0.225543
-0.226154
-0.182455
-0.153402
-0.107048
-0.094031
-0.042403
-0.003267
0.052674
0.095359
0.126972
0.127373
0.114578
0.077523
0.037127
0.013244
-0.011729
-0.050755
-0.072576
-0.043998
-0.022917
-0.013747
0.046086
0.101890
0.169198
0.244247
0.332803
0.398388
0.481076
0.563392
0.579205
0.573250
0.580234
0.590707
0.623437
0.619173
0.572142
0.553938
0.542502
0.538804
0.531540
0.528623
0.572435
0.600261
0.604343
0.645034
0.632010
0.648861
0.634936
0.567356
0.510564
0.454290
0.418744
0.346159
0.232338
0.124910
0.054713
-0.006813
-0.063843
-0.086987
-0.068611
-0.078984
-0.064307
-0.054315
-0.037739
-0.017185
0.060283
0.098617
0.137231
0.170832
0.170542
0.133444
0.087027
0.064492
0.019832
-0.046576
-0.081042
-0.107368
-0.136971
-0.143396
-0.140585
-0.140879
-0.105477
-0.085335
-0.078539
-0.033947
0.032096
0.035702
0.065469
0.103880
0.122883
0.111727
0.076079
0.040478
-0.018309
-0.066475
-0.103588
-0.140223
-0.159240
-0.169387
-0.168911
-0.179564
-0.152679
-0.109694
-0.084890
-0.046785
0.007489
0.049823
0.058309
0.074281
0.081754
0.082977
0.068165
0.053571
0.022035
-0.025343
-0.094221
-0.089738
-0.161434
-0.173302
-0.178219
-0.166802
-0.157868
-0.113861
-0.074944
-0.033191
0.029418
0.087294
0.106760
0.121482
0.106804
0.078690
0.051746
0.031602
0.021407
-0.020470
-0.058063
-0.065926
-0.102773
-0.143142
-0.171839
-0.153494
-0.113896
-0.080584
-0.069857
-0.042143
0.018393
0.051720
0.111321
0.138018
0.156294
0.143597
0.104214
0.074057
0.061082
-0.011736
-0.045152
-0.087160
-0.109092
-0.148044
-0.144208
-0.147050
-0.125776
-0.102430
-0.026487
0.043531
0.081541
0.097486
0.141725
0.172078
0.171766
0.136548
0.114513
0.120480
0.120564
0.057605
-0.028093
-0.073549
-0.098877
-0.110320
-0.109014
-0.090915
-0.072614
-0.045782
0.003622
0.039837
0.085757
0.134549
0.167507
0.196680
0.210109
0.202343
0.171434
0.134348
0.093611
0.066003
0.041764
-0.001741
-0.043253
-0.046285
-0.086106
-0.081867
-0.059304
-0.015016
0.002396
0.054846
0.102077
0.157911
0.177720
0.205130
0.236520
0.232207
0.215647
0.198652
0.131446
0.079934
0.044122
0.010401
-0.036532
-0.066942
-0.049812
-0.035196
-0.044679
-0.042593
0.007766
0.070546
0.133737
0.120239
0.148527
0.169674
0.182379
0.201855
0.201744
0.149504
0.112042
0.047470
-0.024945
-0.049275
-0.072361
-0.087850
-0.122008
-0.089681
-0.074787
-0.040947
0.011974
0.050432
0.104537
0.146156
0.182495
0.174603
0.160844
0.175912
0.152012
0.120291
0.067884
0.018134
-0.035487
-0.067647
-0.105608
-0.132681
-0.165875
-0.142947
-0.082418
-0.046916
-0.031060
0.006832
0.061072
0.096724
0.119092
0.124196
0.115718
0.116748
0.112343
0.086852
0.034816
-0.035029
-0.078990
-0.122895
-0.173802
-0.198077
-0.196621
-0.198585
-0.174138
-0.140900
-0.092907
-0.023783
0.034814
0.061571
0.099765
0.098762
0.096948
0.086246
0.064217
0.023341
-0.017018
-0.062287
-0.113909
-0.168352
-0.180835
-0.199462
-0.198036
-0.202992
-0.186479
-0.161183
-0.098749
-0.040374
-0.018478
0.012620
0.022379
0.047366
0.094644
0.074952
0.031474
0.012162
-0.025269
-0.074807
-0.115562
-0.150059
-0.177246
-0.192944
-0.184786
-0.202042
-0.187294
-0.122415
-0.059832
-0.040913
-0.014314
0.052307
0.075168
0.088709
0.114045
0.108364
0.091930
0.040831
-0.012582
-0.103267
-0.145853
-0.158019
-0.193265
-0.243552
-0.193552
-0.183940
-0.168144
-0.135854
-0.105646
-0.060047
-0.019961
0.040459
0.051051
0.075023
0.064597
0.052036
0.032269
0.008008
-0.036635
-0.069922
-0.127507
-0.164336
-0.170017
-0.192269
-0.193269
-0.185211
-0.134958
-0.143536
-0.111463
-0.056499
-0.011970
0.021965
0.059780
0.073157
0.076920
0.044474
0.051786
0.046166
0.001144
-0.058890
-0.107611
-0.139467
-0.170491
-0.167415
-0.177477
-0.187318
-0.181119
-0.134510
-0.097041
-0.067663
0.002495
0.048834
0.068121
0.066874
0.054249
0.056746
0.035373
0.033410
0.004135
-0.064038
-0.103443
-0.117707
-0.160641
-0.211150
-0.205362
-0.205189
-0.186788
-0.152512
-0.111794
-0.055152
0.001122
0.047005
0.076225
0.085146
0.079743
0.081477
0.051779
0.019811
0.017588
-0.019588
-0.087735
-0.149926
-0.180074
-0.198715
-0.220252
-0.175999
-0.147775
-0.101766
-0.062976
-0.048667
-0.032461
-0.000248
0.032313
0.094417
0.125518
0.088720
0.028518
-0.013292
-0.076821
-0.078296
-0.096348
-0.121084
-0.165941
-0.192900
-0.205976
-0.190996
-0.174310
-0.129209
-0.094512
-0.056365
-0.012051
-0.000370
0.049394
0.067225
0.064183
0.063690
0.061125
0.002630
-0.043165
-0.068791
-0.101102
-0.166178
-0.220209
-0.233096
-0.209951
-0.197488
-0.175355
-0.165818
-0.133573
-0.090277
-0.039121
-0.002468
0.039735
0.058199
0.073956
0.056578
0.019319
0.016870
-0.027056
-0.073221
-0.130447
-0.157364
-0.201172
-0.227815
-0.240006
-0.219347
-0.210740
-0.182873
-0.113388
-0.064046
-0.025431
0.017968
0.058130
0.074542
0.068187
0.054482
0.020784
-0.012679
-0.041765
-0.084638
-0.137495
-0.181661
-0.211752
-0.226271
-0.208205
-0.208238
-0.207141
-0.180143
-0.156706
-0.082943
-0.009831
0.004413
0.071765
0.087386
0.072698
0.071725
0.042108
0.024368
-0.044212
-0.118302
-0.102098
-0.153640
-0.215887
-0.226742
-0.244030
-0.245079
-0.200696
-0.151319
-0.122117
-0.073585
-0.034120
-0.018395
0.032976
0.071839
0.083790
0.056682
0.028066
-0.005519
-0.048523
-0.100751
-0.134844
-0.167699
-0.184399
-0.201166
-0.209270
-0.216799
-0.207498
-0.175824
-0.121390
-0.085207
-0.049622
-0.026753
0.028477
0.071559
0.092010
0.067495
0.028726
-0.007710
-0.038400
-0.102382
-0.160896
-0.177065
-0.202493
-0.227471
-0.234305
-0.242391
-0.212702
-0.160348
-0.093634
-0.034621
-0.010941
0.036076
0.043829
0.033963
0.048420
0.079801
0.066159
0.031428
-0.030608
-0.068285
-0.090303
-0.125840
-0.155112
-0.189847
-0.211407
-0.209247
-0.165694
-0.141612
-0.086993
-0.034539
0.038814
0.060036
0.071645
0.090616
0.075900
0.075094
0.084972
0.035703
-0.031524
-0.101924
-0.141081
-0.151501
-0.175168
-0.188696
-0.166182
-0.149223
-0.122742
-0.116896
-0.061113
-0.027889
0.005538
0.077164
0.106320
0.125532
0.126963
0.124606
0.083176
0.025167
-0.005658
-0.048792
-0.102420
-0.139706
-0.180515
-0.222400
-0.207536
-0.190000
-0.168029
-0.143237
-0.108702
-0.066674
-0.026959
0.008932
0.033962
0.071987
0.088424
0.075928
0.035090
0.000853
-0.065822
-0.135915
-0.160454
-0.192989
-0.201414
-0.230798
-0.221217
-0.230963
-0.217590
-0.177695
-0.117303
-0.085845
-0.057708
-0.005765
0.006955
0.027624
0.060988
0.051306
0.001049
-0.013730
-0.067007
-0.117783
-0.148185
-0.222261
-0.259774
-0.266697
-0.289710
-0.279153
-0.229091
-0.141890
-0.113827
-0.110398
-0.065578
-0.038483
-0.009173
0.024848
0.041474
0.023596
0.049508
0.027343
-0.034655
-0.117124
-0.166895
-0.212890
-0.238004
-0.257232
-0.227234
-0.246896
-0.235611
-0.192050
-0.161242
-0.094493
-0.067119
-0.029610
-0.004446
0.020450
0.024730
0.026278
-0.008306
-0.021720
-0.057057
-0.099399
-0.159021
-0.189057
-0.220274
-0.263384
-0.262991
-0.253722
-0.219364
-0.186164
-0.150212
-0.116282
-0.074556
-0.024622
0.000011
0.028881
0.055575
0.047226
-0.005343
-0.033292
-0.075593
-0.125839
-0.163815
-0.215537
-0.285061
-0.311729
-0.304386
-0.271233
-0.186591
-0.158705
-0.145985
-0.096155
0.002780
0.029302
0.056180
0.084293
0.123968
0.129743
0.112098
0.076685
0.070891
0.053416
0.018535
-0.015690
-0.038201
-0.037814
-0.021248
0.013554
0.065740
0.128616
0.190001
0.267784
0.332971
0.404753
0.465262
0.502550
0.542452
0.574934
0.617739
0.626034
0.609632
0.579874
0.543290
0.541123
0.492688
0.486987
0.491721
0.489426
0.498077
0.530816
0.534146
0.517310
0.499310
0.507395
0.483841
0.421528
0.378671
0.333245
0.259002
0.186252
0.118636
0.041338
-0.028301
-0.045014
-0.086203
-0.108052
-0.110551
-0.113935
-0.110027
-0.090661
-0.067993
-0.015030
0.046260
0.089293
0.118570
0.124378
0.119864
0.125215
0.119228
0.071514
0.007536
-0.062021
-0.117442
-0.144724
-0.176527
-0.194232
-0.194683
-0.196021
-0.173688
-0.124872
-0.103100
-0.074183
-0.037514
0.000107
0.035984
0.086325
0.116517
0.095467
0.077614
0.054732
0.007653
-0.082947
-0.128315
-0.143476
-0.180082
-0.213652
-0.230279
-0.228566
-0.208539
-0.143910
-0.094261
-0.070558
-0.016998
0.013104
0.044753
0.076453
0.084965
0.077030
0.030066
0.006937
-0.020860
-0.069945
-0.118815
-0.160514
-0.180996
-0.191992
-0.196111
-0.189127
-0.171784
-0.150682
-0.111369
-0.066829
-0.031590
0.035304
0.058757
0.079969
0.082576
0.083470
0.067300
0.063400
0.028393
-0.034584
-0.101793
-0.124861
-0.169060
-0.155110
-0.149285
-0.181250
-0.184378
-0.153684
-0.080629
-0.038438
-0.002590
0.038685
0.075218
0.141977
0.134730
0.128825
0.100098
0.064772
0.029866
-0.009113
-0.056424
-0.093249
-0.103770
-0.153515
-0.187183
-0.165237
-0.149260
-0.094088
-0.038944
0.011081
0.063492
0.096725
0.118474
0.137669
0.131842
0.154891
0.142496
0.101837
0.045119
-0.005129
-0.047006
-0.079845
-0.099640
-0.099982
-0.083203
-0.096735
-0.094067
-0.069620
-0.015079
0.025434
0.063153
0.122351
0.173266
0.182959
0.190892
0.190762
0.162249
0.131394
0.078280
0.016125
-0.020841
-0.086465
-0.123096
-0.149019
-0.094020
-0.077575
-0.040316
-0.004381
0.022576
0.068749
0.105075
0.140552
0.161783
0.204564
0.220529
0.192255
0.158485
0.123487
0.090673
0.053028
-0.012425
-0.056835
-0.073529
-0.086666
-0.089650
-0.108455
-0.082554
-0.044969
-0.009340
0.058830
0.109763
0.159489
0.184420
0.182916
0.178985
0.163989
0.137847
0.095375
0.096000
0.060409
0.015845
-0.038446
-0.087946
-0.111613
-0.137700
-0.144344
-0.099894
-0.056414
-0.019377
0.021769
0.081021
0.106469
0.133551
0.167964
0.150884
0.126874
0.105259
0.079393
0.037856
-0.001280
-0.041272
-0.082507
-0.112719
-0.140204
-0.146473
-0.142897
-0.121439
-0.094635
-0.037364
-0.008734
0.009701
0.063680
0.080946
0.104207
0.102671
0.071060
0.055843
0.035189
-0.021122
-0.084621
-0.125337
-0.170873
-0.186040
-0.182032
-0.170094
-0.166542
-0.165764
-0.168506
-0.121617
-0.056419
-0.021888
0.026597
0.054618
0.056661
0.060245
0.050122
0.019132
-0.000112
-0.012740
-0.032059
-0.078968
-0.133201
-0.177206
-0.194618
-0.195860
-0.196978
-0.169329
-0.142798
-0.103185
-0.052195
-0.004854
0.023364
0.049254
0.072653
0.076928
0.060287
0.029186
0.007584
-0.032658
-0.087559
-0.129265
-0.170955
-0.207452
-0.237155
-0.239641
-0.241715
-0.225457
-0.176458
-0.125170
-0.106882
-0.037983
0.016796
0.042642
0.053584
0.064178
0.055240
0.058213
0.036641
-0.006212
-0.072228
-0.094506
-0.117681
-0.204434
-0.251876
-0.259860
-0.263951
-0.211642
-0.174215
-0.098695
-0.026781
0.023076
0.060423
0.077473
0.086662
0.081495
0.092837
0.054559
0.014211
-0.037543
-0.097783
-0.133201
-0.147609
-0.181607
-0.203867
-0.202536
-0.186472
-0.176018
-0.175459
-0.125400
-0.054150
-0.011047
0.030688
0.053493
0.078294
0.088463
0.082217
0.061375
0.009537
-0.029180
-0.070591
-0.111336
-0.163342
-0.202835
-0.208280
-0.204885
-0.196058
-0.171615
-0.137685
-0.089994
-0.040896
-0.005536
0.039456
0.062293
0.073004
0.078681
0.087626
0.058850
0.030293
-0.011702
-0.070572
-0.110026
-0.147250
-0.157594
-0.169184
-0.151379
-0.162535
-0.154330
-0.155771
-0.118730
-0.050561
-0.015068
0.038481
0.069037
0.089549
0.086655
0.092014
0.072169
0.036218
-0.041933
-0.080078
-0.112504
-0.166774
-0.223204
-0.205646
-0.206419
-0.210539
-0.178982
-0.128668
-0.083392
-0.034522
-0.027449
0.026498
0.050561
0.039045
0.050260
0.034246
0.031136
0.020162
-0.015580
-0.058097
-0.116379
-0.174304
-0.168566
-0.216250
-0.208950
-0.182072
-0.154308
-0.117383
-0.093972
-0.055998
-0.030557
0.005871
0.045886
0.055162
0.061839
0.059133
0.027439
0.005787
0.004530
-0.051897
-0.097699
-0.175910
-0.243810
-0.243664
-0.239078
-0.216184
-0.162328
-0.141606
-0.113716
-0.063535
-0.018000
0.017223
0.047965
0.064420
0.060784
0.056405
0.034815
0.004098
-0.032824
-0.081032
-0.130365
-0.175389
-0.206269
-0.217291
-0.221024
-0.217635
-0.188586
-0.155513
-0.121940
-0.062682
-0.022184
0.008790
0.034712
0.063712
0.066369
0.048204
0.040502
0.008645
-0.048011
-0.109281
-0.126719
-0.169743
-0.204030
-0.228274
-0.219389
-0.214745
-0.171669
-0.161534
-0.102087
-0.045221
-0.016883
-0.008526
0.025516
0.036261
0.029983
0.037029
0.036447
0.029583
0.003264
-0.053895
-0.105595
-0.148358
-0.175989
-0.204279
-0.245615
-0.245748
-0.198331
-0.147610
-0.105076
-0.061708
-0.036470
-0.005153
0.023363
0.054429
0.097366
0.080551
0.049308
0.005486
-0.050062
-0.124721
-0.138187
-0.162626
-0.188782
-0.199149
-0.216222
-0.220234
-0.192547
-0.156308
-0.099840
-0.053044
-0.019146
0.015941
0.058951
0.076788
0.080048
0.061980
0.036806
0.016980
-0.051596
-0.108250
-0.137972
-0.183905
-0.210925
-0.237177
-0.251576
-0.229253
-0.204098
-0.178507
-0.120363
-0.089957
-0.036160
0.035652
0.043139
0.043647
0.058129
0.056814
0.020307
-0.007852
-0.026913
-0.065480
-0.115616
-0.164522
-0.198722
-0.238830
-0.244730
-0.224618
-0.175429
-0.151012
-0.102483
-0.055659
0.011416
0.026645
0.066378
0.109680
0.125911
0.113084
0.055549
0.026810
-0.010820
-0.053320
-0.103428
-0.142563
-0.177952
-0.210507
-0.187197
-0.175613
-0.154923
-0.105589
-0.075789
-0.016083
0.017173
0.031593
0.054749
0.093050
0.122429
0.114373
0.077750
0.037788
-0.004008
-0.040186
-0.089852
-0.139176
-0.157647
-0.168520
-0.181819
-0.188905
-0.121825
-0.056824
-0.034370
-0.014267
0.002468
0.070883
0.130745
0.140335
0.130580
0.114457
0.085555
0.055523
-0.002026
-0.052417
-0.091429
-0.119674
-0.132147
-0.170042
-0.198235
-0.181690
-0.145582
-0.117182
-0.102852
-0.032962
-0.008322
0.035606
0.071579
0.089204
0.081666
0.069518
0.022891
0.005611
-0.051766
-0.092195
-0.106954
-0.155288
-0.172210
-0.195500
-0.186294
-0.199123
-0.193989
-0.164269
-0.119009
-0.068901
-0.035583
0.016321
0.053334
0.070314
0.063297
0.054483
0.032097
0.013099
-0.046360
-0.117827
-0.161766
-0.192285
-0.234016
-0.258998
-0.247819
-0.222336
-0.207438
-0.193090
-0.144499
-0.103275
-0.052229
-0.008587
0.030751
0.056602
0.068884
0.041789
0.009527
0.004891
-0.038564
-0.115347
-0.145171
-0.216569
-0.225821
-0.239146
-0.266694
-0.267550
-0.223657
-0.177151
-0.119648
-0.091356
-0.044514
0.037517
0.058454
0.054419
0.044527
0.024837
-0.003426
-0.034538
-0.075548
-0.126047
-0.149598
-0.177718
-0.210507
-0.260381
-0.221206
-0.196373
-0.206558
-0.174636
-0.115731
-0.071326
-0.029496
0.006769
0.037254
0.045837
0.048731
0.053953
0.022155
-0.021647
-0.055863
-0.116120
-0.158682
-0.202561
-0.249615
-0.252459
-0.256388
-0.241216
-0.215684
-0.170730
-0.123432
-0.053244
-0.002448
0.025065
0.074114
0.119875
0.142298
0.113559
0.128311
0.134679
0.108556
0.052830
0.037268
0.016114
-0.027017
-0.003459
0.017063
0.027317
0.099715
0.160636
0.249446
0.302580
0.375128
0.451178
0.504506
0.545487
0.590517
0.617064
0.644289
0.644444
0.668297
0.680974
0.642451
0.616038
0.594686
0.564018
0.557603
0.544394
0.551235
0.568893
0.584589
0.605253
0.573928
0.544991
0.512635
0.475866
0.442985
0.389216
0.298510
0.208571
0.128825
0.064886
0.023797
-0.007941
-0.056828
-0.079419
-0.088714
-0.114595
-0.073687
-0.049221
-0.028931
-0.003915
0.023977
0.081812
0.128412
0.139771
0.148834
0.134397
0.114165
0.095153
0.031708
-0.053248
-0.108733
-0.131782
-0.138476
-0.150596
-0.177439
-0.178803
-0.146248
-0.115192
-0.065217
-0.007259
0.007857
0.023026
0.049589
0.092087
0.089366
0.080763
0.050702
0.033407
-0.015318
-0.054040
-0.084220
-0.141650
-0.179381
-0.204726
-0.222527
-0.191290
-0.155293
-0.131619
-0.090034
-0.004024
0.030425
0.072374
0.083368
0.084341
0.087384
0.093465
0.072335
0.023768
0.001031
-0.024641
-0.070089
-0.141988
-0.168033
-0.193656
-0.188335
-0.189151
-0.166816
-0.118087
-0.100839
-0.058912
0.000229
0.054502
0.088787
0.110631
0.108291
0.090036
0.078081
0.049340
0.013300
-0.019913
-0.059011
-0.105927
-0.147570
-0.158793
-0.173832
-0.156243
-0.120639
-0.092178
-0.071135
-0.020781
0.025578
0.093278
0.124768
0.123627
0.128612
0.137895
0.134012
0.071075
0.031829
-0.005691
-0.051552
-0.085244
-0.091766
-0.132761
-0.158451
-0.151178
-0.121204
-0.089254
-0.050559
-0.036062
0.061892
0.122157
0.175297
0.200373
0.212307
0.174388
0.151414
0.131468
0.085615
0.011801
-0.018877
-0.041489
-0.053364
-0.088293
-0.107716
-0.074348
-0.049844
-0.026739
0.025757
0.072041
0.100877
0.139376
0.172617
0.204581
0.212126
0.211941
0.197417
0.152157
0.097067
0.041639
-0.010509
-0.062140
-0.064819
-0.085959
-0.086566
-0.061108
-0.037453
-0.010923
0.039176
0.082220
0.121936
0.174383
0.209339
0.224447
0.211476
0.181096
0.176235
0.179202
0.128659
0.077300
0.023513
-0.026326
-0.044783
-0.062254
-0.074780
-0.079347
-0.039636
-0.001554
0.030739
0.077769
0.121615
0.163584
0.168008
0.167510
0.192821
0.175041
0.173320
0.152021
0.109329
0.060117
0.002085
-0.025134
-0.043516
-0.070883
-0.094365
-0.080994
-0.056031
-0.017312
0.009227
0.049672
0.093981
0.131341
0.145704
0.163830
0.149982
0.164726
0.143370
0.095774
0.045716
0.005509
-0.022495
-0.085383
-0.115593
-0.137189
-0.128758
-0.113352
-0.100302
-0.076274
-0.040447
-0.000798
0.045002
0.071581
0.106997
0.125403
0.137297
0.128342
0.125830
0.082917
0.029467
-0.020115
-0.064342
-0.110054
-0.151853
-0.157516
-0.176481
-0.175855
-0.148396
-0.129145
-0.104135
-0.061197
-0.021230
0.033754
0.044861
0.089622
0.133061
0.093068
0.062188
0.046904
-0.025777
-0.070188
-0.096539
-0.112253
-0.163037
-0.181218
-0.174721
-0.169629
-0.160586
-0.134716
-0.087898
-0.046440
-0.001479
0.040729
0.062851
0.087203
0.088496
0.095610
0.068081
0.004379
-0.028049
-0.060193
-0.113683
-0.138125
-0.178116
-0.186117
-0.208660
-0.200033
-0.178478
-0.141373
-0.110649
-0.065730
-0.024513
0.005035
0.038952
0.064531
0.077113
0.067133
0.058886
0.060992
0.002922
-0.041423
-0.046865
-0.140126
-0.198345
-0.214999
-0.227310
-0.212740
-0.171314
-0.143768
-0.096656
-0.025345
0.024910
0.052143
0.055591
0.059278
0.062405
0.081544
0.053043
0.014669
-0.020463
-0.078349
-0.090462
-0.125998
-0.154652
-0.158081
-0.165238
-0.177180
-0.166713
-0.142600
-0.098368
-0.051205
-0.013077
0.033736
0.081089
0.098262
0.113983
0.108930
0.063824
0.016247
0.009678
-0.068392
-0.081228
-0.127356
-0.157196
-0.177856
-0.194895
-0.203006
-0.194366
-0.148894
-0.059108
-0.011030
-0.002264
0.031476
0.083310
0.132618
0.125418
0.114722
0.065599
0.051575
0.009705
-0.022022
-0.085356
-0.141714
-0.180170
-0.190608
-0.181420
-0.173381
-0.145764
-0.123557
-0.096160
-0.038876
-0.034692
0.002335
0.071605
0.083725
0.096512
0.110363
0.096172
0.040868
-0.006529
-0.051478
-0.081573
-0.137383
-0.178005
-0.190521
-0.195757
-0.173404
-0.158050
-0.134224
-0.093956
-0.053909
-0.000749
0.053443
0.067090
0.067034
0.104164
0.109849
0.087455
0.063020
-0.021215
-0.056251
-0.087661
-0.137494
-0.207252
-0.232073
-0.209105
-0.163188
-0.130971
-0.092263
-0.078951
-0.032243
-0.005304
0.047061
0.063689
0.052751
0.103430
0.077645
0.030289
-0.002765
-0.025378
-0.094280
-0.136617
-0.168533
-0.213722
-0.234977
-0.217462
-0.208650
-0.187317
-0.121609
-0.050996
-0.042287
0.029600
0.053906
0.074972
0.091311
0.077805
0.065995
0.059178
0.017857
-0.032863
-0.080031
-0.078102
-0.172363
-0.224937
-0.211585
-0.188821
-0.197354
-0.174905
-0.119623
-0.106795
-0.042681
-0.000557
0.028885
0.050165
0.066965
0.081182
0.102367
0.083455
0.037733
-0.008211
-0.079277
-0.135975
-0.160992
-0.163360
-0.166836
-0.215321
-0.232434
-0.196234
-0.161090
-0.120547
-0.105226
-0.044317
0.062007
0.109116
0.111302
0.072877
0.015745
0.004087
0.000961
-0.026428
-0.025328
-0.076311
-0.177999
-0.187663
-0.205047
-0.175391
-0.161471
-0.172858
-0.165389
-0.128871
-0.056325
-0.030728
0.013939
0.052960
0.075377
0.065944
0.079904
0.011716
-0.010721
-0.017442
-0.052728
-0.109990
-0.123422
-0.191050
-0.222254
-0.218211
-0.203214
-0.157359
-0.135048
-0.111252
-0.066508
0.000973
0.057877
0.054678
0.075592
0.093276
0.054861
0.038452
0.057966
0.016313
-0.036695
-0.081759
-0.140045
-0.179899
-0.194887
-0.195185
-0.185250
-0.161127
-0.119511
-0.066876
-0.021662
0.018071
0.065527
0.074283
0.087362
0.093622
0.103869
0.088683
0.041155
-0.012794
-0.032422
-0.037226
-0.088585
-0.139549
-0.184395
-0.181460
-0.130379
-0.135040
-0.107628
-0.070608
-0.034545
-0.004631
0.013237
0.057005
0.099414
0.105487
0.098593
0.095289
0.056947
0.028010
-0.039794
-0.084139
-0.119576
-0.156222
-0.109563
-0.114809
-0.131902
-0.107498
-0.082272
-0.050262
-0.055118
0.021488
0.058987
0.059457
0.133473
0.165161
0.120370
0.075148
0.040382
-0.012808
-0.042714
-0.106888
-0.130742
-0.144045
-0.170861
-0.177688
-0.176426
-0.185448
-0.157793
-0.098463
-0.051445
0.017010
0.048927
0.073682
0.082729
0.040432
0.032096
0.041733
0.079509
0.016914
-0.065571
-0.128669
-0.167493
-0.202720
-0.224641
-0.219990
-0.213947
-0.196716
-0.157106
-0.130269
-0.100868
-0.080111
-0.035423
0.020103
0.082796
0.097188
0.068339
0.054571
0.019497
-0.041832
-0.086372
-0.142882
-0.204957
-0.236806
-0.242664
-0.238355
-0.232685
-0.185164
-0.182351
-0.166564
-0.085505
-0.027282
0.021233
0.037950
0.056619
0.054264
0.069766
0.026209
-0.029467
-0.030445
-0.080513
-0.161498
-0.198586
-0.188068
-0.252968
-0.269389
-0.237222
-0.221026
-0.214356
-0.123078
-0.049540
-0.019986
0.004247
0.023924
0.047120
0.060008
0.030178
0.013596
-0.032844
-0.067634
-0.085880
-0.115383
-0.120100
-0.181235
-0.247706
-0.258317
-0.239554
-0.181783
-0.167072
-0.127092
-0.075123
-0.036821
0.033022
0.042450
0.034396
0.049384
0.047144
0.027896
-0.001598
-0.053691
-0.075589
-0.137407
-0.177594
-0.211105
-0.215054
-0.200115
-0.163691
-0.126162
-0.070058
-0.005392
0.018193
0.029721
0.125667
0.180167
0.237132
0.281730
0.296820
0.313424
0.291840
0.268791
0.279366
0.246833
0.267951
0.264315
0.265600
0.287235
0.347336
0.396146
0.462881
0.526313
0.613582
0.684934
0.759736
0.812217
0.824760
0.845500
0.849533
0.785563
0.763899
0.719980
0.644600
0.563518
0.483182
0.420028
0.328104
0.269030
0.219969
0.174079
0.110612
0.187981
0.182786
0.169748
0.211120
0.219323
0.234741
0.246139
0.239166
0.193417
0.117875
0.083245
0.051305
-0.014233
-0.077548
-0.091677
-0.130866
-0.155687
-0.143668
-0.120967
-0.077757
-0.038520
0.001900
0.053220
0.088688
0.111013
0.120760
0.115390
0.128018
0.081569
0.066199
0.039096
-0.020113
-0.068265
-0.122493
-0.164785
-0.204494
-0.165723
-0.148676
-0.131257
-0.082245
-0.047751
-0.034601
-0.020521
0.048475
0.067103
0.073647
0.123053
0.109402
0.079943
0.019659
0.012437
-0.054547
-0.087732
-0.162205
-0.189290
-0.216085
-0.200203
-0.171914
-0.151384
-0.139413
-0.114498
-0.022954
0.052089
0.080437
0.080601
0.117281
0.100371
0.069000
0.065897
0.059058
-0.006857
-0.044935
-0.079195
-0.067983
-0.114845
-0.168448
-0.178646
-0.164365
-0.113245
-0.102847
-0.073194
-0.036942
0.026072
0.073243
0.091984
0.127485
0.135227
0.137400
0.103270
0.063781
0.021485
-0.026393
-0.053258
-0.090074
-0.131895
-0.152514
-0.142645
-0.125720
-0.100123
-0.044812
-0.048505
0.010306
0.050965
0.094130
0.129859
0.164976
0.173154
0.155221
0.133644
0.097546
0.048029
0.018998
-0.001192
-0.044559
-0.075671
-0.083161
-0.118053
-0.139149
-0.057544
-0.025025
-0.010714
0.033590
0.093888
0.137594
0.158516
0.203048
0.186607
0.179369
0.203466
0.163861
0.113904
0.062704
-0.019220
-0.038279
-0.068934
-0.089293
-0.088914
-0.078144
-0.065210
-0.062842
-0.011583
0.118018
0.172257
0.174178
0.194031
0.200349
0.220235
0.224605
0.219035
0.212843
0.156773
0.083354
-0.009578
-0.016740
-0.016864
-0.044819
-0.043151
-0.043062
-0.021649
-0.004309
0.029397
0.060839
0.106263
0.155368
0.189222
0.223542
0.234953
0.233473
0.214262
0.192017
0.127480
0.080183
0.036176
0.005388
-0.015655
-0.028842
-0.065979
-0.052767
-0.009665
0.005192
0.027014
0.082475
0.144539
0.177123
0.200037
0.218974
0.218634
0.197954
0.161749
0.141933
0.112614
0.072542
0.030005
-0.001897
-0.056314
-0.097057
-0.094209
-0.112682
-0.092488
-0.055968
-0.016386
0.016980
0.061993
0.114279
0.162293
0.189742
0.176211
0.155473
0.148102
0.091324
0.044453
-0.016929
-0.061897
-0.094943
-0.129656
-0.147604
-0.152968
-0.149669
-0.126588
-0.064789
-0.017783
0.024342
0.026964
0.053607
0.099122
0.149565
0.139061
0.105849
0.092085
0.110246
0.018277
-0.053775
-0.094154
-0.125440
-0.154773
-0.190918
-0.211335
-0.123363
-0.086947
-0.087487
-0.066669
-0.050266
-0.018588
0.050561
0.076909
0.095699
0.116811
0.089731
0.059067
0.034456
-0.005240
-0.051663
-0.139433
-0.177003
-0.199301
-0.244843
-0.225378
-0.206690
-0.123323
-0.063360
-0.014158
0.018219
0.040091
0.051554
0.074072
0.101182
0.094505
0.079159
0.065988
0.032324
-0.001912
-0.047268
-0.094305
-0.139561
-0.166421
-0.182264
-0.186355
-0.195962
-0.166121
-0.132478
-0.083606
-0.026657
-0.002973
0.017329
0.108614
0.123432
0.098530
0.082319
0.076720
0.065828
0.006767
-0.078919
-0.123939
-0.153201
-0.164985
-0.164974
-0.198720
-0.181062
-0.164047
-0.097762
-0.020049
-0.000964
0.015843
0.033371
0.071443
0.096458
0.112702
0.079690
0.015015
0.028789
0.023372
-0.044538
-0.098850
-0.155134
-0.189393
-0.142148
-0.134897
-0.152530
-0.137479
-0.104283
-0.087358
-0.050088
0.012327
0.073989
0.102385
0.121685
0.097006
0.069664
0.077686
0.013026
-0.028806
-0.047863
-0.096147
-0.136239
-0.155288
-0.138192
-0.160153
-0.155833
-0.120911
-0.088674
-0.065403
-0.020895
0.049035
0.063503
0.085314
0.107938
0.110728
0.067988
0.019264
0.007039
-0.008352
-0.030078
-0.057909
-0.083665
-0.126275
-0.166128
-0.197374
-0.155513
-0.134935
-0.115183
-0.046617
-0.009478
-0.018607
0.055446
0.106197
0.109998
0.121010
0.128539
0.099807
0.049037
0.002463
-0.035194
-0.078372
-0.119872
-0.161975
-0.174250
-0.157519
-0.171300
-0.155381
-0.159169
-0.096875
-0.037490
-0.003358
0.044939
0.073769
0.081909
0.108984
0.105335
0.082649
0.041927
0.010517
-0.014713
-0.082821
-0.138606
-0.131053
-0.160421
-0.214299
-0.228447
-0.168874
-0.119028
-0.055661
0.001826
0.036586
0.063943
0.052408
0.054974
0.070813
0.054399
0.065780
0.019636
-0.064119
-0.103499
-0.102783
-0.118271
-0.161697
-0.189788
-0.185860
-0.176732
-0.177800
-0.124213
-0.056054
-0.015905
0.021447
0.075170
0.080960
0.084301
0.072615
0.076055
0.051089
0.042610
0.009836
-0.048520
-0.063161
-0.110911
-0.150450
-0.176510
-0.209327
-0.204578
-0.205678
-0.142275
-0.090149
-0.039340
-0.000154
0.034964
0.058043
0.097008
0.116311
0.124913
0.100469
0.053267
0.003589
-0.054093
-0.104820
-0.121709
-0.139056
-0.167485
-0.186849
-0.207582
-0.177049
-0.146942
-0.125423
-0.086473
-0.022492
0.033304
0.070138
0.078184
0.092314
0.101783
0.076868
0.052414
0.019070
-0.045070
-0.099087
-0.135053
-0.167442
-0.213302
-0.196682
-0.192947
-0.172887
-0.151432
-0.113753
-0.083964
-0.019620
0.021866
0.048473
0.069564
0.090483
0.096786
0.065443
0.032252
0.008181
-0.021410
-0.078983
-0.136781
-0.183397
-0.208677
-0.217772
-0.200804
-0.150799
-0.134682
-0.096220
-0.056982
-0.031357
-0.009130
0.050759
0.076515
0.109960
0.083604
0.035028
0.018977
-0.008169
-0.020442
-0.059821
-0.138470
-0.227141
-0.240688
-0.247944
-0.222711
-0.153374
-0.124809
-0.101119
-0.074424
-0.014828
0.005143
0.068513
0.106086
0.108582
0.126515
0.072632
0.030634
-0.017723
-0.033056
-0.140850
-0.169338
-0.160673
-0.219195
-0.252891
-0.155485
-0.151562
-0.117584
-0.098380
-0.038613
0.037948
0.096803
0.115460
0.105625
0.124314
0.123519
0.071686
0.061453
0.017086
-0.045398
-0.057047
-0.093457
-0.128471
-0.139682
-0.128448
-0.125873
-0.099589
-0.085504
-0.067601
-0.021261
0.048350
0.084313
0.069498
0.084454
0.139266
0.148286
0.107026
0.062993
-0.013295
-0.035147
-0.065776
-0.067151
-0.123869
-0.142849
-0.154511
-0.169233
-0.129817
-0.078591
-0.038130
0.025752
0.065881
0.090505
0.133018
0.171036
0.181068
0.158231
0.120244
0.087151
0.015946
-0.019789
-0.069312
-0.113143
-0.173093
-0.221547
-0.231031
-0.214430
-0.173363
-0.129857
-0.075017
-0.029056
0.016672
0.073431
0.121492
0.157334
0.160616
0.148035
0.093685
-0.001932
-0.002751
-0.082866
-0.145871
-0.186318
-0.204888
-0.186144
-0.201503
-0.164467
-0.186792
-0.112052
-0.070435
-0.064612
-0.026349
0.040632
0.082616
0.078814
0.036892
0.053931
0.055606
0.011658
-0.035971
-0.086979
-0.126986
-0.129952
-0.143853
-0.160000
-0.184961
-0.191010
-0.228512
-0.194479
-0.130973
-0.046608
-0.062801
-0.004902
0.060930
0.074065
0.073265
0.065163
0.027034
-0.017261
-0.004433
-0.044409
-0.123118
-0.151036
-0.180898
-0.233789
-0.277271
-0.260753
-0.201547
-0.155044
-0.114776
-0.085891
-0.027303
0.014966
0.047744
0.061478
0.112529
0.089130
0.045367
0.010623
-0.044613
-0.078831
-0.098234
-0.165207
-0.187471
-0.197326
-0.221941
-0.212599
-0.166849
-0.147452
-0.093045
-0.063657
-0.047177
0.019300
0.031036
0.046442
0.051006
0.057673
0.038707
0.014181
-0.065006
-0.118036
-0.131085
-0.201907
-0.189768
-0.181386
-0.216421
-0.229782
-0.202518
-0.170032
-0.142011
-0.092846
-0.042368
0.047251
0.076537
0.108364
0.115147
0.113004
0.116805
0.112167
0.106936
0.091315
0.046755
0.031531
0.007652
0.001686
-0.020127
-0.010229
0.050444
0.093098
0.206782
0.310035
0.438264
0.526551
0.548473
0.555278
0.589607
0.594459
0.609388
0.637410
0.668147
0.670752
0.658753
0.611477
0.622141
0.608872
0.579535
0.582386
0.626782
0.661052
0.642283
0.664848
0.675556
0.658816
0.613588
0.566306
0.543513
0.498951
0.398167
0.284354
0.220563
0.180679
0.128323
0.041991
0.002484
-0.024550
-0.052463
-0.041155
-0.043502
-0.008168
0.011978
0.049800
0.069971
0.121123
0.143677
0.162327
0.163372
0.141392
0.134380
0.088080
0.031627
-0.013095
-0.059811
-0.078613
-0.108731
-0.138823
-0.168991
-0.157782
-0.157306
-0.112408
-0.034496
0.011783
0.018995
0.060663
0.101806
0.125635
0.139677
0.116120
0.084110
0.051054
-0.023526
-0.089953
-0.094163
-0.150231
-0.171936
-0.189887
-0.195429
-0.229018
-0.179031
-0.145620
-0.101470
-0.027109
0.037921
0.041279
0.081620
0.128159
0.131478
0.092833
0.074915
0.045329
0.026183
0.003853
-0.038077
-0.088323
-0.140896
-0.141183
-0.173333
-0.167674
-0.152970
-0.110770
-0.045746
-0.002946
0.024863
0.063185
0.102287
0.132153
0.135694
0.132023
0.099063
0.083405
0.005582
-0.021876
-0.056256
-0.094604
-0.119033
-0.134890
-0.145177
-0.145092
-0.102816
-0.132301
-0.093448
0.008993
0.088575
0.140365
0.135901
0.141624
0.161264
0.187335
0.177848
0.116270
0.053731
0.003491
-0.056959
-0.110025
-0.125170
-0.133572
-0.113310
-0.095820
-0.081224
-0.052693
-0.016115
0.013094
0.066174
0.116832
0.149534
0.190324
0.215524
0.200495
0.154806
0.135067
0.070458
0.016784
-0.009085
-0.045678
-0.075843
-0.076979
-0.098011
-0.105532
-0.062553
0.001056
0.022523
0.024898
0.088999
0.168864
0.219012
0.249653
0.225504
0.209969
0.183546
0.158665
0.131008
0.045345
-0.002803
-0.045433
-0.036362
-0.057586
-0.058936
-0.056712
-0.029661
0.003931
0.047943
0.102516
0.148311
0.177782
0.206708
0.245957
0.222892
0.188743
0.177866
0.167631
0.143871
0.102458
0.061198
0.028451
-0.046977
-0.050191
-0.058812
-0.046616
-0.020787
0.008212
0.031729
0.079050
0.132926
0.206229
0.234194
0.232508
0.235453
0.222987
0.209318
0.163350
0.130030
0.089582
0.042886
-0.024985
-0.041513
-0.061675
-0.087620
-0.101882
-0.085648
-0.028493
0.024472
0.081761
0.134642
0.175546
0.188498
0.191449
0.215752
0.198645
0.164145
0.124273
0.079514
-0.010810
-0.034222
-0.043692
-0.085477
-0.122371
-0.105632
-0.086504
-0.096115
-0.050332
-0.003830
0.039727
0.046403
0.089312
0.105585
0.125340
0.137282
0.136679
0.118354
0.097509
0.038935
0.006625
-0.057978
-0.103246
-0.144134
-0.160542
-0.165384
-0.165089
-0.142400
-0.089310
-0.066354
-0.034181
0.011647
0.053264
0.095618
0.131096
0.131461
0.131818
0.121962
0.065497
-0.032375
-0.044999
-0.052348
-0.096382
-0.158579
-0.216964
-0.186392
-0.165457
-0.160299
-0.098016
-0.065774
-0.040841
-0.032039
0.021435
0.078401
0.101500
0.105820
0.054417
0.053105
0.035488
-0.002631
-0.025939
-0.046276
-0.154285
-0.204442
-0.209390
-0.172586
-0.164625
-0.170193
-0.129758
-0.086090
-0.060296
0.013222
0.052033
0.075358
0.091161
0.093084
0.095651
0.073920
0.021858
-0.018663
-0.068655
-0.106711
-0.130056
-0.152263
-0.173074
-0.176987
-0.178317
-0.145405
-0.098604
-0.044851
-0.008305
0.039417
0.049630
0.068361
0.057194
0.023976
0.062074
0.066494
0.032844
-0.015867
-0.072038
-0.074910
-0.099305
-0.144400
-0.165947
-0.178788
-0.184243
-0.168640
-0.118034
-0.077665
-0.044746
0.002384
0.045106
0.089256
0.107991
0.101040
0.106374
0.093213
0.062002
0.021838
-0.036037
-0.083969
-0.118483
-0.137554
-0.160673
-0.171046
-0.176667
-0.165224
-0.104193
-0.076501
-0.037436
0.029257
0.065467
0.074988
0.112115
0.133890
0.120468
0.100366
0.044498
0.008178
-0.036854
-0.074261
-0.107130
-0.138287
-0.176701
-0.185110
-0.175330
-0.153291
-0.130631
-0.094547
-0.018936
0.025661
0.048098
0.079419
0.107902
0.110762
0.107206
0.084782
0.028544
-0.013892
-0.044873
-0.113809
-0.143384
-0.149946
-0.173012
-0.172473
-0.162158
-0.130963
-0.120693
-0.102659
-0.041183
0.032302
0.094982
0.121419
0.104075
0.113366
0.108680
0.099774
0.030903
-0.021562
-0.046064
-0.089896
-0.130127
-0.163814
-0.190804
-0.190331
-0.184068
-0.148536
-0.106677
-0.079004
-0.047053
-0.010324
0.042737
0.071183
0.093528
0.097432
0.083968
0.070370
0.005817
-0.013929
-0.074459
-0.131787
-0.160837
-0.163277
-0.183668
-0.208395
-0.209916
-0.134820
-0.087855
-0.059306
-0.034502
0.025459
0.073862
0.084817
0.097305
0.096364
0.092327
0.071245
0.040500
0.012872
-0.079669
-0.126007
-0.153087
-0.170347
-0.190960
-0.185181
-0.168426
-0.146699
-0.119906
-0.099647
-0.037665
0.005216
0.052636
0.085687
0.097177
0.085905
0.067620
0.047748
0.008105
-0.021455
-0.068165
-0.081407
-0.108289
-0.158997
-0.182369
-0.194606
-0.238716
-0.214956
-0.197820
-0.122700
-0.012626
0.002640
0.004752
0.048714
0.086082
0.090459
0.069510
0.054546
0.032474
-0.001900
-0.064749
-0.114867
-0.158642
-0.185832
-0.187520
-0.193411
-0.204357
-0.173572
-0.132954
-0.084611
-0.062232
-0.016916
0.021463
0.053725
0.088175
0.111436
0.072789
0.043977
0.024784
-0.004305
-0.036084
-0.083249
-0.147842
-0.178728
-0.194115
-0.205272
-0.208618
-0.190711
-0.157353
-0.137149
-0.072228
-0.023863
0.040990
0.044838
0.065751
0.082645
0.079783
0.059601
0.014497
-0.038284
-0.065583
-0.119224
-0.154274
-0.185901
-0.212749
-0.188930
-0.158458
-0.147155
-0.125429
-0.079578
-0.037137
0.006570
0.027275
0.035843
0.120070
0.103330
0.099903
0.063627
0.032978
0.020208
-0.021736
-0.073878
-0.116056
-0.143318
-0.162364
-0.180368
-0.178032
-0.140804
-0.089282
-0.032261
0.006137
0.036366
0.059397
0.084820
0.123314
0.134761
0.134247
0.096677
0.054913
0.020752
-0.047812
-0.087589
-0.117473
-0.154640
-0.184479
-0.170645
-0.151595
-0.143821
-0.107225
-0.077958
-0.016962
0.059787
0.106724
0.116156
0.127013
0.146500
0.138223
0.104234
0.073661
0.046271
0.008412
-0.056306
-0.095172
-0.103617
-0.149619
-0.173116
-0.146179
-0.139339
-0.103192
-0.066218
-0.025892
0.031685
0.067276
0.082438
0.111671
0.109877
0.097684
0.054731
0.038986
-0.001661
-0.045401
-0.084000
-0.105103
-0.125930
-0.168810
-0.214933
-0.212121
-0.208549
-0.169429
-0.113154
-0.088288
-0.047414
0.012616
0.052904
0.100903
0.109156
0.081298
0.042482
0.013334
-0.024498
-0.086376
-0.133668
-0.173438
-0.184560
-0.220232
-0.240146
-0.237067
-0.206898
-0.157292
-0.120918
-0.071244
-0.033006
0.013398
0.049914
0.073459
0.080432
0.063458
0.040036
0.008579
-0.020542
-0.075036
-0.133688
-0.171750
-0.195694
-0.221062
-0.238858
-0.238822
-0.221435
-0.189099
-0.150361
-0.085263
-0.033011
-0.003561
0.037456
0.069195
0.068275
0.054087
0.008103
-0.020454
-0.050802
-0.103954
-0.147220
-0.173353
-0.188953
-0.215183
-0.225395
-0.219739
-0.201948
-0.167847
-0.131939
-0.058730
-0.013345
0.022175
0.037008
0.062034
0.070896
0.057418
0.038778
0.008912
-0.040026
-0.086672
-0.142779
-0.186048
-0.206722
-0.220189
-0.254878
-0.257835
-0.239441
-0.198206
-0.166956
-0.120135
-0.066117
-0.004484
0.036565
0.142843
0.146621
0.083924
0.069641
0.023671
0.005850
0.001903
-0.030832
-0.060827
-0.079117
-0.083160
-0.087073
-0.075234
-0.043779
0.028861
0.085914
0.155839
0.224735
0.276322
0.353949
0.412632
0.452774
0.472276
0.494433
0.490519
0.468738
0.450990
0.427329
0.422979
0.450322
0.447529
0.483986
0.526840
0.586481
0.639868
0.658409
0.693549
0.732995
0.766650
0.788678
0.799135
0.770205
0.716529
0.652198
0.548790
0.429026
0.319715
0.252352
0.168680
0.080328
-0.003537
-0.056007
-0.065748
-0.025346
0.006703
0.031448
0.071421
0.099795
0.141018
0.167119
0.179761
0.184113
0.168380
0.145766
0.105412
0.063829
-0.001854
-0.040296
-0.046328
-0.097576
-0.144292
-0.150761
-0.152040
-0.132550
-0.113976
-0.087954
-0.029757
0.027729
0.075859
0.099838
0.124234
0.130156
0.123899
0.099119
0.058763
0.017935
-0.019833
-0.086104
-0.121084
-0.166223
-0.153933
-0.158538
-0.159242
-0.152161
-0.118520
-0.073716
-0.032957
0.025916
0.065017
0.096539
0.101444
0.109786
0.094144
0.081058
0.043229
0.010189
-0.039774
-0.078009
-0.120628
-0.156358
-0.181555
-0.186722
-0.165820
-0.141213
-0.118271
-0.090549
-0.026853
0.024038
0.069225
0.076308
0.101791
0.106378
0.083006
0.056581
0.038613
0.014940
0.001703
-0.040706
-0.079674
-0.116945
-0.156234
-0.173569
-0.157761
-0.149932
-0.086066
-0.056808
-0.017567
0.035664
0.075158
0.096410
0.118392
0.131221
0.138927
0.123866
0.092220
0.068323
0.023368
-0.041913
-0.067836
-0.104917
-0.137726
-0.135457
-0.127469
-0.112389
-0.069672
-0.013032
0.027757
0.074702
0.106135
0.118819
0.170070
0.198288
0.178409
0.162006
0.115872
0.062651
0.014698
-0.013219
-0.054321
-0.076945
-0.100277
-0.106412
-0.094879
-0.078399
-0.014624
0.061644
0.070664
0.091482
0.135574
0.140284
0.185764
0.198537
0.199285
0.177638
0.137667
0.103999
0.075795
0.048495
-0.002210
-0.039017
-0.072044
-0.070646
-0.075842
-0.051781
-0.011326
0.038212
0.101698
0.142371
0.175510
0.219826
0.233413
0.224972
0.217070
0.198026
0.155473
0.121542
0.079445
0.014751
-0.000147
-0.005066
-0.022138
-0.026725
-0.038488
-0.039786
-0.006534
0.037261
0.085883
0.132638
0.175751
0.204669
0.208471
0.211264
0.222698
0.183579
0.129792
0.090798
0.078017
0.015840
-0.008297
-0.033235
-0.049009
-0.035105
-0.044762
-0.032904
-0.004432
0.025371
0.053861
0.128193
0.170428
0.179800
0.206814
0.218194
0.210472
0.173401
0.115902
0.083406
0.059527
0.006392
-0.046239
-0.085309
-0.114504
-0.126148
-0.125156
-0.096273
-0.054294
-0.036796
0.029479
0.084028
0.116955
0.147357
0.155349
0.149401
0.133582
0.140459
0.090371
0.048841
-0.005407
-0.055934
-0.095658
-0.131277
-0.162135
-0.170907
-0.146443
-0.126509
-0.105719
-0.073723
-0.020745
0.023441
0.058172
0.098426
0.123568
0.125973
0.111040
0.102749
0.045861
-0.001932
-0.026065
-0.078206
-0.117865
-0.148038
-0.180561
-0.204513
-0.190301
-0.165806
-0.110518
-0.091455
-0.049114
0.010180
0.040992
0.055433
0.095362
0.093582
0.076777
0.070963
0.045563
0.006340
-0.050189
-0.115864
-0.157636
-0.189506
-0.204719
-0.205184
-0.196159
-0.180679
-0.144374
-0.108309
-0.054959
-0.004791
0.028504
0.047659
0.050557
0.066568
0.093644
0.108545
0.056072
-0.030393
-0.078269
-0.117866
-0.153575
-0.181485
-0.201440
-0.213288
-0.204445
-0.175687
-0.143729
-0.091422
-0.035331
0.001564
0.027445
0.067086
0.091099
0.088867
0.064688
0.057143
0.036622
-0.002105
-0.069679
-0.117707
-0.141968
-0.163171
-0.207953
-0.199929
-0.175965
-0.159858
-0.126489
-0.089163
-0.027665
0.008542
0.045975
0.067460
0.095224
0.094076
0.109999
0.098610
0.041255
-0.015785
-0.049623
-0.073265
-0.163517
-0.184394
-0.181153
-0.188248
-0.179453
-0.136714
-0.102130
-0.090446
-0.058753
-0.018906
0.039165
0.074754
0.095164
0.083902
0.080308
0.063969
0.010912
-0.031129
-0.069559
-0.134674
-0.182906
-0.187248
-0.190788
-0.177919
-0.184574
-0.163983
-0.125814
-0.087678
-0.038608
0.033441
0.068137
0.104768
0.144730
0.139476
0.123122
0.099807
0.037326
-0.024347
-0.067957
-0.093368
-0.143595
-0.208842
-0.229603
-0.222923
-0.210592
-0.180818
-0.126374
-0.082977
-0.047106
-0.018598
0.003274
0.064991
0.105296
0.100540
0.091832
0.088365
0.031100
-0.005232
-0.089477
-0.098042
-0.120046
-0.171391
-0.207211
-0.196271
-0.178587
-0.163579
-0.140515
-0.120633
-0.056006
0.027482
0.091368
0.098697
0.079322
0.075508
0.066627
0.045339
0.037265
0.023687
-0.062349
-0.118164
-0.151948
-0.171888
-0.196815
-0.217268
-0.213017
-0.170987
-0.122951
-0.090349
-0.066943
-0.032519
0.007190
0.028192
0.049540
0.044728
0.043707
0.014737
-0.023986
-0.021313
-0.066256
-0.102552
-0.166110
-0.189296
-0.209227
-0.190505
-0.175580
-0.167664
-0.137005
-0.113315
-0.070995
-0.041008
0.001993
0.026646
0.058291
0.070220
0.097102
0.097977
0.016215
-0.039424
-0.071237
-0.131958
-0.170591
-0.203155
-0.222257
-0.224544
-0.207228
-0.192340
-0.145018
-0.107968
-0.066688
-0.019847
0.013943
0.062207
0.083868
0.086645
0.082097
0.047185
0.003635
-0.033740
-0.074143
-0.132180
-0.160706
-0.198075
-0.214501
-0.233184
-0.232431
-0.216271
-0.173020
-0.105105
-0.079196
-0.045038
-0.015463
0.028666
0.064298
0.070028
0.087293
0.071141
0.017047
-0.020654
-0.063797
-0.125202
-0.172063
-0.197499
-0.220067
-0.193445
-0.197453
-0.208373
-0.168213
-0.128093
-0.062895
0.022484
0.061529
0.076505
0.095695
0.114683
0.097971
0.047998
-0.013447
-0.034883
-0.063586
-0.071544
-0.108691
-0.139553
-0.164254
-0.167720
-0.166072
-0.162321
-0.136391
-0.099098
-0.043033
0.008637
0.054807
0.093273
0.106506
0.100651
0.113372
0.075622
0.024124
0.004336
-0.039927
-0.091050
-0.136071
-0.160584
-0.187135
-0.190461
-0.171410
-0.124870
-0.094083
-0.069587
-0.031770
0.015726
0.060683
0.102196
0.129950
0.131496
0.105137
0.082928
0.036352
0.007868
-0.040787
-0.108556
-0.145118
-0.181235
-0.215592
-0.217262
-0.185916
-0.150112
-0.129831
-0.061580
-0.028902
0.024213
0.020026
0.058270
0.084617
0.063240
0.083804
0.070202
0.010439
-0.037722
-0.079720
-0.119276
-0.170198
-0.191615
-0.215417
-0.231918
-0.231438
-0.224252
-0.168522
-0.122787
-0.077065
-0.025250
0.025094
0.044844
0.026216
0.020786
0.023216
0.022345
-0.021814
-0.068440
-0.109502
-0.152641
-0.197866
-0.243232
-0.256502
-0.256142
-0.254465
-0.223967
-0.143730
-0.124557
-0.092512
-0.022053
0.016434
0.046246
0.051955
0.047109
0.044494
0.019704
-0.034985
-0.096808
-0.125130
-0.168514
-0.189323
-0.222992
-0.245612
-0.246563
-0.223377
-0.203208
-0.177302
-0.140638
-0.101855
-0.050420
-0.008815
0.029152
0.039246
0.034144
0.034688
0.014337
-0.030754
-0.068293
-0.113299
-0.166753
-0.192858
-0.220120
-0.242926
-0.235278
-0.218381
-0.203507
-0.184255
-0.163643
-0.134431
-0.089330
-0.016687
0.045750
0.060713
0.051849
0.035835
0.014502
-0.033913
-0.072675
-0.111293
-0.136189
-0.189764
-0.221095
-0.267741
-0.269162
-0.225113
-0.205771
-0.170470
-0.108163
-0.073820
-0.019236
0.037567
0.081939
0.127859
0.147970
0.154989
0.122970
0.099354
0.070024
0.064649
0.052426
0.017338
0.001457
0.032061
0.053799
0.087927
0.134882
0.200631
0.250139
0.315810
0.373506
0.420959
0.520228
0.589294
0.644248
0.661738
0.647357
0.643375
0.635065
0.640858
0.629179
0.589958
0.521249
0.488090
0.474035
0.472269
0.450651
0.468257
0.474272
0.440608
0.430469
0.391755
0.426315
0.401040
0.335800
0.282540
0.240668
0.163723
0.079056
0.011459
-0.064679
-0.089825
-0.107021
-0.137971
-0.158710
-0.167726
-0.145066
-0.107772
-0.067913
-0.001304
0.060530
0.079250
0.099699
0.108782
0.118047
0.114818
0.082051
0.047941
0.003304
-0.044202
-0.091195
-0.145882
-0.188128
-0.204036
-0.207478
-0.203242
-0.172581
-0.121800
-0.064027
-0.036047
-0.002224
0.031788
0.076370
0.076686
0.077942
0.078718
0.049660
0.026423
-0.003803
-0.045975
-0.096992
-0.151537
-0.180429
-0.197535
-0.190232
-0.175876
-0.165054
-0.137117
-0.105114
-0.074613
-0.022503
0.025655
0.059900
0.078385
0.073255
0.079893
0.051638
0.028451
-0.013985
-0.050918
-0.114526
-0.146051
-0.169499
-0.188524
-0.190549
-0.189938
-0.180411
-0.131970
-0.113033
-0.060929
0.002492
0.039513
0.048060
0.118926
0.122462
0.103172
0.096985
0.070175
0.015913
-0.048220
-0.096834
-0.124452
-0.152275
-0.180047
-0.172194
-0.181595
-0.152051
-0.113606
-0.080351
-0.003551
0.038013
0.068935
0.082749
0.110978
0.155141
0.145954
0.103370
0.058776
0.029330
-0.004569
-0.057095
-0.107428
-0.139954
-0.128777
-0.142998
-0.140466
-0.099846
-0.071168
-0.033681
0.015854
0.069367
0.099468
0.137108
0.175565
0.189191
0.175284
0.143385
0.116188
0.070082
0.024523
-0.026003
-0.070464
-0.104728
-0.124608
-0.142300
-0.120109
-0.096637
-0.044497
-0.000705
0.048886
0.098933
0.153022
0.182454
0.211217
0.233780
0.205430
0.176960
0.140236
0.094937
0.063620
0.001897
-0.042810
-0.076540
-0.091614
-0.119861
-0.111666
-0.087197
-0.020844
0.032556
0.069299
0.123388
0.171476
0.197694
0.217270
0.207727
0.184748
0.153092
0.117199
0.085000
0.055900
0.009483
-0.026913
-0.065391
-0.078172
-0.072113
-0.032157
0.000461
-0.006641
0.013526
0.054047
0.091404
0.133898
0.166657
0.181726
0.180408
0.159814
0.115906
0.107447
0.090370
0.043492
-0.025283
-0.060685
-0.047380
-0.059539
-0.082705
-0.075959
-0.076246
-0.029811
0.008633
0.056603
0.091566
0.119277
0.155724
0.176380
0.177487
0.172591
0.142826
0.098628
0.026717
-0.025076
-0.068298
-0.061918
-0.105152
-0.130935
-0.143295
-0.150350
-0.130977
-0.099147
-0.056093
-0.028246
0.076574
0.083374
0.106513
0.125262
0.124082
0.117500
0.077017
0.041669
-0.001270
-0.042879
-0.090331
-0.130468
-0.144239
-0.148905
-0.161926
-0.200939
-0.197757
-0.159404
-0.092055
-0.060484
0.009149
0.048524
0.070621
0.069506
0.066822
0.076632
0.067216
0.009286
-0.021372
-0.030735
-0.057118
-0.108402
-0.211756
-0.256623
-0.248029
-0.220321
-0.195709
-0.153055
-0.100109
-0.063372
-0.032506
-0.001952
0.025789
0.070263
0.086250
0.075730
0.057607
0.026538
-0.014913
-0.065475
-0.110005
-0.153063
-0.183775
-0.208372
-0.221334
-0.219071
-0.180913
-0.146814
-0.093662
-0.051239
-0.020120
0.024988
0.048714
0.070671
0.103968
0.082812
0.056807
0.023277
-0.019622
-0.075461
-0.117683
-0.139649
-0.162642
-0.193595
-0.206856
-0.198542
-0.175314
-0.143050
-0.121212
-0.053528
0.000725
0.025101
0.058734
0.080367
0.083224
0.083962
0.071676
0.037251
-0.013437
-0.072131
-0.119344
-0.158755
-0.179518
-0.210057
-0.234535
-0.214868
-0.178383
-0.149688
-0.164616
-0.089791
0.020041
0.036899
0.086736
0.098871
0.107080
0.081375
0.048266
-0.010394
-0.017440
-0.051835
-0.109670
-0.136590
-0.175605
-0.203813
-0.209092
-0.207978
-0.179146
-0.152581
-0.112210
-0.057265
-0.001525
0.052137
0.095488
0.091744
0.086644
0.077504
0.064722
0.030421
-0.005297
-0.049430
-0.102513
-0.148431
-0.175825
-0.188868
-0.196765
-0.178236
-0.150756
-0.131495
-0.100292
-0.072950
-0.016450
0.030023
0.078793
0.099378
0.103324
0.090511
0.058643
0.031213
-0.002366
-0.054748
-0.099699
-0.137081
-0.176772
-0.205696
-0.199933
-0.179870
-0.162407
-0.130418
-0.087960
-0.041257
0.002923
0.021591
0.065916
0.083638
0.091239
0.065860
0.050145
0.015351
-0.027124
-0.062599
-0.097620
-0.153598
-0.183797
-0.197317
-0.201508
-0.196148
-0.173507
-0.118682
-0.057583
-0.046319
-0.021486
0.009245
0.038602
0.055958
0.072119
0.060156
0.039575
-0.005531
-0.025477
-0.060001
-0.120096
-0.158976
-0.184480
-0.181156
-0.200999
-0.205317
-0.195442
-0.161651
-0.156503
-0.101835
-0.032616
0.014241
0.057145
0.073332
0.042931
0.042301
0.019823
-0.016389
-0.018607
-0.048736
-0.105661
-0.170335
-0.217777
-0.224307
-0.209585
-0.174476
-0.164580
-0.128766
-0.086547
-0.034503
0.012529
0.037940
0.045024
0.068895
0.100381
0.082123
0.036567
0.008793
-0.018150
-0.058174
-0.129929
-0.172902
-0.194974
-0.219694
-0.216062
-0.205702
-0.196741
-0.177603
-0.119157
-0.021212
0.013311
0.036850
0.087686
0.097316
0.092012
0.075026
0.065841
0.044886
0.004625
-0.056210
-0.111877
-0.136058
-0.167581
-0.178335
-0.185099
-0.185361
-0.163159
-0.127094
-0.109443
-0.056808
-0.009328
0.027104
0.069787
0.090991
0.137538
0.140142
0.091601
0.011931
-0.004803
-0.045510
-0.104984
-0.187760
-0.209687
-0.199765
-0.186539
-0.185824
-0.171159
-0.138273
-0.088349
-0.018221
0.032957
0.069898
0.108898
0.120763
0.119483
0.109330
0.088540
0.055008
0.030435
-0.017886
-0.080259
-0.098062
-0.137784
-0.172235
-0.213025
-0.178324
-0.128985
-0.088329
-0.062585
-0.025728
0.019033
0.046807
0.068458
0.116385
0.142715
0.122078
0.074027
-0.024083
-0.028440
-0.058448
-0.125010
-0.181897
-0.208346
-0.208156
-0.226822
-0.220244
-0.218058
-0.157873
-0.086366
-0.051877
-0.023745
0.015716
0.082269
0.119972
0.090443
0.049426
0.055000
0.031568
-0.009344
-0.084223
-0.138645
-0.191303
-0.220205
-0.228790
-0.231339
-0.232828
-0.208534
-0.177267
-0.146882
-0.089567
-0.043544
-0.008807
0.029561
0.060015
0.059422
0.030192
0.006345
-0.025723
-0.069092
-0.109087
-0.150812
-0.192911
-0.216652
-0.227812
-0.233023
-0.248194
-0.213701
-0.171587
-0.150668
-0.088371
-0.045533
-0.013533
0.011866
0.042213
0.035111
0.027370
0.008217
-0.032791
-0.061949
-0.129014
-0.160294
-0.189629
-0.234041
-0.251995
-0.255295
-0.243427
-0.203463
-0.189972
-0.153070
-0.084517
-0.052435
-0.026778
0.031028
0.061374
0.062223
0.029987
0.031377
-0.006094
-0.070573
-0.140188
-0.191668
-0.166900
-0.190212
-0.242853
-0.255121
-0.244196
-0.201997
-0.168885
-0.134239
-0.105370
-0.064109
-0.012295
0.019724
0.045769
0.055215
0.075028
0.086085
0.061944
0.013909
-0.024275
-0.060085
-0.073131
-0.089751
-0.098185
-0.092253
-0.066226
-0.020864
0.018996
0.087104
0.145744
0.225222
0.276643
0.353905
0.417385
0.439074
0.445880
0.457140
0.445634
0.431709
0.428886
0.422303
0.419849
0.436115
0.451503
0.483860
0.534354
0.545468
0.583331
0.613098
0.655975
0.708102
0.755763
0.755030
0.743902
0.718106
0.638443
0.550556
0.460795
0.357735
0.254240
0.142133
0.078503
0.015687
-0.043826
-0.093864
-0.102568
-0.088226
-0.056183
-0.059587
-0.007334
0.053280
0.092509
0.109020
0.116937
0.126575
0.167315
0.143377
0.085121
0.020446
-0.028159
-0.084379
-0.106212
-0.138750
-0.166732
-0.171956
-0.169171
-0.160411
-0.133290
-0.079372
-0.045269
-0.010622
0.030862
0.055448
0.108901
0.124004
0.089811
0.051697
0.014541
-0.015459
-0.056643
-0.099156
-0.143994
-0.174202
-0.205829
-0.211674
-0.217227
-0.196782
-0.131805
-0.095388
-0.057420
-0.012511
0.027753
0.072891
0.101131
0.110699
0.102045
0.081499
0.049311
-0.007045
-0.069226
-0.111866
-0.147755
-0.162481
-0.190546
-0.208736
-0.205148
-0.173948
-0.131217
-0.108206
-0.064574
0.001303
0.024115
0.068731
0.092281
0.100416
0.088250
0.076516
0.018976
-0.016219
-0.038915
-0.067458
-0.107845
-0.149843
-0.179299
-0.150042
-0.122423
-0.120260
-0.111963
-0.061273
-0.016706
0.022869
0.043867
0.074009
0.113490
0.095322
0.080995
0.080322
0.068992
0.023452
-0.007391
-0.066929
-0.103652
-0.142863
-0.162621
-0.164327
-0.134782
-0.112495
-0.075486
-0.041297
0.012757
0.067805
0.101233
0.123822
0.150181
0.151635
0.145970
0.118481
0.091698
0.080318
0.027268
-0.039708
-0.080890
-0.121531
-0.131157
-0.118986
-0.090026
-0.074630
-0.058848
-0.010159
0.025187
0.077543
0.143166
0.165233
0.158820
0.168652
0.196752
0.185124
0.125537
0.076065
0.050343
0.017772
-0.029037
-0.064961
-0.089672
-0.096832
-0.095823
-0.068599
-0.020072
0.028117
0.081632
0.125444
0.150482
0.196857
0.207213
0.202205
0.204348
0.167961
0.144524
0.114794
0.048042
0.004404
-0.041935
-0.058252
-0.057194
-0.069564
-0.087659
-0.076501
-0.029555
-0.011990
0.044776
0.121718
0.181851
0.176403
0.175580
0.181426
0.190620
0.180601
0.149328
0.090900
0.054989
0.012526
-0.025013
-0.073978
-0.109036
-0.119554
-0.094558
-0.062149
-0.030181
0.034867
0.072294
0.096035
0.142295
0.174720
0.181876
0.185466
0.176749
0.156636
0.118470
0.079486
0.018946
-0.058745
-0.100029
-0.131954
-0.134584
-0.117357
-0.123721
-0.106783
-0.069027
-0.048829
-0.004696
0.058275
0.085773
0.102249
0.126510
0.151761
0.139969
0.108326
0.052998
0.000734
-0.060467
-0.107550
-0.156589
-0.190685
-0.214448
-0.181928
-0.158999
-0.186188
-0.129922
-0.099700
-0.045989
0.019054
0.059028
0.091030
0.089919
0.104487
0.093747
0.084127
0.038264
-0.001602
-0.047517
-0.086552
-0.140318
-0.166689
-0.196795
-0.200631
-0.184462
-0.166692
-0.130817
-0.094947
-0.054692
-0.017342
0.018590
0.055480
0.082096
0.089850
0.095342
0.055961
0.025956
0.000924
-0.048977
-0.113355
-0.166587
-0.199433
-0.232832
-0.193530
-0.182380
-0.172788
-0.136989
-0.108304
-0.067095
-0.015059
0.019759
0.052825
0.072584
0.069521
0.069020
0.053389
0.014614
-0.027794
-0.082690
-0.110231
-0.129567
-0.175332
-0.201922
-0.229343
-0.239489
-0.194345
-0.135521
-0.097406
-0.052296
-0.017473
0.010642
0.049689
0.071247
0.062785
0.069766
0.047816
0.017307
-0.015709
-0.032312
-0.101589
-0.142782
-0.160354
-0.189508
-0.179761
-0.171626
-0.166976
-0.142020
-0.091443
-0.051517
-0.005271
0.034457
0.072122
0.097738
0.104511
0.102368
0.082742
0.031203
-0.020451
-0.062836
-0.105014
-0.160014
-0.167020
-0.168555
-0.182200
-0.199560
-0.168295
-0.114443
-0.061631
-0.038085
-0.008540
0.018054
0.058771
0.076403
0.131467
0.111613
0.067077
0.047448
0.003109
-0.073662
-0.092206
-0.124573
-0.158702
-0.195846
-0.177934
-0.157736
-0.133651
-0.129183
-0.092932
-0.080664
-0.031132
0.025504
0.066639
0.107461
0.129963
0.120433
0.073658
0.018008
-0.034235
-0.067047
-0.116410
-0.145071
-0.181089
-0.194483
-0.196669
-0.192909
-0.169311
-0.153318
-0.092686
-0.054198
-0.034144
0.054466
0.074966
0.090350
0.106679
0.071856
0.072605
0.045688
0.015719
-0.027604
-0.104100
-0.164519
-0.184084
-0.195214
-0.193511
-0.178354
-0.164920
-0.134271
-0.094138
-0.033020
0.020507
0.076034
0.091297
0.104184
0.116396
0.099623
0.067734
0.043185
0.001117
-0.076431
-0.136838
-0.164742
-0.187365
-0.189363
-0.191052
-0.183919
-0.179958
-0.147510
-0.106647
-0.066866
-0.010335
0.026800
0.055276
0.058459
0.042244
0.044944
0.044725
0.017473
0.032514
0.000921
-0.092150
-0.117733
-0.164444
-0.219666
-0.224114
-0.214147
-0.173142
-0.133959
-0.096222
-0.047098
-0.002852
0.032921
0.068502
0.094697
0.094016
0.062119
0.032643
0.029091
-0.021161
-0.079091
-0.121290
-0.161553
-0.190496
-0.210864
-0.213637
-0.187880
-0.167484
-0.154899
-0.129214
-0.065294
-0.018458
0.029110
0.067367
0.089779
0.073245
0.092840
0.072367
0.059095
0.025686
-0.045442
-0.097293
-0.136492
-0.173886
-0.196259
-0.188738
-0.173706
-0.134181
-0.089479
-0.062459
-0.020990
0.025473
0.062325
0.100554
0.128937
0.143611
0.122138
0.083582
0.042027
0.004240
-0.044187
-0.104994
-0.127574
-0.159927
-0.168779
-0.168921
-0.150172
-0.124962
-0.099173
-0.066185
-0.003141
0.053305
0.095960
0.125313
0.147360
0.149256
0.133719
0.097749
0.080119
0.030004
-0.013735
-0.073378
-0.116174
-0.134246
-0.162162
-0.169974
-0.152930
-0.130207
-0.107385
-0.059131
-0.037009
0.002091
0.047050
0.092572
0.115863
0.123093
0.094818
0.048877
0.011753
-0.031036
-0.070285
-0.129912
-0.151986
-0.173439
-0.194479
-0.203152
-0.212566
-0.189121
-0.127086
-0.077881
-0.034652
-0.012299
0.011155
0.049145
0.064080
0.060364
0.051824
0.023776
-0.003038
-0.041894
-0.098954
-0.145179
-0.168137
-0.178787
-0.195743
-0.212796
-0.217697
-0.192566
-0.136981
-0.112724
-0.102026
-0.056256
-0.006823
0.002401
0.016925
0.068604
0.085895
0.057956
-0.013371
-0.053008
-0.115310
-0.149667
-0.168164
-0.197911
-0.221597
-0.240690
-0.234516
-0.209474
-0.159836
-0.104434
-0.071659
-0.034748
-0.007379
0.031787
0.056267
0.067915
0.064375
0.016388
-0.022683
-0.055519
-0.094112
-0.136142
-0.177227
-0.213354
-0.222024
-0.226076
-0.218113
-0.182126
-0.158908
-0.130841
-0.084019
-0.036374
0.001717
0.014160
0.019186
0.040217
0.038979
0.020147
-0.015991
-0.067389
-0.101124
-0.137559
-0.170347
-0.207363
-0.231622
-0.235134
-0.247896
-0.229072
-0.182786
-0.140717
-0.088526
-0.048074
0.014926
0.052276
0.092859
0.114523
0.109988
0.101832
0.069412
0.047345
0.023878
-0.001505
-0.021669
-0.054535
-0.069259
-0.055380
-0.020928
0.031577
0.090913
0.134047
0.203156
0.290006
0.386042
0.467756
0.512347
0.538471
0.546098
0.548820
0.560185
0.567276
0.552789
0.525012
0.524515
0.557136
0.564383
0.581069
0.598028
0.605479
0.621650
0.668009
0.672523
0.681216
0.674033
0.702328
0.698017
0.609150
0.536704
0.460185
0.377600
0.292318
0.203748
0.104400
0.007404
-0.039920
-0.070495
-0.082841
-0.075036
-0.037819
-0.006852
0.022852
0.036748
0.063978
0.120190
0.161183
0.175056
0.153447
0.154964
0.122164
0.069013
0.020405
-0.004191
-0.045064
-0.080922
-0.125029
-0.163334
-0.195701
-0.175240
-0.104895
-0.071278
-0.057283
-0.040827
0.014870
0.065080
0.101915
0.111040
0.122659
0.123965
0.099709
0.053385
-0.007914
-0.050115
-0.104915
-0.138742
-0.154526
-0.179123
-0.190867
-0.180520
-0.137036
-0.105253
-0.085326
-0.043310
0.011793
0.050932
0.084103
0.095059
0.104760
0.099716
0.074453
0.022094
0.000538
-0.025532
-0.068730
-0.108608
-0.133586
-0.178636
-0.188657
-0.164108
-0.133691
-0.090276
-0.056167
-0.018042
0.027197
0.052792
0.077562
0.102507
0.121927
0.112289
0.084846
0.050448
0.029098
-0.009350
-0.039647
-0.081261
-0.119775
-0.135636
-0.168602
-0.162362
-0.134964
-0.082684
-0.035558
0.028476
0.053714
0.095311
0.142482
0.150391
0.151343
0.128268
0.097749
0.088041
0.010071
-0.019691
-0.048197
-0.086510
-0.118647
-0.150215
-0.123594
-0.095978
-0.093695
-0.062348
-0.013550
0.027651
0.063873
0.110699
0.166082
0.193545
0.173765
0.191832
0.181750
0.135454
0.071940
0.026541
0.003588
-0.022454
-0.062705
-0.105697
-0.098210
-0.056256
-0.030637
-0.009844
0.021940
0.067806
0.120194
0.161645
0.189419
0.211147
0.218907
0.206342
0.192823
0.167183
0.125502
0.080270
0.022518
-0.009690
-0.045542
-0.080082
-0.085472
-0.057701
-0.033098
0.003564
0.045094
0.080377
0.123942
0.185189
0.215257
0.226771
0.234733
0.238678
0.209451
0.165672
0.113478
0.070985
0.019562
0.006543
-0.029777
-0.044911
-0.065917
-0.055501
-0.035753
-0.015313
0.029909
0.080552
0.141490
0.178001
0.207011
0.219650
0.211397
0.203011
0.177529
0.148518
0.123124
0.085502
0.056663
-0.002468
-0.056922
-0.075179
-0.080489
-0.057649
-0.031950
-0.004936
0.032461
0.067807
0.094439
0.129882
0.171824
0.188921
0.201202
0.188871
0.159061
0.124861
0.077361
0.030223
-0.012082
-0.052004
-0.070428
-0.075473
-0.092722
-0.098258
-0.105872
-0.081424
-0.027017
0.023233
0.074545
0.114666
0.132918
0.153685
0.158463
0.145230
0.116519
0.073081
0.049406
-0.000085
-0.058721
-0.112713
-0.149133
-0.162503
-0.153166
-0.143481
-0.130352
-0.102244
-0.064798
-0.011002
0.027928
0.062980
0.093921
0.121438
0.130786
0.116487
0.085505
0.076838
0.023347
-0.009278
-0.067196
-0.114044
-0.153247
-0.177104
-0.197219
-0.183191
-0.179897
-0.136484
-0.073738
-0.027693
0.008667
0.028326
0.080874
0.084034
0.121607
0.130961
0.105780
0.073132
0.010739
-0.036982
-0.084718
-0.125687
-0.160557
-0.197702
-0.204739
-0.191378
-0.118271
-0.080806
-0.045517
-0.008047
0.014250
0.045948
0.075727
0.104028
0.105943
0.085187
0.057932
0.023209
0.006675
-0.017296
-0.057502
-0.104644
-0.158351
-0.188430
-0.190539
-0.172340
-0.136694
-0.098987
-0.057366
-0.016677
0.021161
0.025706
0.066426
0.103826
0.104545
0.082333
0.085067
0.052892
0.012392
-0.037557
-0.091377
-0.125789
-0.149861
-0.170630
-0.165309
-0.148505
-0.138838
-0.116365
-0.064117
-0.003083
0.054382
0.080717
0.093843
0.114283
0.136005
0.132522
0.074572
0.047200
0.014203
-0.028453
-0.080674
-0.134933
-0.165952
-0.171754
-0.160430
-0.156043
-0.185520
-0.131328
-0.064595
-0.022216
0.032131
0.079259
0.109114
0.106850
0.114958
0.152465
0.123268
0.062758
0.003020
-0.035709
-0.065799
-0.091764
-0.127585
-0.123686
-0.137897
-0.164565
-0.154455
-0.117651
-0.072442
0.001347
0.068354
0.083396
0.105953
0.103974
0.125537
0.131573
0.100736
0.066387
0.021398
-0.019998
-0.066479
-0.107070
-0.147010
-0.171604
-0.178636
-0.143668
-0.124722
-0.102843
-0.064969
-0.031044
0.017094
0.066814
0.093536
0.109898
0.124610
0.114561
0.096667
0.058839
0.020252
-0.014147
-0.068593
-0.123891
-0.134583
-0.159170
-0.169995
-0.156812
-0.136179
-0.126461
-0.093684
-0.027902
0.027913
0.056232
0.097990
0.110926
0.097800
0.089154
0.089502
0.052663
-0.012942
-0.058140
-0.085310
-0.112964
-0.169104
-0.195464
-0.200353
-0.164004
-0.152581
-0.121272
-0.077898
-0.038894
0.023617
0.067630
0.094523
0.121147
0.122924
0.097598
0.081342
0.050793
0.011444
-0.040325
-0.072437
-0.123840
-0.140213
-0.158810
-0.185101
-0.196333
-0.175950
-0.139934
-0.062669
-0.032631
-0.003250
0.050434
0.089341
0.120600
0.116180
0.094818
0.080473
0.056236
-0.006371
-0.039658
-0.073852
-0.113902
-0.162836
-0.191103
-0.208799
-0.216810
-0.185101
-0.136801
-0.094659
