0.680730
0.664885
0.649785
0.627064
0.581678
0.536759
0.479724
0.431472
0.358727
0.279118
0.195986
0.126599
0.050289
0.007141
-0.031114
-0.039837
-0.031101
-0.020728
-0.006197
0.058243
0.110076
0.155658
0.193065
0.217503
0.240534
0.252007
0.255192
0.223097
0.166583
0.113037
0.069779
0.006637
-0.048452
-0.068664
-0.108453
-0.116532
-0.103650
-0.065785
-0.036123
0.010305
0.027659
0.062696
0.113144
0.163636
0.193146
0.188921
0.167303
0.123029
0.126915
0.087340
0.039801
-0.018773
-0.068888
-0.103846
-0.131829
-0.138719
-0.117119
-0.089942
-0.064152
-0.020296
0.034633
0.071875
0.124787
0.153998
0.175350
0.185221
0.184520
0.161008
0.117451
0.076300
0.024117
-0.004667
-0.052369
-0.096958
-0.133997
-0.111608
-0.102913
-0.091916
-0.053749
-0.008088
0.038997
0.094483
0.139527
0.156882
0.179937
0.188542
0.177378
0.174095
0.131339
0.086799
0.045999
0.014644
-0.028298
-0.071898
-0.103075
-0.107560
-0.085205
-0.072550
-0.044628
0.007410
0.050708
0.109688
0.149864
0.171626
0.205975
0.205304
0.189840
0.191653
0.170922
0.123374
0.066660
0.035482
-0.016973
-0.054866
-0.084172
-0.078884
-0.062595
-0.038126
-0.001180
0.031395
0.089035
0.137932
0.166250
0.200318
0.236367
0.225578
0.207462
0.201501
0.182007
0.147547
0.080792
0.036279
0.004710
-0.013748
-0.024619
-0.030071
-0.041241
-0.011002
0.021270
0.073415
0.118171
0.163278
0.195778
0.238842
0.280839
0.275427
0.274524
0.272343
0.228005
0.175759
0.118474
0.059563
0.019353
-0.007241
-0.012444
0.006695
0.000131
0.018456
0.057936
0.100759
0.142124
0.171761
0.224168
0.256259
0.278192
0.283646
0.277539
0.253926
0.217605
0.170956
0.131396
0.082958
0.052927
0.014992
-0.006731
-0.014170
-0.009381
0.002351
0.033923
0.086714
0.153223
0.196476
0.223321
0.264189
0.279670
0.272167
0.258720
0.245365
0.207104
0.178131
0.136336
0.082519
0.039294
-0.015873
-0.041001
-0.032230
-0.035934
-0.010395
0.027686
0.062687
0.101160
0.164484
0.209172
0.219118
0.246737
0.251401
0.236754
0.215131
0.177208
0.124556
0.078551
0.035570
-0.016938
-0.057184
-0.099079
-0.094341
-0.071880
-0.047340
0.000109
0.043511
0.076964
0.117542
0.158846
0.195701
0.210133
0.219681
0.196679
0.168097
0.148261
0.113475
0.054179
0.006204
-0.038145
-0.065368
-0.111986
-0.121478
-0.117744
-0.093531
-0.058560
-0.025190
0.025554
0.062289
0.110380
0.165361
0.203045
0.202905
0.187161
0.164476
0.125492
0.073012
0.022375
-0.025282
-0.065380
-0.105308
-0.119174
-0.126012
-0.119130
-0.106255
-0.062696
-0.027071
0.033043
0.063271
0.103325
0.153179
0.188105
0.196633
0.195409
0.164623
0.124728
0.050243
0.010184
-0.018945
-0.050536
-0.085420
-0.127426
-0.141725
-0.151789
-0.117701
-0.087845
-0.025513
0.004519
0.069771
0.122935
0.153244
0.189609
0.186307
0.179557
0.146980
0.127520
0.087154
0.032084
-0.019404
-0.077352
-0.101284
-0.113667
-0.113897
-0.125190
-0.108362
-0.094073
-0.023591
0.020632
0.066193
0.103425
0.124492
0.143608
0.160566
0.178155
0.171800
0.138364
0.094644
0.058432
0.005168
-0.057522
-0.102790
-0.120462
-0.123603
-0.096441
-0.082412
-0.066019
0.006777
0.026134
0.068222
0.102708
0.145737
0.164764
0.159755
0.155710
0.142130
0.115311
0.082138
0.032459
-0.015617
-0.057073
-0.105720
-0.111712
-0.110478
-0.106373
-0.078963
-0.047207
-0.009488
0.040035
0.097987
0.109734
0.132160
0.163283
0.164717
0.168619
0.166802
0.130245
0.081942
0.039134
-0.010101
-0.057458
-0.088969
-0.106519
-0.118025
-0.108279
-0.084347
-0.036705
0.002335
0.039978
0.088725
0.121317
0.155686
0.173912
0.176790
0.176841
0.152759
0.102523
0.061018
0.020607
-0.032569
-0.086286
-0.115986
-0.123911
-0.122017
-0.104837
-0.087553
-0.042623
-0.009340
0.021809
0.070365
0.104899
0.149968
0.162515
0.171312
0.152939
0.142221
0.122962
0.066016
0.007238
-0.049686
-0.075462
-0.088231
-0.115057
-0.124587
-0.123005
-0.102436
-0.072233
-0.020961
0.036137
0.072191
0.117604
0.161432
0.170547
0.176282
0.159639
0.140938
0.099215
0.051794
0.013098
-0.040910
-0.093159
-0.129157
-0.140451
-0.154102
-0.141820
-0.133882
-0.093330
-0.031828
0.000588
0.046346
0.094172
0.132727
0.156888
0.166780
0.153602
0.149021
0.117456
0.077487
0.021817
-0.027007
-0.070446
-0.100519
-0.133185
-0.158486
-0.163534
-0.132262
-0.075100
-0.017111
0.012069
0.051526
0.108969
0.142103
0.166627
0.191224
0.177791
0.129679
0.112892
0.082646
0.047498
-0.008872
-0.046720
-0.077779
-0.101994
-0.122862
-0.162739
-0.114323
-0.077634
-0.022216
0.042911
0.088794
0.141468
0.173452
0.193596
0.203996
0.204932
0.197498
0.156620
0.102163
0.051770
0.006708
-0.043152
-0.076355
-0.105661
-0.111892
-0.084080
-0.098544
-0.065737
-0.020711
0.019155
0.064596
0.123502
0.166368
0.195646
0.209856
0.199097
0.177627
0.155548
0.130634
0.082611
0.028026
-0.025025
-0.055678
-0.071125
-0.096165
-0.088353
-0.041643
-0.034490
0.005364
0.052413
0.092830
0.131979
0.166451
0.193415
0.202938
0.194953
0.153103
0.117301
0.080519
0.046215
-0.011484
-0.049983
-0.085505
-0.112720
-0.118999
-0.113449
-0.089220
-0.056324
-0.013297
0.015872
0.066430
0.113987
0.147561
0.172234
0.185955
0.161118
0.114958
0.083897
0.044569
-0.006101
-0.058885
-0.099875
-0.139559
-0.154201
-0.159501
-0.149226
-0.136939
-0.111982
-0.061937
0.001686
0.047284
0.074205
0.102381
0.128157
0.140642
0.134970
0.104173
0.063644
0.025689
-0.016172
-0.069975
-0.116232
-0.147907
-0.172793
-0.173869
-0.159483
-0.136501
-0.096345
-0.070858
-0.035417
0.022838
0.081549
0.112677
0.129385
0.126759
0.125205
0.105124
0.071457
0.022441
-0.029355
-0.058918
-0.101550
-0.133043
-0.159790
-0.178028
-0.175325
-0.160219
-0.129453
-0.082730
-0.044374
-0.003454
0.046045
0.095456
0.141807
0.160500
0.125586
0.108506
0.069890
0.031900
-0.017918
-0.048883
-0.097672
-0.140285
-0.174774
-0.171994
-0.161153
-0.139414
-0.111224
-0.058753
-0.004351
0.038188
0.073669
0.096079
0.122768
0.130031
0.115899
0.094843
0.074084
0.039991
-0.006464
-0.047753
-0.087016
-0.117448
-0.124122
-0.113687
-0.097602
-0.053959
-0.007969
0.053777
0.117360
0.180971
0.218599
0.264971
0.330366
0.372412
0.412699
0.409004
0.402846
0.394274
0.394691
0.385133
0.354169
0.346251
0.348805
0.378038
0.419365
0.488101
0.547896
0.619933
0.714648
0.808801
0.880664
0.919469
0.942282
0.939635
0.932551
0.876166
0.834987
0.767067
0.701982
0.612977
0.490006
0.403165
0.307731
0.259076
0.213719
0.210183
0.188196
0.192907
0.206462
0.238246
0.262998
0.281629
0.294591
0.300990
0.278558
0.246287
0.192707
0.143851
0.098764
0.042583
-0.002387
-0.041126
-0.064518
-0.056651
-0.061268
-0.048577
-0.023714
0.036157
0.063074
0.106825
0.141503
0.189347
0.200836
0.198060
0.188394
0.142240
0.105419
0.062894
0.017128
-0.033208
-0.059131
-0.084066
-0.105318
-0.114131
-0.112584
-0.102636
-0.075176
-0.035027
0.021964
0.060873
0.112017
0.168012
0.183398
0.183137
0.184000
0.142111
0.099443
0.067313
0.026350
-0.027951
-0.065601
-0.111983
-0.144041
-0.157371
-0.152592
-0.125673
-0.078458
-0.016840
0.022880
0.063563
0.106050
0.150788
0.168783
0.182995
0.191035
0.155086
0.120947
0.074342
0.037302
-0.013608
-0.049279
-0.089794
-0.105945
-0.112843
-0.114344
-0.081806
-0.052388
-0.005037
0.037985
0.093697
0.151212
0.183082
0.196384
0.203241
0.181564
0.167540
0.153593
0.102760
0.047096
0.002665
-0.042051
-0.077336
-0.098311
-0.100610
-0.092786
-0.059414
-0.031818
0.020854
0.065871
0.114013
0.157942
0.196290
0.217103
0.226905
0.221047
0.197379
0.163259
0.134317
0.083140
0.042993
-0.004569
-0.044740
-0.070090
-0.079783
-0.083175
-0.052978
-0.001883
0.060525
0.100305
0.142698
0.174534
0.209370
0.249905
0.262100
0.253211
0.230119
0.195369
0.160529
0.106431
0.059956
0.029166
-0.006112
-0.029298
-0.043801
-0.029889
0.005033
0.039399
0.080769
0.122783
0.169438
0.219104
0.241548
0.256946
0.268746
0.270244
0.248346
0.225274
0.189615
0.144985
0.101390
0.054062
0.026479
-0.002436
-0.009942
-0.002774
0.015648
0.061919
0.093448
0.132076
0.181064
0.216437
0.255451
0.267387
0.271617
0.280017
0.254078
0.215711
0.172653
0.124399
0.073537
0.030881
0.006291
-0.016977
-0.016465
-0.016954
0.009805
0.039998
0.076726
0.130180
0.171900
0.216411
0.238746
0.244271
0.252471
0.254922
0.231139
0.189533
0.148216
0.092777
0.046663
0.000630
-0.030067
-0.055896
-0.068928
-0.055455
-0.030187
0.013522
0.035764
0.074701
0.138052
0.175254
0.200045
0.214648
0.225831
0.198630
0.175984
0.138025
0.095614
0.053871
0.014420
-0.020608
-0.083256
-0.100887
-0.105333
-0.100922
-0.080479
-0.051938
0.016087
0.060529
0.104225
0.146909
0.187812
0.184802
0.185150
0.167444
0.142634
0.119210
0.074354
0.029265
-0.026896
-0.070990
-0.112256
-0.142949
-0.140059
-0.140281
-0.121613
-0.099183
-0.043427
0.021154
0.070189
0.116612
0.152439
0.176716
0.175177
0.168057
0.144261
0.114716
0.059872
0.012758
-0.036754
-0.086713
-0.116588
-0.143599
-0.145024
-0.132303
-0.109624
-0.063436
-0.026209
0.027343
0.045857
0.103788
0.149895
0.168206
0.181738
0.167399
0.127931
0.099120
0.059342
0.015923
-0.040644
-0.085652
-0.123518
-0.152479
-0.151034
-0.133242
-0.119082
-0.068198
-0.026833
0.025465
0.068477
0.107469
0.144127
0.165229
0.180418
0.177356
0.151058
0.136778
0.078601
0.019291
-0.028416
-0.082588
-0.114809
-0.119894
-0.136330
-0.140114
-0.120655
-0.093976
-0.029215
0.023978
0.065663
0.094070
0.139665
0.166034
0.163945
0.156184
0.152094
0.117907
0.073317
0.022961
-0.024285
-0.070040
-0.099162
-0.121420
-0.121669
-0.120933
-0.105604
-0.077508
-0.047941
-0.000918
0.073671
0.116263
0.152029
0.168227
0.174039
0.162367
0.143334
0.105047
0.064867
0.024470
-0.021543
-0.063983
-0.086852
-0.107244
-0.111854
-0.116678
-0.082478
-0.045671
-0.006567
0.028435
0.051886
0.095636
0.139787
0.160385
0.157046
0.146434
0.129992
0.103727
0.051811
0.011488
-0.032730
-0.060210
-0.105815
-0.128099
-0.128269
-0.132526
-0.104695
-0.065620
-0.024223
0.020302
0.067426
0.112063
0.149359
0.160236
0.185981
0.170656
0.131669
0.098621
0.056730
0.012565
-0.023974
-0.075909
-0.110212
-0.112489
-0.120958
-0.130139
-0.112276
-0.077490
-0.041439
-0.000976
0.049317
0.095468
0.143467
0.161312
0.171192
0.164286
0.125236
0.094594
0.050630
0.002031
-0.047012
-0.089576
-0.126086
-0.154220
-0.160327
-0.158256
-0.124309
-0.089839
-0.041846
0.001615
0.049025
0.094707
0.139489
0.163795
0.168161
0.158849
0.126824
0.104588
0.064125
0.001466
-0.040442
-0.075068
-0.142385
-0.176224
-0.177301
-0.177223
-0.131805
-0.076061
-0.044313
0.017670
0.051793
0.097531
0.142029
0.162287
0.168899
0.162146
0.139782
0.101719
0.057688
0.011464
-0.031138
-0.057150
-0.114410
-0.145837
-0.151854
-0.147866
-0.104542
-0.079157
-0.044982
0.004435
0.068690
0.099833
0.146872
0.174759
0.190916
0.195274
0.164181
0.132152
0.094414
0.042700
0.002752
-0.036837
-0.083359
-0.102468
-0.112303
-0.122131
-0.087841
-0.062864
-0.025368
0.042961
0.085279
0.100794
0.130319
0.172775
0.186425
0.174834
0.157055
0.116233
0.087359
0.050860
-0.003083
-0.046329
-0.076366
-0.093490
-0.095732
-0.092272
-0.069350
-0.038064
0.003782
0.045808
0.094728
0.137780
0.182223
0.187435
0.196915
0.200758
0.167549
0.127710
0.073054
0.014738
-0.032276
-0.063381
-0.079375
-0.095593
-0.106823
-0.113417
-0.088539
-0.050212
-0.040498
0.003889
0.050082
0.088338
0.117413
0.133747
0.156069
0.150418
0.129173
0.098003
0.052327
-0.003068
-0.040422
-0.086071
-0.124000
-0.161050
-0.172004
-0.141172
-0.116308
-0.087572
-0.060491
-0.016467
0.031697
0.078613
0.105137
0.116707
0.124087
0.127275
0.100363
0.064714
0.022088
-0.028545
-0.081952
-0.124484
-0.161615
-0.192155
-0.192891
-0.165764
-0.146656
-0.114472
-0.064776
-0.039858
0.003261
0.054471
0.096158
0.105562
0.124553
0.118780
0.093306
0.052023
0.014423
-0.035247
-0.085738
-0.128963
-0.164416
-0.177705
-0.188989
-0.195048
-0.176071
-0.130041
-0.087786
-0.034893
0.015884
0.064270
0.112798
0.135445
0.135108
0.114287
0.081003
0.037459
-0.005057
-0.053624
-0.103123
-0.141808
-0.189698
-0.203924
-0.193410
-0.182443
-0.167059
-0.141493
-0.101286
-0.050114
0.004265
0.036511
0.078391
0.114566
0.128418
0.119145
0.086287
0.046223
0.002135
-0.049831
-0.094598
-0.134965
-0.173943
-0.196403
-0.195501
-0.181803
-0.158023
-0.092771
-0.041286
0.009995
0.071095
0.138477
0.184692
0.207581
0.242278
0.248379
0.244391
0.224232
0.207655
0.179829
0.155011
0.138541
0.119401
0.119217
0.135690
0.189350
0.260120
0.348850
0.404655
0.488192
0.561340
0.624511
0.710792
0.786273
0.832514
0.851010
0.870158
0.869026
0.858371
0.802336
0.745575
0.712043
0.639316
0.591124
0.574241
0.547247
0.533974
0.513654
0.478447
0.457085
0.450740
0.441246
0.426340
0.403520
0.370315
0.338383
0.312540
0.275302
0.227528
0.153218
0.098160
0.048680
0.010976
-0.024763
-0.057545
-0.083494
-0.068909
-0.027744
0.008984
0.054230
0.095601
0.139474
0.167608
0.171119
0.184744
0.168159
0.150145
0.131622
0.084752
0.024210
-0.018175
-0.075104
-0.102277
-0.134862
-0.146216
-0.145252
-0.120380
-0.080846
-0.039229
0.011299
0.041783
0.084727
0.114996
0.129802
0.148439
0.151462
0.131783
0.088276
0.042207
0.007121
-0.024369
-0.076237
-0.130197
-0.150666
-0.156381
-0.138785
-0.121706
-0.086395
-0.052329
-0.001005
0.037344
0.083624
0.126767
0.152153
0.152184
0.149941
0.116642
0.094110
0.040507
-0.005237
-0.051873
-0.090221
-0.125577
-0.142329
-0.150916
-0.139646
-0.114987
-0.069772
-0.039882
-0.001646
0.046131
0.083702
0.126574
0.158202
0.163566
0.152532
0.128423
0.093439
0.049925
0.007002
-0.035168
-0.095566
-0.116872
-0.137613
-0.130511
-0.122326
-0.098822
-0.061225
-0.018459
0.030302
0.077816
0.120258
0.160082
0.176868
0.191946
0.189762
0.153177
0.112652
0.083302
0.043090
-0.018164
-0.046250
-0.082209
-0.095447
-0.098546
-0.093915
-0.081117
-0.037422
-0.003656
0.051304
0.109442
0.161119
0.206357
0.221201
0.230092
0.217800
0.199192
0.156318
0.114231
0.070818
0.039760
0.000825
-0.058702
-0.082832
-0.092081
-0.077182
-0.032011
0.013712
0.050334
0.092163
0.130765
0.177404
0.214808
0.234214
0.234591
0.234462
0.211412
0.185196
0.151547
0.106281
0.055045
0.004437
-0.041308
-0.049433
-0.052631
-0.032452
-0.022366
-0.000073
0.046627
0.095057
0.140169
0.208150
0.242671
0.255983
0.266980
0.259703
0.224517
0.195171
0.148378
0.110421
0.061025
0.019502
-0.026387
-0.045161
-0.061224
-0.054691
-0.034234
-0.005119
0.042567
0.089410
0.126493
0.181961
0.215213
0.236735
0.241759
0.241871
0.212753
0.178083
0.136102
0.075580
0.033345
-0.007216
-0.052637
-0.082658
-0.092015
-0.086946
-0.060497
-0.023222
0.014062
0.067698
0.109247
0.141427
0.181644
0.185091
0.159235
0.177252
0.174266
0.147144
0.090799
0.044333
-0.001143
-0.043979
-0.095151
-0.109165
-0.120075
-0.112335
-0.104865
-0.065660
-0.037468
0.006692
0.053770
0.095515
0.132181
0.160361
0.175043
0.156263
0.134699
0.085984
0.057423
0.011752
-0.045830
-0.091793
-0.134096
-0.153675
-0.163770
-0.161236
-0.137519
-0.107661
-0.066207
-0.016781
0.029286
0.068898
0.108677
0.126630
0.137668
0.128566
0.099302
0.069245
0.022362
-0.017318
-0.074323
-0.110652
-0.145858
-0.171213
-0.185371
-0.162147
-0.138352
-0.100386
-0.052373
-0.003705
0.030496
0.056308
0.083809
0.109028
0.127959
0.121449
0.096261
0.056221
0.022323
-0.028757
-0.086092
-0.125707
-0.153114
-0.164459
-0.179132
-0.169520
-0.140840
-0.117755
-0.063603
-0.008964
0.028463
0.068743
0.098704
0.113177
0.134013
0.101665
0.077601
0.060768
0.021085
-0.024126
-0.082692
-0.126131
-0.159673
-0.178107
-0.169797
-0.161807
-0.129607
-0.102965
-0.059418
-0.002606
0.035328
0.075670
0.114468
0.128864
0.151014
0.142634
0.113737
0.080964
0.027228
-0.029442
-0.065573
-0.109603
-0.153442
-0.173793
-0.191446
-0.171598
-0.145402
-0.105996
-0.054609
-0.003216
0.040896
0.083304
0.126579
0.146969
0.149219
0.134821
0.102881
0.073577
0.042840
-0.012342
-0.063247
-0.100648
-0.144586
-0.160072
-0.167928
-0.147793
-0.126038
-0.089719
-0.057852
-0.025183
0.022955
0.056276
0.108191
0.132053
0.134003
0.130886
0.104608
0.071766
0.029780
-0.032045
-0.072877
-0.111719
-0.159361
-0.184621
-0.186785
-0.180409
-0.147953
-0.097772
-0.052808
-0.015520
0.017880
0.074040
0.106926
0.133109
0.133791
0.120871
0.116818
0.085594
0.038845
-0.019716
-0.078247
-0.092467
-0.135494
-0.153344
-0.161348
-0.164307
-0.151246
-0.128696
-0.082875
-0.040492
0.004558
0.050043
0.098442
0.131492
0.145863
0.121307
0.100243
0.069266
0.023481
-0.014944
-0.063552
-0.118467
-0.151946
-0.174950
-0.178416
-0.165594
-0.151406
-0.107498
-0.090080
-0.040238
0.004295
0.042913
0.097663
0.123114
0.127837
0.118226
0.090208
0.046567
0.014838
-0.026351
-0.066148
-0.104482
-0.132949
-0.178686
-0.189999
-0.173729
-0.152856
-0.120849
-0.092409
-0.039628
0.015946
0.057074
0.091310
0.116117
0.122599
0.119288
0.098878
0.066051
0.024989
-0.036620
-0.088108
-0.118671
-0.142643
-0.163701
-0.179744
-0.172388
-0.141192
-0.108744
-0.062546
-0.012786
0.022172
0.051187
0.094175
0.122151
0.143898
0.131741
0.116189
0.079508
0.036552
-0.006501
-0.041507
-0.098271
-0.138712
-0.149882
-0.149551
-0.145332
-0.113884
-0.087689
-0.063156
-0.012050
0.030579
0.089268
0.108005
0.144783
0.139565
0.129660
0.134998
0.099829
0.046558
-0.005988
-0.055424
-0.092658
-0.121177
-0.131824
-0.143823
-0.110267
-0.088051
-0.039251
0.008581
0.031987
0.069805
0.120821
0.173358
0.172025
0.174053
0.169569
0.154825
0.102842
0.033283
0.007387
-0.057053
-0.106182
-0.146289
-0.162882
-0.154786
-0.152898
-0.139371
-0.099684
-0.049582
-0.002569
0.042945
0.079609
0.112014
0.121218
0.122911
0.107742
0.094401
0.048241
0.008683
-0.035577
-0.086472
-0.124460
-0.165552
-0.192398
-0.203499
-0.191713
-0.175452
-0.128259
-0.069841
-0.021817
0.016105
0.048982
0.070767
0.089369
0.110062
0.089596
0.059717
0.030428
-0.010350
-0.052370
-0.114534
-0.169578
-0.197151
-0.209268
-0.215713
-0.220682
-0.206393
-0.158052
-0.112748
-0.068241
-0.020009
0.027617
0.058964
0.085095
0.096589
0.084336
0.070416
0.036653
0.005432
-0.047367
-0.103093
-0.156220
-0.192526
-0.231139
-0.231695
-0.221310
-0.189208
-0.154958
-0.109355
-0.061657
-0.027574
0.012916
0.037311
0.067206
0.090528
0.092309
0.063638
0.026358
-0.005991
-0.051528
-0.105629
-0.154178
-0.187767
-0.216153
-0.222577
-0.209880
-0.184090
-0.153844
-0.111299
-0.066254
-0.022265
0.026955
0.069361
0.076848
0.071197
0.067654
0.049012
0.019101
-0.011816
-0.060062
-0.096498
-0.136762
-0.168738
-0.186924
-0.229624
-0.221775
-0.191142
-0.166517
-0.097484
-0.036162
0.010777
0.059740
0.116982
0.166252
0.190878
0.184533
0.172007
0.170170
0.142739
0.101805
0.065889
0.015579
0.028042
0.033139
0.040982
0.080502
0.148317
0.226558
0.298613
0.374908
0.448637
0.517066
0.591913
0.646058
0.701020
0.746416
0.766452
0.756517
0.750652
0.745155
0.729475
0.673947
0.635313
0.623206
0.590425
0.577741
0.571735
0.588700
0.610661
0.584693
0.549099
0.531981
0.505826
0.486928
0.452673
0.393402
0.313175
0.232225
0.189736
0.148932
0.097041
0.039648
-0.000636
-0.031029
-0.051239
-0.051332
-0.036981
-0.012241
0.019387
0.059965
0.097845
0.135229
0.163974
0.180239
0.166534
0.141767
0.114717
0.067214
0.016626
-0.026615
-0.064696
-0.096410
-0.134498
-0.159451
-0.168968
-0.143590
-0.130911
-0.101993
-0.055965
-0.001941
0.050852
0.083872
0.108650
0.128390
0.130503
0.116585
0.093441
0.063734
0.017765
-0.019660
-0.070089
-0.118576
-0.140524
-0.150603
-0.165508
-0.164139
-0.151666
-0.113017
-0.068114
-0.019429
0.019364
0.065617
0.106560
0.127461
0.127407
0.125511
0.110723
0.066289
0.005956
-0.037549
-0.081441
-0.114429
-0.144117
-0.162517
-0.171433
-0.160858
-0.147611
-0.102938
-0.057582
-0.008764
0.038785
0.061555
0.104301
0.138032
0.149205
0.138935
0.119934
0.086986
0.041916
-0.009374
-0.055882
-0.100165
-0.128524
-0.146357
-0.154426
-0.144634
-0.119227
-0.098507
-0.064727
-0.022942
0.026638
0.092995
0.136946
0.180143
0.181963
0.162316
0.149631
0.108632
0.057517
0.019892
-0.026100
-0.079084
-0.122951
-0.149004
-0.147770
-0.120655
-0.089870
-0.063953
-0.016102
0.037598
0.089179
0.136913
0.161490
0.183221
0.191351
0.184086
0.177702
0.139321
0.107224
0.058464
0.010062
-0.034010
-0.071917
-0.092678
-0.100715
-0.081676
-0.056499
-0.027689
0.017340
0.041851
0.108230
0.156648
0.186643
0.223433
0.234299
0.223148
0.190075
0.161389
0.107040
0.066891
0.025081
-0.017041
-0.046867
-0.067291
-0.077080
-0.061153
-0.028521
0.015976
0.042081
0.084170
0.139083
0.177058
0.211272
0.229314
0.235649
0.223562
0.201958
0.171622
0.129728
0.079405
0.042037
0.003446
-0.029262
-0.054743
-0.079013
-0.064402
-0.054988
-0.027686
0.021637
0.069301
0.101991
0.153733
0.184252
0.194371
0.211792
0.218923
0.204931
0.169242
0.123254
0.078779
0.023012
-0.034939
-0.063698
-0.075774
-0.099009
-0.083904
-0.063466
-0.024595
0.007325
0.050296
0.101034
0.136758
0.174822
0.185727
0.207840
0.204295
0.168141
0.102275
0.054670
0.016746
-0.029892
-0.080756
-0.114928
-0.127950
-0.129127
-0.122887
-0.108500
-0.066691
-0.038023
0.014157
0.070657
0.110290
0.141308
0.150638
0.155945
0.132352
0.110973
0.083693
0.045098
-0.003599
-0.056728
-0.109533
-0.146383
-0.175287
-0.184634
-0.162392
-0.149246
-0.103673
-0.066211
-0.016273
0.027622
0.072870
0.104688
0.137315
0.147059
0.125246
0.094674
0.047877
0.006949
-0.036287
-0.077354
-0.119515
-0.146738
-0.181809
-0.197236
-0.183150
-0.166640
-0.124131
-0.072882
-0.035739
0.012042
0.055401
0.086166
0.119151
0.126088
0.128365
0.104710
0.054382
0.008437
-0.032792
-0.092719
-0.134855
-0.164542
-0.198538
-0.194837
-0.173319
-0.167063
-0.120552
-0.075737
-0.029119
0.019481
0.064701
0.092824
0.092574
0.126822
0.132418
0.108046
0.059294
0.012827
-0.032819
-0.079511
-0.118687
-0.156179
-0.173137
-0.185889
-0.188523
-0.169001
-0.123605
-0.079678
-0.030791
0.015317
0.062618
0.091037
0.127542
0.142053
0.136505
0.110683
0.075075
0.026756
-0.027476
-0.080264
-0.110648
-0.136598
-0.167269
-0.187281
-0.167658
-0.154006
-0.120401
-0.082916
-0.027701
0.015979
0.057470
0.107109
0.127317
0.135138
0.118470
0.107236
0.078943
0.035739
-0.011682
-0.060250
-0.115435
-0.140630
-0.171168
-0.174431
-0.157286
-0.143560
-0.105404
-0.063993
-0.038494
0.015627
0.063135
0.095578
0.125079
0.139936
0.138109
0.094975
0.058654
0.018670
-0.023769
-0.075956
-0.105702
-0.135900
-0.158051
-0.170100
-0.156786
-0.136059
-0.115714
-0.076643
-0.025844
0.014268
0.064463
0.096612
0.114876
0.124932
0.115245
0.089593
0.062368
0.018409
-0.024702
-0.067982
-0.105770
-0.149652
-0.148123
-0.168395
-0.186096
-0.177167
-0.135294
-0.094561
-0.032115
0.024849
0.068522
0.091149
0.114166
0.122345
0.107189
0.083561
0.042906
0.000744
-0.037259
-0.083992
-0.114034
-0.160762
-0.183488
-0.179678
-0.176768
-0.151797
-0.123289
-0.083103
-0.040771
0.023695
0.071936
0.106906
0.116476
0.114534
0.105495
0.087020
0.034298
0.000650
-0.045154
-0.089183
-0.139418
-0.173015
-0.189940
-0.196354
-0.186471
-0.163310
-0.132857
-0.087237
-0.038348
0.025406
0.069143
0.113753
0.126156
0.128544
0.121731
0.087824
0.057317
0.015119
-0.038879
-0.087070
-0.122163
-0.151134
-0.180960
-0.180906
-0.167518
-0.133877
-0.099868
-0.049728
0.005257
0.045841
0.073219
0.107781
0.146141
0.159518
0.143686
0.122138
0.080819
0.024066
-0.009834
-0.056908
-0.111548
-0.153076
-0.156221
-0.156090
-0.146984
-0.132047
-0.084940
-0.052637
0.000043
0.044414
0.095728
0.118214
0.142317
0.162207
0.158189
0.131223
0.109901
0.079342
0.024948
-0.030777
-0.078048
-0.118197
-0.158868
-0.148557
-0.123579
-0.098868
-0.062107
-0.015517
0.013144
0.043941
0.098619
0.129952
0.156345
0.159315
0.151289
0.133694
0.097396
0.041767
-0.016724
-0.074120
-0.117291
-0.144768
-0.158417
-0.171026
-0.162992
-0.137913
-0.117242
-0.069867
-0.026167
0.008279
0.038431
0.077884
0.114896
0.122188
0.102825
0.095426
0.062372
0.017488
-0.046813
-0.098832
-0.143350
-0.162328
-0.189609
-0.208072
-0.195320
-0.172262
-0.150052
-0.119046
-0.083366
-0.026148
0.032287
0.066489
0.084220
0.092819
0.083998
0.051288
0.019605
-0.020177
-0.056018
-0.121088
-0.164246
-0.191505
-0.211388
-0.225033
-0.211467
-0.197918
-0.166241
-0.122541
-0.064803
-0.025827
0.024187
0.060087
0.075243
0.078384
0.086661
0.047836
0.022945
-0.009411
-0.064572
-0.129563
-0.166198
-0.187153
-0.211766
-0.216793
-0.193179
-0.177730
-0.151776
-0.113309
-0.062276
-0.015681
0.047358
0.072080
0.086711
0.083152
0.060844
0.046089
0.011994
-0.031687
-0.085997
-0.122128
-0.167519
-0.199902
-0.205981
-0.214669
-0.206426
-0.179027
-0.156571
-0.120062
-0.070385
-0.024239
0.019429
0.062345
0.079231
0.080340
0.060434
0.035124
0.015823
-0.023265
-0.079966
-0.134190
-0.177455
-0.194124
-0.203367
-0.180887
-0.153115
-0.124389
-0.080349
-0.021761
0.027299
0.105270
0.169530
0.223696
0.246197
0.278089
0.280629
0.279522
0.278698
0.262907
0.241988
0.227323
0.218885
0.208665
0.219264
0.249400
0.285962
0.329333
0.395125
0.484492
0.595875
0.660317
0.748397
0.810774
0.868753
0.891754
0.877665
0.843938
0.820545
0.750129
0.683490
0.626092
0.558133
0.494288
0.379628
0.299088
0.264949
0.238922
0.232318
0.225631
0.221083
0.221027
0.242633
0.271949
0.292543
0.295702
0.285854
0.245110
0.199392
0.147826
0.074966
0.018234
-0.049799
-0.095584
-0.123200
-0.124755
-0.115350
-0.081110
-0.051669
-0.018908
0.024833
0.049943
0.088027
0.131595
0.152775
0.153301
0.144680
0.114991
0.090828
0.044663
-0.003516
-0.065616
-0.116556
-0.143651
-0.161380
-0.172921
-0.173998
-0.147406
-0.112619
-0.068890
-0.032139
0.031705
0.075634
0.098095
0.116391
0.121498
0.119938
0.091610
0.049875
0.013578
-0.011514
-0.053003
-0.110793
-0.144898
-0.185667
-0.193317
-0.176322
-0.151391
-0.120111
-0.067960
-0.010938
0.022223
0.055788
0.090355
0.104426
0.115991
0.114446
0.099920
0.069900
0.015156
-0.024522
-0.067612
-0.097275
-0.126696
-0.152195
-0.164369
-0.146524
-0.126332
-0.099605
-0.044024
-0.006521
0.037007
0.088167
0.120465
0.150294
0.160163
0.152105
0.119475
0.079073
0.036928
-0.005957
-0.043110
-0.091893
-0.105704
-0.137771
-0.151659
-0.140620
-0.115061
-0.078061
-0.038213
0.017673
0.072027
0.106252
0.144398
0.171087
0.190556
0.167637
0.137131
0.101495
0.065844
0.019800
-0.030932
-0.069952
-0.089903
-0.095206
-0.100394
-0.097500
-0.076754
-0.042402
0.009961
0.055785
0.099651
0.126957
0.175623
0.186110
0.194761
0.198929
0.179567
0.140803
0.101940
0.052569
0.011666
-0.035309
-0.064557
-0.073802
-0.067509
-0.066141
-0.054261
-0.019546
0.038407
0.090844
0.138222
0.175313
0.208481
0.225170
0.230394
0.225194
0.200045
0.162062
0.126843
0.084139
0.039960
-0.006765
-0.054460
-0.072620
-0.070785
-0.064749
-0.041692
-0.000760
0.044118
0.083219
0.128954
0.182369
0.219202
0.244753
0.258008
0.246474
0.224554
0.182195
0.124107
0.068896
0.027455
-0.019103
-0.053012
-0.093329
-0.108813
-0.096443
-0.065385
-0.023533
0.040654
0.093527
0.121517
0.178505
0.201833
0.217658
0.230085
0.218353
0.198317
0.167591
0.128202
0.067254
0.005935
-0.045811
-0.079031
-0.104757
-0.113890
-0.103233
-0.059978
-0.036282
-0.006203
0.042094
0.092192
0.136848
0.167374
0.183835
0.188890
0.190323
0.155750
0.109849
0.080185
0.027090
-0.028751
-0.083157
-0.119175
-0.137695
-0.144749
-0.142877
-0.115988
-0.089672
-0.047392
0.010526
0.062505
0.091148
0.135664
0.151852
0.155692
0.137093
0.111092
0.088329
0.047697
0.001573
-0.042905
-0.098803
-0.143606
-0.166816
-0.166207
-0.169189
-0.149131
-0.119123
-0.066627
-0.029153
0.016449
0.073588
0.112819
0.126618
0.135795
0.131266
0.106483
0.076568
0.028566
-0.027040
-0.080726
-0.116601
-0.137134
-0.164199
-0.177793
-0.162376
-0.139862
-0.109301
-0.064410
-0.029186
0.017574
0.060676
0.100900
0.137164
0.135443
0.095394
0.075994
0.071693
0.030390
-0.024302
-0.070254
-0.108045
-0.139362
-0.155525
-0.171823
-0.172878
-0.138629
-0.112471
-0.064978
-0.024617
0.026749
0.070261
0.094790
0.117461
0.131503
0.122670
0.097019
0.062099
0.018096
-0.012914
-0.068728
-0.111973
-0.151213
-0.162036
-0.166283
-0.157047
-0.129368
-0.088959
-0.047708
-0.007825
0.042106
0.082923
0.111001
0.124939
0.117623
0.117049
0.096148
0.062431
0.022503
-0.000900
-0.053588
-0.108111
-0.141797
-0.174136
-0.171398
-0.159357
-0.133840
-0.109007
-0.067574
-0.000013
0.047936
0.086021
0.113871
0.124399
0.127594
0.133810
0.115244
0.074414
0.036646
-0.007505
-0.065600
-0.127379
-0.161143
-0.170165
-0.171183
-0.171551
-0.142195
-0.100177
-0.062451
-0.020479
0.039727
0.084076
0.113727
0.131407
0.138213
0.136489
0.118041
0.096484
0.048284
-0.023605
-0.066026
-0.100586
-0.127312
-0.161583
-0.188357
-0.181188
-0.145701
-0.111155
-0.070212
-0.018701
0.035572
0.082757
0.116087
0.131294
0.131946
0.131029
0.104618
0.077907
0.026167
-0.012810
-0.067293
-0.114693
-0.156946
-0.181629
-0.184972
-0.161933
-0.145275
-0.115181
-0.074090
-0.015249
0.024864
0.074373
0.111223
0.127582
0.126011
0.114498
0.103263
0.066580
0.014505
-0.041869
-0.088910
-0.133265
-0.164110
-0.179511
-0.171745
-0.179562
-0.165790
-0.132752
-0.099679
-0.039106
0.023033
0.078641
0.121100
0.108261
0.114538
0.113283
0.101925
0.056354
0.009910
-0.034478
-0.084046
-0.129357
-0.141144
-0.170990
-0.178096
-0.174293
-0.156192
-0.134008
-0.094147
-0.042253
0.016707
0.074004
0.092317
0.105045
0.124079
0.129012
0.109909
0.056271
0.024202
-0.010500
-0.061164
-0.098446
-0.113441
-0.136230
-0.148426
-0.154708
-0.126356
-0.097340
-0.058886
-0.001236
0.046731
0.094742
0.126246
0.144808
0.149199
0.144250
0.124510
0.075927
0.038758
-0.009510
-0.039807
-0.087738
-0.118648
-0.137189
-0.154110
-0.142708
-0.120462
-0.086715
-0.043670
0.014006
0.061102
0.098953
0.129925
0.167941
0.172603
0.177975
0.148247
0.109046
0.072899
0.027339
-0.019071
-0.058478
-0.093465
-0.109182
-0.122553
-0.117899
-0.101250
-0.083706
-0.039369
-0.002982
0.034224
0.088327
0.117914
0.134247
0.141635
0.121540
0.106202
0.077721
0.026976
-0.022774
-0.062630
-0.114392
-0.145854
-0.159302
-0.171124
-0.152732
-0.139604
-0.109325
-0.058883
-0.016254
0.033440
0.066081
0.091306
0.093245
0.097397
0.105578
0.074673
0.034158
-0.011502
-0.055022
-0.102661
-0.147214
-0.177352
-0.197535
-0.202147
-0.194173
-0.175170
-0.149529
-0.107761
-0.056557
-0.005398
0.037378
0.066409
0.081044
0.089772
0.081816
0.050482
0.022712
-0.017787
-0.064255
-0.109934
-0.139597
-0.175898
-0.219031
-0.224034
-0.195962
-0.169288
-0.139220
-0.096304
-0.053312
0.000904
0.048329
0.075182
0.089320
0.084215
0.062417
0.037489
0.015384
-0.012270
-0.063411
-0.103890
-0.147061
-0.185314
-0.215681
-0.221535
-0.226912
-0.200318
-0.146975
-0.098195
-0.049952
-0.001614
0.041551
0.064600
0.092237
0.095678
0.083984
0.063843
0.020056
-0.013000
-0.052747
-0.094979
-0.141936
-0.193488
-0.225186
-0.229128
-0.202930
-0.169152
-0.155396
-0.130234
-0.082861
-0.021938
0.030941
0.061311
0.082612
0.096909
0.095524
0.075580
0.046881
0.018045
-0.018315
-0.051649
-0.087683
-0.110433
-0.114849
-0.105996
-0.099359
-0.062280
0.006868
0.053076
0.114085
0.178682
0.247594
0.315884
0.363149
0.407688
0.436554
0.456657
0.448750
0.441110
0.425591
0.400985
0.383510
0.379618
0.400930
0.444313
0.492028
0.548780
0.611987
0.678394
0.749849
0.783890
0.806601
0.845610
0.852123
0.838553
0.808133
0.770254
0.705269
0.592595
0.469473
0.351637
0.259694
0.186967
0.110759
0.069599
0.030261
0.036808
0.063479
0.104066
0.139305
0.185127
0.220444
0.228834
0.232582
0.223746
0.220840
0.180734
0.129803
0.091805
0.043560
0.006350
-0.043524
-0.080023
-0.105447
-0.125548
-0.121290
-0.112223
-0.056820
-0.012332
0.036949
0.076423
0.102329
0.124083
0.138068
0.157463
0.153212
0.118745
0.086294
0.037601
-0.004442
-0.058303
-0.097854
-0.141882
-0.159731
-0.168306
-0.166983
-0.147986
-0.091633
-0.050551
-0.009011
0.038589
0.080313
0.095138
0.131335
0.146057
0.136379
0.112828
0.064495
0.029815
-0.016772
-0.066450
-0.109753
-0.141892
-0.173138
-0.168388
-0.165657
-0.129591
-0.085729
-0.043284
0.005487
0.052800
0.094590
0.126498
0.145394
0.154639
0.149374
0.120715
0.079168
0.043350
-0.001357
-0.054839
-0.097101
-0.138209
-0.162537
-0.161127
-0.144902
-0.118029
-0.077823
-0.036692
0.020907
0.072561
0.100095
0.146531
0.166583
0.166715
0.161026
0.152387
0.115468
0.077831
0.028639
-0.028370
-0.066066
-0.103478
-0.124276
-0.132465
-0.109788
-0.088154
-0.061747
-0.032308
0.010336
0.073427
0.127602
0.175214
0.202237
0.211368
0.210495
0.179758
0.145547
0.108422
0.069672
0.020241
-0.032886
-0.077770
-0.101504
-0.107201
-0.088268
-0.058129
-0.038625
0.003973
0.058503
0.107779
0.161009
0.192229
0.220582
0.230307
0.232534
0.214657
0.170940
0.122227
0.081809
0.045298
-0.004057
-0.041831
-0.058931
-0.063498
-0.055391
-0.046371
-0.000092
0.049585
0.102578
0.157379
0.197567
0.226991
0.252036
0.256275
0.250301
0.222708
0.185707
0.143379
0.113054
0.064295
0.027790
-0.017518
-0.045008
-0.043526
-0.040619
-0.018333
0.013024
0.053116
0.091639
0.139785
0.179713
0.209007
0.234818
0.245194
0.242591
0.205879
0.170566
0.135900
0.082348
0.035047
-0.003085
-0.021291
-0.045586
-0.052928
-0.042726
-0.028418
-0.012706
0.039141
0.081376
0.119555
0.156737
0.184072
0.201215
0.225851
0.218844
0.186801
0.151277
0.094122
0.047604
0.015332
-0.022013
-0.058830
-0.084924
-0.093392
-0.095073
-0.068792
-0.038336
0.005335
0.054977
0.092683
0.129574
0.159416
0.193462
0.195085
0.178370
0.145453
0.128469
0.059463
0.017958
-0.028228
-0.066152
-0.106755
-0.132305
-0.133503
-0.140059
-0.113708
-0.085470
-0.045946
0.007528
0.062120
0.095945
0.128189
0.154490
0.170109
0.159092
0.127892
0.091503
0.058716
0.004623
-0.048620
-0.097651
-0.138164
-0.155433
-0.150783
-0.131644
-0.114856
-0.083516
-0.053825
-0.000319
0.054784
0.084559
0.109055
0.146271
0.151719
0.134621
0.101361
0.073885
0.033230
-0.024399
-0.079199
-0.105519
-0.139988
-0.149949
-0.154175
-0.145449
-0.132661
-0.110187
-0.072255
-0.000873
0.037873
0.090391
0.132950
0.158344
0.158821
0.146787
0.118591
0.075316
0.031268
-0.016106
-0.068072
-0.098870
-0.128796
-0.152060
-0.161199
-0.168516
-0.128658
-0.072524
-0.023106
0.004318
0.035681
0.078522
0.122937
0.146713
0.156742
0.158034
0.128675
0.086225
0.046773
0.001616
-0.048962
-0.090371
-0.141190
-0.164361
-0.153152
-0.137455
-0.111270
-0.081237
-0.031982
0.010840
0.051727
0.095843
0.112169
0.139794
0.170345
0.156430
0.133202
0.092042
0.035322
-0.005627
-0.043780
-0.083122
-0.118857
-0.153862
-0.159845
-0.160598
-0.131973
-0.086211
-0.038241
0.015631
0.077234
0.099937
0.127541
0.145105
0.139585
0.134132
0.118841
0.092841
0.066594
0.010812
-0.037577
-0.092012
-0.115672
-0.135980
-0.145997
-0.152700
-0.128432
-0.092222
-0.047744
0.006445
0.052391
0.097027
0.122342
0.149331
0.149422
0.127451
0.110576
0.098400
0.066190
0.006278
-0.050739
-0.085686
-0.123658
-0.148923
-0.152872
-0.144967
-0.125050
-0.085915
-0.033361
-0.003894
0.036408
0.075746
0.109313
0.140460
0.147840
0.140608
0.119701
0.074413
0.030870
-0.012882
-0.060223
-0.101892
-0.135108
-0.154769
-0.159549
-0.142048
-0.126381
-0.096548
-0.052927
-0.000063
0.049136
0.090137
0.114917
0.132863
0.126897
0.111759
0.098680
0.058350
0.014053
-0.009972
-0.056975
-0.099585
-0.143721
-0.160021
-0.164474
-0.158131
-0.149938
-0.107841
-0.060336
-0.016810
0.032097
0.070830
0.112583
0.131794
0.134163
0.113505
0.095834
0.069956
0.027696
-0.027591
-0.078322
-0.108118
-0.141199
-0.159961
-0.177888
-0.166812
-0.131593
-0.091294
-0.056545
-0.007523
0.053269
0.084214
0.113906
0.145164
0.141474
0.142166
0.115520
0.081098
0.060035
0.007502
-0.045785
-0.088626
-0.125137
-0.144817
-0.150292
-0.135663
-0.116016
-0.081727
-0.036568
0.004935
0.057403
0.099979
0.146884
0.157232
0.167265
0.159916
0.129488
0.093603
0.048883
0.012167
-0.052884
-0.098421
-0.133047
-0.154153
-0.139591
-0.139210
-0.125830
-0.085702
-0.033851
0.023585
0.092068
0.136931
0.170750
0.197734
0.197686
0.180569
0.163884
0.140738
0.094345
0.049227
-0.009010
-0.043144
-0.083462
-0.123376
-0.131126
-0.132743
-0.116998
-0.075682
-0.043303
-0.001734
0.042391
0.083182
0.125556
0.144753
0.144355
0.130831
0.115193
0.088696
0.039133
-0.002316
-0.054758
-0.106730
-0.141413
-0.152551
-0.153509
-0.162045
-0.139558
-0.110968
-0.053174
-0.022104
0.028578
0.070346
0.096719
0.131471
0.131156
0.116524
0.086286
0.050334
0.010336
-0.044456
-0.096497
-0.138137
-0.168947
-0.196377
-0.199681
-0.188582
-0.169445
-0.146275
-0.107785
-0.053331
0.004998
0.052280
0.076496
0.096470
0.092462
0.090601
0.080604
0.039316
-0.012781
-0.049617
-0.103924
-0.164042
-0.183583
-0.194760
-0.188947
-0.181620
-0.167524
-0.145712
-0.092814
-0.048457
-0.000777
0.034476
0.070039
0.094519
0.106702
0.087234
0.058918
0.028677
-0.014316
-0.061168
-0.109911
-0.143952
-0.181221
-0.215364
-0.218434
-0.194773
-0.170758
-0.140671
-0.093446
-0.055446
-0.001630
0.050627
0.068180
0.097155
0.098511
0.095112
0.057204
0.029960
-0.030098
-0.069878
-0.114499
-0.154544
-0.198774
-0.215692
-0.216596
-0.212310
-0.197570
-0.160882
-0.116704
-0.063248
-0.014090
0.046805
0.079918
0.100156
0.114291
0.126461
0.123443
0.092204
0.057209
0.021070
-0.014546
-0.031762
-0.036687
-0.048967
-0.047235
-0.018383
0.022341
0.069773
0.149849
0.226741
0.311542
0.385653
0.460269
0.513485
0.527863
0.562512
0.574097
0.557359
0.547439
0.538644
0.520708
0.520550
0.524710
0.545464
0.572026
0.596532
0.617372
0.645777
0.697043
0.731075
0.762424
0.790467
0.803372
0.814474
0.768839
0.679048
0.581599
0.481247
0.380341
0.291347
0.187147
0.103491
0.016828
-0.013928
-0.035185
-0.033912
-0.017835
0.005935
0.048911
0.075385
0.114892
0.145139
0.190526
0.218761
0.207708
0.194604
0.165980
0.133737
0.100031
0.037344
-0.018766
-0.056032
-0.099349
-0.137084
-0.145940
-0.143180
-0.135617
-0.087742
-0.048300
-0.002342
0.041843
0.082457
0.120512
0.142383
0.132034
0.120947
0.095546
0.072605
0.026250
-0.018421
-0.071012
-0.110668
-0.145292
-0.154821
-0.161431
-0.159448
-0.129959
-0.100320
-0.067064
-0.026396
0.023445
0.060291
0.085853
0.115767
0.138604
0.120098
0.084309
0.051880
0.034150
-0.007854
-0.099148
-0.112452
-0.138472
-0.169518
-0.169082
-0.152129
-0.129506
-0.100782
-0.059828
-0.016262
0.035454
0.074305
0.105592
0.123024
0.133104
0.126732
0.108368
0.078415
0.026552
-0.009410
-0.058493
-0.096365
-0.111842
-0.143861
-0.161529
-0.147823
-0.112100
-0.086073
-0.054010
-0.007009
0.041898
0.081653
0.115676
0.143602
0.153594
0.140267
0.124240
0.098274
0.050599
0.003266
-0.044911
-0.085761
-0.103952
-0.116786
-0.118311
-0.108172
-0.077301
-0.049925
-0.021995
0.033682
0.073309
0.116286
0.156697
0.178229
0.174576
0.171580
0.147331
0.130050
0.084915
0.039827
-0.014564
-0.045066
-0.065689
-0.099778
-0.115217
-0.110865
-0.079191
-0.027739
0.002082
0.052961
0.110441
0.159332
0.181698
0.194663
0.216336
0.199520
0.181429
0.165180
0.128683
0.061125
0.001006
-0.035799
-0.050941
-0.065710
-0.066057
-0.062449
-0.047329
-0.024985
0.017246
0.085779
0.143937
0.171980
0.192130
0.212031
0.228736
0.215578
0.194763
0.154239
0.111817
0.078019
0.022475
-0.016683
-0.059062
-0.090167
-0.083251
-0.069422
-0.053676
-0.021334
0.027725
0.067459
0.113579
0.161222
0.192697
0.220144
0.232362
0.215708
0.201767
0.164116
0.111682
0.053229
0.002108
-0.039699
-0.070555
-0.085058
-0.094909
-0.096781
-0.081479
-0.043485
-0.008884
0.043490
0.095960
0.137790
0.167905
0.192004
0.195329
0.183357
0.169428
0.140512
0.096994
0.037093
-0.025633
-0.060569
-0.093050
-0.110690
-0.132437
-0.126490
-0.117477
-0.074169
-0.027328
0.020653
0.067955
0.105881
0.146010
0.172756
0.168275
0.145495
0.119432
0.101555
0.049607
0.001311
-0.059615
-0.096964
-0.146160
-0.176781
-0.165410
-0.133425
-0.123829
-0.089419
-0.065857
-0.013032
0.032020
0.076444
0.105569
0.135121
0.140645
0.125786
0.104946
0.059995
0.025452
-0.031695
-0.084457
-0.125269
-0.152828
-0.170891
-0.188594
-0.172174
-0.150056
-0.114449
-0.072688
-0.027658
0.016499
0.057827
0.093864
0.113903
0.110951
0.103517
0.086528
0.058731
0.012230
-0.034707
-0.074118
-0.106938
-0.140597
-0.161537
-0.162823
-0.156137
-0.162407
-0.133039
-0.073302
-0.020867
0.022007
0.062579
0.096435
0.112376
0.126382
0.123743
0.100979
0.062610
0.022499
-0.036178
-0.089148
-0.117398
-0.150015
-0.159327
-0.170660
-0.158134
-0.141161
-0.109975
-0.058290
-0.007904
0.043729
0.096940
0.107992
0.110568
0.124061
0.128781
0.111134
0.066208
0.013616
-0.031869
-0.083066
-0.123382
-0.155475
-0.177431
-0.175021
-0.149265
-0.125467
-0.092126
-0.059459
-0.026395
0.023508
0.060400
0.101934
0.141998
0.156981
0.131284
0.106629
0.070480
0.032309
-0.013738
-0.074182
-0.122202
-0.153295
-0.168883
-0.179210
-0.173488
-0.145324
-0.105967
-0.064443
-0.015043
0.048207
0.092521
0.120755
0.135041
0.133238
0.134212
0.133543
0.083514
0.020752
-0.024674
-0.078177
-0.105624
-0.145251
-0.164551
-0.170831
-0.162711
-0.159286
-0.136449
-0.076148
-0.025349
0.036795
0.076214
0.096134
0.120450
0.139058
0.125652
0.107289
0.066803
0.029435
-0.008797
-0.062850
-0.119368
-0.141491
-0.161152
-0.190518
-0.181375
-0.140801
-0.115776
-0.096186
-0.055619
0.012945
0.060747
0.096354
0.107874
0.118244
0.121433
0.093944
0.069106
0.014850
-0.021829
-0.065224
-0.103911
-0.131914
-0.161969
-0.170379
-0.182399
-0.168172
-0.130759
-0.091092
-0.050774
0.015389
0.053295
0.088317
0.104713
0.110513
0.108250
0.093147
0.050427
-0.002352
-0.046081
-0.088882
-0.110308
-0.149737
-0.191191
-0.188168
-0.166437
-0.143435
-0.108923
-0.072623
-0.030846
0.023426
0.063298
0.095852
0.114073
0.130202
0.116659
0.104023
0.083529
0.040511
-0.017571
-0.060317
-0.092995
-0.127810
-0.159677
-0.174665
-0.163006
-0.128241
-0.093183
-0.046226
0.002160
0.055985
0.105238
0.131642
0.146944
0.152077
0.132623
0.109489
0.077509
0.029481
-0.012817
-0.059738
-0.095104
-0.149986
-0.162865
-0.169991
-0.164565
-0.136392
-0.111414
-0.050102
0.015821
0.076384
0.126709
0.156989
0.176417
0.184554
0.163726
0.122698
0.092828
0.070266
0.017252
-0.040782
-0.079088
-0.115514
-0.134760
-0.136487
-0.149402
-0.125578
-0.102035
-0.054588
-0.005653
0.046959
0.079878
0.107718
0.147911
0.148517
0.130539
0.104355
0.065793
0.022036
-0.029078
-0.077756
-0.133289
-0.182415
-0.211039
-0.212818
-0.179474
-0.145932
-0.121645
-0.087801
-0.034519
0.003373
0.055296
0.082978
0.105744
0.102526
0.085935
0.061350
0.035154
-0.008453
-0.055399
-0.102805
-0.159203
-0.199851
-0.213791
-0.213256
-0.214219
-0.198173
-0.158073
-0.107046
-0.070283
-0.022082
0.026303
0.057392
0.084260
0.083384
0.074250
0.063459
0.034791
-0.012919
-0.064741
-0.114127
-0.156824
-0.187644
-0.218449
-0.223303
-0.219052
-0.184558
-0.153486
-0.125917
-0.080738
-0.028663
0.002165
0.051843
0.087782
0.086058
0.074014
0.065939
0.021488
-0.027155
-0.060315
-0.116711
-0.171587
-0.200120
-0.212284
-0.220065
-0.202516
-0.184254
-0.150867
-0.107653
-0.054656
-0.012736
0.025505
0.038372
0.068374
0.081201
0.070452
0.048125
0.011525
-0.029370
-0.075468
-0.126861
-0.179505
-0.201065
-0.234332
-0.230708
-0.224043
-0.211393
-0.193213
-0.152483
-0.074716
-0.006063
0.045146
0.073187
0.100369
0.130110
0.124531
0.130650
0.116150
0.087426
0.056663
0.029735
-0.006755
-0.037301
-0.043058
-0.032708
-0.002910
0.053875
0.139398
0.210967
0.278422
0.355785
0.429146
0.503106
0.543518
0.580986
0.587494
0.604100
0.611088
0.606996
0.586106
0.567399
0.543336
0.567439
0.574662
0.575315
0.587810
0.604549
0.632897
0.648000
0.693125
0.717671
0.724790
0.722444
0.665248
0.600715
0.518917
0.438468
0.352862
0.273733
0.182456
0.091201
0.040099
-0.017442
-0.059873
-0.074812
-0.074700
-0.052049
-0.028107
0.005735
0.048673
0.100053
0.138682
0.171053
0.192538
0.186557
0.167280
0.147094
0.110036
0.065887
0.010986
-0.040261
-0.093982
-0.143332
-0.163575
-0.168103
-0.164439
-0.127907
-0.098881
-0.060549
-0.006427
0.043497
0.090276
0.123309
0.119925
0.127776
0.122153
0.081407
0.057762
0.020685
-0.041107
-0.083790
-0.122619
-0.162332
-0.190139
-0.197782
-0.185839
-0.159777
-0.129669
-0.084031
-0.036266
0.020449
0.066090
0.096953
0.121527
0.121927
0.118880
0.102964
0.061699
0.012482
-0.031454
-0.085988
-0.115285
-0.152866
-0.173737
-0.188701
-0.168885
-0.151112
-0.118532
-0.084943
-0.037101
0.019847
0.061842
0.101415
0.131191
0.139933
0.128487
0.117175
0.084619
0.034732
-0.010048
-0.056101
-0.108675
-0.133195
-0.146188
-0.171392
-0.149467
-0.144629
-0.104059
-0.049272
-0.007279
0.032265
0.082235
0.123871
0.136126
0.152238
0.143222
0.112793
0.083427
0.049027
0.014180
-0.040478
-0.091010
-0.126291
-0.137041
-0.133110
-0.115674
-0.112201
-0.080950
-0.026645
0.008559
0.047850
0.098066
0.154239
0.181550
0.168946
0.154674
0.146535
0.122923
0.068830
0.021528
-0.022562
-0.062387
-0.090113
-0.096735
-0.094223
-0.080261
-0.067259
-0.031673
0.012744
0.066549
0.109802
0.147995
0.184296
0.196727
0.201687
0.175981
0.159709
0.133989
0.087859
0.056250
0.005884
-0.032645
-0.062300
-0.079707
-0.091042
-0.079072
-0.055407
-0.019288
0.021381
0.058786
0.123625
0.158954
0.195703
0.215059
0.224235
0.214398
0.176677
0.132221
0.099918
0.052116
0.002638
-0.039632
-0.069821
-0.080022
-0.085812
-0.099736
-0.070082
-0.032297
0.015075
0.066888
0.106064
0.146311
0.196460
0.210696
0.200498
0.174469
0.157965
0.123780
0.064915
0.024657
-0.020960
-0.068821
-0.075545
-0.111777
-0.123741
-0.118005
-0.091067
-0.053927
-0.015297
0.034277
0.087917
0.131095
0.172926
0.184449
0.186933
0.169088
0.146530
0.108623
0.063194
0.019371
-0.023874
-0.067799
-0.108972
-0.127181
-0.142874
-0.141575
-0.126422
-0.096094
-0.028228
0.005490
0.040474
0.093242
0.118603
0.136471
0.149759
0.129472
0.106527
0.073502
0.031222
-0.014759
-0.051602
-0.103078
-0.132108
-0.165049
-0.166418
-0.167602
-0.147561
-0.101513
-0.051183
-0.010710
0.023473
0.061370
0.111626
0.129278
0.118710
0.108157
0.095727
0.060554
0.017113
-0.020958
-0.069963
-0.116530
-0.162734
-0.177458
-0.191820
-0.176426
-0.160397
-0.135788
-0.087469
-0.035642
0.004344
0.051226
0.091188
0.116248
0.120509
0.109540
0.077200
0.040798
0.012599
-0.029358
-0.067084
-0.118418
-0.162037
-0.175715
-0.186412
-0.171976
-0.150191
-0.121123
-0.078211
-0.028156
0.016050
0.037600
0.091510
0.110844
0.110553
0.110954
0.088847
0.061710
0.024541
-0.032131
-0.069003
-0.100262
-0.143056
-0.155082
-0.174185
-0.164426
-0.146392
-0.112634
-0.071067
-0.018222
0.025755
0.061751
0.098874
0.119132
0.136320
0.125864
0.100771
0.064079
0.020770
-0.027221
-0.066069
-0.104184
-0.144825
-0.158530
-0.164940
-0.159840
-0.130670
-0.106210
-0.064891
-0.011530
0.037152
0.080451
0.108246
0.118637
0.121314
0.109050
0.103311
0.070132
0.030780
-0.034659
-0.076717
-0.113061
-0.142572
-0.143916
-0.166045
-0.159755
-0.133228
-0.096274
-0.055398
-0.004705
0.035916
0.071544
0.110362
0.116797
0.125394
0.117999
0.100147
0.059817
0.011987
-0.034843
-0.082257
-0.116821
-0.157181
-0.174743
-0.189659
-0.170160
-0.146354
-0.101218
-0.073095
-0.040525
0.019244
0.080052
0.118665
0.128422
0.131457
0.123240
0.094544
0.055864
-0.004270
-0.033613
-0.082874
-0.120046
-0.142386
-0.167247
-0.168891
-0.153874
-0.133961
-0.108994
-0.054705
-0.016506
0.033966
0.083480
0.099415
0.117465
0.134442
0.122044
0.095153
0.053552
0.016801
-0.040340
-0.093089
-0.133520
-0.162431
-0.183062
-0.183131
-0.173183
-0.143736
-0.108187
-0.065285
-0.018453
0.020714
0.082607
0.115034
0.133900
0.129016
0.115307
0.081680
0.057736
0.024425
-0.039264
-0.093957
-0.136660
-0.172319
-0.161832
-0.163102
-0.156453
-0.141031
-0.106378
-0.062790
-0.017268
0.038295
0.093290
0.124395
0.138971
0.159953
0.158626
0.134982
0.103243
0.058068
0.008397
-0.045801
-0.094443
-0.138966
-0.143245
-0.151667
-0.146961
-0.122307
-0.088939
-0.053271
-0.011783
0.034584
0.087427
0.125017
0.142639
0.146113
0.143979
0.126054
0.104241
0.070535
0.023153
-0.035713
-0.091615
-0.104678
-0.099439
-0.112695
-0.113683
-0.094325
-0.056803
-0.016504
0.048875
0.090502
0.123336
0.145902
0.164299
0.170494
0.156123
0.121034
0.094893
0.061214
-0.011412
-0.070138
-0.106911
-0.135195
-0.152889
-0.162295
-0.155995
-0.138969
-0.111532
-0.073118
-0.010497
0.031995
0.062689
0.097976
0.107305
0.110688
0.102206
0.080193
0.050734
0.013871
-0.034929
-0.089083
-0.133113
-0.164676
-0.190388
-0.203999
-0.191529
-0.163237
-0.157793
-0.102421
-0.053306
-0.007532
0.024510
0.057653
0.084030
0.099849
0.086310
0.056975
0.022284
-0.017099
-0.066884
-0.114617
-0.153597
-0.191227
-0.209440
-0.214963
-0.212759
-0.183626
-0.140677
-0.095964
-0.031949
0.004103
0.021417
0.066885
0.083770
0.094758
0.084665
0.051110
0.018070
-0.015293
-0.046001
-0.100706
-0.155870
-0.205990
-0.212680
-0.206506
-0.202868
-0.195605
-0.154180
-0.107087
-0.055189
-0.016934
0.021526
0.063318
0.088331
0.096153
0.091898
0.061681
0.015815
-0.029682
-0.066086
-0.123070
-0.163283
-0.189437
-0.203366
-0.192743
-0.192139
-0.162829
-0.136647
-0.105673
-0.051838
-0.006170
0.037615
0.069564
0.073925
0.072704
0.054410
0.040688
0.012476
-0.029297
-0.084058
-0.134060
-0.160436
-0.193543
-0.198179
-0.184674
-0.152469
-0.116354
-0.062418
0.009925
0.081697
0.129557
0.188503
0.245419
0.272233
0.295380
0.309640
0.305055
0.300974
0.285401
0.269129
0.253192
0.248964
0.260742
0.268333
0.290880
0.334365
0.393009
0.463346
0.548824
0.653370
0.730550
0.794197
0.886876
0.922456
0.932491
0.942223
0.918596
0.870113
0.811699
0.735074
0.661511
0.604671
0.518920
0.431383
0.354643
0.303551
0.260744
0.234155
0.235238
0.251147
0.249010
0.254395
0.273584
0.281958
0.292652
0.274069
0.242124
0.192750
0.145944
0.092950
0.034826
0.000655
-0.042770
-0.078047
-0.105037
-0.111646
-0.088427
-0.054891
-0.019555
0.045363
0.084787
0.121244
0.141950
0.148064
0.160307
0.160784
0.137598
0.098413
0.058198
0.008566
-0.043813
-0.093461
-0.131143
-0.152633
-0.167423
-0.150525
-0.132667
-0.092802
-0.050917
-0.008443
0.015293
0.061882
0.122807
0.139349
0.140608
0.128595
0.096389
0.063943
0.026619
-0.008641
-0.055692
-0.112879
-0.133709
-0.158476
-0.160469
-0.154075
-0.134424
-0.099305
-0.067128
-0.014030
0.036839
0.086349
0.112544
0.113228
0.130311
0.124762
0.107307
0.060973
0.037330
-0.014424
-0.054668
-0.088246
-0.115859
-0.121770
-0.138700
-0.136726
-0.125883
-0.088111
-0.037054
-0.005349
0.026682
0.068468
0.115951
0.143639
0.153121
0.153877
0.129952
0.092135
0.054708
0.001220
-0.041489
-0.085059
-0.122754
-0.138886
-0.137252
-0.113975
-0.086589
-0.043014
-0.012404
0.027992
0.071735
0.107143
0.141500
0.169111
0.171781
0.173862
0.146796
0.117511
0.081687
0.027883
-0.016256
-0.071253
-0.096276
-0.116668
-0.121140
-0.090029
-0.051945
-0.026630
0.001720
0.052271
0.108347
0.160018
0.191374
0.233498
0.211668
0.188609
0.171414
0.131498
0.092716
0.044620
-0.008250
-0.038530
-0.070707
-0.085317
-0.087229
-0.075047
-0.050248
-0.009823
0.044572
0.100290
0.128380
0.164177
0.204562
0.217061
0.223100
0.205538
0.185763
0.145739
0.094496
0.057916
0.021408
-0.016271
-0.059254
-0.086885
-0.086605
-0.073784
-0.045043
-0.012177
0.027218
0.075754
0.131558
0.167500
0.208712
0.234804
0.237933
0.225789
0.203465
0.148072
0.117420
0.066668
0.008776
-0.048364
-0.084041
-0.110788
-0.106782
-0.087648
-0.049827
-0.026297
0.008112
0.051635
0.112165
0.145081
0.179615
0.201490
0.213210
0.203376
0.183187
0.139487
0.078493
0.029348
-0.012319
-0.067273
-0.099296
-0.109069
-0.105662
-0.108016
-0.092152
-0.054649
-0.017343
0.041087
0.083235
0.126654
0.166815
0.190236
0.176440
0.163160
0.154079
0.109237
0.067479
0.029742
-0.031280
-0.075558
-0.120602
-0.138621
-0.145507
-0.146243
-0.118674
-0.082300
-0.044397
0.001217
0.041373
0.084195
0.118548
0.146507
0.142989
0.133407
0.113838
0.080222
0.047338
0.006648
-0.037956
-0.090288
-0.135300
-0.152754
-0.157572
-0.158036
-0.148399
-0.106304
-0.067377
-0.017994
0.027613
0.067368
0.097367
0.120705
0.134603
0.123670
0.110681
0.068557
0.041933
-0.016087
-0.070033
-0.098002
-0.131992
-0.133762
-0.177072
-0.189485
-0.151630
-0.104606
-0.058546
-0.015646
0.023165
0.055793
0.103248
0.135328
0.138021
0.127738
0.116806
0.078289
0.019441
-0.036630
-0.064398
-0.086641
-0.124920
-0.142778
-0.147809
-0.135922
-0.130604
-0.123348
-0.057054
-0.013571
0.038203
0.085294
0.121193
0.124093
0.129934
0.114969
0.092491
0.059653
0.016159
-0.026191
-0.057922
-0.108091
-0.145843
-0.148850
-0.147066
-0.137312
-0.115073
-0.080687
-0.037951
0.025297
0.065105
0.109202
0.124736
0.149558
0.145676
0.132972
0.108077
0.071853
0.030526
-0.014473
-0.064446
-0.108618
-0.137619
-0.153868
-0.154690
-0.154946
-0.123543
-0.092059
-0.039424
-0.002147
0.050992
0.090165
0.120872
0.138189
0.147467
0.125364
0.108358
0.078439
0.037173
-0.014399
-0.063547
-0.116369
-0.141745
-0.146271
-0.153103
-0.145702
-0.124839
-0.097991
-0.043320
0.008757
0.049237
0.089098
0.122935
0.142600
0.158221
0.144215
0.129383
0.080432
0.036953
-0.021169
-0.066089
-0.102008
-0.140162
-0.169024
-0.172568
-0.171359
-0.141886
-0.099829
-0.054877
0.005012
0.046542
0.084075
0.115838
0.131105
0.140766
0.137869
0.121608
0.074577
0.035291
-0.018114
-0.070397
-0.114736
-0.141749
-0.163413
-0.171022
-0.172585
-0.153466
-0.112956
-0.069675
-0.012296
0.029819
0.067714
0.096980
0.112910
0.124145
0.115304
0.105397
0.070167
0.026717
-0.023083
-0.069244
-0.116889
-0.153407
-0.164567
-0.167291
-0.167106
-0.138375
-0.118609
-0.082616
-0.026671
0.018593
0.059183
0.095533
0.106713
0.109929
0.113486
0.094277
0.061796
0.014286
-0.032318
-0.067469
-0.111425
-0.149345
-0.171679
-0.172364
-0.157024
-0.134477
-0.093193
-0.047586
0.005094
0.054356
0.094238
0.127295
0.150540
0.146148
0.144627
0.131709
0.089626
0.055933
0.000654
-0.038085
-0.079907
-0.110447
-0.137546
-0.137006
-0.132804
-0.110098
-0.071122
-0.008345
0.032902
0.045640
0.085424
0.135656
0.143336
0.161161
0.166390
0.136845
0.098303
0.063640
0.011008
-0.037998
-0.076370
-0.107466
-0.136286
-0.126062
-0.120194
-0.093199
-0.057873
-0.010901
0.047870
0.095106
0.132742
0.164496
0.174942
0.183762
0.172547
0.139717
0.110483
0.057406
0.013010
-0.048988
-0.109882
-0.154834
-0.164576
-0.160702
-0.148563
-0.129256
-0.090097
-0.071147
-0.011253
0.040265
0.078547
0.106314
0.131788
0.133363
0.130262
0.105697
0.064238
0.004942
-0.050948
-0.097258
-0.131351
-0.172167
-0.172782
-0.197468
-0.192312
-0.174469
-0.149470
-0.110188
-0.058507
-0.007457
0.041007
0.076361
0.078277
0.095376
0.092225
0.069350
0.033541
-0.002765
-0.049715
-0.115611
-0.156659
-0.186340
-0.206705
-0.229573
-0.217199
-0.188299
-0.161498
-0.112623
-0.054409
-0.006960
0.033974
0.067883
0.081521
0.090685
0.093164
0.068419
0.045528
-0.002217
-0.053980
-0.098915
-0.146178
-0.173383
-0.214652
-0.223378
-0.215889
-0.188759
-0.156038
-0.118554
-0.075286
-0.012559
0.027143
0.060057
0.081549
0.095926
0.093076
0.063313
0.026312
-0.008574
-0.061482
-0.114813
-0.158656
-0.188085
-0.199781
-0.211318
-0.202262
-0.183876
-0.151093
-0.108346
-0.060004
-0.021437
0.027413
0.066404
0.077676
0.086068
0.077598
0.044260
-0.016019
-0.047680
-0.080191
-0.125914
-0.164598
-0.186827
-0.200292
-0.198192
-0.176713
-0.152862
-0.093887
-0.044693
0.035481
0.083882
0.134788
0.179643
0.211569
0.226441
0.246426
0.233475
0.228876
0.215645
0.197370
0.202828
0.188089
0.186541
0.206941
0.248062
0.296968
0.345128
0.412985
0.483237
0.571094
0.669520
0.769104
0.852577
0.889788
0.912571
0.941203
0.925105
0.888350
0.857798
0.797295
0.709219
0.646793
0.584330
0.558867
0.529492
0.461931
0.405909
0.367702
0.356183
0.339561
0.348453
0.339907
0.320837
0.319499
0.312837
0.313139
0.285627
0.235845
0.173800
0.100175
0.048352
-0.012479
-0.067587
-0.092417
-0.101168
-0.107959
-0.079644
-0.036504
0.005065
0.056394
0.072940
0.119777
0.152108
0.177895
0.178145
0.133705
0.113643
0.097119
0.045562
-0.027057
-0.052051
-0.099297
-0.143846
-0.168553
-0.170864
-0.154138
-0.145749
-0.113466
-0.061016
0.003513
0.045165
0.083488
0.108169
0.129038
0.147085
0.134075
0.106076
0.084501
0.034349
-0.017339
-0.064725
-0.121087
-0.140558
-0.170792
-0.187372
-0.175642
-0.171376
-0.119907
-0.085511
-0.037150
0.009364
0.056736
0.104266
0.138387
0.141435
0.118206
0.106457
0.067013
0.030472
-0.019921
-0.069124
-0.102807
-0.135205
-0.149171
-0.156726
-0.154632
-0.137463
-0.095484
-0.055488
-0.008752
0.033084
0.076776
0.110338
0.134707
0.144603
0.145931
0.128584
0.089622
0.046206
-0.005795
-0.040542
-0.090912
-0.119902
-0.136646
-0.148935
-0.142115
-0.113662
-0.075043
-0.028812
0.013690
0.079771
0.097430
0.121210
0.145408
0.153809
0.142819
0.129564
0.099993
0.058303
0.008883
-0.026485
-0.060079
-0.082907
-0.113148
-0.129014
-0.120598
-0.091638
-0.048183
0.002329
0.049368
0.094346
0.122483
0.156830
0.188479
0.198050
0.186584
0.174434
0.145073
0.098536
0.048330
-0.002798
-0.049102
-0.072680
-0.094574
-0.087784
-0.062408
-0.049295
-0.016531
0.028803
0.075001
0.124830
0.152846
0.179417
0.210646
0.216426
0.207373
0.185934
0.152483
0.117822
0.057759
0.013298
-0.024517
-0.056859
-0.082806
-0.085391
-0.077325
-0.040679
-0.010629
0.038045
0.084963
0.126799
0.160938
0.200511
0.215298
0.218811
0.199445
0.182460
0.152779
0.105678
0.051909
0.010767
-0.037762
-0.068198
-0.091027
-0.091314
-0.084900
-0.066140
-0.019510
0.024107
0.060383
0.101144
0.139544
0.167616
0.191545
0.200882
0.193610
0.175136
0.135671
0.091892
0.043947
-0.002586
-0.042704
-0.073201
-0.097202
-0.104847
-0.109014
-0.088962
-0.056026
-0.018360
0.030231
0.075827
0.120367
0.167042
0.188138
0.171956
0.155168
0.121467
0.085300
0.060148
0.018978
-0.018885
-0.062740
-0.115808
-0.143514
-0.154500
-0.139989
-0.133386
-0.097752
-0.052407
-0.004982
0.041986
0.082971
0.105559
0.129077
0.136926
0.132720
0.113261
0.078797
0.030640
-0.009222
-0.045512
-0.102687
-0.145029
-0.165872
-0.165781
-0.157625
-0.133075
-0.093736
-0.057402
-0.019488
0.019473
0.058024
0.091816
0.108007
0.120598
0.116952
0.091415
0.056924
0.014951
-0.032085
-0.085347
-0.134113
-0.146597
-0.167887
-0.170155
-0.179024
-0.153610
-0.109825
-0.072524
-0.039223
0.023098
0.080198
0.098688
0.123253
0.117445
0.109807
0.090358
0.060563
0.027471
-0.026458
-0.084361
-0.123744
-0.154059
-0.174997
-0.174611
-0.162732
-0.140787
-0.112805
-0.064094
-0.018995
0.033468
0.074096
0.091520
0.120338
0.148886
0.126960
0.106527
0.062050
0.020167
-0.029210
-0.079119
-0.113986
-0.146782
-0.172524
-0.169169
-0.155937
-0.127600
-0.095132
-0.040680
-0.006005
0.031512
0.082108
0.119873
0.154406
0.145030
0.142156
0.108460
0.068675
0.014658
-0.038690
-0.076555
-0.105149
-0.142879
-0.169734
-0.157127
-0.144186
-0.137243
-0.091019
-0.049018
-0.010888
0.033482
0.079274
0.132189
0.147938
0.152278
0.142579
0.103318
0.064450
0.017960
-0.033351
-0.060669
-0.106011
-0.142312
-0.163124
-0.182145
-0.174634
-0.147808
-0.112615
-0.060194
-0.007207
0.046592
0.076501
0.100218
0.120009
0.133831
0.132106
0.108795
0.070938
0.030313
-0.009898
-0.071583
-0.127216
-0.152663
-0.175254
-0.169926
-0.153639
-0.143556
-0.104253
-0.049466
-0.009976
0.011533
0.055275
0.103365
0.137269
0.132315
0.120346
0.111758
0.055951
0.018726
-0.016576
-0.059735
-0.120555
-0.147252
-0.180051
-0.184666
-0.162792
-0.133078
-0.112523
-0.070182
-0.035421
0.011012
0.045096
0.080663
0.103248
0.110194
0.116483
0.097897
0.060745
0.024139
-0.004498
-0.057057
-0.099261
-0.136201
-0.167826
-0.189789
-0.174762
-0.154954
-0.134371
-0.079571
-0.031931
0.011065
0.050522
0.095886
0.120928
0.123636
0.103548
0.092263
0.048629
-0.018398
-0.060691
-0.086494
-0.117269
-0.150649
-0.166308
-0.177164
-0.171132
-0.149694
-0.111449
-0.060974
-0.007648
0.025557
0.065211
0.102975
0.126985
0.131892
0.111042
0.085694
0.056910
0.005482
-0.032654
-0.073426
-0.112146
-0.137724
-0.159810
-0.164988
-0.143017
-0.127707
-0.085754
-0.044305
0.008454
0.060284
0.103035
0.134059
0.149856
0.151856
0.152308
0.131275
0.093077
0.034113
-0.015387
-0.058716
-0.097669
-0.132315
-0.151529
-0.164817
-0.156535
-0.121289
-0.097921
-0.049401
0.003778
0.068324
0.113683
0.147079
0.174885
0.176007
0.164178
0.142823
0.101264
0.053168
0.014315
-0.036392
-0.096448
-0.121458
-0.124711
-0.134278
-0.131358
-0.120634
-0.085086
-0.025561
0.014640
0.047134
0.097531
0.113750
0.135471
0.142287
0.129556
0.103871
0.070662
0.025569
-0.017638
-0.072857
-0.112042
-0.151363
-0.174797
-0.184003
-0.173618
-0.158639
-0.134669
-0.076047
-0.025087
0.005158
0.052473
0.079816
0.106400
0.101729
0.095002
0.060174
0.031898
-0.024935
-0.067348
-0.106496
-0.153223
-0.186599
-0.209232
-0.222339
-0.217249
-0.208883
-0.150055
-0.099172
-0.054135
-0.019627
0.015801
0.056215
0.076221
0.078474
0.077260
0.066173
0.018602
-0.036017
-0.063818
-0.101826
-0.152695
-0.208014
-0.220589
-0.220838
-0.213721
-0.191825
-0.161003
-0.126328
-0.074774
-0.024188
0.012298
0.047407
0.076377
0.087350
0.076930
0.046937
0.020621
-0.020223
-0.072710
-0.126686
-0.164214
-0.187067
-0.205438
-0.215903
-0.213244
-0.179407
-0.149517
-0.112644
-0.067098
-0.014797
0.022794
0.058077
0.077381
0.087179
0.069485
0.027777
0.009644
-0.037319
-0.089387
-0.127737
-0.160757
-0.188639
-0.213078
-0.218107
-0.214569
-0.201759
-0.156512
-0.111401
-0.072198
-0.029743
0.016681
0.043607
0.075441
0.083654
0.089376
0.070295
0.041488
0.025481
0.010371
-0.022200
-0.057915
-0.081834
-0.100225
-0.092198
-0.051737
0.010598
0.045920
0.103419
0.176302
0.250017
0.344676
0.418466
0.479292
0.520046
0.526300
0.541559
0.545909
0.515676
0.501802
0.498659
0.508471
0.523404
0.566403
0.572023
0.616719
0.669810
0.714381
0.759356
0.801508
0.834069
0.852907
0.853297
0.860286
0.844345
0.787884
0.680959
0.567829
0.453627
0.355030
0.256282
0.152426
0.089986
0.039057
0.016284
0.012107
0.017835
0.045974
0.070572
0.111339
0.154941
0.188946
0.204752
0.229963
0.223846
0.200218
0.174723
0.136774
0.085145
0.037427
-0.014607
-0.078245
-0.118027
-0.145434
-0.149579
-0.146026
-0.131171
-0.078922
-0.023529
0.003482
0.043232
0.099711
0.136705
0.140011
0.147363
0.137799
0.120986
0.077325
0.025069
-0.026526
-0.079523
-0.129880
-0.156420
-0.170894
-0.185398
-0.178796
-0.166644
-0.121221
-0.062244
-0.030661
0.019777
0.065394
0.094559
0.105744
0.107144
0.106772
0.106023
0.083331
0.038548
-0.012300
-0.069796
-0.112505
-0.151144
-0.167528
-0.168663
-0.177914
-0.176625
-0.114517
-0.064684
-0.015547
0.028943
0.071348
0.104359
0.123991
0.131399
0.125109
0.108112
0.074550
0.031900
-0.016183
-0.055123
-0.101824
-0.126561
-0.151672
-0.160882
-0.156526
-0.127948
-0.105276
-0.083191
-0.019346
0.047993
0.088098
0.114918
0.138780
0.145522
0.138094
0.128353
0.098437
0.040588
0.010734
-0.042673
-0.096596
-0.117125
-0.128212
-0.139916
-0.130562
-0.100385
-0.072007
-0.014440
0.030519
0.072071
0.127162
0.151101
0.166614
0.167994
0.155602
0.137000
0.122630
0.079013
0.040938
-0.002093
-0.051858
-0.083904
-0.100673
-0.104228
-0.081113
-0.060199
-0.035991
0.025690
0.072775
0.110535
0.154339
0.174584
0.211190
0.211125
0.194085
0.174127
0.141872
0.094288
0.057557
0.009795
-0.026695
-0.054596
-0.077386
-0.089709
-0.082868
-0.043681
-0.004446
0.049448
0.097122
0.149496
0.191673
0.224615
0.242391
0.224271
0.217120
0.193315
0.153809
0.104162
0.061942
0.015140
-0.028231
-0.057792
-0.079735
-0.085723
-0.070161
-0.053601
-0.023375
0.030298
0.067276
0.107324
0.169205
0.194960
0.204745
0.204117
0.208123
0.197648
0.166630
0.124874
0.068411
0.017172
-0.027883
-0.061104
-0.078129
-0.090110
-0.081434
-0.049938
-0.023573
0.020539
0.069829
0.120969
0.171482
0.186417
0.187994
0.198991
0.203092
0.170748
0.117717
0.058809
0.039205
-0.002265
-0.043744
-0.080941
-0.113089
-0.106628
-0.107550
-0.096869
-0.056970
-0.016376
0.026070
0.072102
0.122078
0.159703
0.169789
0.173193
0.165330
0.140314
0.103572
0.068008
0.003154
-0.018185
-0.070133
-0.101688
-0.131511
-0.149828
-0.149979
-0.122422
-0.093965
-0.049181
-0.003726
0.043222
0.084608
0.097566
0.127194
0.164971
0.161818
0.130855
0.087027
0.028212
-0.011678
-0.051452
-0.082563
-0.125262
-0.149292
-0.158213
-0.151197
-0.130960
-0.106161
-0.048863
0.001881
0.031303
0.072908
0.097683
0.127802
0.146881
0.128912
0.111882
0.073474
0.031300
-0.003340
-0.058456
-0.102573
-0.133284
-0.149157
-0.176019
-0.160583
-0.129119
-0.096407
-0.043067
-0.003054
0.039990
0.089692
0.121991
0.139366
0.145327
0.132688
0.119336
0.092069
0.021516
-0.037572
-0.048811
-0.068419
-0.111566
-0.152652
-0.156002
-0.151096
-0.130532
-0.088179
-0.037345
-0.004317
0.053946
0.098624
0.120049
0.139739
0.148791
0.136954
0.115314
0.077581
0.032562
-0.013101
-0.055902
-0.093036
-0.121653
-0.143057
-0.152621
-0.130203
-0.098481
-0.077080
-0.029605
0.011357
0.054718
0.119271
0.153376
0.155035
0.166489
0.159501
0.115257
0.087330
0.051001
-0.001933
-0.049129
-0.090554
-0.126645
-0.144808
-0.151542
-0.126690
-0.095834
-0.066949
-0.037739
0.008780
0.062906
0.105437
0.144162
0.169858
0.174791
0.149749
0.132890
0.081795
0.021519
-0.016089
-0.054886
-0.089818
-0.130788
-0.158914
-0.162024
-0.145312
-0.129156
-0.081591
-0.033409
0.006850
0.058839
0.100356
0.130338
0.152033
0.158312
0.155077
0.133664
0.103015
0.055252
0.006430
-0.042655
-0.094336
-0.134973
-0.149723
-0.159862
-0.152121
-0.128523
-0.084088
-0.027144
0.012078
0.062313
0.103518
0.106246
0.136889
0.159603
0.147578
0.134684
0.098322
0.058372
-0.004781
-0.061347
-0.121473
-0.144888
-0.143199
-0.136314
-0.143261
-0.128991
-0.091108
-0.042027
-0.001142
0.049757
0.099643
0.121961
0.142725
0.138810
0.131973
0.115333
0.078877
0.030330
-0.008686
-0.064943
-0.100216
-0.121997
-0.143233
-0.150928
-0.152252
-0.128799
-0.108181
-0.067241
-0.021986
0.037976
0.084762
0.113978
0.131101
0.138027
0.132724
0.114011
0.085061
0.032759
-0.015032
-0.063568
-0.111934
-0.149763
-0.153749
-0.162337
-0.140031
-0.114796
-0.085137
-0.045901
-0.013881
0.027763
0.068693
0.109975
0.138200
0.140146
0.125520
0.111171
0.092450
0.030887
-0.017994
-0.063339
-0.108606
-0.134374
-0.145469
-0.160314
-0.152615
-0.121560
-0.084634
-0.040141
0.005632
0.051953
0.091495
0.130114
0.144805
0.153023
0.149677
0.131228
0.103155
0.065379
0.020249
-0.021424
-0.062763
-0.101879
-0.116051
-0.115722
-0.103689
-0.069580
-0.050580
-0.011794
0.041137
0.075613
0.112247
0.140923
0.153978
0.156251
0.157525
0.148251
0.102477
0.053776
0.010712
-0.030117
-0.077395
-0.110280
-0.120311
-0.116265
-0.107051
-0.062762
-0.032082
0.020871
0.050937
0.100239
0.143346
0.178400
0.193162
0.219812
0.202255
0.177896
0.139803
0.082724
0.026118
-0.029833
-0.075792
-0.106753
-0.135444
-0.149288
-0.125243
-0.096509
-0.061181
-0.012089
0.036438
0.079427
0.105990
0.128479
0.153985
0.151907
0.126938
0.109059
0.097507
0.039784
-0.005188
-0.074375
-0.117652
-0.133792
-0.151469
-0.149412
-0.156545
-0.136443
-0.094553
-0.048876
-0.027801
0.025039
0.069317
0.109475
0.120820
0.128736
0.116009
0.088400
0.050324
-0.001886
-0.041105
-0.098299
-0.145123
-0.173380
-0.184546
-0.194708
-0.177985
-0.168267
-0.135071
-0.064201
-0.025307
-0.001974
0.059182
0.087496
0.114877
0.122126
0.112077
0.085285
0.057478
0.010240
-0.034309
-0.079143
-0.127876
-0.162195
-0.186726
-0.193797
-0.189417
-0.157479
-0.128972
-0.079209
-0.039529
0.006059
0.054870
0.088352
0.109205
0.117380
0.106723
0.088133
0.053102
0.010813
-0.027426
-0.073229
-0.125536
-0.152669
-0.173911
-0.178253
-0.176219
-0.152741
-0.120499
-0.070280
-0.032345
0.011372
0.052195
0.085099
0.094694
0.096563
0.091407
0.075440
0.045274
-0.008322
-0.055469
-0.097839
-0.151466
-0.190908
-0.200388
-0.189700
-0.180074
-0.157417
-0.127129
-0.078214
-0.027335
0.034556
0.102229
0.140585
0.170433
0.195032
0.188453
0.178128
0.162860
0.124511
0.097365
0.079239
0.058367
0.049140
0.051080
0.081552
0.124528
0.176280
0.241782
0.331927
0.410146
0.488075
0.560899
0.624901
0.678928
0.725577
0.769500
0.790568
0.786603
0.772296
0.765832
0.756840
0.727282
0.700504
0.694199
0.650217
0.637230
0.639615
0.640302
0.671816
0.672401
0.651050
0.632238
0.594888
0.563311
0.494038
0.431924
0.366388
0.297571
0.228804
0.177875
0.128086
0.078291
0.036737
0.008656
-0.009051
-0.013617
-0.003848
0.022139
0.058928
0.088587
0.130192
0.168764
0.206971
0.225421
0.228258
0.206779
0.169393
0.126192
0.074710
0.031279
-0.021052
-0.056463
-0.101989
-0.120410
-0.136392
-0.127084
-0.091086
-0.055793
-0.005740
0.045005
0.091813
0.117642
0.137103
0.152004
0.165948
0.168986
0.147808
0.116188
0.053960
0.006314
-0.047664
-0.108372
-0.122202
-0.128974
-0.155278
-0.140776
-0.126505
-0.097230
-0.039910
0.014034
0.066170
0.103532
0.139934
0.150712
0.156134
0.153190
0.132886
0.108979
0.061139
0.020300
-0.025658
-0.076096
-0.122233
-0.137880
-0.140496
-0.123582
-0.100715
-0.076508
-0.041189
0.013334
0.060801
0.119462
0.144946
0.157153
0.174498
0.168379
0.142803
0.120538
0.067912
0.021983
-0.021717
-0.065644
-0.088606
-0.097972
-0.100145
-0.117759
-0.095471
-0.056564
-0.004806
0.031040
0.082850
0.130374
0.174748
0.196693
0.207713
0.191859
0.162379
0.120385
0.082459
0.044413
0.010418
-0.039802
-0.065024
-0.076163
-0.078027
-0.083720
-0.072827
-0.028072
0.021584
0.074325
0.112264
0.148643
0.174179
0.193265
0.215885
0.212404
0.203104
0.163354
0.131779
0.090466
0.015289
-0.033473
-0.048245
-0.056635
-0.046092
-0.039591
-0.021112
0.004205
0.055860
0.092873
0.141536
0.193779
0.222700
0.240227
0.248447
0.246217
0.220961
0.181546
0.147742
0.106808
0.054926
0.018903
-0.011117
-0.040910
-0.052469
-0.035403
-0.016124
0.027242
0.081057
0.129767
0.165788
0.205666
0.220171
0.237296
0.258687
0.258102
0.227648
0.198029
0.151087
0.105628
0.057368
0.013268
-0.024978
-0.039780
-0.044521
-0.034743
-0.008545
0.028216
0.056619
0.098023
0.146273
0.192648
0.225711
0.238643
0.244619
0.233522
0.211085
0.163651
0.123794
0.081282
0.025963
-0.011130
-0.039104
-0.061854
-0.067650
-0.068002
-0.037232
-0.007053
0.038445
0.079149
0.124777
0.171958
0.204029
0.220826
0.225287
0.210205
0.184810
0.133042
0.098946
0.055127
0.019561
-0.025373
-0.060287
-0.099137
-0.112836
-0.098236
-0.071186
-0.033990
0.018179
0.054034
0.093049
0.133246
0.160139
0.178533
0.192710
0.182608
0.168988
0.119040
0.070462
0.027356
-0.018334
-0.056898
-0.096020
-0.126832
-0.130368
-0.131456
-0.100524
-0.066268
-0.018691
0.029561
0.067727
0.112731
0.144338
0.168069
0.175814
0.153290
0.131874
0.098251
0.039940
0.024396
-0.018096
-0.068154
-0.106708
-0.134470
-0.138433
-0.130990
-0.109283
-0.076308
-0.030290
0.016711
0.075081
0.102787
0.143426
0.166400
0.173488
0.152553
0.145261
0.106442
0.059127
0.008250
-0.042883
-0.081920
-0.111056
-0.120694
-0.139630
-0.129901
-0.102652
-0.071771
-0.035740
0.026736
0.064697
0.107345
0.146296
0.171079
0.169607
0.145127
0.125575
0.111536
0.064594
0.018260
-0.015194
-0.057642
-0.083139
-0.111713
-0.124788
-0.118157
-0.091958
-0.063281
-0.008586
0.043996
0.083087
0.123241
0.154807
0.154196
0.168719
0.168051
0.150115
0.107899
0.061232
0.024034
-0.022417
-0.064219
-0.093422
-0.103173
-0.127427
-0.122794
-0.077037
-0.044362
-0.009768
0.039798
0.086930
0.123339
0.159081
0.186853
0.183951
0.175134
0.144332
0.118535
0.076231
0.021588
-0.021182
-0.057741
-0.090858
-0.109888
-0.110042
-0.099270
-0.085792
-0.062855
-0.001428
0.049253
0.088082
0.118297
0.142781
0.153104
0.155475
0.152222
0.143526
0.110846
0.064448
0.011300
-0.040113
-0.078684
-0.109621
-0.116582
-0.111390
-0.105031
-0.094490
-0.066613
-0.020233
0.031183
0.072607
0.112943
0.151720
0.177843
0.195540
0.169716
0.138346
0.095232
0.050056
-0.001649
-0.037899
-0.070749
-0.106646
-0.118889
-0.135957
-0.114956
-0.103287
-0.065897
-0.019134
0.028868
0.079843
0.105992
0.117727
0.156681
0.170533
0.173717
0.135479
0.089482
0.051380
0.013690
-0.032972
-0.072339
-0.105104
-0.121644
-0.125726
-0.112473
-0.100167
-0.071171
-0.018415
0.031671
0.058733
0.086399
0.134483
0.150699
0.156638
0.144543
0.129837
0.091871
0.033694
-0.008415
-0.047966
-0.075602
-0.123812
-0.149923
-0.153056
-0.133939
-0.114277
-0.082797
-0.038682
0.003304
0.051810
0.106701
0.141290
0.163001
0.174320
0.158661
0.128540
0.077086
0.026905
-0.014124
-0.057596
-0.096322
-0.126184
-0.146317
-0.151849
-0.141348
-0.113158
-0.077946
-0.032368
0.014443
0.062832
0.102168
0.116019
0.139733
0.140640
0.148935
0.131303
0.095189
0.063000
-0.009942
-0.058649
-0.073299
-0.108191
-0.137079
-0.150385
-0.142228
-0.121125
-0.078074
-0.037305
0.014850
0.072751
0.091540
0.132646
0.158554
0.164955
0.164611
0.153736
0.105481
0.069310
0.021118
-0.021485
-0.061957
-0.096881
-0.129434
-0.122209
-0.114779
-0.083692
-0.050057
0.003940
0.057016
0.092867
0.128042
0.167212
0.171708
0.181121
0.178901
0.158299
0.117240
0.078859
0.041147
-0.011730
-0.061109
-0.098541
-0.111899
-0.110715
-0.094950
-0.080623
-0.044361
0.007731
0.057792
0.120433
0.153147
0.187546
0.207717
0.208732
0.183760
0.170584
0.144262
0.104086
0.053554
0.015014
-0.031315
-0.066544
-0.079127
-0.092053
-0.093985
-0.083744
-0.055475
-0.004038
0.047196
0.073631
0.110436
0.134688
0.147599
0.157389
0.156003
0.132259
0.107088
0.058043
-0.002639
-0.048968
-0.082569
-0.124196
-0.139602
-0.148725
-0.127903
-0.113183
-0.081813
-0.031013
0.013045
0.066848
0.096438
0.119375
0.134164
0.135370
0.127384
0.115912
0.075386
0.025739
-0.024890
-0.075059
-0.121880
-0.158373
-0.176760
-0.183818
-0.170653
-0.142624
-0.099378
-0.052743
-0.010730
0.037702
0.076099
0.115530
0.130558
0.127494
0.127317
0.095825
0.042447
-0.005575
-0.043567
-0.098344
-0.138059
-0.158220
-0.171996
-0.172968
-0.160560
-0.135647
-0.114298
-0.071603
-0.013400
0.032751
0.058224
0.115602
0.139724
0.131193
0.115343
0.088811
0.060774
0.011198
-0.034520
-0.065786
-0.108676
-0.167696
-0.175936
-0.188922
-0.180156
-0.140220
-0.106270
-0.058235
-0.009459
0.017432
0.055354
0.095812
0.140422
0.142407
0.114849
0.083137
0.041300
0.005375
-0.041194
-0.093276
-0.112399
-0.141761
-0.161630
-0.168996
-0.180279
-0.161639
-0.124196
-0.067911
-0.024967
-0.000752
0.034041
0.073731
0.098979
0.139614
0.145589
0.132376
0.104535
0.079322
0.047754
0.013719
0.003487
-0.022947
-0.031896
-0.016912
0.014674
0.043182
0.104270
0.166936
0.245696
0.331522
0.396049
0.468523
0.520122
0.559558
0.603057
0.619688
0.608977
0.607343
0.597199
0.608737
0.604318
0.604056
0.611088
0.632454
0.662924
0.701083
0.738997
0.796224
0.807388
0.815112
0.834738
0.851550
0.849557
0.801910
0.714992
0.635984
0.529667
0.435138
0.347774
0.241230
0.159354
0.088460
0.045027
0.034149
0.024556
0.052986
0.089851
0.118984
0.156016
0.195104
0.207621
0.241242
0.245907
0.239147
0.228150
0.202466
0.162085
0.114275
0.064257
0.000409
-0.026070
-0.060201
-0.090227
-0.101190
-0.095428
-0.073885
-0.025803
0.013737
0.030427
0.049841
0.088125
0.159147
0.178690
0.170031
0.156675
0.140460
0.103979
0.038828
-0.001736
-0.039470
-0.073369
-0.105913
-0.128785
-0.137788
-0.126756
-0.099351
-0.053455
-0.012646
0.026336
0.082905
0.096791
0.128516
0.156102
0.154929
0.148053
0.113088
0.091605
0.060399
0.003880
-0.039157
-0.076255
-0.115282
-0.128537
-0.152501
-0.134431
-0.098821
-0.064154
-0.026585
0.026386
0.076441
0.108285
0.142118
0.178646
0.179287
0.172854
0.157302
0.108589
0.069168
0.020278
-0.026118
-0.064572
-0.109774
-0.133709
-0.127031
-0.118716
-0.085865
-0.040846
0.003781
0.046195
0.090368
0.125241
0.161555
0.175595
0.180978
0.176646
0.160729
0.127929
0.093416
0.059665
0.002633
-0.036159
-0.066550
-0.106654
-0.124685
-0.102672
-0.060845
-0.015896
0.016742
0.055071
0.100177
0.147507
0.181963
0.191259
0.207919
0.219396
0.199266
0.170189
0.121942
0.071475
0.012649
-0.022012
-0.050919
-0.070541
-0.063741
-0.051542
-0.035860
0.004663
0.051393
0.099882
0.156327
0.176501
0.207447
0.229752
0.229794
0.231653
0.209533
0.179820
0.148267
0.103634
0.038226
0.001194
-0.028933
-0.050836
-0.057713
-0.043445
-0.014842
0.042310
0.081033
0.122800
0.165032
0.200813
0.224255
0.245502
0.246510
0.240234
0.216834
0.196647
0.159700
0.104350
0.056932
0.023248
-0.015003
-0.034377
-0.038500
-0.029658
-0.008299
0.025750
0.069171
0.104766
0.145805
0.188181
0.216947
0.232383
0.242537
0.227826
0.201264
0.167164
0.131165
0.083022
0.039448
-0.006441
-0.037848
-0.054140
-0.060261
-0.055690
-0.029832
0.017151
0.054232
0.086785
0.144160
0.177123
0.200829
0.225675
0.234242
0.211190
0.190480
0.142064
0.095843
0.043024
-0.002523
-0.033023
-0.064588
-0.087209
-0.097519
-0.089018
-0.064666
-0.036965
0.001148
0.063452
0.124014
0.154472
0.187547
0.201677
0.166423
0.179654
0.167815
0.132042
0.083356
0.029505
-0.021756
-0.059184
-0.089574
-0.119130
-0.118313
-0.114651
-0.082090
-0.043942
-0.006004
0.034915
0.076153
0.110073
0.136017
0.165465
0.169094
0.165076
0.140169
0.101503
0.068952
0.023138
-0.028982
-0.076892
-0.103730
-0.136541
-0.147428
-0.139542
-0.138362
-0.098129
-0.039632
0.005280
0.060492
0.093763
0.126874
0.148762
0.167400
0.166437
0.155330
0.099623
0.054140
0.002950
-0.044010
-0.090977
-0.129786
-0.132842
-0.128620
-0.130290
-0.111811
-0.068795
-0.027641
0.017730
0.067022
0.120698
0.135880
0.154688
0.161928
0.154515
0.128204
0.093073
0.062564
0.021134
-0.035707
-0.081663
-0.105177
-0.128307
-0.134777
-0.115196
-0.090772
-0.065631
-0.029529
0.010882
0.073809
0.114897
0.131084
0.156088
0.160485
0.146290
0.133375
0.101347
0.069581
0.030874
-0.019829
-0.069407
-0.092912
-0.114804
-0.112883
-0.097955
-0.081413
-0.052819
-0.009659
0.044589
0.097574
0.114358
0.152764
0.144362
0.151056
0.156439
0.140326
0.095647
0.044116
0.017185
-0.033457
-0.076012
-0.099738
-0.124515
-0.120265
-0.121898
-0.098905
-0.052111
-0.010899
0.037306
0.081169
0.116846
0.143873
0.154252
0.173490
0.165862
0.150828
0.116446
0.066507
0.023027
-0.023199
-0.064073
-0.098601
-0.123069
-0.134318
-0.119739
-0.092205
-0.060883
-0.026611
0.018348
0.060631
0.093859
0.133492
0.157961
0.175671
0.159090
0.133297
0.109414
0.072682
0.038844
-0.041858
-0.090929
-0.112690
-0.138043
-0.145509
-0.133996
-0.100527
-0.062067
0.001191
0.020962
0.054479
0.064858
0.117932
0.163984
0.169572
0.158643
0.128754
0.090107
0.051286
0.015555
-0.030927
-0.082002
-0.127307
-0.147901
-0.149507
-0.129854
-0.099061
-0.076772
-0.042532
0.008254
0.078375
0.099053
0.130980
0.162443
0.150963
0.139958
0.140973
0.095300
0.043074
-0.000537
-0.038854
-0.084734
-0.131701
-0.139339
-0.137717
-0.126557
-0.121854
-0.081232
-0.034552
0.011842
0.057039
0.097506
0.114516
0.139151
0.152150
0.145156
0.112115
0.064149
0.024758
-0.021746
-0.068314
-0.078301
-0.126271
-0.155473
-0.160882
-0.160595
-0.126635
-0.082059
-0.050311
0.007070
0.062992
0.088112
0.112854
0.157395
0.161479
0.143789
0.110173
0.074883
0.030812
-0.021322
-0.077064
-0.094588
-0.110507
-0.144968
-0.149814
-0.151788
-0.128144
-0.085850
-0.048820
0.007381
0.046649
0.077518
0.115601
0.150612
0.147745
0.142670
0.136507
0.096000
0.045909
0.009783
-0.036771
-0.087232
-0.128584
-0.151176
-0.152791
-0.142865
-0.112630
-0.068222
-0.021095
0.010784
0.038021
0.098777
0.142580
0.150291
0.163357
0.154957
0.139846
0.114914
0.078916
0.030891
-0.020429
-0.072692
-0.109945
-0.107105
-0.104314
-0.114590
-0.095651
-0.057474
-0.012266
0.025676
0.068634
0.120197
0.158658
0.180825
0.178297
0.184321
0.160549
0.116334
0.084543
0.044176
0.002952
-0.056506
-0.097099
-0.124990
-0.123202
-0.092348
-0.059916
-0.021192
0.012302
0.074216
0.113376
0.140656
0.189817
0.217937
0.204303
0.183260
0.179154
0.142670
0.098108
0.040138
-0.011786
-0.061823
-0.099698
-0.112899
-0.136455
-0.120952
-0.104299
-0.055129
-0.010300
0.039629
0.082615
0.108641
0.129724
0.156698
0.146979
0.154273
0.110479
0.070112
0.048242
-0.008428
-0.047366
-0.075664
-0.131057
-0.164942
-0.144474
-0.140510
-0.136109
-0.093407
-0.054485
0.001697
0.032357
0.070310
0.103804
0.132492
0.136901
0.124105
0.114924
0.078690
0.018073
-0.031985
-0.079287
-0.113518
-0.152792
-0.206601
-0.195051
-0.185625
-0.151837
-0.096043
-0.054299
-0.025134
0.026921
0.083369
0.120312
0.137066
0.140527
0.124639
0.088201
0.059474
0.029547
-0.017204
-0.069196
-0.106957
-0.135986
-0.182990
-0.183707
-0.175261
-0.148748
-0.094486
-0.074694
-0.049934
0.013226
0.072930
0.103958
0.119376
0.102350
0.087756
0.088294
0.042798
0.022778
-0.016316
-0.089261
-0.141496
-0.163107
-0.174211
-0.173359
-0.154595
-0.129106
-0.116545
-0.088377
-0.037499
0.014924
0.043359
0.074047
0.094976
0.096753
0.103166
0.085256
0.062868
0.030649
0.001520
-0.064069
-0.102516
-0.161550
-0.193789
-0.199013
-0.195492
-0.190234
-0.127568
-0.090297
-0.042610
0.004539
0.091754
0.136608
0.160122
0.194083
0.208801
0.172264
0.144785
0.132518
0.084704
0.064642
0.050652
0.061880
0.061877
0.051460
0.067004
0.131856
0.209417
0.312669
0.394962
0.454320
0.519428
0.587692
0.655281
0.714090
0.731045
0.750044
0.751223
0.735658
0.735903
0.721755
0.739342
0.709679
0.664533
0.656442
0.648446
0.647740
0.647031
0.685281
0.708818
0.697527
0.664699
0.633446
0.606535
0.535100
0.453557
0.426114
0.356145
0.262328
0.196712
0.144140
0.105304
0.059139
0.026437
0.024350
0.006419
0.019849
0.034734
0.059577
0.098612
0.120751
0.179507
0.218491
0.241611
0.231941
0.217289
0.171019
0.114604
0.061202
0.036229
0.019456
-0.023151
-0.080885
-0.101098
-0.106309
-0.098431
-0.077069
-0.048614
-0.039253
0.006222
0.070209
0.139534
0.157548
0.177143
0.141465
0.136208
0.153169
0.074605
0.037200
-0.008431
-0.040179
-0.071443
-0.101842
-0.124868
-0.114522
-0.126652
-0.117222
-0.068081
-0.009813
0.038561
0.066729
0.105817
0.145887
0.163132
0.169948
0.145667
0.119408
0.075790
0.030939
0.012597
-0.022185
-0.094034
-0.117124
-0.130767
-0.117351
-0.111416
-0.117716
-0.102978
-0.043598
0.042889
0.131255
0.160929
0.174192
0.200351
0.199503
0.189266
0.145515
0.092147
0.064172
0.026972
-0.004954
-0.065957
-0.102176
-0.116091
-0.134895
-0.114385
-0.084676
-0.022232
0.012184
0.058194
0.113176
0.163553
0.166171
0.191836
0.197417
0.169387
0.156741
0.142048
0.084546
0.040923
-0.008135
-0.043614
-0.042616
-0.063829
-0.080002
-0.090893
-0.063749
-0.023591
0.005906
0.050564
0.102645
0.145620
0.187669
0.222257
0.227504
0.228755
0.211335
0.168321
0.120605
0.082506
0.040214
-0.010806
-0.032720
-0.059183
-0.081117
-0.075216
-0.039507
0.015758
0.057840
0.103689
0.145761
0.177985
0.210677
0.232395
0.240346
0.228355
0.236313
0.201629
0.127425
0.098512
0.072814
0.029728
0.001911
-0.022713
-0.041873
-0.035429
0.005220
0.016794
0.053025
0.105902
0.162668
0.205305
0.227702
0.252654
0.258658
0.246835
0.212660
0.181965
0.156902
0.114865
0.069764
0.020656
-0.025317
-0.038697
-0.030873
-0.028860
-0.025936
0.007247
0.039504
0.063416
0.129927
0.194351
0.224741
0.231822
0.235771
0.242444
0.231910
0.184270
0.141072
0.097884
0.036516
-0.010196
-0.041200
-0.069726
-0.061223
-0.036808
-0.016045
0.010956
0.077351
0.084342
0.087397
0.142153
0.173083
0.200845
0.240614
0.240034
0.219511
0.163028
0.106731
0.040709
-0.006427
-0.043171
-0.079310
-0.099623
-0.109879
-0.098244
-0.048682
-0.016043
0.017720
0.053431
0.112886
0.148089
0.162011
0.204578
0.208068
0.190144
0.137098
0.099196
0.054546
-0.009776
-0.040503
-0.050087
-0.066158
-0.095913
-0.123736
-0.122203
-0.105412
-0.058220
-0.000586
0.029089
0.062747
0.111391
0.150235
0.181593
0.170971
0.155744
0.129452
0.083622
0.028243
-0.008272
-0.031547
-0.076500
-0.117287
-0.133820
-0.116885
-0.111351
-0.106158
-0.065778
-0.028775
0.016230
0.063607
0.102728
0.134896
0.151184
0.166733
0.167184
0.131454
0.081775
0.044895
-0.002354
-0.034729
-0.069601
-0.128055
-0.160799
-0.161656
-0.150810
-0.130349
-0.082028
-0.028131
0.017042
0.053241
0.096614
0.139855
0.184148
0.192364
0.172347
0.143974
0.105102
0.055458
-0.002812
-0.037446
-0.085957
-0.134409
-0.140505
-0.141233
-0.135872
-0.110507
-0.064832
-0.025132
0.011757
0.060958
0.110165
0.158094
0.171037
0.169310
0.151049
0.152485
0.108474
0.079342
0.019235
-0.040621
-0.075089
-0.114882
-0.118612
-0.118779
-0.105562
-0.092026
-0.054078
0.001994
0.016710
0.044429
0.103153
0.143123
0.143931
0.155913
0.161400
0.139021
0.091293
0.041459
0.005613
-0.041010
-0.083278
-0.094501
-0.094219
-0.115929
-0.105532
-0.084332
-0.068605
-0.018927
-0.000283
0.031106
0.092625
0.142504
0.164702
0.170022
0.154647
0.127012
0.090472
0.063166
0.019595
-0.027569
-0.070027
-0.098308
-0.116362
-0.134211
-0.135336
-0.105711
-0.074869
-0.036606
0.009956
0.054636
0.083169
0.109121
0.129718
0.144140
0.147880
0.127209
0.076532
0.046290
-0.002871
-0.053949
-0.085479
-0.116654
-0.149641
-0.149317
-0.125715
-0.091179
-0.063085
-0.027941
0.019996
0.047273
0.078486
0.134007
0.147534
0.151847
0.128300
0.098905
0.077522
0.018423
-0.017363
-0.044688
-0.072483
-0.114109
-0.139848
-0.141457
-0.141184
-0.112100
-0.075890
-0.037719
0.012436
0.054239
0.071950
0.112465
0.142329
0.154391
0.150320
0.116556
0.087689
0.026343
-0.035161
-0.076465
-0.119972
-0.140884
-0.164317
-0.180245
-0.154076
-0.119660
-0.074633
-0.028863
-0.002039
0.028834
0.075727
0.114352
0.135324
0.138941
0.116838
0.092552
0.078505
0.035939
-0.007516
-0.067219
-0.117659
-0.156701
-0.172209
-0.179066
-0.176237
-0.144255
-0.110514
-0.049247
0.001919
0.039474
0.061365
0.095039
0.112079
0.113944
0.119710
0.099560
0.072532
0.040208
-0.014802
-0.057633
-0.099716
-0.146994
-0.177317
-0.182570
-0.152989
-0.127536
-0.109553
-0.070912
-0.021110
0.025752
0.068698
0.103704
0.133929
0.129590
0.123435
0.101851
0.064150
0.023297
-0.017775
-0.054235
-0.093680
-0.135568
-0.159363
-0.161796
-0.146823
-0.128751
-0.091697
-0.056160
-0.004361
0.042322
0.085462
0.108662
0.151904
0.157962
0.150211
0.117114
0.084238
0.061753
0.024894
-0.016449
-0.052892
-0.077122
-0.123983
-0.144327
-0.146490
-0.107413
-0.071186
-0.037205
0.023877
0.052166
0.097705
0.135414
0.153042
0.155213
0.154917
0.134298
0.106384
0.066750
0.017457
-0.018050
-0.034480
-0.086591
-0.103714
-0.117425
-0.123062
-0.097751
-0.072246
-0.020092
0.039326
0.087071
0.134748
0.152836
0.171760
0.162100
0.155122
0.133234
0.092438
0.038823
0.010957
-0.005268
-0.071645
-0.119001
-0.124776
-0.134906
-0.152799
-0.130779
-0.099952
-0.061146
-0.013663
0.024687
0.057603
0.090553
0.120921
0.133724
0.099622
0.078196
0.056725
0.016911
-0.018484
-0.058931
-0.111081
-0.151008
-0.174905
-0.177714
-0.163972
-0.149141
-0.120491
-0.073657
-0.032547
0.002561
0.045421
0.078211
0.091500
0.085251
0.075551
0.052561
0.021202
-0.012412
-0.051241
-0.096609
-0.159798
-0.195317
-0.181820
-0.196431
-0.192122
-0.159807
-0.127962
-0.102388
-0.056504
-0.002536
0.032605
0.065369
0.086007
0.089510
0.087790
0.060284
0.015345
-0.028710
-0.067626
-0.109053
-0.158117
-0.185833
-0.208616
-0.197701
-0.184705
-0.172664
-0.143060
-0.096977
-0.040718
-0.002057
0.025187
0.053000
0.088645
0.127369
0.112899
0.042930
0.005361
-0.032995
-0.061644
-0.101788
-0.137584
-0.172125
-0.196483
-0.201754
-0.188778
-0.172970
-0.136651
-0.083229
-0.068489
-0.019035
0.028740
0.051478
0.067405
0.076285
0.071585
0.043646
-0.004973
-0.025033
-0.073639
-0.116231
-0.169120
-0.188205
-0.195985
-0.193198
-0.174788
-0.140767
-0.091615
-0.037456
0.027923
0.101734
0.167373
0.195659
0.219158
0.237357
0.245233
0.242060
0.244676
0.234365
0.208019
0.192500
0.191443
0.188182
0.198960
0.231033
0.288357
0.337343
0.399678
0.468515
0.555489
0.661784
0.734548
0.804224
0.856222
0.894745
0.920753
0.888665
0.842781
0.798975
0.748462
0.692172
0.624288
0.563593
0.501100
0.437330
0.383645
0.332613
0.298409
0.293789
0.312010
0.286535
0.280027
0.284788
0.299220
0.295836
0.297047
0.271747
0.224070
0.173176
0.113110
0.023319
-0.018087
-0.036162
-0.071143
-0.077820
-0.076215
-0.064556
-0.040409
-0.036284
-0.007902
0.053940
0.109097
0.143846
0.175588
0.172521
0.161371
0.139114
0.096340
0.039825
-0.009017
-0.052156
-0.089655
-0.108457
-0.131935
-0.134674
-0.152163
-0.126892
-0.105642
-0.062431
-0.017678
0.027021
0.067403
0.100259
0.115460
0.124039
0.123096
0.112545
0.059524
0.021983
-0.017615
-0.066695
-0.100170
-0.139409
-0.160086
-0.168523
-0.152598
-0.123734
-0.092537
-0.059264
-0.009380
0.036436
0.071053
0.102963
0.110218
0.110709
0.106034
0.094166
0.062190
0.020649
-0.028060
-0.066146
-0.099109
-0.120478
-0.143428
-0.141163
-0.140121
-0.109977
-0.090515
-0.052389
-0.010220
0.036805
0.076702
0.099522
0.126729
0.131345
0.132301
0.096242
0.053053
0.029653
-0.002293
-0.041484
-0.067210
-0.102133
-0.126478
-0.135909
-0.115456
-0.090400
-0.059016
-0.013800
0.025511
0.061706
0.097718
0.132891
0.157011
0.165131
0.160729
0.141400
0.116197
0.077015
0.024849
-0.028376
-0.061566
-0.100266
-0.114034
-0.103064
-0.085776
-0.059560
-0.024687
0.012493
0.066890
0.112378
0.196973
0.205944
0.192810
0.205852
0.197701
0.173923
0.127121
0.078996
0.045089
0.000888
-0.035927
-0.083289
-0.096404
-0.065215
-0.047905
-0.041242
-0.015041
0.026720
0.071590
0.113797
0.159091
0.216671
0.232574
0.239949
0.242383
0.211663
0.180700
0.144933
0.081370
0.039003
0.004292
-0.038697
-0.066305
-0.063975
-0.066385
-0.028920
-0.004216
0.045129
0.098650
0.144006
0.184468
0.212621
0.231427
0.240299
0.223800
0.196017
0.163576
0.125198
0.075661
0.024224
-0.019416
-0.052453
-0.069069
-0.089202
-0.086328
-0.039258
0.004141
0.023204
0.067006
0.120558
0.172333
0.198937
0.199067
0.206077
0.215814
0.184944
0.146030
0.119885
0.058407
0.008131
-0.022884
-0.055884
-0.090706
-0.095548
-0.073994
-0.060252
-0.048274
0.019135
0.063564
0.062937
0.105106
0.149195
0.171068
0.187281
0.177210
0.152119
0.114215
0.086919
0.023093
-0.012356
-0.061078
-0.108653
-0.124183
-0.118372
-0.132396
-0.117888
-0.083606
-0.030177
0.015484
0.055889
0.094863
0.125806
0.141362
0.151185
0.141595
0.117141
0.060423
0.032069
-0.006619
-0.067193
-0.110219
-0.134372
-0.136055
-0.132009
-0.143414
-0.123030
-0.080893
-0.040358
0.002268
0.022122
0.050805
0.073100
0.113162
0.126083
0.114431
0.091294
0.052777
0.016326
-0.015880
-0.061914
-0.089956
-0.113104
-0.161640
-0.203514
-0.179728
-0.134299
-0.119793
-0.055240
-0.006313
0.022760
0.060480
0.101544
0.102462
0.102877
0.101973
0.083483
0.067280
0.030923
-0.010727
-0.058286
-0.089619
-0.131137
-0.153046
-0.186603
-0.170399
-0.133330
-0.102027
-0.063932
-0.008976
0.043497
0.088674
0.131023
0.142334
0.127394
0.110364
0.089046
0.064091
0.022276
-0.034247
-0.068017
-0.096941
-0.126861
-0.151520
-0.166159
-0.159034
-0.130862
-0.100603
-0.056846
-0.008390
0.027482
0.062543
0.097061
0.137107
0.149654
0.139790
0.097855
0.053803
0.022367
-0.024748
-0.056132
-0.095597
-0.137217
-0.157940
-0.161726
-0.141799
-0.123672
-0.094322
-0.032893
0.011354
0.043379
0.086309
0.105449
0.123156
0.127334
0.133797
0.112352
0.068111
0.018234
-0.023881
-0.066343
-0.117489
-0.137142
-0.142585
-0.146727
-0.129171
-0.101778
-0.074632
-0.049414
-0.019187
0.003258
0.059335
0.112677
0.121282
0.128179
0.117620
0.089455
0.063039
0.026625
-0.019239
-0.061244
-0.113304
-0.145022
-0.154992
-0.160352
-0.161360
-0.133022
-0.107362
-0.049198
-0.006048
0.037806
0.080849
0.096815
0.126606
0.120186
0.107195
0.091687
0.054736
0.003736
-0.033485
-0.091343
-0.123047
-0.150083
-0.186143
-0.174644
-0.179521
-0.140819
-0.110529
-0.074443
-0.019171
0.030295
0.068535
0.112359
0.122388
0.122847
0.108667
0.074157
0.055030
0.023568
-0.051619
-0.084969
-0.127018
-0.152185
-0.166049
-0.179914
-0.181528
-0.154401
-0.123934
-0.087613
-0.037662
0.009108
0.056742
0.101690
0.108200
0.106359
0.107718
0.082106
0.048995
0.008195
-0.055190
-0.094176
-0.135763
-0.166427
-0.180970
-0.179091
-0.186322
-0.153621
-0.122278
-0.081407
-0.030332
0.012050
0.056171
0.094232
0.101149
0.108084
0.110008
0.087156
0.052325
0.013031
-0.034483
-0.087093
-0.121200
-0.156454
-0.193160
-0.203936
-0.191911
-0.173115
-0.131977
-0.072470
-0.032284
0.011075
0.039459
0.069738
0.092494
0.100360
0.099579
0.055964
0.038225
0.012556
-0.029852
-0.065032
-0.107843
-0.133757
-0.153076
-0.166026
-0.170645
-0.123255
-0.093866
-0.051227
-0.018193
0.017933
0.088342
0.125226
0.125405
0.131515
0.137608
0.103444
0.079200
0.037951
-0.006965
-0.038932
-0.077210
-0.114057
-0.157213
-0.167991
-0.161554
-0.142035
-0.113483
-0.073380
-0.026306
0.023791
0.068854
0.108999
0.142834
0.148893
0.145086
0.119131
0.088647
0.041931
0.020378
-0.035759
-0.085327
-0.106275
-0.113707
-0.111540
-0.106429
-0.080986
-0.048795
0.001319
0.033259
0.054202
0.084810
0.123720
0.129625
0.131153
0.129639
0.086634
0.061561
0.035804
-0.014201
-0.068051
-0.108001
-0.136562
-0.160790
-0.168297
-0.155540
-0.141208
-0.115177
-0.093279
-0.042519
-0.002441
0.045020
0.077939
0.101368
0.102182
0.082812
0.045569
0.022982
-0.022703
-0.058602
-0.106393
-0.149793
-0.179083
-0.211142
-0.217092
-0.212751
-0.171735
-0.133462
-0.097467
-0.058442
-0.008457
0.037214
0.066698
0.071221
0.073302
0.059327
0.025103
0.001805
-0.028685
-0.092445
-0.120266
-0.153641
-0.191797
-0.220850
-0.227981
-0.207916
-0.173858
-0.153530
-0.129356
-0.070156
-0.021114
0.021337
0.058371
0.081522
0.076238
0.060474
0.032222
-0.009069
-0.053153
-0.088230
-0.137665
-0.168100
-0.193663
-0.221705
-0.224851
-0.207570
-0.181681
-0.165589
-0.114714
-0.057260
-0.029067
0.018002
0.065603
0.084113
0.085860
0.072453
0.040369
0.007238
-0.044351
-0.101502
-0.145365
-0.176350
-0.209314
-0.218984
-0.214828
-0.215577
-0.196821
-0.162456
-0.120706
-0.085155
-0.038905
0.005141
0.055933
0.064614
0.056622
0.050178
0.027108
0.005762
-0.023993
-0.074375
-0.112735
-0.134453
-0.178692
-0.183863
-0.186925
-0.148234
-0.089245
-0.032794
0.009142
0.067881
0.143737
0.179237
0.211419
0.260249
0.273306
0.288716
0.282370
0.290048
0.294109
0.286283
0.276871
0.281244
0.300268
0.312879
0.324218
0.341364
0.409021
0.494175
0.584538
0.662144
0.739018
0.807697
0.846327
0.875162
0.873003
0.878408
0.844021
0.804827
0.723579
0.648837
0.573989
0.490735
0.381444
0.303626
0.242650
0.196631
0.164697
0.146384
0.146041
0.151927
0.172217
0.204909
0.250643
0.272524
0.243294
0.215579
0.188316
0.145582
0.098489
0.050066
-0.001714
-0.056646
-0.077913
-0.089058
-0.102244
-0.102636
-0.076993
-0.061080
-0.030736
0.034098
0.069969
0.082711
0.126369
0.137539
0.135925
0.121155
0.090498
0.044375
0.014732
-0.028593
-0.065853
-0.119076
-0.152183
-0.153447
-0.163875
-0.169256
-0.129560
-0.102298
-0.075147
-0.022846
0.008437
0.039097
0.077089
0.112940
0.116206
0.117059
0.072782
0.011041
-0.009672
-0.055883
-0.089867
-0.118328
-0.143797
-0.185551
-0.206960
-0.195474
-0.159259
-0.099261
-0.070052
-0.013653
0.020265
0.051653
0.115476
0.134793
0.113852
0.106889
0.087715
0.060815
0.015377
-0.019251
-0.068206
-0.110220
-0.157490
-0.152634
-0.159409
-0.175127
-0.136961
-0.088730
-0.048895
-0.007315
0.051486
0.083396
0.125470
0.137386
0.119322
0.074958
0.061632
0.068399
0.049697
0.022393
-0.034515
-0.072214
-0.102403
-0.151826
-0.156932
-0.163576
-0.119792
-0.069805
-0.022698
0.012263
0.055983
0.095507
0.112971
0.129431
0.151013
0.156014
0.153661
0.126554
0.072519
0.030065
-0.022769
-0.059357
-0.086746
-0.137388
-0.137696
-0.128764
-0.095437
-0.058996
0.013353
0.093170
0.129310
0.136709
0.160992
0.188734
0.195470
0.179564
0.155280
0.161179
0.114493
0.049048
0.002275
-0.020839
-0.054386
-0.112705
-0.121216
-0.092510
-0.041463
-0.017472
-0.000004
0.046183
0.127266
0.169276
0.201955
0.240787
0.226002
0.207925
0.167371
0.168454
0.120777
0.074138
0.020751
-0.025565
-0.053738
-0.058431
-0.079269
-0.062469
-0.035215
0.008136
0.036695
0.067766
0.117684
0.142140
0.195508
0.200046
0.195083
0.205677
0.173001
0.148202
0.137009
0.080128
0.010454
-0.012786
-0.069263
-0.064968
-0.074331
-0.066937
-0.037663
0.000354
0.016279
0.051628
0.087659
0.122826
0.149702
0.179684
0.160780
0.158748
0.144526
0.137086
0.095921
0.034683
-0.015980
-0.038644
-0.059911
-0.062982
-0.086019
-0.105950
-0.091485
-0.058806
-0.006429
0.047006
0.084930
0.125532
0.149390
0.163216
0.160326
0.116734
0.127764
0.123152
0.035944
-0.012738
-0.025168
-0.057741
-0.094248
-0.126053
-0.152925
-0.154746
-0.106555
-0.059883
-0.016234
0.020162
0.034122
0.052060
0.110485
0.119878
0.138157
0.131288
0.097856
0.049220
0.001641
-0.050681
-0.097793
-0.113761
-0.144073
-0.171812
-0.174634
-0.176750
-0.131733
-0.087579
-0.059843
-0.007994
0.049188
0.074026
0.101780
0.140280
0.130615
0.097636
0.070810
0.053009
0.002909
-0.054717
-0.063410
-0.101682
-0.161544
-0.190826
-0.177459
-0.156629
-0.161525
-0.126632
-0.082559
-0.023154
0.013507
0.064359
0.096459
0.141357
0.131923
0.121393
0.079612
0.023689
-0.001412
-0.029905
-0.060891
-0.097490
-0.112394
-0.163963
-0.171471
-0.176196
-0.146758
-0.110449
-0.061951
-0.022537
-0.020780
0.015712
0.094888
0.129211
0.131950
0.121671
0.119537
0.090769
0.065880
-0.021900
-0.125215
-0.150045
-0.177444
-0.182897
-0.164316
-0.168065
-0.139554
-0.087907
-0.059462
-0.038210
0.012718
0.072688
0.088628
0.118395
0.150770
0.132058
0.105037
0.058558
0.019768
-0.029035
-0.064653
-0.111671
-0.135029
-0.126080
-0.133442
-0.120224
-0.109153
-0.105748
-0.080124
-0.026743
0.007369
0.037202
0.063620
0.121223
0.106783
0.104258
0.106383
0.075785
0.047044
0.043363
-0.056017
-0.098931
-0.128646
-0.168286
-0.192102
-0.158153
-0.100319
-0.090716
-0.056638
-0.026408
0.031728
0.083194
0.131418
0.120605
0.074894
0.052629
0.067942
0.071979
0.037264
0.005408
-0.062673
-0.092764
-0.109359
-0.153412
-0.147089
-0.180380
-0.172008
-0.089441
-0.046838
-0.002085
0.038022
0.051472
0.056296
0.099841
0.122406
0.153914
0.070605
0.028875
-0.009965
-0.027912
-0.060847
-0.099429
-0.147810
-0.180923
-0.186449
-0.150402
-0.101050
-0.109390
-0.105405
-0.042176
0.009913
0.045313
0.117756
0.115385
0.104288
0.090123
0.086841
0.045137
0.012257
-0.025987
-0.071830
-0.119077
-0.149843
-0.141076
-0.177010
-0.204952
-0.153229
-0.094068
-0.058399
-0.003121
-0.014601
0.040218
0.120100
0.177368
0.139421
0.107140
0.052022
0.012469
-0.021673
-0.067822
-0.091331
-0.130047
-0.160426
-0.191302
-0.172339
-0.169050
-0.161106
-0.117342
-0.089008
-0.030875
0.028701
0.067454
0.097054
0.118183
0.119616
0.112165
0.064127
0.029109
0.005059
-0.024526
-0.068917
-0.095323
-0.136707
-0.182608
-0.182785
-0.179629
-0.182592
-0.140475
-0.075067
-0.042746
0.014887
0.072986
0.120118
0.136804
0.132596
0.126369
0.104330
0.118115
0.056201
-0.006746
-0.058390
-0.099661
-0.139479
-0.169981
-0.168358
-0.141926
-0.076864
-0.040786
-0.025612
-0.036597
0.018170
0.065694
0.103088
0.137625
0.143181
0.157466
0.128547
0.082422
0.050919
0.003998
-0.054995
-0.104929
-0.123512
-0.118048
-0.093593
-0.121515
-0.108005
-0.078969
-0.052644
0.004933
0.079948
0.115495
0.159147
0.195649
0.192733
0.158661
0.137687
0.101849
0.047106
-0.007443
-0.105893
-0.123921
-0.144086
-0.155697
-0.131422
-0.160664
-0.120160
-0.099826
-0.046870
-0.011536
0.070196
0.080915
0.069322
0.086373
0.117687
0.126071
0.089948
0.048389
0.001971
-0.049731
-0.057073
-0.069989
-0.100592
-0.151712
-0.201548
-0.217242
-0.204906
-0.174443
-0.122249
-0.059919
0.011745
0.062914
0.094644
0.111720
0.106631
0.078037
0.007248
-0.000671
-0.024003
-0.073809
-0.143870
-0.160594
-0.188845
-0.216858
-0.211478
-0.209815
-0.166394
-0.155512
-0.100420
-0.053186
-0.003931
0.027261
0.046627
0.056470
0.080653
0.081506
0.070669
0.037613
-0.033419
-0.120349
-0.123351
-0.176168
-0.226983
-0.223328
-0.206676
-0.198761
-0.155050
-0.119912
-0.079779
-0.049774
0.008177
0.029359
0.055098
0.086374
0.109427
0.095642
0.058095
0.026581
-0.050973
-0.098963
-0.143511
-0.173334
-0.192118
-0.221329
-0.216240
-0.224218
-0.191737
-0.138683
-0.089739
-0.049430
0.010125
0.009196
0.030520
0.058920
0.090793
0.088590
0.057785
0.002277
-0.044717
-0.080205
-0.131749
-0.157816
-0.192252
-0.203890
-0.224195
-0.221185
-0.185645
-0.165880
-0.102236
-0.006228
0.056221
0.103254
0.118964
0.159129
0.193648
0.226848
0.215916
0.193201
0.167527
0.116206
0.096343
0.085732
0.056327
0.049388
0.087700
0.141235
0.197318
0.263133
0.332822
0.414628
0.477194
0.546827
0.610054
0.697404
0.734761
0.768641
0.788966
0.786167
0.751783
0.719044
0.725861
0.650095
0.574115
0.561419
0.550983
0.545419
0.558360
0.528064
0.501749
0.468453
0.437618
0.410861
0.401976
0.387520
0.340064
0.305521
0.283260
0.231546
0.150028
0.090536
0.047952
0.010853
-0.044337
-0.071577
-0.072969
-0.035399
-0.051903
-0.045277
-0.011834
0.017201
0.060417
0.114745
0.144120
0.164469
0.161785
0.176365
0.158252
0.092980
0.064161
0.016201
-0.038744
-0.088625
-0.121949
-0.130286
-0.172007
-0.173816
-0.132305
-0.091284
-0.031318
-0.008714
0.030515
0.057157
0.099362
0.121860
0.127114
0.114798
0.100264
0.062242
0.009487
-0.044891
-0.087272
-0.120054
-0.141487
-0.173278
-0.189105
-0.157667
-0.129406
-0.108652
-0.067917
-0.021525
0.040134
0.079855
0.106478
0.109329
0.144567
0.128313
0.101041
0.057847
0.013283
-0.021953
-0.077910
-0.118629
-0.161688
-0.161360
-0.139241
-0.134004
-0.129860
-0.096008
-0.050079
-0.013372
0.043652
0.092532
0.125893
0.150355
0.130691
0.115627
0.091817
0.068881
0.035157
0.006890
-0.050364
-0.092263
-0.134125
-0.148439
-0.141932
-0.138029
-0.109522
-0.054313
-0.021215
0.015974
0.071598
0.119336
0.152506
0.174366
0.170462
0.156638
0.136508
0.110392
0.069954
0.037306
-0.016888
-0.076433
-0.116728
-0.128739
-0.146801
-0.123773
-0.084593
-0.060313
-0.009499
0.044836
0.086027
0.130763
0.161695
0.172114
0.177967
0.175691
0.171613
0.160451
0.098995
0.044414
-0.007295
-0.035814
-0.048379
-0.069431
-0.089300
-0.092630
-0.063377
-0.020473
0.030235
0.068008
0.102534
0.134223
0.174779
0.225354
0.240339
0.218682
0.194779
0.154720
0.111570
0.081201
0.013577
-0.020100
-0.029342
-0.044647
-0.047604
-0.047002
-0.026362
0.012499
0.025903
0.084768
0.114996
0.151226
0.184808
0.190944
0.187039
0.191558
0.198224
0.183844
0.131529
0.066508
0.025652
0.003156
-0.044843
-0.064007
-0.064064
-0.061478
-0.024045
0.009411
0.049894
0.086243
0.155124
0.150470
0.156080
0.194239
0.219158
0.205018
0.187960
0.139986
0.081233
0.039190
-0.025581
-0.034270
-0.031655
-0.078857
-0.131547
-0.132773
-0.085515
-0.032572
0.009009
0.070879
0.089590
0.131629
0.171553
0.208656
0.199107
0.174769
0.150428
0.113773
0.068028
0.030303
-0.029805
-0.071917
-0.104060
-0.121173
-0.133024
-0.122426
-0.109719
-0.068801
-0.019771
0.022235
0.080256
0.106221
0.124726
0.119767
0.153870
0.148451
0.114174
0.081603
0.030653
-0.015198
-0.070968
-0.108880
-0.116941
-0.143365
-0.151312
-0.159183
-0.152972
-0.122085
-0.066953
-0.007114
0.012011
0.068383
0.099860
0.133109
0.150705
0.123452
0.081611
0.044543
-0.001756
-0.032119
-0.087462
-0.122737
-0.144374
-0.166105
-0.179663
-0.167649
-0.160184
-0.131822
-0.091440
-0.028441
0.033395
0.063282
0.099158
0.110780
0.134576
0.121197
0.105075
0.069947
0.022034
-0.040317
-0.087294
-0.125200
-0.148899
-0.165938
-0.170458
-0.173114
-0.151245
-0.128962
-0.076226
-0.022771
0.030055
0.071834
0.086263
0.129561
0.124056
0.110120
0.106054
0.061995
0.035884
-0.024143
-0.069363
-0.101841
-0.126166
-0.155617
-0.171243
-0.163087
-0.126129
-0.083033
-0.050162
-0.045250
0.009052
0.072299
0.097332
0.116379
0.123867
0.119577
0.092770
0.068285
0.036589
-0.013499
-0.062355
-0.115466
-0.129347
-0.148787
-0.145239
-0.160748
-0.141548
-0.106114
-0.052929
-0.008232
0.039947
0.067340
0.087584
0.106856
0.114302
0.102983
0.077928
0.065253
0.031320
-0.009211
-0.073988
-0.104553
-0.120504
-0.138408
-0.155492
-0.150051
-0.126568
-0.106199
-0.068012
-0.025527
0.030139
0.066694
0.099468
0.125672
0.127292
0.100677
0.065444
0.046785
0.018002
-0.027132
-0.086395
-0.117560
-0.140289
-0.173467
-0.157385
-0.128125
-0.112485
-0.078324
-0.050390
-0.035983
0.008548
0.045168
0.095138
0.136912
0.134359
0.122925
0.085395
0.049491
0.002076
-0.036714
-0.055049
-0.087637
-0.141072
-0.191197
-0.195277
-0.161804
-0.126114
-0.088999
-0.062473
-0.020508
0.018620
0.054341
0.083189
0.092145
0.107595
0.104932
0.087829
0.079299
0.037465
-0.013725
-0.080975
-0.145316
-0.163983
-0.180050
-0.182115
-0.165753
-0.154462
-0.121684
-0.077754
-0.033715
0.020861
0.058794
0.089305
0.107414
0.135527
0.112248
0.073407
0.036171
0.010327
-0.035477
-0.092426
-0.121429
-0.155847
-0.184598
-0.189432
-0.186510
-0.160280
-0.121982
-0.075755
-0.042049
0.011884
0.044374
0.081787
0.098361
0.101799
0.085974
0.082596
0.064353
0.021465
-0.029842
-0.076092
-0.113265
-0.150251
-0.169717
-0.169848
-0.157678
-0.172157
-0.127962
-0.057976
0.005503
0.022412
0.071240
0.097613
0.128093
0.144188
0.127663
0.100167
0.074333
0.042792
0.010172
-0.039347
-0.094143
-0.123104
-0.136934
-0.159402
-0.144217
-0.129983
-0.088514
-0.050847
-0.005974
0.021740
0.092253
0.108309
0.118922
0.124244
0.111654
0.104361
0.080137
0.051988
0.026995
-0.008028
-0.063214
-0.112410
-0.111146
-0.113716
-0.116948
-0.095695
-0.060878
-0.011813
0.022421
0.060028
0.111931
0.140976
0.147797
0.144022
0.132336
0.104360
0.058099
0.014906
-0.030133
-0.063171
-0.113780
-0.152022
-0.171332
-0.170372
-0.147738
-0.122315
-0.099147
-0.077779
-0.015513
0.037681
0.061991
0.093709
0.108804
0.113021
0.085356
0.075793
0.033404
-0.012937
-0.038345
-0.100441
-0.141983
-0.161454
-0.176034
-0.188044
-0.184183
-0.188337
-0.156099
-0.097932
-0.047476
-0.015853
0.034391
0.063870
0.074723
0.088142
0.073159
0.056466
0.023372
-0.022140
-0.076983
-0.127724
-0.177535
-0.203187
-0.212233
-0.213778
-0.224050
-0.202088
-0.160509
-0.102373
-0.062859
-0.035531
0.021798
0.061706
0.088242
0.091664
0.092352
0.068418
0.030337
-0.019775
-0.062969
-0.111429
-0.145504
-0.184836
-0.228371
-0.233760
-0.206130
-0.192024
-0.163196
-0.123223
-0.081800
-0.021893
0.030627
0.060551
0.075219
0.088760
0.066668
0.029625
0.008779
-0.032540
-0.062117
-0.099140
-0.126825
-0.168023
-0.200601
-0.208332
-0.220314
-0.227952
-0.193394
-0.127516
-0.066879
-0.034755
-0.012585
0.039973
0.067549
0.063301
0.049142
0.047401
0.004348
-0.052058
-0.079705
-0.110913
-0.142178
-0.167024
-0.183726
-0.190963
-0.168761
-0.147778
-0.094797
-0.042127
0.019705
0.116965
0.176415
0.200797
0.231904
0.266585
0.257668
0.272336
0.276068
0.258369
0.246763
0.217694
0.208076
0.210371
0.221805
0.233326
0.272424
0.333042
0.404198
0.475205
0.551160
0.635247
0.710502
0.767766
0.831549
0.841671
0.827634
0.815862
0.778282
0.710180
0.655863
0.593258
0.529672
0.442998
0.359837
0.333220
0.276479
0.222838
0.202548
0.198329
0.199444
0.212278
0.206503
0.216989
0.229132
0.213681
0.190653
0.164021
0.135109
0.058886
0.018003
-0.024878
-0.073118
-0.116915
-0.129608
-0.135980
-0.110122
-0.102005
-0.074908
-0.020839
0.028123
0.057794
0.080015
0.117758
0.140858
0.139797
0.126257
0.088352
0.038246
0.005945
-0.029211
-0.082025
-0.125467
-0.156641
-0.168718
-0.181398
-0.166604
-0.153845
-0.125467
-0.088446
-0.050562
0.019808
0.061258
0.063430
0.086861
0.125219
0.116412
0.074710
0.024499
-0.013398
-0.044551
-0.082525
-0.112123
-0.154498
-0.190741
-0.196911
-0.172629
-0.148196
-0.119260
-0.091122
-0.032678
0.030071
0.072477
0.094641
0.101260
0.116462
0.102956
0.093056
0.074338
0.003947
-0.046141
-0.074438
-0.102151
-0.147861
-0.168593
-0.170354
-0.171001
-0.154053
-0.108095
-0.068112
-0.028152
0.006252
0.057634
0.081958
0.110690
0.121499
0.121983
0.090613
0.078104
0.056256
-0.001035
-0.045724
-0.079731
-0.122157
-0.151172
-0.178111
-0.155994
-0.116732
-0.096370
-0.044238
0.003693
0.046841
0.082331
0.106621
0.123623
0.159495
0.160600
0.112390
0.087031
0.052786
0.020268
-0.024795
-0.068144
-0.097572
-0.123351
-0.131267
-0.120778
-0.088062
-0.052528
-0.010856
0.028789
0.051819
0.081158
0.113997
0.159223
0.185862
0.175655
0.148276
0.108373
0.063114
0.026253
-0.004637
-0.037299
-0.069344
-0.098504
-0.109619
-0.090678
-0.075087
-0.024729
-0.009322
0.021679
0.081385
0.137370
0.174934
0.197488
0.206554
0.197240
0.186540
0.165539
0.096259
0.046418
0.015145
-0.014040
-0.058340
-0.084730
-0.065545
-0.057587
-0.080187
-0.027910
0.037801
0.078109
0.118218
0.155361
0.184731
0.196453
0.201332
0.199120
0.168026
0.116723
0.067927
0.046731
0.011919
-0.034405
-0.065032
-0.077253
-0.084422
-0.089866
-0.072462
-0.024228
0.005090
0.060147
0.094367
0.128705
0.177135
0.189663
0.181064
0.164263
0.154110
0.120905
0.063113
0.015979
-0.040133
-0.067723
-0.104060
-0.132677
-0.135987
-0.136603
-0.109241
-0.063666
-0.020323
0.025324
0.066487
0.111305
0.139806
0.157609
0.168896
0.150076
0.126110
0.082172
0.020772
-0.026512
-0.060773
-0.096806
-0.138328
-0.161255
-0.158521
-0.147372
-0.129327
-0.095842
-0.064734
-0.017156
0.033684
0.059367
0.083354
0.113565
0.132707
0.114480
0.085298
0.050826
-0.002866
-0.057960
-0.105434
-0.137242
-0.166910
-0.181006
-0.199128
-0.197618
-0.183245
-0.142321
-0.101851
-0.033333
0.011344
0.061844
0.083122
0.081631
0.086140
0.091428
0.084732
0.054338
-0.002925
-0.060640
-0.096126
-0.150659
-0.177010
-0.190009
-0.199583
-0.200302
-0.170684
-0.123032
-0.091101
-0.056117
0.001641
0.043225
0.071981
0.098190
0.114576
0.084207
0.065629
0.042594
0.003936
-0.029404
-0.078537
-0.135260
-0.169148
-0.180449
-0.187454
-0.185665
-0.162231
-0.125855
-0.084325
-0.046188
-0.004101
0.037930
0.068194
0.088442
0.101585
0.086539
0.092857
0.049963
-0.019804
-0.073767
-0.097629
-0.132309
-0.167320
-0.181025
-0.160157
-0.146921
-0.137220
-0.114942
-0.079644
-0.044754
-0.001653
0.046898
0.059625
0.093451
0.106489
0.072912
0.069190
0.036333
0.002666
-0.045568
-0.089471
-0.091179
-0.112672
-0.157250
-0.193465
-0.179653
-0.159959
-0.100676
-0.071273
-0.018065
0.020162
0.037597
0.067415
0.087571
0.104775
0.093847
0.091608
0.050057
-0.013268
-0.068670
-0.107426
-0.131425
-0.168189
-0.184917
-0.180202
-0.165714
-0.148034
-0.107983
-0.067162
-0.030835
0.010140
0.059386
0.081996
0.104398
0.116699
0.106904
0.084970
0.030309
-0.019876
-0.061870
-0.098232
-0.135438
-0.167015
-0.188812
-0.192618
-0.181112
-0.153090
-0.134087
-0.092496
-0.045354
-0.003425
0.039366
0.081286
0.097329
0.091224
0.075913
0.077238
0.041120
-0.023690
-0.049821
-0.093488
-0.140342
-0.166391
-0.184888
-0.207155
-0.196753
-0.164039
-0.133521
-0.085829
-0.042071
-0.004536
0.048363
0.074487
0.099172
0.102264
0.086841
0.058105
0.040103
0.000185
-0.053879
-0.104889
-0.143556
-0.198073
-0.217567
-0.203317
-0.194956
-0.173109
-0.144037
-0.092580
-0.054901
-0.011507
0.035594
0.066546
0.080335
0.091790
0.081315
0.070298
0.054494
0.010636
-0.050857
-0.098686
-0.143379
-0.172590
-0.180545
-0.202770
-0.201780
-0.168315
-0.133250
-0.108619
-0.054044
-0.006955
0.032233
0.065699
0.092965
0.101602
0.089842
0.079596
0.062558
0.017938
-0.029774
-0.061419
-0.110187
-0.148779
-0.161777
-0.174684
-0.164669
-0.134038
-0.092857
-0.046692
-0.004564
0.039636
0.057484
0.096967
0.128750
0.122289
0.113648
0.091904
0.051752
0.008608
-0.058557
-0.083497
-0.101128
-0.136868
-0.152855
-0.139998
-0.131504
-0.128385
-0.096004
-0.042832
0.004156
0.036969
0.060752
0.107596
0.141406
0.152093
0.120697
0.100531
0.069496
0.042728
0.003244
-0.050541
-0.105077
-0.127323
-0.154775
-0.174478
-0.169205
-0.151583
-0.118354
-0.082412
-0.037375
-0.001839
0.035401
0.074307
0.111246
0.124806
0.098047
0.073622
0.020248
-0.015600
-0.066131
-0.116971
-0.149701
-0.170399
-0.194787
-0.205330
-0.188240
-0.162984
-0.136613
-0.097544
-0.052531
-0.019651
0.017906
0.045610
0.064702
0.064144
0.051602
0.027235
-0.014716
-0.060306
-0.093574
-0.126971
-0.174138
-0.212412
-0.233904
-0.241309
-0.221171
-0.196068
-0.171515
-0.119531
-0.075250
-0.039003
0.001941
0.029585
0.047872
0.051762
0.033673
0.018777
-0.019807
-0.053642
-0.101754
-0.132587
-0.166269
-0.207128
-0.221659
-0.233500
-0.232053
-0.206383
-0.179744
-0.122658
-0.075841
-0.038742
0.002517
0.032067
0.052570
0.067214
0.059976
0.037177
0.016098
-0.040916
-0.095971
-0.138465
-0.192935
-0.231096
-0.251879
-0.247250
-0.230383
-0.202114
-0.169678
-0.138876
-0.091705
-0.036485
-0.000084
0.016243
0.052289
0.070135
0.054819
0.041302
-0.001723
-0.047805
-0.075034
-0.125184
-0.190898
-0.226881
-0.258595
-0.240655
-0.243252
-0.219584
-0.183045
-0.135495
-0.067830
-0.025544
0.019544
0.075072
0.104613
0.113329
0.140618
0.150477
0.136811
0.104068
0.064036
0.032638
0.006522
-0.013370
-0.010364
0.003647
0.042686
0.082670
0.138207
0.203154
0.293291
0.371195
0.449958
0.520832
0.567289
0.589718
0.608128
0.641673
0.648203
0.655187
0.641096
0.632131
0.622790
0.599494
0.591590
0.602869
0.598418
0.579551
0.607127
0.604325
0.629273
0.620915
0.591624
0.545110
0.500774
0.453258
0.396021
0.337048
0.262392
0.184760
0.107562
0.045516
-0.013573
-0.043046
-0.048749
-0.056267
-0.058020
-0.048439
-0.029966
0.000111
0.045510
0.080613
0.115663
0.157161
0.164012
0.160016
0.136189
0.111211
0.069830
0.034035
-0.005857
-0.059148
-0.095347
-0.139782
-0.155481
-0.168568
-0.171152
-0.149396
-0.100130
-0.059670
-0.035855
0.006695
0.061785
0.092305
0.104570
0.095367
0.080026
0.063481
0.030023
-0.004774
-0.033117
-0.098615
-0.149543
-0.193096
-0.190859
-0.190908
-0.176767
-0.152605
-0.118247
-0.074570
-0.048753
-0.000232
0.050692
0.090459
0.130652
0.126574
0.104174
0.066370
0.032917
-0.009183
-0.056441
-0.087424
-0.144133
-0.183275
-0.189656
-0.179186
-0.180086
-0.164088
-0.127618
-0.073992
-0.026537
0.008250
0.047771
0.091043
0.112412
0.112548
0.102396
0.074485
0.039785
-0.004042
-0.039138
-0.079873
-0.127688
-0.158493
-0.152900
-0.148535
-0.144995
-0.130454
-0.094865
-0.061085
-0.010421
0.033828
0.060240
0.093293
0.133253
0.153947
0.140402
0.123444
0.063165
0.024653
-0.016964
-0.048834
-0.071839
-0.110050
-0.138144
-0.150133
-0.129126
-0.117465
-0.082615
-0.034245
0.030609
0.059875
0.104670
0.137305
0.146875
0.164150
0.151828
0.144664
0.116021
0.070406
0.022565
-0.025306
-0.068369
-0.078424
-0.088582
-0.106162
-0.107049
-0.076811
-0.040622
0.001105
0.034331
0.085123
0.134734
0.142232
0.159094
0.191964
0.189664
0.162037
0.139088
0.102040
0.057017
0.013133
-0.032226
-0.051195
-0.076523
-0.083159
-0.071967
-0.051813
-0.013810
0.013155
0.053769
0.099276
0.129592
0.156392
0.187990
0.194029
0.192460
0.164581
0.134029
0.104809
0.059014
0.013391
-0.029871
-0.069073
-0.091510
-0.092190
-0.085249
-0.054186
-0.032078
0.010708
0.056263
0.110627
0.140451
0.162050
0.178041
0.179600
0.168210
0.140270
0.100231
0.069968
0.031223
-0.023793
-0.065699
-0.094088
-0.102934
-0.111927
-0.098809
-0.077498
-0.038657
-0.006163
0.030003
0.087057
0.127231
0.151475
0.159802
0.149847
0.148877
0.125528
0.096024
0.054437
-0.006386
-0.065654
-0.114216
-0.143570
-0.152566
-0.151474
-0.129614
-0.114063
-0.104577
-0.062960
-0.011972
0.029346
0.068360
0.100109
0.143583
0.142654
0.111269
0.085510
0.054069
0.003209
-0.041156
-0.079759
-0.118257
-0.145471
-0.177524
-0.191582
-0.162633
-0.157180
-0.125404
-0.078567
-0.031630
0.018102
0.059112
0.094512
0.108610
0.113551
0.101134
0.085838
0.047605
0.010597
-0.041991
-0.105739
-0.154638
-0.182704
-0.189829
-0.185563
-0.194034
-0.163217
-0.134502
-0.113825
-0.067769
-0.005004
0.046848
0.085137
0.102724
0.101957
0.087133
0.062675
0.027432
-0.016593
-0.056246
-0.092231
-0.128723
-0.174386
-0.208251
-0.206676
-0.196898
-0.184615
-0.144583
-0.105395
-0.041252
-0.001111
0.027747
0.052998
0.100968
0.096149
0.092722
0.070940
0.038911
-0.004885
-0.055444
-0.082349
-0.127313
-0.155341
-0.175983
-0.189757
-0.176074
-0.153884
-0.133058
-0.087077
-0.036519
0.017768
0.059087
0.080286
0.107809
0.093050
0.064391
0.049098
0.032484
0.012865
-0.042307
-0.066667
-0.127215
-0.178212
-0.171649
-0.168965
-0.169440
-0.145332
-0.120845
-0.086477
-0.027185
0.021719
0.044642
0.066945
0.082915
0.066015
0.067005
0.057407
0.034084
0.002782
-0.037422
-0.073837
-0.087894
-0.127940
-0.156501
-0.156910
-0.150240
-0.145354
-0.128010
-0.089298
-0.023306
0.017488
0.052175
0.075964
0.099521
0.102836
0.087515
0.057040
0.013045
-0.004825
-0.046269
-0.097533
-0.115387
-0.141008
-0.171040
-0.169840
-0.169123
-0.151167
-0.118058
-0.060842
-0.012653
0.019186
0.050677
0.082548
0.109935
0.117260
0.090159
0.046491
0.015871
-0.007949
-0.055783
-0.079628
-0.132149
-0.183290
-0.199496
-0.195398
-0.187985
-0.152880
-0.109638
-0.091502
-0.057809
0.014524
0.046899
0.076642
0.096271
0.102144
0.092899
0.070929
0.026850
-0.005970
-0.057442
-0.115127
-0.153100
-0.169833
-0.200689
-0.203908
-0.193349
-0.177737
-0.135748
-0.092783
-0.050111
-0.001923
0.030562
0.062674
0.081646
0.097755
0.090626
0.056916
0.016027
-0.034939
-0.062999
-0.096566
-0.135509
-0.175355
-0.203266
-0.219647
-0.210508
-0.190367
-0.142441
-0.106688
-0.064847
-0.001254
0.024839
0.051540
0.080451
0.084740
0.080365
0.078085
0.066067
0.027277
-0.050374
-0.103832
-0.124448
-0.176280
-0.203110
-0.192031
-0.160287
-0.142174
-0.112538
-0.084105
-0.049584
-0.010353
0.050312
0.097843
0.126538
0.112706
0.108906
0.093260
0.086381
0.048225
0.007230
-0.053058
-0.116984
-0.151130
-0.160545
-0.159508
-0.154457
-0.130588
-0.102514
-0.070453
-0.030910
0.004602
0.033826
0.083859
0.106425
0.116212
0.117153
0.103674
0.068039
0.028326
-0.016733
-0.055539
-0.091442
-0.097787
-0.145695
-0.163292
-0.151168
-0.109685
-0.066435
-0.017385
0.013012
0.052537
0.091554
0.138163
0.148636
0.127490
0.103348
0.070314
0.035385
-0.011374
-0.044901
-0.086420
-0.134432
-0.167184
-0.176636
-0.184129
-0.169653
-0.138795
-0.119242
-0.079984
-0.040965
0.018175
0.043694
0.079051
0.094077
0.107156
0.078790
0.024592
0.007794
-0.023929
-0.077835
-0.114750
-0.151697
-0.179120
-0.230888
-0.253554
-0.220464
-0.183843
-0.149194
-0.117259
-0.061493
-0.018950
0.021333
0.053188
0.064656
0.056944
0.060359
0.037910
0.021336
-0.040679
-0.098242
-0.147069
-0.211397
-0.194717
-0.224984
-0.227460
-0.221918
-0.184962
-0.141309
-0.128792
-0.103143
-0.035422
0.013085
0.042878
0.067713
0.066485
0.069135
0.034421
0.000333
-0.036184
-0.086378
-0.133097
-0.184989
-0.211447
-0.253863
-0.236022
-0.207989
-0.208337
-0.187898
-0.160952
-0.099236
-0.039821
0.012501
0.056158
0.080977
0.082504
0.078187
0.056437
0.001363
-0.054893
-0.094319
-0.142453
-0.193972
-0.212601
-0.236962
-0.234187
-0.233795
-0.220109
-0.191101
-0.138762
-0.106060
-0.067075
-0.007437
0.044055
0.067016
0.057958
0.047255
0.013676
-0.029885
-0.068837
-0.109685
-0.143218
-0.166711
-0.202652
-0.218524
-0.212601
-0.195873
-0.171746
-0.126657
-0.064527
0.019054
0.066749
0.120742
0.162231
0.222066
0.246869
0.255620
0.277212
0.276730
0.230329
0.213131
0.198848
0.204798
0.240992
0.250016
0.250798
0.295874
0.340232
0.439592
0.511419
0.593097
0.675556
0.725071
0.803324
0.880834
0.908146
0.905519
0.902330
0.863658
0.805011
0.721119
0.664022
0.608797
0.562871
0.504557
0.423169
0.348265
0.281150
0.264176
0.235258
0.231068
0.226043
0.221792
0.240890
0.259868
0.277246
0.289809
0.260456
0.179525
0.128406
0.083103
-0.000416
-0.058767
-0.082676
-0.096015
-0.104743
-0.120021
-0.108501
-0.075553
-0.031147
-0.009375
0.025560
0.081663
0.123830
0.135511
0.140612
0.139114
0.094378
0.055532
0.011285
-0.031297
-0.068748
-0.105234
-0.136341
-0.148649
-0.164894
-0.177956
-0.146387
-0.095849
-0.077240
-0.033669
0.015463
0.040918
0.063059
0.093548
0.103823
0.087804
0.080688
0.038536
0.002671
-0.058672
-0.104771
-0.133149
-0.161738
-0.190976
-0.201602
-0.182051
-0.165571
-0.102863
-0.054129
-0.023234
0.013885
0.058258
0.099319
0.124265
0.117355
0.114072
0.109351
0.079964
0.040250
-0.021037
-0.094094
-0.148791
-0.198949
-0.198850
-0.180604
-0.150012
-0.123935
-0.079764
-0.066679
-0.045067
0.012480
0.062618
0.092117
0.125301
0.114852
0.102663
0.105120
0.077696
0.055904
-0.009108
-0.059674
-0.129210
-0.148982
-0.173649
-0.152569
-0.143907
-0.121970
-0.081457
-0.055540
0.000599
0.034384
0.075236
0.108918
0.143421
0.174246
0.168094
0.138861
0.104481
0.060642
0.001228
-0.055081
-0.105424
-0.126250
-0.154009
-0.125587
-0.097966
-0.086383
-0.092961
-0.047801
0.012170
0.085690
0.118018
0.159168
0.177237
0.179383
0.193009
0.161535
0.133692
0.095826
0.072925
0.018092
-0.027956
-0.084306
-0.066753
-0.049630
-0.066560
-0.084973
-0.058256
-0.000300
0.052132
0.109886
0.144569
0.198194
0.245930
0.231802
0.180316
0.166866
0.138738
0.109705
0.064085
0.033449
0.002273
-0.027036
-0.054366
-0.069809
-0.075110
-0.046965
-0.034954
0.001478
0.045064
0.104890
0.138122
0.185775
0.240407
0.231048
0.210377
0.188009
0.153016
0.111946
0.069091
0.033773
0.001567
-0.067372
-0.081755
-0.092389
-0.080626
-0.057417
-0.007687
0.012510
0.028739
0.077551
0.129829
0.149851
0.177716
0.198114
0.181852
0.171532
0.115495
0.084053
0.044365
-0.008908
-0.019888
-0.060301
-0.097169
-0.115966
-0.108156
-0.087807
-0.034041
0.001380
0.028349
0.075694
0.091788
0.138127
0.170781
0.140245
0.127074
0.087988
0.036367
-0.003884
-0.004425
-0.040689
-0.090273
-0.120602
-0.142977
-0.155999
-0.154503
-0.086523
-0.051430
-0.056306
-0.020869
0.038651
0.054209
0.083533
0.116395
0.100200
0.087498
0.068480
0.023545
0.003991
-0.016687
-0.063567
-0.101786
-0.179857
-0.202933
-0.216676
-0.180208
-0.119205
-0.104172
-0.081865
0.001101
0.044885
0.047075
0.062254
0.081736
0.107309
0.106511
0.052297
0.029032
0.005056
-0.038778
-0.095004
-0.149177
-0.184104
-0.179043
-0.169492
-0.166181
-0.144433
-0.123440
-0.078955
-0.029914
0.012082
0.025735
0.045787
0.079740
0.074425
0.073155
0.055589
0.039259
-0.003097
-0.051112
-0.090092
-0.134362
-0.161014
-0.165700
-0.167840
-0.180063
-0.163659
-0.130482
-0.086820
-0.017070
0.017458
0.041846
0.085146
0.119758
0.100353
0.084023
0.071188
0.039658
0.002546
-0.040370
-0.076153
-0.136335
-0.164812
-0.172873
-0.183918
-0.198968
-0.176963
-0.129396
-0.069300
-0.043034
0.008847
0.050074
0.095188
0.090845
0.107342
0.109129
0.102244
0.030897
0.005235
-0.026229
-0.069647
-0.095869
-0.146745
-0.172932
-0.187638
-0.183735
-0.150466
-0.106889
-0.070138
-0.039243
0.004480
0.054048
0.082876
0.118621
0.122088
0.100538
0.081956
0.065872
0.021543
-0.029864
-0.087432
-0.142516
-0.163348
-0.163071
-0.161604
-0.147378
-0.158644
-0.131085
-0.082852
-0.027928
0.018357
0.057265
0.083678
0.092260
0.081361
0.103215
0.082322
0.058355
0.022717
-0.034213
-0.066338
-0.103072
-0.137061
-0.172221
-0.179505
-0.176388
-0.168190
-0.122498
-0.097137
-0.057361
-0.016109
0.038048
0.076709
0.095974
0.099528
0.094469
0.085540
0.059684
0.020324
-0.020563
-0.080826
-0.119525
-0.163497
-0.186616
-0.202585
-0.184210
-0.165766
-0.132301
-0.083572
-0.039189
0.017054
0.068862
0.081299
0.096261
0.087562
0.062945
0.048705
0.043715
0.005242
-0.026972
-0.083615
-0.127848
-0.162040
-0.163880
-0.184882
-0.205553
-0.178131
-0.123384
-0.092535
-0.067591
-0.012479
0.039871
0.076750
0.085299
0.083051
0.083816
0.071695
0.046411
-0.001085
-0.043047
-0.105832
-0.150929
-0.173246
-0.208172
-0.200782
-0.175380
-0.135116
-0.119354
-0.097120
-0.053335
-0.012130
0.018312
0.054926
0.066594
0.072357
0.078734
0.061313
0.037611
0.006066
-0.047943
-0.092890
-0.134224
-0.183979
-0.229169
-0.201384
-0.163434
-0.135153
-0.095205
-0.072416
-0.022136
-0.003586
0.053141
0.071614
0.064756
0.066528
0.088779
0.083422
0.058407
0.017851
-0.046197
-0.086157
-0.113295
-0.138970
-0.176988
-0.190406
-0.170228
-0.127306
-0.084749
-0.063221
-0.024609
0.035253
0.091190
0.101719
0.115683
0.115859
0.104097
0.075165
0.056814
0.053483
0.012676
-0.062813
-0.140325
-0.156999
-0.149239
-0.178702
-0.162021
-0.113653
-0.094366
-0.037144
