0.067123
0.099218
0.130109
0.184337
0.216021
0.226960
0.218032
0.189241
0.164883
0.120327
0.060230
-0.010355
-0.054640
-0.085975
-0.095809
-0.108121
-0.117505
-0.102159
-0.089105
-0.065984
-0.026184
0.056115
0.104892
0.162556
0.222568
0.202933
0.173416
0.139696
0.101263
0.080324
0.037045
-0.027247
-0.075499
-0.117069
-0.143132
-0.159091
-0.155693
-0.141186
-0.108941
-0.067416
-0.032594
-0.006872
0.111131
0.135752
0.138194
0.147277
0.145792
0.120780
0.087266
0.038724
-0.021275
-0.085064
-0.116749
-0.154243
-0.166616
-0.170632
-0.167987
-0.153740
-0.122389
-0.094302
-0.050894
0.017205
0.072676
0.116268
0.115840
0.108107
0.120733
0.098094
0.058796
0.018142
-0.016880
-0.064893
-0.111755
-0.153069
-0.176636
-0.172838
-0.157120
-0.122285
-0.092671
-0.052218
-0.008141
0.047804
0.097592
0.115078
0.119870
0.121937
0.114658
0.095719
0.078723
0.026705
-0.021324
-0.068963
-0.105134
-0.137679
-0.155606
-0.160177
-0.149816
-0.124065
-0.091987
-0.062779
-0.021483
0.026970
0.052730
0.081977
0.109247
0.126446
0.128062
0.108479
0.084000
0.051940
-0.005484
-0.088098
-0.147035
-0.165922
-0.117990
-0.106991
-0.132916
-0.129844
-0.110856
-0.080072
-0.029979
0.055645
0.132808
0.154784
0.163784
0.158664
0.138863
0.113439
0.084699
0.034399
-0.013339
-0.055476
-0.100488
-0.135996
-0.159321
-0.166733
-0.148558
-0.126554
-0.100758
-0.069358
-0.023521
0.024343
0.064591
0.095696
0.120875
0.112182
0.099879
0.120151
0.138240
0.099717
0.013485
-0.055030
-0.105340
-0.143817
-0.158756
-0.164935
-0.148134
-0.121556
-0.091469
-0.049928
-0.015075
0.037454
0.070119
0.105949
0.136591
0.150802
0.146928
0.113344
0.082627
0.039316
-0.026462
-0.079613
-0.122974
-0.162601
-0.182250
-0.175209
-0.161945
-0.142582
-0.123432
-0.080530
-0.031562
0.027948
0.080350
0.116805
0.137879
0.161156
0.141708
0.098026
0.063662
0.017772
-0.025856
-0.070654
-0.110385
-0.161335
-0.176777
-0.175264
-0.153641
-0.149570
-0.121935
-0.072223
-0.021458
0.025670
0.073982
0.087284
0.139472
0.139980
0.131295
0.099834
0.065775
0.023338
-0.007610
-0.054018
-0.104995
-0.138086
-0.161461
-0.178573
-0.164464
-0.134667
-0.118850
-0.079617
-0.038547
0.021617
0.053070
0.096693
0.113607
0.115662
0.119769
0.091862
0.053950
-0.009623
-0.053429
-0.071762
-0.121453
-0.142027
-0.176017
-0.163447
-0.145547
-0.142196
-0.122955
-0.082926
-0.023604
0.017561
0.062520
0.091808
0.118114
0.112271
0.102800
0.073202
0.039011
-0.010371
-0.056303
-0.099879
-0.146646
-0.176122
-0.180693
-0.172710
-0.147233
-0.140484
-0.121111
-0.076161
-0.052265
-0.025139
0.055212
0.092589
0.085641
0.102897
0.113119
0.081214
0.055165
0.010280
-0.027537
-0.081524
-0.144135
-0.173698
-0.191390
-0.181413
-0.169172
-0.153215
-0.104648
-0.055801
-0.014865
0.040273
0.065827
0.117173
0.149899
0.169862
0.129823
0.096489
0.063387
0.018313
-0.015583
-0.057250
-0.095214
-0.104809
-0.123258
-0.148541
-0.147814
-0.117440
-0.079016
-0.035115
0.039856
0.074388
0.090238
0.112971
0.133255
0.140407
0.124335
0.123779
0.102570
0.049481
-0.006319
-0.057169
-0.093652
-0.125111
-0.153623
-0.151836
-0.135906
-0.118998
-0.077789
-0.033997
0.004030
0.061368
0.108314
0.141753
0.161526
0.162241
0.141696
0.137459
0.110014
0.070247
0.017481
-0.041225
-0.092998
-0.147131
-0.130764
-0.147183
-0.146552
-0.124139
-0.100787
-0.058016
-0.017776
0.030639
0.078153
0.124329
0.154540
0.152966
0.120252
0.090255
0.066311
0.029627
-0.024166
-0.080491
-0.113342
-0.154179
-0.188179
-0.206736
-0.178653
-0.147982
-0.135126
-0.099129
-0.040122
0.007521
0.054762
0.098687
0.105101
0.110187
0.100546
0.075544
0.038988
-0.016087
-0.082232
-0.120482
-0.131248
-0.138725
-0.171039
-0.196647
-0.197383
-0.183272
-0.161433
-0.134404
-0.064202
0.002657
0.032199
0.071535
0.094137
0.098751
0.089294
0.061166
0.019514
-0.025206
-0.060739
-0.113353
-0.140469
-0.171267
-0.188889
-0.193752
-0.194265
-0.178565
-0.149608
-0.112156
-0.067711
-0.029516
0.010596
0.035179
0.061214
0.070040
0.062729
0.048495
0.021820
-0.010737
-0.045002
-0.081082
-0.147161
-0.173797
-0.183936
-0.175625
-0.165584
-0.150422
-0.124920
-0.091086
-0.051256
0.000220
0.031738
0.041360
0.060581
0.073147
0.063683
0.042290
0.028343
-0.009146
-0.057658
-0.121934
-0.169185
-0.201634
-0.222851
-0.229689
-0.213875
-0.199547
-0.165685
-0.114473
-0.059331
-0.017382
0.019537
0.062580
0.096659
0.115540
0.132254
0.120850
0.101513
0.070107
0.010635
-0.022702
-0.040189
-0.024635
-0.014973
-0.001826
-0.011436
0.002772
0.050652
0.148370
0.236190
0.323654
0.379350
0.448750
0.498159
0.558565
0.598365
0.638219
0.590684
0.554452
0.568834
0.553989
0.553895
0.542394
0.555959
0.581935
0.616811
0.626253
0.640660
0.676987
0.716215
0.748321
0.753962
0.754925
0.741359
0.727372
0.645798
0.556486
0.460393
0.374033
0.288965
0.191732
0.102855
0.012473
-0.035095
-0.053851
-0.049273
-0.027069
0.020501
0.054468
0.097997
0.125133
0.167396
0.186022
0.197596
0.202292
0.204522
0.182826
0.139195
0.083127
0.035087
-0.019448
-0.067153
-0.101133
-0.131138
-0.145332
-0.136279
-0.122189
-0.095365
-0.057906
-0.020993
0.040499
0.086633
0.110180
0.138443
0.144036
0.135878
0.110021
0.077027
0.046063
0.002709
-0.038458
-0.081708
-0.122211
-0.150939
-0.156206
-0.156493
-0.156602
-0.119753
-0.072198
-0.033293
0.015163
0.061725
0.094355
0.122922
0.144843
0.136081
0.119003
0.088197
0.045809
-0.004897
-0.047433
-0.094146
-0.135954
-0.152390
-0.156582
-0.161008
-0.138144
-0.104128
-0.063300
0.001046
0.053605
0.098533
0.136036
0.154748
0.145976
0.135658
0.126656
0.103865
0.051078
0.002451
-0.029924
-0.053137
-0.096700
-0.142454
-0.146891
-0.133849
-0.115703
-0.082892
-0.051429
-0.003392
0.045736
0.104220
0.146927
0.161719
0.165321
0.186655
0.179887
0.137374
0.082506
0.026659
-0.006084
-0.040199
-0.063265
-0.091770
-0.091442
-0.106782
-0.087677
-0.054328
-0.014438
0.036606
0.078908
0.127831
0.163993
0.193399
0.205413
0.199746
0.179594
0.162235
0.123349
0.077810
0.015377
-0.025262
-0.062450
-0.076616
-0.095337
-0.096376
-0.064195
-0.033641
0.019233
0.060024
0.120941
0.168841
0.204285
0.232252
0.248709
0.242073
0.244846
0.205917
0.158392
0.103358
0.048649
0.018656
-0.008139
-0.030348
-0.037656
-0.034593
-0.016902
0.015591
0.065079
0.103853
0.152320
0.198142
0.226312
0.251362
0.265151
0.245622
0.217969
0.187989
0.159669
0.112556
0.062016
0.024442
-0.009458
-0.022550
-0.030416
-0.026415
-0.012393
0.015012
0.060055
0.106196
0.160153
0.204196
0.255490
0.267371
0.272734
0.252596
0.231886
0.206022
0.162180
0.097480
0.046366
0.009772
-0.044176
-0.070258
-0.075389
-0.083709
-0.084938
0.001375
0.087576
0.116461
0.135218
0.160567
0.189493
0.227428
0.248611
0.238131
0.202788
0.174725
0.138232
0.080930
-0.012385
-0.040053
-0.086180
-0.086594
-0.080976
-0.086130
-0.084058
-0.056566
0.000323
0.039321
0.086878
0.123612
0.156451
0.186747
0.190855
0.181677
0.136614
0.094242
0.051480
-0.003723
-0.065250
-0.104552
-0.082892
-0.117316
-0.146014
-0.133491
-0.108434
-0.083944
-0.059294
-0.026534
0.019833
0.068950
0.112849
0.139144
0.151423
0.135485
0.121155
0.085521
0.035020
-0.012418
-0.060677
-0.112004
-0.150999
-0.174244
-0.176799
-0.151311
-0.144371
-0.128953
-0.090340
-0.029418
0.035581
0.068582
0.091441
0.108215
0.134497
0.090195
0.096398
0.074355
0.007311
-0.046980
-0.094554
-0.097515
-0.148299
-0.178079
-0.196353
-0.204738
-0.174918
-0.137881
-0.075708
-0.013530
0.026377
0.050444
0.075715
0.099988
0.108158
0.102685
0.086136
0.042093
-0.012628
-0.051570
-0.085005
-0.093487
-0.134650
-0.182202
-0.205353
-0.180045
-0.152997
-0.130963
-0.089886
-0.049356
0.004531
0.047720
0.114822
0.133721
0.128932
0.124257
0.108899
0.084897
0.035234
-0.029423
-0.090424
-0.123660
-0.157521
-0.190053
-0.184102
-0.160073
-0.163337
-0.134607
-0.097853
-0.038148
0.023464
0.073211
0.111678
0.124566
0.140796
0.118314
0.112583
0.086708
0.049779
-0.002821
-0.056128
-0.104498
-0.165076
-0.183126
-0.192463
-0.183757
-0.168814
-0.117860
-0.072873
-0.047629
0.001350
0.052807
0.085337
0.114347
0.140189
0.134644
0.107677
0.067865
0.016002
-0.031400
-0.074591
-0.104780
-0.153498
-0.172361
-0.183883
-0.183978
-0.166740
-0.131099
-0.088303
-0.036658
0.018302
0.058106
0.100629
0.114090
0.133540
0.121458
0.107991
0.067649
0.022551
-0.024902
-0.065336
-0.113309
-0.147952
-0.182779
-0.188535
-0.175903
-0.159577
-0.130117
-0.082239
-0.018810
0.024959
0.076356
0.107083
0.120840
0.119519
0.112397
0.091801
0.056161
0.021885
-0.015612
-0.072826
-0.116383
-0.155168
-0.168825
-0.171573
-0.158290
-0.158438
-0.132255
-0.093633
-0.040055
0.003029
0.050711
0.076399
0.085822
0.113874
0.106591
0.090126
0.052997
0.014597
-0.032673
-0.092462
-0.135934
-0.160913
-0.183717
-0.183355
-0.162430
-0.139306
-0.133737
-0.104544
-0.049638
0.014766
0.065781
0.087800
0.105062
0.105358
0.101360
0.083671
0.048852
0.007398
-0.038170
-0.084137
-0.130581
-0.170069
-0.198623
-0.214231
-0.204334
-0.192267
-0.162761
-0.107856
-0.055077
-0.012999
0.024801
0.066468
0.102663
0.121935
0.119673
0.078306
0.052981
0.011545
-0.042075
-0.081541
-0.137232
-0.171444
-0.211560
-0.201814
-0.190114
-0.173612
-0.139459
-0.086199
-0.044981
-0.005114
0.029978
0.062421
0.083831
0.098103
0.092766
0.071102
0.030134
-0.016781
-0.051625
-0.094031
-0.145641
-0.184736
-0.204051
-0.169257
-0.155678
-0.132796
-0.093887
-0.049519
-0.010177
0.044362
0.085961
0.110574
0.133408
0.138673
0.134954
0.126552
0.082495
0.037733
-0.014195
-0.063265
-0.116169
-0.160609
-0.172709
-0.176339
-0.173632
-0.157305
-0.132625
-0.095042
-0.017344
0.035171
0.070588
0.106690
0.134426
0.141739
0.131559
0.131288
0.104214
0.072623
0.024768
-0.028755
-0.089889
-0.134396
-0.155084
-0.152678
-0.162455
-0.145711
-0.107094
-0.067147
-0.001031
0.065147
0.093119
0.120972
0.133178
0.136978
0.126250
0.093029
0.055516
0.002320
-0.046275
-0.077881
-0.114502
-0.137136
-0.172166
-0.191178
-0.177494
-0.172044
-0.116283
-0.066295
-0.036782
0.013741
0.045948
0.076661
0.092299
0.099678
0.101012
0.075470
0.028180
-0.021102
-0.063661
-0.124192
-0.171284
-0.195723
-0.214318
-0.224168
-0.222839
-0.194323
-0.160019
-0.149397
-0.088138
-0.029093
0.035897
0.067162
0.062749
0.067070
0.049417
0.038544
0.023803
0.003133
-0.058899
-0.144650
-0.156290
-0.190637
-0.222296
-0.227315
-0.221378
-0.208645
-0.174898
-0.143368
-0.069636
-0.033970
-0.000418
0.041707
0.078393
0.086152
0.062158
0.040742
0.041887
-0.012681
-0.065758
-0.125742
-0.177143
-0.198171
-0.230301
-0.238624
-0.222935
-0.208347
-0.172725
-0.122659
-0.081533
-0.041492
0.007497
0.056701
0.087297
0.072623
0.053104
0.027153
-0.000445
-0.035442
-0.082748
-0.135312
-0.188095
-0.210473
-0.227511
-0.241438
-0.230483
-0.199555
-0.164908
-0.128944
-0.077836
-0.005681
0.017769
0.027435
0.053598
0.077016
0.061080
0.037496
0.019553
-0.018087
-0.063939
-0.102040
-0.113318
-0.150060
-0.170286
-0.179056
-0.150049
-0.111941
-0.062350
0.009544
0.068220
0.119833
0.161238
0.209173
0.264546
0.293532
0.323026
0.338952
0.326534
0.296292
0.275787
0.256443
0.242213
0.238469
0.251746
0.254360
0.291946
0.341711
0.415769
0.493604
0.556849
0.636859
0.726637
0.797015
0.831219
0.853277
0.833937
0.816502
0.764338
0.715131
0.658704
0.564653
0.473014
0.377637
0.279771
0.204166
0.152891
0.155432
0.134954
0.150640
0.168407
0.171563
0.186638
0.200442
0.208230
0.228752
0.161921
0.140382
0.105381
0.070000
0.009975
-0.040892
-0.096015
-0.144957
-0.146449
-0.115260
-0.130944
-0.084704
-0.080972
-0.032293
0.005264
0.043949
0.087455
0.110890
0.132999
0.137360
0.137074
0.108593
0.061388
0.023814
-0.026174
-0.068328
-0.120066
-0.151609
-0.180415
-0.190822
-0.182043
-0.169284
-0.128984
-0.074712
-0.013907
0.043137
0.086828
0.120314
0.129011
0.140886
0.130041
0.091859
0.057567
0.021240
-0.028224
-0.092388
-0.124799
-0.156502
-0.174600
-0.187331
-0.187306
-0.169883
-0.135702
-0.098797
-0.052295
0.012622
0.073644
0.100455
0.114554
0.126512
0.128552
0.111436
0.075276
0.026798
-0.016758
-0.079560
-0.123648
-0.136047
-0.159056
-0.168325
-0.145535
-0.124858
-0.102303
-0.071314
-0.016512
0.049074
0.104043
0.125173
0.142800
0.130641
0.119975
0.108979
0.076996
0.019328
-0.029112
-0.036922
-0.075361
-0.096534
-0.106375
-0.127875
-0.130344
-0.119128
-0.079271
-0.036125
0.011391
0.064070
0.096258
0.129359
0.159513
0.184830
0.177230
0.150112
0.106351
0.064373
0.020848
-0.020598
-0.062349
-0.088233
-0.101096
-0.099293
-0.098124
-0.039434
-0.003595
0.031963
0.056277
0.095520
0.111521
0.143857
0.185608
0.200122
0.205178
0.189319
0.167720
0.117716
0.073679
0.016422
-0.024729
-0.044478
-0.069112
-0.066118
-0.061403
-0.047517
-0.013942
0.028346
0.074141
0.129556
0.170761
0.208992
0.223986
0.229410
0.225118
0.207006
0.179114
0.138066
0.093894
0.052527
-0.001850
-0.030853
-0.049341
-0.054487
-0.061966
-0.049565
0.020436
0.065638
0.086713
0.123321
0.164910
0.203690
0.225464
0.220853
0.236360
0.210772
0.174493
0.121644
0.080823
0.030579
-0.027251
-0.053385
-0.080376
-0.075935
-0.050045
-0.037419
-0.010471
0.029802
0.060370
0.126271
0.167977
0.194211
0.209135
0.237329
0.260490
0.211004
0.145143
0.090131
0.032524
-0.010757
-0.062927
-0.105110
-0.134084
-0.128212
-0.079636
-0.073838
-0.048837
-0.008723
0.040776
0.090691
0.107393
0.143900
0.166094
0.168464
0.144419
0.106974
0.116280
0.087290
0.040832
-0.013564
-0.069687
-0.125869
-0.149081
-0.155995
-0.151516
-0.130038
-0.099035
-0.059853
-0.014333
0.032818
0.076714
0.110429
0.121629
0.135846
0.128537
0.104700
0.070170
0.019001
-0.029185
-0.081017
-0.114166
-0.140279
-0.163994
-0.179973
-0.175770
-0.154071
-0.118712
-0.086602
-0.043081
0.014347
0.049124
0.072463
0.098739
0.103000
0.099729
0.082174
0.044784
-0.007341
-0.061866
-0.102112
-0.130818
-0.170349
-0.186923
-0.193820
-0.192709
-0.181872
-0.164319
-0.106881
-0.035795
0.020163
0.030755
0.060738
0.089792
0.101409
0.071726
0.077760
0.017785
-0.021250
-0.058290
-0.109242
-0.143160
-0.177862
-0.201458
-0.214215
-0.200086
-0.181712
-0.154886
-0.101028
-0.060663
-0.027791
0.026066
0.078919
0.086244
0.083312
0.078163
0.074911
0.042307
-0.003649
-0.041488
-0.091181
-0.139845
-0.178752
-0.200668
-0.229604
-0.217436
-0.190883
-0.146540
-0.096167
-0.026645
0.047628
0.074834
0.083986
0.101167
0.102948
0.089742
0.067648
0.035822
-0.000467
-0.047111
-0.091013
-0.122837
-0.138983
-0.148343
-0.177826
-0.196409
-0.169986
-0.122805
-0.074435
-0.034919
0.011895
0.036474
0.073874
0.109182
0.108592
0.100139
0.068029
0.034165
0.014673
-0.018629
-0.073337
-0.093737
-0.138688
-0.179749
-0.180639
-0.178347
-0.161163
-0.143660
-0.122058
-0.042594
0.015371
0.056180
0.086136
0.095564
0.111413
0.104492
0.085708
0.057299
0.015336
-0.033351
-0.099750
-0.138032
-0.172326
-0.190499
-0.205552
-0.205027
-0.186612
-0.130653
-0.079205
-0.033580
-0.000119
0.032441
0.078068
0.097770
0.109870
0.091620
0.076408
0.052686
0.019111
-0.032242
-0.097812
-0.137364
-0.180394
-0.218540
-0.183921
-0.186445
-0.170385
-0.147738
-0.111631
-0.057406
-0.005047
0.036489
0.074860
0.091728
0.088996
0.078074
0.064475
0.034659
-0.007538
-0.044666
-0.100218
-0.133686
-0.154128
-0.178806
-0.188840
-0.194922
-0.182720
-0.145204
-0.098863
-0.059291
-0.009156
0.025605
0.060923
0.089011
0.100678
0.082361
0.071696
0.032826
-0.013835
-0.055529
-0.107435
-0.155367
-0.180834
-0.205581
-0.215164
-0.213077
-0.188641
-0.148436
-0.112062
-0.077042
-0.025259
0.028629
0.059172
0.076004
0.082127
0.082784
0.045823
0.004308
-0.030473
-0.054447
-0.099618
-0.153433
-0.182906
-0.204365
-0.212938
-0.222943
-0.191309
-0.145138
-0.103964
-0.052007
-0.004389
0.024218
0.061222
0.094041
0.120012
0.102535
0.084314
0.042095
-0.012838
-0.061082
-0.097436
-0.140453
-0.180475
-0.206091
-0.214109
-0.204958
-0.176922
-0.124413
-0.098646
-0.064775
0.012468
0.073976
0.097597
0.120847
0.123139
0.123729
0.099265
0.094833
0.031536
-0.020957
-0.070544
-0.115432
-0.160940
-0.204031
-0.223310
-0.183376
-0.138018
-0.145209
-0.115717
-0.070024
-0.016013
0.039023
0.089217
0.140457
0.140714
0.121797
0.114374
0.087593
0.032465
-0.019745
-0.065180
-0.105693
-0.146878
-0.159418
-0.177655
-0.184189
-0.146979
-0.112815
-0.095453
-0.064799
0.002900
0.086621
0.141692
0.156882
0.133598
0.096667
0.095726
0.071226
0.053292
-0.029766
-0.082532
-0.136746
-0.174346
-0.182858
-0.211705
-0.208889
-0.182396
-0.146823
-0.111077
-0.078436
-0.015685
0.014907
0.044061
0.079502
0.110286
0.095989
0.098058
0.042970
-0.022916
-0.075225
-0.140657
-0.185386
-0.210943
-0.228054
-0.237972
-0.250779
-0.217882
-0.188502
-0.165272
-0.117738
-0.034539
0.055868
0.068666
0.061367
0.050811
0.047841
0.024696
0.002689
-0.040086
-0.081710
-0.125576
-0.168425
-0.222178
-0.221278
-0.230157
-0.226953
-0.220287
-0.183735
-0.131894
-0.091829
-0.046685
0.001882
0.038351
0.052399
0.061008
0.040144
0.030438
-0.003142
-0.057254
-0.107568
-0.160180
-0.163537
-0.207805
-0.220894
-0.235987
-0.250019
-0.259606
-0.219609
-0.167916
-0.110308
-0.076992
-0.011068
0.046284
0.056590
0.044991
0.042876
0.017080
-0.057014
-0.092364
-0.116698
-0.123420
-0.177311
-0.245537
-0.296249
-0.234986
-0.164813
-0.185762
-0.184921
-0.156220
-0.109355
-0.049979
-0.000729
0.042676
0.090974
0.072700
0.047050
0.024853
-0.006232
-0.036954
-0.075368
-0.132037
-0.166858
-0.194855
-0.210815
-0.209044
-0.195663
-0.142571
-0.085737
-0.029148
0.037255
0.095459
0.145516
0.196140
0.234379
0.262905
0.275490
0.289451
0.294522
0.273578
0.237671
0.216344
0.217573
0.213887
0.202261
0.221883
0.250980
0.297364
0.364100
0.462433
0.544149
0.630865
0.695159
0.764782
0.813947
0.840653
0.839992
0.824039
0.793349
0.730478
0.673856
0.593409
0.528630
0.451953
0.355549
0.251145
0.228930
0.209910
0.192451
0.178197
0.173436
0.189988
0.187524
0.208110
0.200730
0.191232
0.166718
0.144623
0.095800
0.029406
-0.000147
-0.009460
-0.062360
-0.098719
-0.138891
-0.153926
-0.163658
-0.126867
-0.086863
-0.055251
-0.018205
0.027172
0.063349
0.102432
0.123855
0.133588
0.121685
0.091605
0.048453
0.004484
-0.043198
-0.094713
-0.135220
-0.171871
-0.187122
-0.224172
-0.203057
-0.177248
-0.149252
-0.116032
-0.019524
0.041512
0.067416
0.099328
0.129666
0.138252
0.118819
0.089802
0.039082
-0.007567
-0.053129
-0.105150
-0.149392
-0.175200
-0.202389
-0.211762
-0.199953
-0.184500
-0.156314
-0.100754
-0.043263
0.016092
0.047740
0.089950
0.118748
0.130043
0.110986
0.084303
0.050550
-0.005423
-0.039485
-0.093132
-0.141258
-0.167704
-0.184820
-0.195016
-0.178501
-0.166639
-0.132261
-0.075223
-0.012630
0.039616
0.069351
0.097161
0.111567
0.115639
0.117280
0.110037
0.070480
0.016863
-0.014960
-0.054052
-0.093901
-0.126553
-0.166465
-0.206425
-0.162829
-0.131056
-0.089971
-0.052738
0.003373
0.069032
0.099403
0.126903
0.129436
0.152850
0.155709
0.115796
0.082775
0.052663
0.019035
-0.029701
-0.071198
-0.098801
-0.137161
-0.142285
-0.133304
-0.140054
-0.043605
0.021277
0.040908
0.079606
0.092110
0.129008
0.176539
0.207079
0.222406
0.193484
0.139662
0.093299
0.038535
-0.015989
-0.080987
-0.099108
-0.091435
-0.053846
-0.053816
-0.044909
-0.011767
0.035749
0.070350
0.124592
0.151708
0.187063
0.194504
0.206451
0.203165
0.183601
0.158022
0.107112
0.064471
0.028362
-0.013498
-0.057231
-0.105841
-0.128329
-0.103759
-0.061664
0.014803
0.057096
0.093834
0.139524
0.167948
0.194406
0.236222
0.250322
0.249893
0.213494
0.167922
0.123876
0.068844
0.012420
-0.040259
-0.063371
-0.078907
-0.086678
-0.063373
-0.059984
-0.047161
-0.000755
0.059465
0.102743
0.140441
0.153573
0.222511
0.226408
0.196227
0.161246
0.103351
0.074623
0.042969
-0.001709
-0.056497
-0.111380
-0.127190
-0.100284
-0.131737
-0.098742
-0.071081
-0.026561
0.008765
0.061076
0.108819
0.138979
0.148278
0.145554
0.132738
0.105961
0.073329
0.047336
0.010291
-0.021246
-0.082820
-0.130098
-0.155308
-0.153213
-0.155889
-0.131579
-0.083873
-0.038053
-0.014385
0.014937
0.051252
0.109461
0.122387
0.143666
0.106214
0.074761
0.054729
0.030181
0.002316
-0.058358
-0.129500
-0.169121
-0.188955
-0.186669
-0.173924
-0.154275
-0.131592
-0.092958
-0.055137
-0.003913
0.045489
0.074241
0.105255
0.103742
0.096248
0.072998
0.030892
-0.048267
-0.091118
-0.097227
-0.108408
-0.166678
-0.200520
-0.200607
-0.199317
-0.186037
-0.140051
-0.075867
-0.036458
0.013108
0.054508
0.075691
0.092779
0.081389
0.067995
0.056566
0.028780
-0.008724
-0.054662
-0.110834
-0.148585
-0.166618
-0.198417
-0.204173
-0.197632
-0.186194
-0.180322
-0.110450
-0.041531
0.042654
0.065925
0.077131
0.086103
0.090711
0.100427
0.111770
0.081592
0.028194
-0.029105
-0.085354
-0.123455
-0.149384
-0.193104
-0.210207
-0.207281
-0.204477
-0.138688
-0.075505
-0.042294
0.021289
0.055178
0.067530
0.089077
0.100615
0.097861
0.073461
0.035376
0.002826
-0.035523
-0.090043
-0.147578
-0.187939
-0.186113
-0.177985
-0.189691
-0.180729
-0.122453
-0.080681
-0.050725
0.000005
0.038072
0.062084
0.075889
0.108743
0.098972
0.077717
0.084881
0.044627
-0.014265
-0.083207
-0.119377
-0.135257
-0.158869
-0.172770
-0.159386
-0.151180
-0.123651
-0.083567
-0.040654
0.012619
0.060639
0.098796
0.112710
0.118579
0.088210
0.064846
0.052279
-0.015015
-0.021113
-0.045923
-0.088287
-0.135904
-0.171326
-0.199722
-0.194367
-0.168447
-0.137295
-0.102239
-0.055082
0.003188
0.041634
0.100244
0.123556
0.132918
0.117890
0.082303
0.044209
0.010873
-0.030677
-0.086916
-0.140397
-0.176148
-0.184956
-0.192067
-0.201370
-0.185248
-0.139442
-0.109018
-0.073962
0.016289
0.060731
0.076780
0.109339
0.117421
0.102557
0.076874
0.034069
-0.000533
-0.035368
-0.101718
-0.142298
-0.170576
-0.208991
-0.215954
-0.217093
-0.198444
-0.152365
-0.096117
-0.077135
-0.031402
0.047450
0.097144
0.119035
0.136874
0.118793
0.102594
0.063118
0.012081
-0.023529
-0.070999
-0.124998
-0.168293
-0.184382
-0.189907
-0.188933
-0.170875
-0.139511
-0.095515
-0.066562
-0.013118
0.024158
0.049957
0.080894
0.084726
0.059205
0.065677
0.047684
0.012280
-0.051449
-0.104444
-0.134854
-0.154179
-0.200836
-0.219037
-0.200520
-0.178523
-0.130359
-0.091277
-0.040981
0.024108
0.080208
0.105730
0.114832
0.104735
0.095124
0.084002
0.051397
0.015416
-0.033029
-0.079444
-0.112636
-0.134802
-0.166310
-0.170877
-0.175259
-0.156172
-0.113362
-0.068042
-0.013305
0.041093
0.071722
0.106587
0.129648
0.132883
0.119962
0.102331
0.065608
0.024137
-0.022173
-0.066046
-0.112476
-0.147431
-0.190903
-0.174672
-0.166542
-0.141733
-0.102934
-0.051177
-0.015814
0.030851
0.064261
0.098804
0.135101
0.142174
0.132476
0.141159
0.102358
0.040456
0.040432
-0.024762
-0.089455
-0.142654
-0.170011
-0.154537
-0.146358
-0.130346
-0.102851
-0.066428
-0.012901
0.030124
0.068276
0.100978
0.111061
0.118261
0.093942
0.072893
0.015271
-0.018024
-0.048739
-0.067116
-0.091008
-0.133974
-0.176596
-0.187098
-0.184518
-0.167736
-0.129999
-0.104667
-0.079328
-0.024442
0.034344
0.066806
0.078654
0.074775
0.057900
0.038130
0.034502
-0.004133
-0.060645
-0.112543
-0.155299
-0.190361
-0.218597
-0.230554
-0.238454
-0.217898
-0.169545
-0.118361
-0.066373
-0.019314
0.028479
0.064581
0.070942
0.066181
0.048503
0.048286
0.023175
-0.026301
-0.074018
-0.124740
-0.172529
-0.211383
-0.238780
-0.235491
-0.217655
-0.199765
-0.162342
-0.130990
-0.087256
-0.050568
0.008511
0.047833
0.083408
0.056100
0.037242
0.032405
0.013133
-0.037706
-0.079769
-0.143249
-0.173600
-0.203705
-0.229955
-0.245084
-0.243639
-0.198650
-0.166302
-0.110623
-0.052208
-0.013132
-0.001744
0.020799
0.038833
0.059709
0.058444
0.058639
0.040783
-0.032340
-0.099824
-0.141213
-0.178912
-0.214879
-0.241142
-0.213112
-0.197443
-0.172938
-0.180071
-0.129963
-0.108956
-0.036598
0.043617
0.074613
0.080880
0.133607
0.131938
0.119581
0.086522
0.069826
0.035541
-0.007193
-0.032750
-0.044615
-0.054659
-0.052712
-0.020434
0.005869
0.069643
0.140908
0.196265
0.282039
0.349095
0.416513
0.456437
0.531068
0.557651
0.568875
0.547842
0.545441
0.533887
0.519470
0.517403
0.513170
0.538712
0.546063
0.584743
0.601866
0.637593
0.680662
0.720270
0.745572
0.774289
0.764012
0.741227
0.701017
0.644230
0.556082
0.439055
0.345838
0.259819
0.169697
0.075558
0.012004
-0.037265
-0.012893
-0.052870
-0.056849
-0.032725
-0.002886
0.043109
0.082849
0.123479
0.155749
0.177657
0.182304
0.173633
0.172893
0.128565
0.082313
0.028274
-0.033276
-0.079932
-0.117914
-0.134577
-0.131014
-0.138852
-0.130412
-0.104658
-0.058664
-0.012255
0.030952
0.076219
0.108209
0.152941
0.139496
0.110738
0.080153
0.041853
-0.016534
-0.048354
-0.083603
-0.066091
-0.032429
-0.085613
-0.151223
-0.176080
-0.153624
-0.114744
-0.081315
-0.035197
0.019348
0.064998
0.090045
0.119911
0.121167
0.118566
0.102601
0.066218
0.030315
-0.019244
-0.063627
-0.098702
-0.136137
-0.164782
-0.176453
-0.173071
-0.155104
-0.124030
-0.080087
-0.036663
0.020654
0.057258
0.104831
0.143342
0.146970
0.129206
0.112613
0.085277
0.044110
0.003947
-0.049524
-0.095469
-0.132042
-0.164023
-0.162448
-0.135617
-0.112617
-0.074142
-0.041692
-0.019421
0.039984
0.099711
0.116710
0.135854
0.158187
0.153369
0.124031
0.093131
0.064574
0.026555
-0.028662
-0.073461
-0.097937
-0.109315
-0.127506
-0.096805
-0.097181
-0.041740
-0.000919
0.031306
0.077808
0.112587
0.153661
0.189980
0.199861
0.188875
0.157742
0.147829
0.114312
0.068696
0.018310
-0.022602
-0.057565
-0.083234
-0.079736
-0.071184
-0.060613
-0.036673
0.011481
0.065271
0.124715
0.171870
0.189053
0.209201
0.232173
0.232050
0.204857
0.162410
0.113645
0.077023
0.021948
-0.004707
-0.015767
-0.025811
-0.011432
-0.018229
-0.044463
-0.014157
0.027475
0.070589
0.142118
0.181035
0.215390
0.213384
0.253739
0.267645
0.243218
0.195822
0.153177
0.109646
0.083256
0.026247
-0.011049
-0.046676
-0.043971
-0.030735
-0.023769
0.013229
0.037375
0.095468
0.151089
0.178907
0.191178
0.202406
0.208020
0.221273
0.227191
0.192261
0.144503
0.093075
0.037062
-0.012017
-0.044134
-0.063677
-0.074028
-0.066656
-0.049559
-0.013126
0.031448
0.061924
0.111499
0.151997
0.184095
0.208795
0.213422
0.189236
0.173827
0.144214
0.100819
0.055002
0.004789
-0.029411
-0.061927
-0.088677
-0.120052
-0.114395
-0.104042
-0.067467
-0.016335
0.030094
0.077469
0.116463
0.132061
0.156114
0.161375
0.144741
0.121359
0.090242
0.079198
0.042329
-0.032684
-0.088393
-0.145128
-0.161254
-0.192792
-0.189198
-0.185502
-0.072102
-0.034937
0.007341
0.024726
0.063683
0.106128
0.128944
0.173257
0.148355
0.106238
0.083758
0.036935
-0.019088
-0.073902
-0.125215
-0.135933
-0.157979
-0.189545
-0.192982
-0.168715
-0.106609
-0.067154
-0.030072
0.004489
0.052121
0.084370
0.108600
0.115492
0.105744
0.093599
0.072766
0.029318
-0.035103
-0.086388
-0.108118
-0.155745
-0.193745
-0.202569
-0.188925
-0.162104
-0.131158
-0.093180
-0.055935
-0.000712
0.047372
0.070701
0.107239
0.111521
0.107410
0.082590
0.052515
0.017948
-0.026527
-0.082726
-0.127428
-0.160318
-0.191010
-0.200966
-0.187980
-0.165968
-0.128560
-0.085489
-0.037211
0.000662
0.045715
0.088280
0.120034
0.139134
0.129027
0.102547
0.055458
0.021931
-0.022275
-0.074263
-0.116616
-0.167934
-0.188352
-0.194052
-0.195615
-0.189727
-0.138223
-0.082699
-0.014035
0.052685
0.067660
0.102456
0.141834
0.144929
0.130660
0.110216
0.067868
0.017761
-0.022352
-0.049511
-0.106336
-0.163341
-0.206499
-0.227974
-0.222886
-0.159883
-0.114879
-0.010756
0.009376
0.017162
0.057917
0.110942
0.141261
0.150130
0.135332
0.105836
0.071920
0.039189
-0.017671
-0.072929
-0.091157
-0.130009
-0.151053
-0.178630
-0.178188
-0.165925
-0.126803
-0.075313
-0.033275
0.011255
0.073834
0.117283
0.132331
0.131968
0.109586
0.090502
0.061605
0.024652
-0.000214
-0.056414
-0.110773
-0.155701
-0.175133
-0.180830
-0.175324
-0.163895
-0.135814
-0.097844
-0.047376
0.000200
0.052882
0.090438
0.111922
0.135712
0.132203
0.103487
0.063579
0.025763
-0.017487
-0.071407
-0.124493
-0.147229
-0.163078
-0.178654
-0.182249
-0.176057
-0.137498
-0.091825
-0.039979
-0.004473
0.039783
0.103596
0.106735
0.091485
0.118717
0.115109
0.064180
0.010948
-0.030125
-0.066684
-0.110109
-0.145028
-0.180832
-0.197598
-0.192921
-0.188108
-0.151137
-0.087320
-0.036718
0.002543
0.045067
0.084206
0.112542
0.120059
0.113174
0.085314
0.043291
0.014177
-0.035636
-0.086631
-0.140093
-0.154010
-0.187374
-0.212196
-0.200237
-0.172865
-0.145746
-0.105497
-0.050490
-0.004016
0.041585
0.087724
0.123864
0.125648
0.113776
0.072601
0.058828
0.018410
-0.032437
-0.101370
-0.144423
-0.176147
-0.214092
-0.219348
-0.181688
-0.175401
-0.156007
-0.128253
-0.076535
-0.018295
0.035246
0.083207
0.127215
0.130161
0.113593
0.092020
0.062505
0.026421
-0.031541
-0.096846
-0.142034
-0.167636
-0.194115
-0.205714
-0.181108
-0.163217
-0.131455
-0.096841
-0.056425
-0.013026
0.036682
0.071011
0.105147
0.122692
0.107021
0.077028
0.051629
-0.000189
-0.035109
-0.090174
-0.136408
-0.169586
-0.195293
-0.209278
-0.203468
-0.173521
-0.145739
-0.100136
-0.074312
-0.024301
-0.004253
0.091930
0.127491
0.127326
0.136047
0.130141
0.069274
0.023960
-0.013787
-0.071656
-0.123880
-0.156899
-0.181266
-0.181034
-0.160567
-0.140812
-0.107643
-0.063719
-0.009001
0.037434
0.074906
0.114134
0.143530
0.161082
0.148905
0.126867
0.090708
0.042232
-0.003922
-0.067989
-0.117925
-0.147149
-0.172778
-0.171720
-0.168551
-0.157495
-0.114965
-0.066571
-0.031169
0.029498
0.082317
0.118563
0.140881
0.137119
0.114618
0.159251
0.158101
0.099018
0.036682
-0.031250
-0.084780
-0.120719
-0.138077
-0.153839
-0.149663
-0.129515
-0.102928
-0.070773
-0.038761
0.011171
0.066118
0.118053
0.141643
0.150106
0.147059
0.118881
0.082361
0.038835
-0.023673
-0.080767
-0.124241
-0.157095
-0.165925
-0.181191
-0.183156
-0.184136
-0.147797
-0.111639
-0.078353
-0.011000
0.016381
0.056300
0.075293
0.062064
0.055642
0.088331
0.079185
0.035059
-0.010884
-0.079519
-0.138349
-0.189175
-0.211149
-0.220573
-0.206289
-0.200584
-0.174364
-0.120236
-0.059056
-0.013063
0.025675
0.061473
0.083554
0.086654
0.082419
0.066273
0.031248
-0.014248
-0.075011
-0.128835
-0.167870
-0.191903
-0.211068
-0.217935
-0.218117
-0.216088
-0.178153
-0.140968
-0.093684
-0.036979
0.026672
0.065835
0.082608
0.091943
0.088223
0.081912
0.028308
-0.020188
-0.068982
-0.121958
-0.174850
-0.222812
-0.249669
-0.259312
-0.245338
-0.251136
-0.177981
-0.127613
-0.056341
0.016071
0.055835
0.064443
0.073977
0.083909
0.081341
0.068112
0.028416
-0.014365
-0.077940
-0.109259
-0.150852
-0.181278
-0.223040
-0.238576
-0.240001
-0.218512
-0.185254
-0.139757
-0.057642
-0.014257
0.026086
0.051039
0.081809
0.098163
0.081884
0.068792
0.044620
0.015605
-0.009418
-0.051121
-0.087688
-0.094845
-0.120153
-0.118738
-0.103680
-0.083558
-0.006342
0.043444
0.107852
0.183469
0.259421
0.322303
0.392441
0.422868
0.441687
0.459209
0.480309
0.467448
0.456013
0.430946
0.417674
0.402693
0.417316
0.483424
0.538953
0.594222
0.669768
0.729710
0.792599
0.863347
0.896917
0.911699
0.943833
0.926566
0.885715
0.839621
0.770659
0.686384
0.575828
0.451128
0.336072
0.242537
0.165698
0.086185
0.049540
0.040027
0.056251
0.093690
0.150058
0.202018
0.231285
0.237220
0.238613
0.250225
0.231460
0.210201
0.164923
0.104058
0.042374
0.008118
-0.052055
-0.095815
-0.116023
-0.130729
-0.120184
-0.101548
-0.065758
-0.034722
0.002378
0.060857
0.108589
0.130704
0.148077
0.159993
0.152334
0.139754
0.090895
0.041107
-0.009306
-0.046773
-0.104325
-0.130189
-0.162067
-0.177365
-0.175409
-0.116762
-0.083699
-0.063199
-0.031916
0.023696
0.076477
0.105259
0.119316
0.125319
0.126658
0.104731
0.078696
0.025855
-0.019501
-0.055343
-0.107774
-0.142047
-0.156170
-0.168105
-0.158770
-0.132709
-0.098260
-0.061776
-0.023603
0.029739
0.077361
0.118789
0.140524
0.140702
0.134123
0.127429
0.076000
0.044289
-0.003045
-0.058188
-0.070028
-0.123948
-0.159346
-0.173972
-0.169833
-0.142502
-0.067712
-0.027026
0.029498
0.070772
0.109463
0.138933
0.161738
0.167357
0.137263
0.117696
0.091146
0.051233
0.026084
-0.022729
-0.059355
-0.106434
-0.141105
-0.146901
-0.118014
-0.100521
-0.034698
-0.007422
0.055231
0.102986
0.152284
0.143790
0.205149
0.214787
0.201152
0.183591
0.139821
0.109457
0.044294
-0.012548
-0.021055
-0.048781
-0.079333
-0.087536
-0.070325
-0.060073
-0.028953
0.022050
0.068038
0.123041
0.164296
0.204628
0.224870
0.239569
0.244174
0.228701
0.193526
0.144310
0.096081
0.059343
0.010574
-0.031332
-0.043869
-0.056944
-0.051998
-0.047081
0.000898
0.049430
0.092386
0.166817
0.188529
0.214166
0.242767
0.259035
0.257185
0.231291
0.197296
0.154858
0.100448
0.073999
0.022026
-0.021476
-0.040956
-0.046370
-0.032574
-0.024620
0.016604
0.058199
0.110640
0.160057
0.198656
0.227414
0.251097
0.262291
0.252555
0.250290
0.226048
0.177191
0.117737
0.056388
-0.003116
-0.037495
-0.062420
-0.061851
-0.048759
-0.040694
-0.020719
0.020869
0.071710
0.104666
0.158024
0.238719
0.271397
0.242167
0.234535
0.212513
0.189556
0.157185
0.090003
0.034573
0.003178
-0.018013
-0.062039
-0.086537
-0.082450
-0.066999
-0.024884
0.023529
0.065915
0.121868
0.150085
0.174215
0.199560
0.201791
0.179972
0.171953
0.134657
0.082524
0.040348
-0.010216
-0.061028
-0.105556
-0.106170
-0.115665
-0.123170
-0.108372
-0.081767
-0.047189
0.005517
0.055167
0.089198
0.113934
0.147782
0.166230
0.153895
0.123513
0.077478
0.021275
-0.011153
-0.046747
-0.096229
-0.134043
-0.129088
-0.141744
-0.154923
-0.134439
-0.111222
-0.072746
-0.017559
0.043180
0.075512
0.112511
0.133875
0.137591
0.139162
0.114905
0.069592
0.018242
-0.041904
-0.085977
-0.145962
-0.176736
-0.173598
-0.163925
-0.150562
-0.150376
-0.119679
-0.087786
-0.043271
0.011811
0.065471
0.133251
0.167407
0.169795
0.135758
0.104387
0.040752
0.031080
-0.016047
-0.074987
-0.112632
-0.136384
-0.132131
-0.141273
-0.158197
-0.136404
-0.108350
-0.061458
-0.013367
0.027566
0.071556
0.096854
0.129151
0.129765
0.118145
0.120907
0.077654
0.025069
-0.005441
-0.049921
-0.110956
-0.136942
-0.146806
-0.167391
-0.160539
-0.122723
-0.082278
-0.071411
-0.029304
0.018492
0.060044
0.097274
0.128694
0.132646
0.111720
0.118345
0.091933
0.062317
0.026023
-0.042647
-0.095971
-0.121826
-0.137294
-0.156901
-0.150872
-0.139697
-0.100383
-0.057171
0.001443
0.059931
0.097452
0.123476
0.150688
0.155923
0.141371
0.103708
0.070097
0.035412
-0.002537
-0.047853
-0.096181
-0.128506
-0.160353
-0.165654
-0.138480
-0.124751
-0.108497
-0.064975
-0.019109
0.080083
0.104125
0.107006
0.115136
0.112850
0.118107
0.117332
0.109335
0.067668
0.008676
-0.064149
-0.102303
-0.129482
-0.146329
-0.154724
-0.148351
-0.124867
-0.072730
-0.043182
-0.007556
0.040002
0.096773
0.145687
0.153721
0.153739
0.141532
0.112914
0.075555
0.037057
-0.008923
-0.060667
-0.110272
-0.147461
-0.146423
-0.153177
-0.165608
-0.152152
-0.106719
-0.047638
-0.029106
0.016469
0.078265
0.103068
0.133930
0.151105
0.150536
0.135106
0.085782
0.024499
0.010421
-0.037355
-0.082532
-0.123147
-0.153866
-0.173039
-0.158988
-0.149307
-0.104875
-0.062622
-0.011993
0.037865
0.074210
0.108345
0.120555
0.120817
0.108739
0.114411
0.090902
0.041211
-0.026728
-0.067000
-0.118520
-0.136363
-0.162842
-0.188681
-0.185102
-0.177932
-0.127106
-0.080840
-0.048788
0.012653
0.071603
0.107008
0.111747
0.122828
0.087745
0.108372
0.072639
0.033591
-0.007221
-0.055870
-0.112789
-0.138891
-0.160205
-0.177997
-0.163712
-0.151470
-0.120680
-0.083741
-0.029908
0.020104
0.065886
0.103074
0.117122
0.126120
0.115758
0.091179
0.052995
0.016174
-0.025374
-0.082075
-0.118076
-0.156510
-0.182067
-0.183301
-0.169229
-0.147562
-0.109000
-0.070852
-0.038563
0.015917
0.056574
0.083374
0.106069
0.113190
0.127583
0.109703
0.055472
0.003636
-0.051946
-0.095162
-0.116506
-0.143146
-0.159682
-0.159125
-0.163495
-0.169380
-0.123948
-0.062723
-0.016226
0.020897
0.056967
0.083278
0.093983
0.117771
0.113365
0.084493
0.052153
0.012570
-0.034028
-0.075780
-0.122732
-0.144169
-0.174026
-0.184342
-0.172081
-0.165757
-0.131358
-0.092527
-0.041352
0.016162
0.056314
0.085432
0.102213
0.101055
0.099445
0.088804
0.048549
-0.000157
-0.040177
-0.088374
-0.135489
-0.190058
-0.181358
-0.187427
-0.185740
-0.175943
-0.104450
-0.054511
-0.013865
0.011820
0.055191
0.081581
0.109325
0.115839
0.088149
0.075144
0.054335
0.028455
-0.020904
-0.066406
-0.121052
-0.154594
-0.175926
-0.179645
-0.186707
-0.134504
-0.076389
-0.027055
0.006048
0.029688
0.081893
0.124446
0.157926
0.168034
0.144632
0.127576
0.086883
0.031774
0.003352
-0.038857
-0.086321
-0.125830
-0.121412
-0.147901
-0.153076
-0.147454
-0.122159
-0.083793
-0.014341
0.055891
0.099827
0.119247
0.132870
0.140656
0.127566
0.117211
0.068811
0.039353
0.006204
-0.019185
-0.046628
-0.084231
-0.122836
-0.127954
-0.123971
-0.097278
-0.068926
-0.033177
0.010926
0.055546
0.088668
0.107838
0.129527
0.156607
0.162553
0.119457
0.074284
0.026104
-0.027226
-0.077824
-0.111865
-0.141189
-0.172091
-0.167547
-0.164455
-0.154809
-0.127463
-0.082690
-0.044639
0.015331
0.083253
0.111748
0.120275
0.120476
0.109402
0.097604
0.055845
0.011172
-0.039409
-0.086196
-0.134898
-0.160611
-0.193835
-0.198561
-0.204847
-0.181067
-0.137123
-0.099953
-0.060934
-0.012612
0.039947
0.064189
0.087251
0.094498
0.092227
0.067428
0.022013
-0.018323
-0.072292
-0.112359
-0.154724
-0.188412
-0.215101
-0.228866
-0.218179
-0.193839
-0.155175
-0.114684
-0.075829
-0.021960
0.026369
0.076895
0.091125
0.080586
0.075483
0.064402
0.028532
-0.015172
-0.073775
-0.113857
-0.138377
-0.172616
-0.194085
-0.216547
-0.246019
-0.201820
-0.163476
-0.123506
-0.085474
-0.021260
0.042889
0.064448
0.083040
0.079676
0.067814
0.042335
0.007324
-0.024359
-0.062210
-0.101138
-0.144543
-0.186935
-0.201131
-0.206488
-0.197114
-0.198166
-0.164602
-0.113687
-0.050262
0.003658
0.035916
0.050891
0.061444
0.090741
0.079421
0.064689
0.021760
-0.020225
-0.072168
-0.122503
-0.168965
-0.213849
-0.221124
-0.191389
-0.162538
-0.139889
-0.100451
-0.050488
0.011733
0.076066
0.122487
0.178777
0.221251
0.227471
0.240225
0.244332
0.229399
0.198515
0.202461
0.201337
0.182155
0.216466
0.237975
0.229781
0.259519
0.313637
0.399963
0.472702
0.541850
0.626415
0.712583
0.794875
0.834853
0.875692
0.908826
0.925726
0.894676
0.851723
0.813275
0.748371
0.658692
0.600360
0.563931
0.524793
0.475348
0.419322
0.381382
0.371398
0.358782
0.341879
0.330996
0.305315
0.304643
0.296371
0.282435
0.263134
0.221855
0.161701
0.086916
0.038754
-0.029234
-0.059426
-0.083997
-0.109509
-0.090780
-0.078628
-0.047075
-0.002249
0.041627
0.088994
0.115620
0.143888
0.165287
0.177402
0.160619
0.139108
0.108563
0.062593
0.007818
-0.049065
-0.099511
-0.145182
-0.155341
-0.157283
-0.161978
-0.144104
-0.108965
-0.067181
-0.019250
0.022256
0.047653
0.080794
0.134265
0.147555
0.136136
0.103675
0.054630
0.020444
-0.009302
-0.059525
-0.104743
-0.146215
-0.165657
-0.173515
-0.163941
-0.135782
-0.109019
-0.078328
-0.032158
0.002101
0.044870
0.092632
0.136073
0.152863
0.119121
0.093742
0.102407
0.057428
0.008554
-0.047486
-0.100548
-0.148916
-0.166981
-0.156760
-0.152618
-0.151079
-0.105449
-0.048561
-0.005995
0.026983
0.074881
0.132483
0.173375
0.176242
0.158720
0.137882
0.103620
0.050733
0.010097
-0.042287
-0.083995
-0.111761
-0.130748
-0.146158
-0.143917
-0.118614
-0.083945
-0.034389
-0.001730
0.050202
0.106757
0.145346
0.178920
0.175965
0.162202
0.153638
0.129080
0.089554
0.044744
-0.007370
-0.051377
-0.089925
-0.096443
-0.100940
-0.086524
-0.066300
-0.039394
0.004353
0.057950
0.105152
0.141452
0.171142
0.200126
0.209679
0.202320
0.176762
0.142001
0.109710
0.064595
0.031330
-0.000248
-0.021614
-0.062397
-0.074042
-0.062725
-0.050853
-0.035831
0.053675
0.083093
0.114855
0.157525
0.189394
0.230291
0.252092
0.230638
0.205965
0.172228
0.145347
0.097471
0.055170
0.016750
-0.012234
-0.039200
-0.052383
-0.059464
-0.041447
0.003786
0.060141
0.103686
0.142146
0.186557
0.227601
0.245548
0.249391
0.253027
0.236095
0.206549
0.164630
0.116349
0.067451
0.015557
-0.015003
-0.043404
-0.051787
-0.050432
-0.057692
-0.025690
0.028521
0.087702
0.150922
0.185260
0.220137
0.256602
0.269205
0.256752
0.233123
0.197963
0.139116
0.086168
0.035625
-0.012856
-0.055128
-0.080443
-0.098309
-0.091225
-0.074869
-0.038152
0.001546
0.057029
0.108120
0.148872
0.165506
0.184056
0.221421
0.229967
0.180414
0.135211
0.100551
0.040852
0.015307
-0.048855
-0.097042
-0.122730
-0.096586
-0.105420
-0.093991
-0.068875
-0.035726
0.010905
0.055244
0.098563
0.131933
0.153661
0.157246
0.146170
0.119156
0.100042
0.051338
0.003164
-0.061165
-0.107563
-0.168993
-0.181030
-0.159578
-0.165443
-0.145350
-0.117370
-0.069181
-0.017477
0.021239
0.080047
0.106035
0.144167
0.153272
0.132609
0.103964
0.055653
0.025464
-0.006235
-0.065899
-0.136137
-0.169211
-0.185921
-0.200312
-0.203046
-0.179986
-0.129649
-0.090894
-0.047094
0.000578
0.049324
0.083808
0.097264
0.105497
0.110352
0.108306
0.071852
0.014953
-0.020264
-0.063836
-0.109501
-0.159260
-0.190492
-0.197770
-0.188273
-0.165272
-0.138794
-0.088492
-0.040930
0.006938
0.060315
0.092350
0.107398
0.118165
0.108254
0.084523
0.045981
0.016133
-0.020017
-0.072710
-0.152407
-0.165449
-0.183223
-0.165785
-0.170213
-0.160403
-0.114648
-0.108121
-0.050161
0.012799
0.085789
0.134362
0.132868
0.130342
0.121210
0.101089
0.067810
0.013911
-0.034977
-0.064981
-0.094734
-0.140555
-0.182359
-0.203413
-0.194749
-0.181043
-0.142647
-0.094873
-0.040855
0.030086
0.061291
0.089001
0.118033
0.132215
0.129264
0.109204
0.055822
0.028823
-0.019217
-0.077986
-0.125424
-0.139849
-0.146990
-0.154865
-0.166858
-0.157251
-0.121693
-0.074894
-0.022197
0.020689
0.071056
0.113509
0.126605
0.156495
0.122494
0.120255
0.060555
0.012451
-0.013096
-0.068938
-0.143581
-0.187257
-0.172858
-0.159290
-0.158279
-0.137803
-0.099547
-0.061326
-0.033394
0.028482
0.082145
0.113904
0.125077
0.131411
0.120357
0.097974
0.068452
0.019390
-0.034616
-0.075852
-0.109721
-0.143432
-0.163378
-0.188658
-0.185389
-0.165679
-0.126833
-0.086697
-0.043953
0.014989
0.069769
0.087745
0.105943
0.136125
0.122555
0.125260
0.097300
0.040481
-0.035760
-0.099402
-0.145259
-0.169561
-0.179608
-0.192147
-0.192488
-0.180502
-0.115712
-0.054541
-0.022457
0.025552
0.063824
0.096472
0.121776
0.126256
0.106353
0.099456
0.067738
0.035729
-0.030928
-0.109135
-0.130368
-0.168106
-0.181405
-0.198371
-0.176945
-0.167858
-0.145061
-0.096232
-0.024621
0.007592
0.041125
0.071661
0.079409
0.115185
0.107950
0.076906
0.020605
0.006115
-0.053831
-0.098493
-0.143165
-0.160043
-0.176774
-0.181927
-0.175485
-0.162212
-0.130233
-0.091184
-0.058796
-0.001056
0.047932
0.074098
0.092268
0.106686
0.099552
0.081955
0.053486
0.012313
-0.037378
-0.086151
-0.141694
-0.188468
-0.205354
-0.208993
-0.198610
-0.172795
-0.131011
-0.093872
-0.054974
0.003407
0.047262
0.072313
0.090154
0.102668
0.097730
0.083892
0.047780
0.010053
-0.046477
-0.093729
-0.143729
-0.176113
-0.196158
-0.196743
-0.188522
-0.173457
-0.152572
-0.110403
-0.059993
-0.040741
0.016811
0.092951
0.132474
0.121052
0.103247
0.077849
0.044307
0.001254
-0.052658
-0.110694
-0.165788
-0.194630
-0.219725
-0.229215
-0.207291
-0.172808
-0.160807
-0.079615
-0.028828
0.033784
0.062771
0.090124
0.109242
0.097302
0.074458
0.066120
0.037464
-0.008662
-0.059987
-0.092119
-0.139927
-0.176574
-0.205527
-0.209717
-0.198164
-0.170081
-0.143479
-0.093416
-0.043002
-0.003458
0.036680
0.069474
0.093933
0.100521
0.109346
0.073401
0.032783
-0.014122
-0.047470
-0.070532
-0.129005
-0.180278
-0.230743
-0.216693
-0.194955
-0.166385
-0.127356
-0.091438
-0.045951
0.018417
0.062544
0.116633
0.139702
0.133104
0.106945
0.074432
0.042025
0.000541
-0.036937
-0.065987
-0.110601
-0.151792
-0.189099
-0.163083
-0.150846
-0.117677
-0.088379
-0.057437
-0.020507
0.034101
0.090929
0.121953
0.120314
0.102888
0.104934
0.092497
0.076945
0.033245
-0.028075
-0.087087
-0.119773
-0.138181
-0.169442
-0.159801
-0.156654
-0.123827
-0.089697
-0.052853
0.001552
0.051531
0.090603
0.112258
0.137695
0.164608
0.158910
0.142516
0.105459
0.055586
0.009895
-0.048933
-0.104948
-0.129976
-0.151213
-0.182874
-0.173432
-0.166376
-0.133409
-0.077484
-0.030630
0.019431
0.070761
0.099777
0.107361
0.105041
0.092313
0.068687
0.035501
-0.025514
-0.059204
-0.076070
-0.133381
-0.168188
-0.189871
-0.209761
-0.209841
-0.190681
-0.147053
-0.100364
-0.050471
-0.006265
0.033763
0.078073
0.099805
0.105409
0.108358
0.076391
0.038337
-0.008117
-0.066207
-0.124018
-0.170539
-0.198869
-0.224002
-0.232328
-0.216019
-0.186055
-0.153840
-0.111719
-0.075158
-0.017243
0.030769
0.048609
0.075220
0.066672
0.082925
0.056109
0.005193
-0.043683
-0.089137
-0.137881
-0.201301
-0.198763
-0.221716
-0.232605
-0.226965
-0.200289
-0.161338
-0.111725
-0.066596
-0.031059
0.019321
0.065919
0.086805
0.091458
0.087625
0.043848
-0.014697
-0.051410
-0.110509
-0.200013
-0.192639
-0.193184
-0.203854
-0.172726
-0.171057
-0.171547
-0.152402
-0.112697
-0.043416
-0.020862
-0.008505
0.029021
0.053875
0.079847
0.076842
0.047016
0.012824
-0.018564
-0.074637
-0.121199
-0.163184
-0.210127
-0.235885
-0.234569
-0.228969
-0.196624
-0.175230
-0.135091
-0.087506
-0.038574
0.002845
0.048514
0.092327
0.123537
0.112344
0.106952
0.079573
0.036391
0.014242
-0.007688
-0.048550
-0.077000
-0.072021
-0.054730
-0.012039
0.022022
0.082073
0.152675
0.229621
0.315465
0.381637
0.458691
0.521158
0.572488
0.600871
0.598142
0.593954
0.570317
0.568192
0.572619
0.561921
0.564232
0.573069
0.600499
0.627619
0.628585
0.632929
0.721608
0.747866
0.776790
0.793409
0.802634
0.808871
0.757806
0.669295
0.575858
0.473675
0.376657
0.269493
0.172278
0.079045
0.036122
0.004907
-0.019567
-0.035296
-0.022641
0.006736
0.053613
0.090203
0.125783
0.158568
0.172468
0.180783
0.173946
0.167966
0.143733
0.101934
0.062303
0.016813
-0.029510
-0.074864
-0.106632
-0.127460
-0.149247
-0.155374
-0.127028
-0.105432
-0.065562
-0.016022
0.024020
0.075070
0.121153
0.135408
0.115750
0.140064
0.117070
0.074551
0.021903
-0.035340
-0.074252
-0.116432
-0.124611
-0.153909
-0.176939
-0.180341
-0.160994
-0.122100
-0.073298
-0.026586
0.009512
0.054467
0.090345
0.116806
0.115763
0.110991
0.094217
0.043286
-0.011901
-0.040410
-0.049911
-0.114090
-0.157562
-0.158055
-0.158203
-0.154784
-0.141288
-0.102005
-0.066449
-0.017999
0.028141
0.087585
0.119528
0.130951
0.148590
0.124887
0.112495
0.079198
0.040598
-0.005374
-0.055976
-0.096423
-0.120566
-0.138591
-0.146897
-0.139331
-0.107203
-0.070705
-0.050940
-0.005940
0.048813
0.086944
0.115330
0.151316
0.163949
0.130730
0.143249
0.092922
0.040151
-0.003885
-0.040777
-0.080268
-0.111107
-0.135064
-0.137613
-0.129218
-0.082753
-0.044887
-0.001254
0.037414
0.082429
0.123749
0.155456
0.178891
0.195576
0.192138
0.178090
0.144386
0.078565
0.029825
-0.009005
-0.040989
-0.073892
-0.088137
-0.097290
-0.076777
-0.061111
-0.047492
0.030666
0.074433
0.108182
0.148708
0.201245
0.236426
0.251772
0.229370
0.203844
0.165788
0.134311
0.080643
0.024994
-0.006912
-0.037548
-0.045542
-0.050694
-0.054546
-0.050203
0.008330
0.058822
0.106193
0.138557
0.172561
0.234937
0.237077
0.238076
0.233672
0.208055
0.163827
0.148625
0.098185
0.050310
0.024162
0.019708
-0.016948
-0.059452
-0.075834
-0.045655
-0.010099
0.039698
0.087491
0.123862
0.174468
0.212470
0.242521
0.264471
0.256114
0.226159
0.184937
0.142185
0.087710
0.030988
-0.022326
-0.041713
-0.048104
-0.059674
-0.055892
-0.050153
-0.019621
0.023172
0.082173
0.130378
0.143471
0.173015
0.206868
0.204975
0.204793
0.179529
0.147084
0.104756
0.060865
0.010677
-0.042311
-0.087125
-0.086031
-0.099289
-0.110758
-0.096939
-0.068949
-0.019550
0.036484
0.085589
0.132167
0.156007
0.168760
0.165005
0.155971
0.151537
0.105143
0.068150
-0.002715
-0.064240
-0.110834
-0.143388
-0.170488
-0.150102
-0.137304
-0.119996
-0.086857
-0.052459
-0.018952
0.028164
0.080186
0.110419
0.141544
0.135896
0.112586
0.082249
0.070112
0.036215
-0.017037
-0.067050
-0.116942
-0.146150
-0.162855
-0.179932
-0.176394
-0.153054
-0.121632
-0.084470
-0.030865
0.017175
0.044981
0.078409
0.096158
0.089098
0.096682
0.073934
0.042802
0.000110
-0.034975
-0.092326
-0.126498
-0.137767
-0.159648
-0.178067
-0.180182
-0.165254
-0.135004
-0.099575
-0.052423
-0.003075
0.044566
0.076503
0.104494
0.114284
0.132734
0.091070
0.056241
0.024996
-0.027005
-0.095916
-0.143381
-0.169748
-0.163594
-0.180987
-0.173602
-0.149015
-0.129006
-0.079467
-0.036468
0.011975
0.057441
0.080048
0.102814
0.128488
0.119367
0.085138
0.051032
0.017196
-0.035516
-0.081618
-0.119033
-0.145702
-0.170573
-0.180948
-0.181780
-0.159105
-0.121956
-0.077666
-0.030588
0.011696
0.044599
0.076302
0.098164
0.118309
0.097080
0.051362
0.047537
0.041291
-0.010008
-0.048913
-0.096891
-0.137762
-0.164314
-0.178198
-0.164802
-0.142085
-0.111731
-0.077465
-0.029537
0.012322
0.057747
0.094706
0.109800
0.120806
0.115094
0.098814
0.063696
0.019939
-0.035094
-0.084088
-0.121228
-0.137124
-0.143778
-0.152637
-0.160056
-0.140712
-0.106384
-0.056491
-0.013000
0.013449
0.056365
0.105329
0.117487
0.119854
0.115119
0.100383
0.077835
0.044258
0.000039
-0.055956
-0.101979
-0.142534
-0.162731
-0.175821
-0.175113
-0.145707
-0.115266
-0.086163
-0.031482
0.013860
0.058227
0.103862
0.122543
0.126089
0.115721
0.084870
0.058816
0.028026
-0.031203
-0.066532
-0.106127
-0.148260
-0.176689
-0.184527
-0.197145
-0.176273
-0.136131
-0.081118
-0.026878
0.020420
0.054719
0.078503
0.090232
0.101660
0.117667
0.106986
0.042101
0.026863
-0.030038
-0.055168
-0.093502
-0.149256
-0.186942
-0.173364
-0.172040
-0.149137
-0.126380
-0.073148
-0.031975
0.008204
0.049579
0.068832
0.100623
0.097206
0.093536
0.082660
0.052734
0.012072
-0.043308
-0.085761
-0.125146
-0.170637
-0.195376
-0.198748
-0.171519
-0.137115
-0.132869
-0.101684
-0.054103
-0.032032
0.032985
0.095096
0.111015
0.108169
0.094866
0.081661
0.039849
0.002449
-0.068031
-0.118785
-0.130840
-0.151928
-0.179252
-0.201545
-0.164927
-0.151743
-0.121915
-0.091370
-0.036036
0.006134
0.039467
0.079630
0.093535
0.093953
0.106470
0.080817
0.045783
0.007153
-0.049925
-0.090779
-0.132934
-0.163840
-0.191430
-0.197625
-0.192914
-0.170566
-0.137651
-0.094439
-0.047840
-0.002241
0.042682
0.074808
0.093079
0.098757
0.097150
0.080045
0.028810
-0.013193
-0.046085
-0.086929
-0.136267
-0.176221
-0.207023
-0.211548
-0.192509
-0.168281
-0.133353
-0.094969
-0.046242
0.002631
0.060279
0.075824
0.074032
0.089156
0.103362
0.083383
0.039764
-0.002706
-0.049481
-0.100845
-0.134361
-0.187650
-0.181485
-0.195164
-0.204901
-0.189096
-0.129229
-0.083169
-0.048400
-0.012706
0.031966
0.064299
0.076948
0.090044
0.070526
0.046887
0.027441
-0.010309
-0.053831
-0.125487
-0.158435
-0.182715
-0.221702
-0.252376
-0.209264
-0.121654
-0.090470
-0.062481
-0.031696
0.034011
0.064038
0.076257
0.091040
0.088144
0.089603
0.080429
0.045074
-0.005134
-0.056504
-0.081487
-0.120989
-0.157247
-0.169175
-0.170584
-0.166771
-0.153645
-0.117848
-0.056482
0.001084
0.046231
0.101194
0.118489
0.127027
0.126585
0.117178
0.098875
0.064978
0.034384
-0.004016
-0.042748
-0.103434
-0.139410
-0.164128
-0.176491
-0.175180
-0.144699
-0.114751
-0.084504
-0.037995
0.011021
0.048926
0.099134
0.123733
0.129669
0.153639
0.138021
0.112868
0.081572
0.019328
-0.046369
-0.088819
-0.121120
-0.132387
-0.149260
-0.129567
-0.097213
-0.061666
-0.033404
0.008583
0.041553
0.086677
0.122874
0.124998
0.134713
0.135402
0.095903
0.050991
0.014892
-0.038718
-0.084972
-0.124725
-0.146639
-0.165364
-0.170764
-0.169927
-0.144313
-0.113033
-0.083239
-0.031838
0.011068
0.050804
0.081191
0.093088
0.107811
0.094992
0.071942
0.034241
0.013762
-0.032735
-0.082816
-0.153864
-0.196827
-0.212883
-0.203055
-0.201415
-0.181264
-0.140049
-0.079843
-0.049581
-0.015341
0.032506
0.064782
0.079052
0.088312
0.071687
0.041822
0.006475
-0.024157
-0.072917
-0.112788
-0.153661
-0.194476
-0.218160
-0.223499
-0.208764
-0.179123
-0.145344
-0.121206
-0.077266
-0.038131
0.014703
0.068960
0.098504
0.092424
0.073464
0.054706
0.005044
-0.052149
-0.100558
-0.122968
-0.156871
-0.188538
-0.182882
-0.193833
-0.223251
-0.180303
-0.162635
-0.130040
-0.082963
-0.019567
0.054285
0.074512
0.070883
0.068812
0.070463
0.056792
0.033421
-0.005342
-0.063140
-0.096016
-0.135095
-0.198972
-0.206208
-0.212723
-0.210419
-0.201567
-0.152678
-0.113841
-0.058023
-0.010745
0.025602
0.052724
0.060733
0.071741
0.052999
0.031820
-0.012075
-0.019651
-0.066341
-0.126726
-0.171448
-0.189294
-0.189227
-0.203885
-0.187072
-0.152171
-0.118811
-0.078203
-0.015623
0.041636
0.094452
0.164962
0.213367
0.247030
0.255841
0.262526
0.251216
0.226575
0.200018
0.181410
0.170370
0.172443
0.176448
0.209614
0.258372
0.322738
0.387454
0.446334
0.524120
0.604688
0.699334
0.791046
0.843669
0.879871
0.895209
0.888901
0.859386
0.812774
0.769755
0.707858
0.636509
0.582914
0.531394
0.503154
0.466249
0.407018
0.368900
0.354234
0.349677
0.347618
0.359600
0.320391
0.312898
0.294319
0.262018
0.235717
0.203878
0.157863
0.093772
0.027948
-0.006541
-0.023521
-0.064576
-0.081362
-0.096522
-0.080621
-0.070020
-0.013712
0.062131
0.087151
0.103865
0.157772
0.188049
0.173521
0.159368
0.144026
0.101899
0.048410
0.000237
-0.045103
-0.098792
-0.140702
-0.142043
-0.130310
-0.143562
-0.129893
-0.087027
-0.044105
0.003956
0.034188
0.078153
0.108734
0.128391
0.134422
0.136317
0.113371
0.075843
0.033784
-0.009945
-0.066365
-0.114064
-0.139916
-0.153898
-0.165494
-0.171351
-0.135364
-0.106471
-0.060230
-0.013540
0.028132
0.066540
0.102465
0.114950
0.130007
0.140245
0.126822
0.084028
0.033365
-0.036362
-0.082888
-0.125267
-0.148307
-0.145552
-0.130531
-0.124405
-0.114484
-0.087314
-0.056494
-0.000772
0.049555
0.091678
0.136023
0.159353
0.155176
0.151672
0.129949
0.115670
0.079465
0.011122
-0.039197
-0.084648
-0.111459
-0.129616
-0.131799
-0.131522
-0.104168
-0.067278
-0.016027
0.031856
0.084590
0.129437
0.162118
0.175067
0.179031
0.167203
0.138283
0.102043
0.081600
0.049319
-0.003231
-0.047122
-0.091769
-0.088983
-0.095143
-0.080792
-0.063901
-0.036440
0.008105
0.055584
0.106431
0.143823
0.176086
0.199841
0.197356
0.195327
0.171529
0.166257
0.147383
0.099758
0.034416
-0.018832
-0.061408
-0.082485
-0.061133
-0.041214
-0.019427
0.006605
0.049158
0.107280
0.141461
0.189574
0.215492
0.227042
0.250275
0.259034
0.244777
0.200342
0.165748
0.105233
0.045082
0.000783
-0.033508
-0.054657
-0.060803
-0.041983
-0.020359
0.004076
0.049564
0.100318
0.155111
0.198440
0.233964
0.254889
0.264946
0.272459
0.248897
0.225524
0.171828
0.087883
0.055661
-0.001104
-0.048748
-0.057375
-0.052629
-0.031541
-0.015705
0.019768
0.054370
0.105209
0.158386
0.189766
0.218638
0.246364
0.257173
0.239006
0.211695
0.202488
0.155037
0.084462
0.016304
-0.007397
-0.035094
-0.062776
-0.074593
-0.088121
-0.024441
-0.000165
0.024958
0.086581
0.124521
0.158243
0.181520
0.205055
0.198954
0.185030
0.154393
0.124773
0.080888
0.044793
0.009423
-0.043825
-0.090604
-0.111216
-0.114521
-0.124101
-0.095293
-0.054861
-0.011142
0.025336
0.060784
0.097347
0.134451
0.152024
0.165185
0.154412
0.137338
0.109344
0.071459
-0.000490
-0.051835
-0.097004
-0.132845
-0.144803
-0.153516
-0.150488
-0.114461
-0.094147
-0.061551
-0.030698
0.025392
0.060729
0.093232
0.128760
0.131666
0.124982
0.096012
0.058371
0.013351
-0.027454
-0.066361
-0.108145
-0.160828
-0.179018
-0.176561
-0.171720
-0.158610
-0.151685
-0.130256
-0.042838
0.030574
0.060067
0.077900
0.119968
0.154366
0.129342
0.094219
0.064441
0.022978
-0.037436
-0.086929
-0.142765
-0.186059
-0.192418
-0.180825
-0.167346
-0.154599
-0.115127
-0.075255
-0.027161
0.016487
0.055248
0.092033
0.119924
0.141029
0.137837
0.091323
0.049416
-0.012439
-0.076905
-0.120899
-0.138516
-0.132005
-0.116076
-0.156924
-0.184589
-0.165965
-0.123139
-0.068859
-0.016467
0.023206
0.074679
0.102541
0.118163
0.120542
0.121052
0.101348
0.076162
0.022635
-0.026744
-0.088197
-0.131592
-0.163793
-0.182591
-0.185948
-0.184694
-0.162665
-0.118221
-0.071098
-0.020123
0.027695
0.059701
0.097035
0.111377
0.108826
0.111586
0.106330
0.092479
0.040881
-0.024871
-0.095503
-0.117497
-0.156868
-0.189174
-0.163225
-0.182435
-0.130793
-0.089107
-0.044841
0.006645
0.019932
0.053539
0.093625
0.121981
0.144356
0.151441
0.125060
0.079428
0.007110
-0.034166
-0.065468
-0.128329
-0.168941
-0.197331
-0.212288
-0.210554
-0.180194
-0.100904
-0.053064
-0.002322
0.048440
0.073072
0.117420
0.130769
0.119550
0.126352
0.094538
0.052250
0.008998
-0.026642
-0.073626
-0.091999
-0.151560
-0.185319
-0.204905
-0.203733
-0.171478
-0.113003
-0.059739
-0.020304
0.007059
0.036492
0.069670
0.106588
0.137952
0.139325
0.090941
0.056158
0.010136
-0.043408
-0.091580
-0.124711
-0.171235
-0.191357
-0.189243
-0.184309
-0.158687
-0.118409
-0.081251
-0.034449
0.011517
0.058514
0.096152
0.111386
0.113455
0.108146
0.088585
0.047156
-0.002573
-0.060058
-0.103963
-0.148101
-0.183509
-0.228403
-0.206939
-0.175321
-0.179307
-0.151346
-0.076900
-0.028501
0.013798
0.056125
0.105653
0.122864
0.132633
0.113104
0.081000
0.052916
0.022358
-0.033265
-0.094485
-0.145178
-0.171152
-0.187730
-0.203174
-0.194083
-0.177244
-0.141976
-0.100222
-0.051895
-0.010222
0.035660
0.075393
0.107097
0.110053
0.100556
0.079605
0.037815
-0.000120
-0.053070
-0.106060
-0.140616
-0.182809
-0.206642
-0.204597
-0.188166
-0.173450
-0.141392
-0.094146
-0.036232
0.002295
0.046826
0.080432
0.099220
0.100523
0.092323
0.065596
0.036045
-0.006144
-0.053463
-0.104564
-0.152311
-0.177033
-0.203372
-0.221108
-0.223835
-0.185790
-0.152416
-0.096643
-0.049165
0.005008
0.041251
0.074539
0.105515
0.102695
0.103090
0.078119
0.040542
0.000471
-0.069925
-0.127168
-0.165670
-0.175715
-0.208145
-0.198176
-0.185740
-0.174346
-0.145750
-0.107249
-0.047013
0.017989
0.040229
0.068286
0.081294
0.088047
0.078694
0.046331
0.025662
-0.005752
-0.047603
-0.091513
-0.134559
-0.175610
-0.215693
-0.225148
-0.220560
-0.185728
-0.159663
-0.105674
-0.039644
0.010353
0.049842
0.089545
0.105375
0.109411
0.105128
0.088547
0.049521
0.002881
-0.052473
-0.107404
-0.156971
-0.187619
-0.210424
-0.221690
-0.175927
-0.152043
-0.132366
-0.094459
-0.030987
0.027410
0.056160
0.093732
0.114048
0.107376
0.119069
0.099268
0.068666
0.039882
-0.008319
-0.055867
-0.107294
-0.156110
-0.165884
-0.166810
-0.166467
-0.142383
-0.100671
-0.054413
-0.010096
0.028828
0.071045
0.095285
0.117318
0.137231
0.137421
0.110602
0.053084
0.015152
-0.028197
-0.074006
-0.100668
-0.132692
-0.150318
-0.166309
-0.172989
-0.144874
-0.101938
-0.039188
0.018093
0.065562
0.110029
0.140050
0.150167
0.161406
0.153572
0.130128
0.088408
0.051408
-0.000650
-0.047548
-0.101709
-0.132828
-0.157614
-0.164768
-0.176590
-0.147654
-0.105847
-0.066054
-0.017411
0.017985
0.069107
0.091506
0.108966
0.109277
0.106845
0.075943
0.042239
0.001687
-0.015468
-0.054303
-0.123564
-0.164303
-0.182894
-0.206555
-0.233240
-0.179591
-0.129247
-0.095893
-0.074300
-0.010467
0.055088
0.083753
0.102369
0.082038
0.090305
0.058934
0.015084
-0.017041
-0.065368
-0.116147
-0.154047
-0.191782
-0.189259
-0.199212
-0.212022
-0.204693
-0.147641
-0.094012
-0.046646
-0.012068
0.041784
0.045977
0.103993
0.099884
0.076203
0.046542
0.004411
-0.040581
-0.072651
-0.116611
-0.168054
-0.211625
-0.224393
-0.228466
-0.209924
-0.170162
-0.136872
-0.110617
-0.058813
-0.010173
0.020563
0.044891
0.073588
0.078794
0.069686
0.054959
0.040587
-0.011602
-0.067506
-0.123456
-0.168181
-0.198244
-0.214968
-0.207437
-0.219723
-0.186281
-0.156205
-0.127737
-0.072315
-0.024214
0.018785
0.055492
0.079132
0.083362
0.078238
0.044596
0.013912
-0.024246
-0.080981
-0.125291
-0.172716
-0.209677
-0.223064
-0.228835
-0.216665
-0.187702
-0.148658
-0.123726
-0.074277
-0.029975
0.011594
0.051361
0.092103
0.135827
0.145117
0.104795
0.071472
0.041736
0.018223
0.001356
-0.011182
-0.060602
-0.091431
-0.070832
-0.035559
0.031615
0.098596
0.161214
0.238805
0.326926
0.382181
0.450062
0.515490
0.549485
0.585039
0.586365
0.577950
0.570333
0.574956
0.573035
0.557101
0.543896
0.547015
0.613908
0.626263
0.632583
0.651774
0.695783
0.720379
0.747731
0.766129
0.787099
0.781216
0.715571
0.645972
0.551904
0.462531
0.384997
0.280746
0.183916
0.089640
0.015463
-0.022905
-0.048544
-0.051080
-0.040791
-0.000281
0.041961
0.116847
0.151879
0.153015
0.162715
0.186508
0.182694
0.194754
0.177754
0.147382
0.095068
0.037850
-0.029283
-0.077753
-0.107588
-0.134097
-0.133997
-0.123020
-0.091570
-0.079605
-0.067219
0.016012
0.063071
0.087775
0.127116
0.142742
0.132291
0.124775
0.111194
0.079893
0.021950
-0.019687
-0.073772
-0.113054
-0.147862
-0.177200
-0.194582
-0.171560
-0.126883
-0.079541
-0.048625
-0.008051
0.028825
0.057205
0.098882
0.128578
0.130969
0.128384
0.121936
0.091811
0.037218
-0.022254
-0.061578
-0.088105
-0.120359
-0.158178
-0.164260
-0.145913
-0.110760
-0.088510
-0.046466
0.008596
0.051665
0.076273
0.124389
0.135642
0.144385
0.142948
0.122329
0.104850
0.062509
-0.005932
-0.046605
-0.089126
-0.121158
-0.147718
-0.150229
-0.147419
-0.113854
-0.072306
-0.034043
0.013388
0.060710
0.100323
0.151166
0.164288
0.149631
0.138454
0.113020
0.082857
0.061778
0.040200
0.004703
-0.011763
-0.066202
-0.098774
-0.104627
-0.095381
-0.073887
-0.030568
0.014634
0.066227
0.095800
0.122716
0.149128
0.167988
0.191063
0.215088
0.190752
0.141909
0.136447
0.099766
0.030651
-0.029466
-0.061218
-0.073251
-0.068445
-0.067900
-0.037214
-0.004217
0.052067
0.084478
0.133576
0.164778
0.205738
0.235005
0.241321
0.231274
0.211686
0.180626
0.142905
0.102870
0.056659
0.002110
-0.048156
-0.061871
-0.034881
-0.036633
-0.024016
-0.004141
0.041412
0.106594
0.147718
0.186613
0.234518
0.259520
0.273530
0.277242
0.214616
0.217396
0.179515
0.121567
0.057798
0.031026
0.006314
-0.009839
-0.023320
-0.024948
-0.002345
0.031996
0.079553
0.118221
0.150171
0.199975
0.228641
0.249904
0.266781
0.271055
0.237948
0.189453
0.148067
0.101289
0.053991
0.012854
-0.018585
-0.041164
-0.051664
-0.051745
-0.033988
0.005871
0.039530
0.084927
0.135060
0.174388
0.202909
0.224991
0.213793
0.210179
0.194825
0.164775
0.128636
0.079441
0.016394
-0.039256
-0.070332
-0.076286
-0.076187
-0.057679
-0.030608
-0.019622
0.002716
0.055248
0.101745
0.139085
0.157180
0.199826
0.199613
0.195877
0.153294
0.121824
0.072256
0.022529
-0.035967
-0.074596
-0.112290
-0.131686
-0.139564
-0.138158
-0.107737
-0.077817
-0.035112
0.004521
0.049103
0.089354
0.112486
0.133519
0.147854
0.136968
0.103782
0.077013
0.021627
-0.028473
-0.076245
-0.113417
-0.144222
-0.165608
-0.210024
-0.171007
-0.141631
-0.106352
-0.069315
-0.003291
0.046690
0.076488
0.107648
0.130826
0.142662
0.139333
0.105769
0.072406
0.030825
-0.024184
-0.081801
-0.128460
-0.161304
-0.185551
-0.166838
-0.161798
-0.142801
-0.114116
-0.063723
-0.004297
0.026883
0.065874
0.104642
0.119771
0.123596
0.121957
0.086840
0.037957
0.004361
-0.037785
-0.078663
-0.121897
-0.163939
-0.188606
-0.171995
-0.164666
-0.151778
-0.116992
-0.078401
-0.027193
0.031735
0.068367
0.087622
0.098163
0.128888
0.119449
0.094925
0.068926
0.037689
-0.019839
-0.083623
-0.111467
-0.131562
-0.156789
-0.160741
-0.164330
-0.150138
-0.126311
-0.084882
-0.028255
0.015515
0.066170
0.115410
0.132567
0.132972
0.128741
0.110646
0.090232
0.054466
0.014497
-0.049180
-0.125205
-0.163141
-0.136459
-0.157881
-0.167707
-0.167063
-0.104842
-0.054655
-0.024901
0.027671
0.053595
0.088111
0.106145
0.129005
0.136551
0.121629
0.078364
0.035191
-0.014485
-0.049024
-0.089379
-0.122558
-0.150207
-0.164578
-0.163060
-0.145660
-0.120949
-0.077771
-0.010180
0.057079
0.103901
0.123509
0.134621
0.132813
0.141057
0.118218
0.081224
0.022913
-0.023665
-0.069986
-0.109329
-0.125207
-0.163917
-0.174118
-0.179758
-0.149793
-0.117466
-0.069775
-0.011759
0.029640
0.051711
0.076725
0.115276
0.143469
0.130414
0.087468
0.051060
0.016164
-0.022571
-0.073371
-0.103605
-0.135339
-0.156797
-0.168336
-0.168569
-0.154456
-0.126738
-0.095016
-0.028946
0.023430
0.055011
0.082216
0.098594
0.115536
0.138020
0.110084
0.074679
0.033943
-0.022575
-0.077575
-0.117994
-0.155964
-0.178670
-0.183833
-0.179762
-0.149715
-0.132868
-0.088900
-0.039360
0.015152
0.054101
0.086831
0.116467
0.114747
0.108096
0.077220
0.053003
0.026003
-0.039526
-0.095269
-0.139221
-0.166848
-0.188734
-0.198572
-0.207206
-0.190718
-0.130130
-0.078745
-0.037684
-0.007689
0.045941
0.083008
0.118979
0.103387
0.092934
0.088885
0.056160
0.010539
-0.022340
-0.075384
-0.102456
-0.150602
-0.179504
-0.191054
-0.185090
-0.164317
-0.135974
-0.107538
-0.027411
0.010312
0.046133
0.091581
0.118575
0.103705
0.096500
0.059669
0.036228
-0.005449
-0.056250
-0.102141
-0.139133
-0.171226
-0.195143
-0.201127
-0.183660
-0.154597
-0.126259
-0.098072
-0.048242
0.003666
0.042261
0.083505
0.112920
0.108498
0.094794
0.067726
0.020405
-0.009755
-0.040033
-0.086628
-0.122154
-0.143213
-0.168493
-0.186077
-0.193597
-0.157604
-0.130630
-0.104963
-0.055374
-0.000294
0.031206
0.071955
0.094943
0.097303
0.094014
0.075473
0.051066
0.004892
-0.055084
-0.102779
-0.139793
-0.185445
-0.192749
-0.187798
-0.198379
-0.174628
-0.142624
-0.088096
-0.038038
0.007361
0.052058
0.093193
0.108582
0.100076
0.081220
0.052521
0.038709
0.018568
-0.019697
-0.083601
-0.130528
-0.175336
-0.203096
-0.197689
-0.193733
-0.184426
-0.143289
-0.088987
-0.039380
-0.005935
0.076604
0.170559
0.174865
0.169939
0.143964
0.104522
0.062018
0.017662
-0.030962
-0.061634
-0.108030
-0.147293
-0.188502
-0.201220
-0.170594
-0.127510
-0.111741
-0.070339
-0.012659
0.013986
0.069274
0.111353
0.121818
0.154784
0.167437
0.130855
0.105206
0.060815
0.028259
-0.027237
-0.074882
-0.123186
-0.140328
-0.155718
-0.149592
-0.121142
-0.096782
-0.065219
-0.025038
0.017579
0.040869
0.088641
0.105238
0.127893
0.135119
0.090415
0.029851
-0.009019
-0.036229
-0.064217
-0.099245
-0.143183
-0.182662
-0.198022
-0.188993
-0.159191
-0.142458
-0.107235
-0.056511
-0.008629
0.027110
0.068289
0.092173
0.103814
0.093959
0.065841
0.029028
-0.005729
-0.058126
-0.107595
-0.157319
-0.189425
-0.211192
-0.229534
-0.225009
-0.198447
-0.171130
-0.125309
-0.078664
-0.024903
0.021308
0.027649
0.058687
0.058256
0.048460
0.033205
0.014244
-0.030917
-0.076726
-0.129280
-0.171034
-0.205269
-0.236566
-0.245456
-0.231657
-0.196682
-0.170779
-0.129087
-0.081311
-0.045990
-0.011964
0.030734
0.058163
0.084282
0.075537
0.050173
0.029868
-0.007773
-0.069759
-0.135551
-0.161562
-0.220462
-0.246526
-0.224150
-0.183948
-0.175030
-0.175548
-0.166526
-0.077775
-0.026854
0.012608
0.039865
0.062112
0.062622
0.067304
0.041491
0.012751
-0.029509
-0.065892
-0.116954
-0.175715
-0.219520
-0.250927
-0.208101
-0.217867
-0.214384
-0.186163
-0.133757
-0.090048
-0.047444
-0.018709
0.008000
0.030292
0.089828
0.087069
0.053071
0.009948
-0.015972
-0.061357
-0.093314
-0.117237
-0.137840
-0.139973
-0.138705
-0.139458
-0.084559
-0.039857
0.002343
0.067987
0.139795
0.190974
0.236064
0.283199
0.326588
0.361291
0.369003
0.354230
0.345339
0.312949
0.289331
0.287001
0.270060
0.272297
0.310455
0.363244
0.406602
0.478695
0.555607
0.637058
0.699829
0.770615
0.796492
0.811956
0.826768
0.824549
0.793159
0.762557
0.676668
0.574793
0.453622
0.335097
0.246657
0.154021
0.105838
0.070906
0.058561
0.058845
0.051041
0.073729
0.096846
0.124289
0.154402
0.161198
0.154722
0.166097
0.144087
0.102478
0.053805
0.000593
-0.044914
-0.087473
-0.110103
-0.133026
-0.146936
-0.143844
-0.122584
-0.093743
-0.052335
-0.013025
0.029976
0.066248
0.103866
0.129211
0.144319
0.132707
0.111067
0.075763
0.037091
-0.020409
-0.083859
-0.128869
-0.159961
-0.178898
-0.198039
-0.205633
-0.188650
-0.154520
-0.108235
-0.042508
0.001847
0.068799
0.108756
0.107928
0.086964
0.111361
0.084044
0.047230
0.008920
-0.029884
-0.066397
-0.112063
-0.163939
-0.186784
-0.205097
-0.202507
-0.165647
-0.120339
-0.067804
-0.027973
0.004843
0.037403
0.085289
0.122783
0.118568
0.110726
0.079077
0.041462
-0.004374
-0.045652
-0.072884
-0.117708
-0.155849
-0.188240
-0.168138
-0.181951
-0.153559
-0.124535
-0.077491
-0.032632
0.030108
0.069240
0.128380
0.149207
0.146401
0.170087
0.132857
0.094791
0.049011
0.019685
-0.029218
-0.076370
-0.114771
-0.136653
-0.151905
-0.153048
-0.131503
-0.093214
-0.049361
-0.001516
0.054662
0.108103
0.142427
0.165132
0.177548
0.167959
0.146461
0.119753
0.086620
0.036948
-0.009228
-0.059418
-0.098776
-0.130486
-0.131553
-0.121354
-0.096570
-0.045436
-0.004774
0.041197
0.086212
0.119693
0.152310
0.176655
0.194869
0.197668
0.182458
0.153294
0.113015
0.060120
0.015048
-0.013778
-0.064476
-0.099171
-0.101846
-0.086360
-0.059322
-0.021619
0.029476
0.060887
0.101474
0.164670
0.208135
0.227894
0.225816
0.214300
0.211191
0.182940
0.129611
0.064783
0.001045
-0.031243
-0.045745
-0.055675
-0.063616
-0.068147
-0.060520
-0.025824
0.017356
0.068543
0.119474
0.166915
0.204470
0.233462
0.238093
0.260855
0.215403
0.158020
0.104547
0.071232
0.019350
-0.030255
-0.066719
-0.060311
-0.055743
-0.059449
-0.038031
-0.010091
0.019527
0.055496
0.122142
0.152058
0.174680
0.200813
0.208907
0.192878
0.181081
0.143479
0.106640
0.075969
0.017455
-0.030753
-0.076936
-0.110419
-0.121314
-0.120389
-0.102880
-0.079063
-0.038530
0.014853
0.050876
0.093263
0.136191
0.168733
0.180144
0.182971
0.158286
0.118056
0.077352
0.021004
-0.033669
-0.092385
-0.125940
-0.148477
-0.155501
-0.153530
-0.138575
-0.113070
-0.052597
-0.014844
0.026668
0.073074
0.093185
0.114939
0.128504
0.121153
0.093653
0.063073
0.015867
-0.039925
-0.069950
-0.104886
-0.155444
-0.183927
-0.191878
-0.196334
-0.186221
-0.140427
-0.110527
-0.066103
-0.000558
0.047271
0.090295
0.119844
0.144852
0.114260
0.061166
0.034417
-0.002330
-0.054436
-0.104870
-0.156087
-0.186217
-0.218022
-0.236600
-0.222622
-0.194578
-0.160947
-0.117405
-0.070382
-0.015519
0.048744
0.073335
0.089431
0.097527
0.090154
0.064603
0.016528
-0.013890
-0.067671
-0.111773
-0.153308
-0.181733
-0.206861
-0.217755
-0.223401
-0.204739
-0.131090
-0.081289
-0.060122
-0.020224
0.020685
0.055381
0.092237
0.103594
0.093472
0.069409
0.040441
-0.007759
-0.048679
-0.104999
-0.150985
-0.179099
-0.211585
-0.224573
-0.221782
-0.183243
-0.128428
-0.088782
-0.043111
0.003633
0.064483
0.089124
0.103159
0.097406
0.090285
0.080302
0.038831
-0.023996
-0.063299
-0.103584
-0.158089
-0.181734
-0.195140
-0.197288
-0.199444
-0.189989
-0.149551
-0.099792
-0.063266
0.004899
0.022336
0.052936
0.088077
0.111752
0.085222
0.114607
0.090406
0.001480
-0.075752
-0.128184
-0.135396
-0.140982
-0.177950
-0.215879
-0.217807
-0.192669
-0.149224
-0.094593
-0.044556
0.007249
0.043619
0.075282
0.099315
0.102584
0.102439
0.073025
0.034004
-0.010136
-0.064181
-0.106926
-0.147014
-0.181809
-0.228945
-0.237539
-0.212295
-0.178290
-0.136224
-0.088886
-0.053080
0.012848
0.058878
0.087642
0.106653
0.101864
0.088597
0.060967
0.011259
-0.029942
-0.065445
-0.115590
-0.158046
-0.191929
-0.214712
-0.201948
-0.206593
-0.176320
-0.143216
-0.099192
-0.049986
-0.009321
0.029849
0.057267
0.088657
0.110274
0.105567
0.081119
0.020239
-0.043137
-0.077559
-0.110845
-0.140987
-0.191889
-0.209053
-0.209349
-0.206826
-0.203853
-0.180062
-0.136037
-0.070201
-0.022073
0.013163
0.055159
0.086512
0.079661
0.083524
0.067562
0.027577
-0.034036
-0.083031
-0.119720
-0.150833
-0.189586
-0.232893
-0.253880
-0.240716
-0.206052
-0.156227
-0.108336
-0.062363
0.006378
0.045340
0.076286
0.086501
0.095351
0.087517
0.070149
0.034755
-0.013860
-0.068790
-0.129350
-0.172924
-0.217636
-0.241590
-0.257073
-0.228985
-0.193794
-0.181752
-0.141457
-0.061056
-0.003339
0.024958
0.046303
0.063924
0.066127
0.050766
0.032530
0.023159
-0.021083
-0.089009
-0.121342
-0.175804
-0.217783
-0.222388
-0.247245
-0.243517
-0.218472
-0.187402
-0.140031
-0.061539
-0.027990
0.008729
0.045326
0.076367
0.071856
0.063025
0.057493
0.021971
-0.024750
-0.077257
-0.124644
-0.175571
-0.195616
-0.217811
-0.224418
-0.225061
-0.198429
-0.168106
-0.116111
-0.069801
-0.032729
0.018300
0.061733
0.088395
0.094431
0.083007
0.069365
0.042609
0.004760
-0.045293
-0.094869
-0.123951
-0.159064
-0.181648
-0.201972
-0.204201
-0.181857
-0.130440
-0.086723
-0.036839
0.014298
0.047465
0.079352
0.106295
0.113331
0.107794
0.063359
0.022911
-0.014145
-0.040912
-0.075627
-0.125083
-0.154717
-0.177420
-0.181809
-0.178037
-0.165063
-0.114880
-0.081976
-0.033144
0.026867
0.071727
0.102644
0.124851
0.131918
0.131476
0.109362
0.071067
0.017284
-0.015223
-0.069886
-0.115436
-0.161851
-0.190494
-0.182286
-0.145478
-0.123593
-0.108542
-0.080153
-0.039437
-0.000388
0.039590
0.071202
0.094491
0.096689
0.093138
0.060505
0.023800
-0.024616
-0.080116
-0.119867
-0.154887
-0.201046
-0.206479
-0.200400
-0.209161
-0.189360
-0.161987
-0.122129
-0.082082
-0.028784
0.031111
0.045462
0.057666
0.080530
0.075982
0.028591
-0.010146
-0.064770
-0.115901
-0.153719
-0.167695
-0.193135
-0.230009
-0.221904
-0.237174
-0.222263
-0.182216
-0.140637
-0.111824
-0.048196
-0.002646
0.022065
0.035422
0.040821
0.038246
0.037502
0.017315
-0.028412
-0.070557
-0.139288
-0.187227
-0.228225
-0.268724
-0.269934
-0.250005
-0.216533
-0.171742
-0.136916
-0.094820
-0.052238
-0.014038
0.018413
0.035029
0.044534
0.043784
0.019617
-0.018556
-0.066841
-0.117560
-0.149370
-0.195523
-0.238290
-0.239078
-0.231796
-0.233660
-0.211712
-0.180094
-0.142827
-0.103858
-0.058186
-0.018234
0.021981
0.035354
0.056876
0.053627
0.023559
-0.011955
-0.055503
-0.095207
-0.148213
-0.199162
-0.226294
-0.244563
-0.238511
-0.236429
-0.237137
-0.205752
-0.173125
-0.101720
-0.046975
-0.004603
0.035853
0.055905
0.063843
0.077159
0.068508
0.033019
0.008455
-0.027274
-0.058728
-0.080374
-0.081176
-0.092022
-0.091055
-0.083712
-0.033077
0.018486
0.074871
0.149214
0.231625
0.296014
0.355209
0.428700
0.473848
0.508398
0.506295
0.491752
0.470158
0.461334
0.452876
0.448756
0.448123
0.462687
0.500684
0.545911
0.596073
0.620362
0.654374
0.715215
0.765610
0.779019
0.787570
0.769413
0.741292
0.686045
0.593593
0.511049
0.404840
0.298842
0.193534
0.114616
0.039835
-0.028705
-0.061397
-0.077629
-0.062025
-0.033512
-0.017901
0.050842
0.104672
0.125882
0.120737
0.135156
0.147631
0.142892
0.120826
0.091750
0.036273
-0.007579
-0.070182
-0.116616
-0.138730
-0.150565
-0.134928
-0.115355
-0.123631
-0.129434
-0.087373
-0.036820
0.015388
0.047248
0.084828
0.093126
0.114138
0.121164
0.099008
0.055011
0.000047
-0.042179
-0.081780
-0.122432
-0.157964
-0.190396
-0.206009
-0.188887
-0.170534
-0.140062
-0.097261
-0.055174
-0.017293
0.027797
0.067696
0.123000
0.127428
0.110807
0.082108
0.043742
-0.006122
-0.054670
-0.100980
-0.148645
-0.186671
-0.212143
-0.204486
-0.183555
-0.136862
-0.109701
-0.080329
-0.033094
0.018285
0.068654
0.084839
0.101113
0.110462
0.129538
0.103959
0.061390
0.021739
-0.029054
-0.077068
-0.139949
-0.153554
-0.172745
-0.168482
-0.177631
-0.160739
-0.116024
-0.068158
-0.020543
0.032348
0.069422
0.104120
0.127186
0.124973
0.108640
0.105260
0.088253
0.031453
-0.012714
-0.063609
-0.101621
-0.129329
-0.139007
-0.129544
-0.131222
-0.121943
-0.085606
-0.038997
-0.007651
0.053628
0.089041
0.147992
0.184419
0.170769
0.160497
0.150192
0.121776
0.064328
0.013283
-0.019877
-0.037948
-0.065310
-0.098289
-0.103901
-0.105449
-0.090485
-0.058825
0.000039
0.040461
0.081923
0.123546
0.171562
0.214857
0.239331
0.215709
0.177279
0.156091
0.118220
0.065116
0.016437
-0.018015
-0.063470
-0.083525
-0.071030
-0.074945
-0.064295
-0.029296
0.023107
0.076653
0.117356
0.171050
0.211240
0.210608
0.215251
0.213302
0.203784
0.164505
0.119111
0.068953
0.017039
-0.023689
-0.047831
-0.057187
-0.069644
-0.057286
-0.039793
0.007150
0.035435
0.067581
0.123658
0.161960
0.200004
0.218951
0.221925
0.211628
0.175079
0.136420
0.086515
0.030781
0.019900
0.001710
-0.025047
-0.068420
-0.090032
-0.099162
-0.071448
-0.045081
0.008389
0.047685
0.100249
0.146260
0.179796
0.196072
0.205814
0.193065
0.155548
0.117710
0.091283
0.026999
-0.018817
-0.035012
-0.072591
-0.105041
-0.111699
-0.110953
-0.081297
-0.059949
-0.022515
0.027047
0.063894
0.094477
0.117472
0.146513
0.157682
0.159729
0.126923
0.095174
0.044934
-0.002178
-0.057732
-0.110121
-0.141735
-0.164416
-0.179355
-0.170540
-0.160389
-0.117212
-0.077812
-0.027313
0.041989
0.094469
0.121175
0.126513
0.118083
0.100312
0.084625
0.058853
0.012933
-0.041221
-0.083330
-0.117421
-0.161584
-0.178346
-0.192221
-0.181917
-0.168723
-0.120227
-0.085868
-0.045761
-0.003187
0.032512
0.067161
0.095356
0.102641
0.087493
0.072777
0.041067
-0.013452
-0.070454
-0.123225
-0.149053
-0.163077
-0.180335
-0.203869
-0.192707
-0.171325
-0.131864
-0.092006
-0.035996
0.011310
0.038156
0.058595
0.082606
0.099550
0.100621
0.058108
0.017547
-0.025184
-0.071331
-0.126901
-0.129772
-0.161762
-0.180323
-0.183221
-0.194333
-0.196746
-0.179795
-0.091484
-0.023118
0.019049
0.049048
0.074774
0.094555
0.102940
0.092538
0.078388
0.046059
-0.000743
-0.045812
-0.093640
-0.134648
-0.164199
-0.182540
-0.195893
-0.193447
-0.154987
-0.130939
-0.098981
-0.062633
-0.000716
0.074675
0.091301
0.103771
0.103046
0.107076
0.081023
0.046487
-0.009294
-0.045199
-0.102029
-0.148002
-0.164705
-0.189717
-0.214799
-0.209879
-0.156588
-0.116996
-0.082199
-0.021800
0.015281
0.040461
0.078240
0.099619
0.107166
0.094643
0.070987
0.038321
0.008322
-0.025295
-0.064990
-0.103421
-0.151262
-0.188459
-0.201712
-0.205488
-0.183921
-0.145920
-0.074083
-0.017131
0.030761
0.054392
0.084350
0.105463
0.115092
0.107233
0.078804
0.037632
-0.007681
-0.044689
-0.100570
-0.143697
-0.170429
-0.191187
-0.194881
-0.186992
-0.164061
-0.130455
-0.088625
-0.038423
0.010372
0.045071
0.075244
0.088608
0.100209
0.094073
0.100166
0.066967
-0.011065
-0.068765
-0.115744
-0.158805
-0.212317
-0.228612
-0.206201
-0.148795
-0.118511
-0.117032
-0.093441
-0.041819
0.017142
0.054966
0.073152
0.087607
0.097711
0.086144
0.080270
0.068726
0.006936
-0.037172
-0.083044
-0.140777
-0.168701
-0.191490
-0.215051
-0.196633
-0.182791
-0.131576
-0.081776
-0.041907
0.006219
0.035413
0.060197
0.076225
0.081519
0.084941
0.067545
0.050635
-0.009031
-0.058313
-0.110690
-0.168016
-0.184295
-0.184910
-0.199466
-0.210474
-0.193788
-0.163369
-0.083653
-0.011811
0.011678
0.034717
0.038844
0.049934
0.093917
0.085329
0.063437
0.029211
0.002716
-0.037807
-0.089479
-0.133190
-0.182930
-0.211798
-0.244226
-0.235878
-0.181206
-0.148615
-0.092611
-0.033123
0.023149
0.054591
0.063579
0.074948
0.085011
0.089823
0.075278
0.056996
0.004147
-0.047230
-0.104501
-0.155247
-0.185741
-0.198167
-0.205599
-0.198496
-0.178238
-0.144721
-0.099961
-0.053859
-0.015810
0.027308
0.067347
0.095766
0.099005
0.100854
0.087475
0.064607
0.007331
-0.044469
-0.095743
-0.125708
-0.156514
-0.179931
-0.192115
-0.171503
-0.164727
-0.129997
-0.071556
-0.002874
0.037277
0.062577
0.096813
0.120779
0.127444
0.111707
0.087160
0.078933
0.035013
-0.019792
-0.075659
-0.110034
-0.118637
-0.156468
-0.188161
-0.188741
-0.163505
-0.126617
-0.086128
-0.019069
0.026662
0.071847
0.123583
0.142311
0.137422
0.140388
0.128397
0.096380
0.051902
0.022134
-0.033211
-0.083354
-0.125693
-0.164533
-0.167207
-0.160478
-0.135293
-0.115746
-0.089272
-0.030777
0.028458
0.099698
0.137632
0.119696
0.121016
0.118453
0.104588
0.069266
0.029634
-0.012890
-0.081750
-0.140537
-0.173952
-0.187987
-0.167221
-0.150509
-0.152507
-0.141389
-0.101620
-0.050400
-0.017423
0.019287
0.053409
0.104444
0.127509
0.106021
0.070022
0.031293
-0.023371
-0.061057
-0.104766
-0.154589
-0.161826
-0.197108
-0.190426
-0.187712
-0.183972
-0.171985
-0.143919
-0.093122
-0.028158
0.022279
0.045313
0.058800
0.068476
0.060754
0.034688
0.002558
-0.035203
-0.074629
-0.132949
-0.168122
-0.176500
-0.211047
-0.243876
-0.234366
-0.215435
-0.182590
-0.147087
-0.108182
-0.046735
0.011129
0.034839
0.065261
0.085819
0.066892
0.042280
0.014616
-0.032371
-0.080139
-0.118578
-0.152875
-0.196025
-0.234052
-0.239398
-0.229680
-0.205946
-0.178566
-0.138445
-0.111524
-0.060727
-0.003778
0.035217
0.054803
0.075371
0.065772
0.036087
0.013335
-0.026515
-0.078003
-0.118218
-0.155068
-0.214313
-0.252058
-0.264185
-0.249387
-0.234264
-0.191605
-0.129380
-0.059493
-0.026676
0.000084
0.027656
0.075837
0.097239
0.066069
0.038516
0.009946
-0.028602
-0.042329
-0.075113
-0.115582
-0.144829
-0.159116
-0.155164
-0.113525
-0.052374
0.001466
0.032939
0.070288
0.122441
0.204334
0.258921
0.290393
0.337769
0.355945
0.394215
0.377584
0.359988
0.358002
0.346809
0.350927
0.351468
0.365803
0.380630
0.420615
0.485983
0.596254
0.664537
0.724230
0.798954
0.867614
0.903769
0.920983
0.929953
0.901002
0.851929
0.799305
0.724206
0.638157
0.532525
0.433495
0.347698
0.274924
0.206762
0.150253
0.123390
0.096425
0.114438
0.131325
0.174773
0.213184
0.248651
0.255387
0.239443
0.221449
0.167111
0.153833
0.091514
0.052383
0.011571
-0.067493
-0.094593
-0.119903
-0.115908
-0.119929
-0.109355
-0.094459
-0.041293
0.001420
0.052215
0.098834
0.129011
0.150792
0.147465
0.130863
0.117782
0.090701
0.031012
-0.014787
-0.059465
-0.100652
-0.140770
-0.175251
-0.159405
-0.180342
-0.169323
-0.131866
-0.051491
-0.008785
0.019551
0.064464
0.103772
0.118809
0.130183
0.131788
0.108281
0.056780
0.018031
-0.023386
-0.075955
-0.123457
-0.155118
-0.174256
-0.187661
-0.196625
-0.170951
-0.132940
-0.054145
-0.002292
0.036505
0.071491
0.117780
0.133635
0.127745
0.113499
0.098984
0.067223
0.048760
0.002553
-0.036204
-0.093896
-0.123883
-0.157478
-0.174641
-0.169380
-0.141233
-0.089635
-0.046458
-0.005393
0.031903
0.063267
0.094202
0.130455
0.163747
0.197391
0.186963
0.132703
0.053259
-0.007871
-0.036596
-0.073758
-0.105512
-0.119802
-0.130727
-0.124192
-0.111000
-0.071841
-0.030610
0.017122
0.060868
0.118272
0.151947
0.174073
0.182777
0.172746
0.172959
0.150512
0.095481
0.034501
0.002383
-0.038693
-0.075793
-0.096333
-0.117990
-0.125966
-0.016937
-0.011980
-0.001523
0.046929
0.099217
0.145238
0.184831
0.207650
0.209356
0.214397
0.208855
0.167010
0.135827
0.095473
0.038241
-0.024217
-0.017040
-0.046034
-0.072826
-0.065849
-0.057933
-0.032222
0.032031
0.090401
0.137293
0.210283
0.240730
0.234474
0.226891
0.228802
0.241275
0.236292
0.163185
0.105969
0.053659
0.014256
-0.014758
-0.037259
-0.044936
-0.045625
-0.019957
0.010393
0.061247
0.110192
0.149316
0.193269
0.229256
0.251753
0.264421
0.246864
0.226074
0.183021
0.123292
0.071409
0.034035
0.000732
-0.016056
-0.023836
-0.059137
-0.069891
-0.042280
-0.013686
0.045937
0.085773
0.134101
0.158527
0.186717
0.226748
0.238305
0.231460
0.204821
0.183749
0.133458
0.080103
0.032714
-0.008276
-0.041902
-0.080470
-0.076719
-0.083663
-0.083838
-0.069028
-0.018486
0.046378
0.112031
0.168696
0.189102
0.201939
0.205010
0.185728
0.152219
0.123830
0.086896
0.042620
-0.006637
-0.071838
-0.100736
-0.129297
-0.151478
-0.133867
-0.109890
-0.073117
-0.041860
0.011149
0.057296
0.107154
0.130903
0.135492
0.140182
0.131749
0.120129
0.089237
0.035873
0.001727
-0.053209
-0.110524
-0.142152
-0.160783
-0.151183
-0.137545
-0.143234
-0.130661
-0.083643
-0.013002
0.053415
0.093998
0.100923
0.107762
0.115937
0.117705
0.103350
0.071948
0.025080
-0.026147
-0.079056
-0.134382
-0.160164
-0.170896
-0.187749
-0.201373
-0.161549
-0.120542
-0.061692
-0.023513
0.019175
0.045261
0.077399
0.102732
0.113332
0.113055
0.087160
0.056958
0.007619
-0.055682
-0.034932
-0.082494
-0.124127
-0.162750
-0.189898
-0.173102
-0.145349
-0.125129
-0.081891
-0.039912
0.017236
0.083238
0.114930
0.135248
0.137169
0.129435
0.101380
0.052570
-0.002675
-0.027830
-0.064570
-0.102920
-0.139605
-0.159634
-0.188378
-0.147611
-0.134952
-0.118000
-0.076886
-0.013709
0.039812
0.081724
0.105619
0.129138
0.129797
0.133764
0.117485
0.085165
0.048040
-0.008190
-0.058174
-0.107261
-0.142636
-0.172834
-0.201832
-0.181264
-0.136606
-0.112543
-0.047896
-0.020810
0.047365
0.087543
0.105463
0.114075
0.130060
0.102209
0.086482
0.076866
0.052466
0.002084
-0.061862
-0.098051
-0.101195
-0.111865
-0.177916
-0.161704
-0.137064
-0.103587
-0.059148
-0.024625
0.029240
0.071731
0.094090
0.115070
0.142018
0.151266
0.114211
0.079601
0.030805
-0.016940
-0.067809
-0.111216
-0.142347
-0.169953
-0.167706
-0.168302
-0.145882
-0.118249
-0.068194
-0.027921
0.026468
0.081494
0.116034
0.129735
0.139998
0.137523
0.110322
0.076127
0.022055
-0.031559
-0.081571
-0.120929
-0.154440
-0.154083
-0.153736
-0.166531
-0.150920
-0.123783
-0.059561
-0.007741
0.024104
0.067456
0.105805
0.124730
0.130033
0.116580
0.088050
0.058710
0.021150
-0.014173
-0.058395
-0.119002
-0.142868
-0.185044
-0.169811
-0.174978
-0.161147
-0.133697
-0.094230
-0.048245
0.022819
0.078125
0.124703
0.126419
0.133945
0.129329
0.099338
0.055936
0.005373
-0.011570
-0.051626
-0.110946
-0.140861
-0.171087
-0.197986
-0.189609
-0.161375
-0.129829
-0.079717
-0.020223
0.021284
0.066449
0.093410
0.119443
0.129419
0.111786
0.082571
0.085336
0.041415
-0.016420
-0.077908
-0.120705
-0.158440
-0.184594
-0.200068
-0.201086
-0.150783
-0.121487
-0.077637
-0.039930
0.011335
0.048202
0.081030
0.098745
0.110866
0.105840
0.085701
0.045648
-0.003905
-0.041554
-0.079087
-0.109355
-0.145429
-0.173587
-0.183459
-0.176083
-0.162075
-0.127774
-0.071243
-0.017401
0.025701
0.064432
0.095853
0.115681
0.125715
0.103419
0.094995
0.045627
0.001833
-0.048230
-0.098971
-0.130671
-0.160342
-0.193320
-0.187297
-0.164934
-0.142066
-0.121250
-0.067957
-0.043141
-0.004172
0.039081
0.081508
0.142358
0.142381
0.109873
0.098151
0.079226
0.037277
-0.005645
-0.071256
-0.111024
-0.136019
-0.155589
-0.158146
-0.136201
-0.104342
-0.081243
-0.048883
0.003583
0.068573
0.121214
0.153566
0.169173
0.166576
0.157742
0.130768
0.096482
0.068475
0.046797
-0.026547
-0.090844
-0.142546
-0.165950
-0.162472
-0.154081
-0.130079
-0.090119
-0.053788
0.004660
0.060423
0.102659
0.134794
0.168176
0.208027
0.223650
0.202763
0.147012
0.070643
0.007709
-0.051388
-0.091978
-0.119107
-0.115280
-0.127657
-0.123976
-0.121180
-0.103161
-0.056953
-0.025989
0.026020
0.083016
0.118311
0.154684
0.163040
0.148087
0.111277
0.092985
0.036065
-0.025567
-0.072368
-0.107466
-0.127838
-0.151466
-0.180129
-0.181215
-0.167821
-0.133479
-0.082376
-0.038458
0.011217
0.044782
0.067892
0.080318
0.110513
0.118384
0.093646
0.064735
0.021803
-0.035291
-0.097537
-0.149486
-0.168346
-0.191950
-0.212947
-0.204192
-0.185058
-0.157465
-0.110635
-0.060957
-0.012921
0.033541
0.063031
0.092261
0.104678
0.110541
0.091117
0.033622
-0.023383
-0.064330
-0.116784
-0.156764
-0.187799
-0.209933
-0.228065
-0.224248
-0.189647
-0.147431
-0.087823
-0.055559
-0.014287
0.036916
0.064694
0.083611
0.099750
0.097959
0.070994
0.030449
-0.017706
-0.075042
-0.128831
-0.173421
-0.201291
-0.199118
-0.191754
-0.193382
-0.193883
-0.163569
-0.095067
-0.058241
-0.012857
0.010834
0.066697
0.111394
0.141346
0.102620
0.083649
0.042886
-0.008116
-0.071875
-0.094668
-0.134962
-0.186956
-0.210345
-0.231319
-0.232214
-0.208911
-0.174628
-0.107615
-0.062722
-0.027866
0.005755
0.031211
0.072745
0.115754
0.112597
0.096892
0.079894
0.044846
0.012126
-0.029212
-0.069471
-0.092414
-0.093501
-0.093950
-0.075339
-0.046822
0.008827
0.084400
0.160041
0.229781
0.296664
0.377560
0.432437
0.481196
0.497200
0.514956
0.522421
0.520951
0.500159
0.470415
0.452188
0.465370
0.489223
0.505102
0.559969
0.614143
0.670090
0.746232
0.797857
0.830908
0.879145
0.877726
0.865347
0.875291
0.851317
0.788413
0.694042
0.573177
0.443324
0.319523
0.240326
0.149602
0.080739
0.016153
-0.011882
-0.011583
0.014477
0.074749
0.131252
0.178520
0.218630
0.241025
0.250292
0.244735
0.233903
0.182738
0.143066
0.096531
0.046956
-0.010278
-0.056294
-0.097693
-0.112648
-0.119517
-0.114717
-0.109795
-0.079030
-0.018898
0.036532
0.073456
0.106245
0.121115
0.158515
0.144017
0.110120
0.113952
0.115791
0.062467
0.014496
-0.044315
-0.096980
-0.124343
-0.138607
-0.162669
-0.165447
-0.134609
-0.108419
-0.062071
-0.017640
0.037551
0.087147
0.124850
0.152143
0.163448
0.158678
0.123802
0.098448
0.034510
-0.021871
-0.057404
-0.108683
-0.159272
-0.163925
-0.176760
-0.161060
-0.132202
-0.094050
-0.045401
0.001064
0.042165
0.094979
0.109776
0.151093
0.173031
0.159630
0.142264
0.100071
0.054449
-0.009695
-0.050293
-0.098857
-0.127070
-0.137487
-0.145865
-0.139312
-0.108807
-0.076058
-0.026055
0.010352
0.075061
0.119980
0.143821
0.169937
0.186812
0.198527
0.168897
0.127532
0.097011
0.071864
-0.009089
-0.081834
-0.123416
-0.139579
-0.136138
-0.115115
-0.089746
-0.058104
-0.018409
0.035306
0.078800
0.130994
0.169518
0.217845
0.212321
0.195853
0.177722
0.156123
0.106315
0.053776
0.007044
-0.030380
-0.037108
-0.068925
-0.087437
-0.095526
-0.071627
-0.033763
0.021930
0.075983
0.123869
0.169370
0.199691
0.237496
0.247146
0.259925
0.237292
0.198478
0.165326
0.103879
0.048112
0.006398
-0.025941
-0.048944
-0.058341
-0.052118
-0.013775
0.018101
0.070285
0.114154
0.167344
0.209129
0.239618
0.257734
0.261754
0.261744
0.230017
0.203972
0.157226
0.112103
0.067752
0.026163
-0.001584
-0.027212
-0.046330
-0.035530
-0.017320
0.015126
0.071387
0.113783
0.153890
0.191044
0.229709
0.270828
0.283580
0.272119
0.253908
0.213320
0.141441
0.114245
0.060642
0.014530
-0.021147
-0.044801
-0.054924
-0.047063
-0.033893
-0.001388
0.052715
0.086664
0.133325
0.176893
0.231830
0.243036
0.240167
0.252081
0.211839
0.217673
0.152947
0.076220
0.010690
-0.026992
-0.055147
-0.082111
-0.107076
-0.101751
-0.075467
-0.045572
0.012971
0.093881
0.140350
0.183586
0.172710
0.199432
0.222968
0.192822
0.159112
0.119553
0.058504
0.017701
-0.027583
-0.052990
-0.098845
-0.124219
-0.151321
-0.150254
-0.123193
-0.091187
-0.030888
0.018373
0.075042
0.130798
0.165346
0.175807
0.165420
0.135431
0.119491
0.098256
0.061574
-0.005511
-0.057048
-0.080769
-0.120688
-0.149053
-0.155688
-0.158695
-0.137658
-0.112709
-0.048686
0.000968
0.039610
0.089447
0.119820
0.148454
0.151412
0.140350
0.113265
0.079142
0.016858
-0.024392
-0.061522
-0.104659
-0.147410
-0.178005
-0.179713
-0.185275
-0.161775
-0.124508
-0.068748
-0.009868
0.034363
0.064040
0.119740
0.132178
0.141541
0.129909
0.115927
0.090868
0.046632
-0.017945
-0.081724
-0.123150
-0.135851
-0.164196
-0.164754
-0.160393
-0.151326
-0.129727
-0.080065
-0.029391
0.035414
0.068500
0.086006
0.114460
0.129316
0.139340
0.132096
0.096323
0.039747
0.003602
-0.045442
-0.089634
-0.129198
-0.153429
-0.161310
-0.160782
-0.141411
-0.123248
-0.067562
-0.019366
0.038873
0.098619
0.120543
0.122601
0.112432
0.084338
0.125726
0.120364
0.071413
-0.003641
-0.058751
-0.089544
-0.129001
-0.155047
-0.178483
-0.162403
-0.137225
-0.104193
-0.054896
0.000208
0.059782
0.094050
0.116497
0.154274
0.190618
0.156913
0.148350
0.107910
0.052596
-0.025931
-0.068064
-0.092209
-0.121683
-0.152014
-0.166112
-0.158488
-0.124150
-0.091094
-0.052183
-0.009675
0.048821
0.104273
0.123990
0.148636
0.161904
0.148115
0.126999
0.091641
0.038561
-0.007253
-0.059578
-0.113776
-0.141423
-0.139493
-0.147994
-0.154661
-0.143352
-0.104599
-0.061494
-0.016026
0.043707
0.082025
0.103793
0.148149
0.164591
0.144531
0.113755
0.081349
0.047211
-0.002644
-0.055454
-0.095469
-0.134347
-0.160545
-0.174044
-0.174456
-0.136414
-0.107742
-0.058547
-0.011147
0.049587
0.085864
0.112385
0.133618
0.150417
0.111407
0.087096
0.082064
0.031968
-0.026388
-0.069763
-0.115548
-0.156108
-0.181692
-0.183042
-0.155963
-0.141614
-0.119748
-0.062337
-0.014759
0.031439
0.065772
0.082799
0.126516
0.171739
0.155026
0.126111
0.073569
0.013015
-0.028752
-0.073666
-0.128580
-0.154933
-0.168515
-0.182605
-0.195315
-0.217506
-0.125468
-0.058850
-0.002666
0.038855
0.081106
0.111813
0.132586
0.149542
0.133555
0.106180
0.052671
0.030718
-0.029406
-0.087392
-0.118290
-0.142089
-0.169852
-0.194840
-0.185018
-0.148383
-0.117607
-0.077204
-0.050791
0.008421
0.097010
0.130945
0.122734
0.134858
0.124055
0.092769
0.072873
0.036734
-0.022618
-0.079281
-0.129002
-0.147797
-0.175924
-0.193896
-0.182484
-0.160693
-0.124305
-0.075514
-0.015890
0.035999
0.068400
0.105339
0.129135
0.145979
0.140120
0.098922
0.075070
0.013161
-0.022576
-0.056353
-0.105051
-0.132532
-0.147106
-0.164635
-0.166545
-0.130476
-0.086963
-0.046608
-0.005438
0.037929
0.074219
0.108616
0.130638
0.151124
0.141750
0.126295
0.104442
0.066502
0.013906
-0.018740
-0.067450
-0.114858
-0.153247
-0.166844
-0.157943
-0.138343
-0.100563
-0.034531
0.018272
0.050776
0.088267
0.145553
0.174628
0.176393
0.173401
0.136999
0.104869
0.066469
0.028050
-0.021753
-0.058981
-0.106275
-0.125291
-0.127362
-0.109152
-0.100521
-0.071669
-0.008635
0.032082
0.064705
0.101081
0.126834
0.157587
0.171806
0.155592
0.136755
0.119104
0.036042
-0.039057
-0.054795
-0.100205
-0.118685
-0.144793
-0.161564
-0.175372
-0.135644
-0.107870
-0.071882
-0.038108
0.030705
0.092680
0.119482
0.131608
0.133598
0.121035
0.091564
0.066948
0.011835
-0.032286
-0.086208
-0.123480
-0.167593
-0.177139
-0.192401
-0.193821
-0.183436
-0.139849
-0.103199
-0.044807
0.010453
0.062974
0.113512
0.110270
0.112619
0.091626
0.081605
0.042150
-0.009701
-0.064537
-0.113687
-0.153467
-0.176066
-0.189756
-0.203898
-0.220188
-0.175211
-0.155110
-0.103165
-0.053496
0.003574
0.041249
0.075128
0.093968
0.109202
0.098929
0.078619
0.035745
-0.002581
-0.051210
-0.103085
-0.152147
-0.182203
-0.214632
-0.228592
-0.216525
-0.188339
-0.150127
-0.096415
-0.053074
-0.025192
0.026817
0.083334
0.117967
0.120610
0.107814
0.084046
0.059007
0.001013
-0.052830
-0.116789
-0.161600
-0.179937
-0.194661
-0.206939
-0.199926
-0.193379
-0.165901
-0.126642
-0.066730
-0.023086
0.019281
0.056081
0.079896
0.109512
0.098772
0.075405
0.036704
-0.009167
-0.054065
-0.095171
-0.135111
-0.160338
-0.176709
-0.177053
-0.168965
-0.135736
-0.076074
-0.013602
0.054045
0.119519
0.173342
0.219890
0.239628
0.261724
0.272533
0.282501
0.280806
0.265001
0.240483
0.227219
0.217661
0.223943
0.231969
0.263474
0.329468
0.357378
0.401467
0.480959
0.618960
0.721015
0.766971
0.799384
0.855677
0.905626
0.949542
0.919865
0.883668
0.830176
0.747842
0.663207
0.595356
0.540690
0.500539
0.440207
0.378558
0.328028
0.294767
0.300753
0.288637
0.283062
0.292616
0.306061
0.306285
0.298613
0.262457
0.236620
0.211471
0.162787
0.109292
0.039989
0.001709
-0.037749
-0.083816
-0.100735
-0.088685
-0.068584
-0.029063
-0.000590
0.040033
0.083747
0.131987
0.154539
0.180626
0.191926
0.177343
0.151160
0.115150
0.056104
-0.002598
-0.040398
-0.079808
-0.119707
-0.137391
-0.149298
-0.138814
-0.115738
-0.075571
-0.030117
0.022907
0.054109
0.081070
0.113240
0.148638
0.149723
0.137432
0.121517
0.109028
0.059801
0.011680
-0.069448
-0.107844
-0.131567
-0.151077
-0.166284
-0.153833
-0.133106
-0.086905
-0.035033
0.012730
0.050463
0.086289
0.109897
0.144334
0.181108
0.172857
0.141116
0.106857
0.064947
0.015465
-0.038062
-0.086180
-0.119624
-0.148257
-0.167146
-0.139194
-0.112674
-0.077641
-0.007019
0.049799
0.093127
0.094544
0.149389
0.183928
0.184263
0.156396
0.164487
0.132163
0.080052
0.043615
0.003128
-0.039795
-0.073193
-0.103080
-0.125513
-0.107096
-0.080127
-0.048264
-0.006482
0.045932
0.105652
0.147250
0.169823
0.192209
0.212528
0.210042
0.199245
0.162574
0.104752
0.055342
0.008507
-0.035574
-0.071916
-0.085376
-0.097160
-0.081467
-0.049219
-0.018213
0.023243
0.080813
0.135483
0.186153
0.219610
0.241798
0.246901
0.229385
0.209167
0.170968
0.099855
0.086916
0.043784
-0.004380
-0.051943
-0.042578
-0.040636
-0.041840
-0.028910
0.010889
0.058806
0.099243
0.164916
0.218218
0.245307
0.255367
0.282086
0.264180
0.246207
0.239796
0.168499
0.105431
0.050807
0.046577
0.005364
-0.034569
-0.033465
-0.012167
-0.002393
0.011163
0.063755
0.120038
0.175037
0.209998
0.238806
0.250662
0.295158
0.292184
0.241306
0.210971
0.193351
0.158470
0.093264
0.044195
0.018910
-0.006407
-0.014005
-0.011432
-0.004072
0.015282
0.068713
0.120419
0.153637
0.203607
0.224698
0.240164
0.246489
0.247823
0.254130
0.199721
0.147967
0.107425
0.042280
-0.012846
-0.048491
-0.071452
-0.080251
-0.069410
-0.056242
-0.014259
0.040156
0.092383
0.141066
0.188984
0.200197
0.209433
0.229034
0.221365
0.196299
0.164254
0.127190
0.063593
0.007657
-0.042685
-0.077044
-0.108509
-0.117297
-0.106695
-0.068312
-0.039226
-0.006291
0.053114
0.085520
0.119090
0.136857
0.175120
0.182464
0.181924
0.159949
0.125429
0.062292
0.015649
-0.034093
-0.075308
-0.100014
-0.128191
-0.142735
-0.138364
-0.117428
-0.081500
-0.040959
0.027133
0.079645
0.122854
0.135940
0.140640
0.145245
0.137576
0.128017
0.096520
0.032669
-0.018340
-0.064196
-0.124470
-0.128776
-0.150156
-0.181526
-0.150346
-0.112200
-0.103392
-0.037084
0.005235
0.062800
0.112441
0.139579
0.144887
0.149246
0.126137
0.117763
0.100527
0.050212
-0.012338
-0.066156
-0.114017
-0.140605
-0.157891
-0.174307
-0.164505
-0.142132
-0.108376
-0.064289
-0.009812
0.032096
0.091529
0.126731
0.139436
0.148700
0.141039
0.137244
0.096413
0.038448
-0.014785
-0.031173
-0.075715
-0.111212
-0.129194
-0.153120
-0.150148
-0.113618
-0.068886
-0.043920
-0.003835
0.044123
0.088188
0.118201
0.157497
0.174822
0.146189
0.121748
0.094357
0.061141
0.014088
-0.042044
-0.084558
-0.121786
-0.142245
-0.154710
-0.137913
-0.113972
-0.093571
-0.035376
0.007723
0.053648
0.094999
0.124549
0.143668
0.163246
0.159263
0.130806
0.106667
0.063772
0.008843
-0.042198
-0.079584
-0.115071
-0.139438
-0.161335
-0.140638
-0.097192
-0.072498
-0.022808
0.038229
0.068415
0.100228
0.119607
0.138849
0.154736
0.139689
0.123114
0.093637
0.041525
-0.001109
-0.033214
-0.089566
-0.090773
-0.123873
-0.139883
-0.141579
-0.129822
-0.079073
-0.022630
0.020773
0.053834
0.100163
0.140894
0.155855
0.153393
0.141448
0.140875
0.111992
0.048360
-0.002951
-0.048736
-0.075995
-0.114554
-0.144589
-0.176800
-0.143384
-0.131184
-0.086705
-0.046565
0.014679
0.062357
0.117727
0.143336
0.167994
0.170166
0.154619
0.126984
0.084022
0.027207
-0.018601
-0.017362
-0.064997
-0.117776
-0.143194
-0.165431
-0.155538
-0.122450
-0.084737
-0.032106
0.022015
0.058039
0.085783
0.112058
0.141913
0.147661
0.118294
0.103196
0.079900
0.046478
-0.006676
-0.050201
-0.073928
-0.113126
-0.152551
-0.173682
-0.162166
-0.139720
-0.106299
-0.050422
0.013619
0.081112
0.102254
0.123660
0.148262
0.162820
0.138961
0.101972
0.089950
0.029914
0.002435
-0.052655
-0.102944
-0.139466
-0.167862
-0.176099
-0.162744
-0.137704
-0.085885
-0.050138
-0.001185
0.045715
0.088870
0.131095
0.149113
0.158891
0.143829
0.105754
0.069063
0.019868
-0.025324
-0.075378
-0.106292
-0.126893
-0.164926
-0.180761
-0.165725
-0.138976
-0.097985
-0.057632
-0.025762
0.016082
0.060996
0.115128
0.143342
0.144570
0.136493
0.111762
0.073846
0.013944
-0.041560
-0.068149
-0.096547
-0.127724
-0.131517
-0.134361
-0.126635
-0.107968
-0.088706
-0.047140
0.012644
0.066314
0.089828
0.118815
0.137140
0.173710
0.163368
0.139950
0.108403
0.061051
0.008640
-0.034241
-0.087933
-0.099522
-0.121057
-0.126420
-0.107235
-0.093984
-0.074035
-0.038833
0.011829
0.050540
0.088656
0.142693
0.168384
0.189622
0.160449
0.131499
0.114636
0.077261
0.029325
-0.014553
-0.042727
-0.087434
-0.116261
-0.131845
-0.123018
-0.092964
-0.054591
0.003692
0.055525
0.093433
0.127310
0.160705
0.184362
0.200435
0.190180
0.159758
0.147925
0.077676
0.018835
-0.025361
-0.081472
-0.115349
-0.109125
-0.114738
-0.120699
-0.111401
-0.083514
-0.047593
0.022429
0.062113
0.081355
0.118891
0.154493
0.146985
0.128085
0.101883
0.075712
0.033494
0.000663
-0.027163
-0.084436
-0.139599
-0.160664
-0.152052
-0.148439
-0.123070
-0.108091
-0.075006
-0.044908
-0.003464
0.033211
0.070032
0.110220
0.138896
0.141037
0.117835
0.074432
0.023532
-0.018334
-0.083851
-0.116697
-0.156277
-0.188325
-0.228203
-0.181376
-0.150228
-0.110866
-0.050867
-0.008637
0.024674
0.054057
0.069028
0.107488
0.140141
0.119954
0.078700
0.041884
0.001881
-0.036764
-0.057468
-0.106953
-0.149787
-0.176049
-0.186082
-0.186107
-0.180569
-0.156725
-0.105903
-0.074094
-0.001963
0.059838
0.085525
0.113249
0.127523
0.111219
0.093743
0.067220
0.019343
-0.039786
-0.084096
-0.133862
-0.175105
-0.189498
-0.188619
-0.143769
-0.130629
-0.128778
-0.101698
-0.064691
-0.012554
0.052270
0.083222
0.114003
0.121195
0.116724
0.090599
0.067159
0.014787
-0.030137
-0.083035
-0.142149
-0.179497
-0.188259
-0.193669
-0.202241
-0.189383
-0.150988
-0.098873
-0.033925
0.025828
0.067082
0.104744
0.152244
0.165697
0.174075
0.160924
0.148854
0.114559
0.079443
0.043295
0.006003
-0.014735
-0.018593
-0.015042
0.014445
0.082067
0.145837
0.217144
0.295145
0.374225
0.457518
0.532332
0.570530
0.614515
0.626884
0.628383
0.652959
0.665491
0.663030
0.652015
0.627633
0.617168
0.628051
0.627638
0.636037
0.649275
0.675449
0.690057
0.711907
0.728016
0.758759
0.778137
0.755995
0.675287
0.605281
0.531654
0.440852
0.351977
0.266490
0.166955
0.083119
0.019624
0.018628
-0.024352
-0.032006
-0.004228
0.051279
0.077668
0.101809
0.129441
0.164229
0.198368
0.228660
0.244998
0.224148
0.191420
0.147042
0.090300
0.031557
-0.023548
-0.050440
-0.075086
-0.107857
-0.113166
-0.097919
-0.072474
-0.037113
-0.024564
0.032318
0.092360
0.115579
0.134198
0.170481
0.179203
0.168253
0.144753
0.120994
0.077807
0.033826
-0.030706
-0.079775
-0.107075
-0.130444
-0.144831
-0.140399
-0.122212
-0.081636
-0.046664
0.006689
0.050852
0.108384
0.144669
0.157552
0.167834
0.145336
0.121630
0.102527
0.078133
0.031912
-0.031520
-0.092248
-0.109810
-0.121139
-0.140399
-0.117831
-0.090057
-0.059104
-0.002378
0.027862
0.070639
0.123608
0.158117
0.180391
0.192377
0.177009
0.154098
0.122684
0.086479
0.030500
-0.018403
-0.053802
-0.085732
-0.109856
-0.117194
-0.114579
-0.092340
-0.057201
-0.011366
0.029474
0.074373
0.120521
0.166994
0.197124
0.218452
0.202954
0.187503
0.148832
0.104720
0.051964
0.008383
-0.052384
-0.080438
-0.099326
-0.131295
-0.022443
-0.018971
-0.013252
0.013874
0.054928
0.107448
0.153993
0.199823
0.232121
0.226517
0.219628
0.187003
0.160828
0.123632
0.077966
0.046805
-0.001488
-0.031725
-0.050428
-0.060918
-0.048481
-0.023461
0.002135
0.057559
0.110187
0.154473
0.202615
0.240327
0.258555
0.271431
0.255769
0.236288
0.209892
0.161539
0.121619
0.064494
0.021748
-0.004601
-0.046027
-0.063513
-0.041861
-0.003996
0.046505
0.087419
0.125617
0.175895
0.212155
0.239557
0.264434
0.277753
0.260446
0.231333
0.219036
0.184545
0.135132
0.080662
0.022027
-0.002133
-0.014947
-0.028477
-0.030394
-0.007216
0.009793
0.078416
0.102067
0.138885
0.177664
0.217061
0.249375
0.279250
0.279911
0.259085
0.220089
0.179440
0.127354
0.086226
0.052057
-0.006000
-0.029582
-0.049469
-0.041923
-0.027120
0.003113
0.051441
0.091305
0.130858
0.161491
0.222478
0.247930
0.259539
0.250628
0.207704
0.171420
0.142950
0.103285
0.048478
0.001671
-0.046851
-0.085081
-0.093270
-0.071227
-0.065458
-0.037204
-0.000086
0.046735
0.092283
0.123174
0.196861
0.207437
0.213065
0.184181
0.175783
0.146538
0.086034
0.035724
0.011984
-0.035561
-0.074569
-0.107093
-0.122615
-0.134170
-0.113101
-0.078663
-0.029079
0.018240
0.061580
0.104231
0.143213
0.151361
0.155462
0.149445
0.145999
0.109981
0.071008
0.004925
-0.039517
-0.089482
-0.134465
-0.163425
-0.178937
-0.150538
-0.118831
-0.079849
-0.024451
0.014371
0.046765
0.082491
0.118511
0.129317
0.144364
0.152267
0.120866
0.075940
0.054298
0.015748
-0.044528
-0.083675
-0.120709
-0.144211
-0.160662
-0.157140
-0.131101
-0.110504
-0.068365
-0.007820
0.048942
0.084415
0.102391
0.140683
0.167786
0.145334
0.096571
0.057886
0.021222
0.007139
-0.029670
-0.055081
-0.091981
-0.141857
-0.168173
-0.156912
-0.131615
-0.108432
-0.078398
-0.006747
0.056442
0.112241
0.152213
0.156938
0.151357
0.139069
0.119595
0.091401
0.043844
0.003239
-0.039219
-0.078264
-0.115315
-0.134480
-0.157245
-0.156461
-0.136060
-0.089959
-0.056593
0.006259
0.068264
0.105520
0.139225
0.160324
0.168900
0.153926
0.122382
0.088390
0.035883
-0.018741
-0.056629
-0.111980
-0.159108
-0.177555
-0.153453
-0.140872
-0.124471
-0.095334
-0.047195
0.000995
0.043360
0.109357
0.169209
0.189783
0.192929
0.162704
0.138784
0.112811
0.059136
0.005592
-0.053607
-0.089303
-0.116803
-0.152762
-0.141857
-0.134222
-0.118073
-0.095677
-0.051438
-0.013147
0.034979
0.091509
0.143660
0.159006
0.158837
0.150732
0.120141
0.070200
0.034844
0.005082
-0.041315
-0.082236
-0.121765
-0.134513
-0.152654
-0.151350
-0.124260
-0.105616
-0.052789
-0.006769
0.046366
0.089624
0.126391
0.152067
0.168680
0.149657
0.110242
0.073025
0.015219
0.001104
-0.035951
-0.083396
-0.129453
-0.162985
-0.181370
-0.179708
-0.156883
-0.131548
-0.060947
0.021716
0.066872
0.097333
0.114252
0.131961
0.135769
0.135362
0.104712
0.058818
0.034656
-0.008481
-0.056932
-0.112306
-0.152643
-0.178275
-0.182543
-0.163659
-0.139201
-0.110199
-0.059685
-0.018663
0.023957
0.079028
0.098636
0.121230
0.135114
0.120751
0.101034
0.087250
0.030000
-0.020642
-0.068872
-0.117447
-0.151116
-0.150416
-0.164625
-0.162909
-0.137552
-0.131144
-0.080764
-0.018422
0.013012
0.055221
0.086199
0.125962
0.129813
0.139449
0.110731
0.068439
0.032395
-0.006671
-0.044891
-0.100636
-0.158526
-0.154302
-0.164127
-0.171780
-0.158188
-0.119767
-0.083360
-0.043943
0.007767
0.060090
0.103518
0.129850
0.145287
0.123829
0.086476
0.049728
0.006277
-0.036612
-0.077503
-0.132896
-0.161214
-0.185979
-0.197832
-0.193509
-0.164971
-0.118558
-0.084092
-0.040815
0.009818
0.073892
0.103850
0.117396
0.128387
0.115433
0.093639
0.054433
0.010925
-0.029848
-0.060607
-0.109113
-0.158200
-0.176797
-0.181125
-0.175590
-0.164848
-0.130863
-0.080157
-0.024515
0.007060
0.081963
0.144101
0.146490
0.143222
0.116841
0.094628
0.062300
0.031346
-0.010777
-0.062748
-0.099396
-0.132364
-0.143760
-0.153020
-0.141254
-0.132151
-0.097172
-0.040194
0.002973
0.050947
0.102851
0.144281
0.165501
0.170538
0.160018
0.130861
0.090726
0.042765
-0.007583
-0.055577
-0.094980
-0.135329
-0.147526
-0.167852
-0.146900
-0.134092
-0.093674
-0.032446
0.006796
0.047533
0.083516
0.135434
0.164201
0.173900
0.159720
0.153505
0.116264
0.061513
0.011014
-0.034452
-0.068337
-0.087725
-0.103603
-0.114312
-0.112930
-0.111115
-0.090312
-0.043595
0.005691
0.042890
0.089529
0.128686
0.147265
0.171531
0.156060
0.128776
0.095946
0.035494
-0.008657
-0.059770
-0.116450
-0.146744
-0.165425
-0.174530
-0.176332
-0.174886
-0.118285
-0.086139
-0.060492
0.026963
0.065227
0.101820
0.113211
0.124056
0.116931
0.085179
0.038292
-0.009338
-0.059320
-0.094134
-0.133913
-0.178280
-0.201665
-0.209006
-0.186410
-0.169505
-0.139580
-0.095135
-0.058202
-0.019433
0.013803
0.067790
0.095013
0.099608
0.088350
0.068418
0.033777
-0.021032
-0.064245
-0.107774
-0.150639
-0.177125
-0.200384
-0.200757
-0.192878
-0.191959
-0.148521
-0.089617
-0.030566
0.010710
0.051867
0.088433
0.090237
0.110348
0.093676
0.060867
0.013567
-0.007047
-0.032984
-0.088994
-0.160723
-0.195651
-0.198338
-0.199029
-0.200727
-0.183495
-0.156294
-0.104527
-0.069254
-0.024401
0.036947
0.071649
0.099603
0.121349
0.085595
0.057351
0.038495
-0.013005
-0.055819
-0.111788
-0.152652
-0.190773
-0.210293
-0.201659
-0.205329
-0.173167
-0.135854
-0.110039
-0.079099
-0.026181
0.040616
0.075736
0.085888
0.097705
0.082051
0.063021
0.016218
-0.020260
-0.043375
-0.077474
-0.108348
-0.124044
-0.120208
-0.126890
-0.101188
-0.049142
-0.006099
0.040681
0.093010
0.167909
0.234276
0.284168
0.321436
0.358300
0.386347
0.399119
0.404664
0.397848
0.378518
0.337634
0.370913
0.358302
0.369906
0.388882
0.450303
0.500321
0.553593
0.630685
0.712079
0.774075
0.834202
0.883636
0.894632
0.908119
0.862153
0.838618
0.772039
0.703596
0.615904
0.501717
0.385354
0.290407
0.222550
0.153503
0.119449
0.095024
0.076454
0.095906
0.143621
0.176372
0.209798
0.235615
0.254664
0.250173
0.232873
0.196465
0.150831
0.108376
0.054468
-0.009957
-0.043704
-0.080003
-0.110713
-0.136253
-0.135753
-0.117940
-0.073282
-0.012970
0.048096
0.087447
0.112382
0.141113
0.144525
0.160271
0.143508
0.121863
0.081030
0.021600
-0.031330
-0.063284
-0.105314
-0.144726
-0.158247
-0.161243
-0.156755
-0.130033
-0.098152
-0.056296
-0.002218
0.060775
0.112365
0.125434
0.136942
0.147362
0.135204
0.121781
0.091300
0.038365
-0.012953
-0.058611
-0.100330
-0.132696
-0.155328
-0.165475
-0.150067
-0.140696
-0.109090
-0.072881
-0.020312
0.021806
0.077351
0.121583
0.153601
0.163913
0.155014
0.121484
0.102507
0.059325
0.011484
-0.036418
-0.095157
-0.137081
-0.145885
-0.151901
-0.143991
-0.128401
-0.096103
-0.042611
0.025550
0.072768
0.105407
0.133439
0.133185
0.137486
0.180761
0.169725
0.116708
0.070710
0.009186
-0.033789
-0.080753
-0.106386
-0.133176
-0.139187
-0.107942
-0.082019
-0.054194
-0.020388
0.021686
0.083108
0.133631
0.158952
0.176896
0.197093
0.192893
0.165498
0.134505
0.100781
0.045405
-0.010671
-0.054577
-0.084986
-0.098220
-0.103368
-0.095562
-0.054773
-0.014296
0.023500
0.070088
0.109200
0.151638
0.202803
0.225987
0.241494
0.228637
0.212395
0.182400
0.133814
0.084215
0.030613
-0.008541
-0.032025
-0.055473
-0.062900
-0.053069
-0.027410
0.006944
0.039897
0.091195
0.129239
0.173582
0.211841
0.232380
0.250908
0.240695
0.229625
0.178801
0.132343
0.104972
0.066653
0.009629
-0.002058
-0.028395
-0.047282
-0.051892
-0.033432
0.006189
0.042571
0.111447
0.163052
0.200817
0.214480
0.236370
0.267618
0.257423
0.230226
0.190474
0.156252
0.103405
0.046172
-0.000946
-0.033898
-0.060531
-0.056782
-0.040220
-0.021655
0.000177
0.041040
0.078617
0.116045
0.152980
0.205645
0.245991
0.236872
0.218537
0.203382
0.151349
0.083833
0.049779
0.005852
-0.039470
-0.058779
-0.057405
-0.081688
-0.072601
-0.059142
-0.032511
0.011032
0.047290
0.072513
0.142969
0.166020
0.184194
0.182013
0.181949
0.170233
0.117245
0.055278
0.022613
-0.024923
-0.065858
-0.089628
-0.100045
-0.128451
-0.141827
-0.121760
-0.084693
-0.029894
0.025688
0.057921
0.100171
0.128225
0.148259
0.171201
0.158166
0.131752
0.084065
0.042258
-0.002255
-0.052157
-0.099997
-0.144426
-0.153071
-0.172634
-0.168671
-0.154794
-0.125637
-0.070764
-0.030146
0.010852
0.053737
0.103740
0.118645
0.121436
0.130115
0.100759
0.062120
0.031261
-0.025500
-0.090886
-0.142135
-0.160955
-0.163898
-0.157225
-0.144251
-0.153899
-0.137349
-0.079056
-0.037509
0.000232
0.053419
0.099306
0.115338
0.117628
0.091480
0.067671
0.028564
-0.009906
-0.062222
-0.067399
-0.113664
-0.138238
-0.162781
-0.180690
-0.167985
-0.169883
-0.145208
-0.095229
-0.039669
0.011311
0.059249
0.096785
0.122472
0.150637
0.128173
0.102955
0.063998
0.028235
-0.020374
-0.070945
-0.111696
-0.154172
-0.181266
-0.185234
-0.171802
-0.154668
-0.123934
-0.074298
-0.032267
0.011576
0.067019
0.101400
0.114516
0.126901
0.113313
0.096482
0.065838
0.026401
-0.030652
-0.078273
-0.132234
-0.164891
-0.175896
-0.203137
-0.203524
-0.180576
-0.145417
-0.078613
-0.035953
0.045266
0.077875
0.105055
0.134873
0.168182
0.150908
0.133164
0.075775
0.027080
-0.031806
-0.070403
-0.114760
-0.147084
-0.173508
-0.184351
-0.171252
-0.158961
-0.131654
-0.088973
-0.042419
0.008593
0.059416
0.096239
0.132623
0.144462
0.131830
0.099877
0.051589
0.013300
-0.031200
-0.059172
-0.109666
-0.148541
-0.176353
-0.199653
-0.195204
-0.148636
-0.102731
-0.064567
-0.020039
0.023744
0.070898
0.103530
0.112447
0.151261
0.124372
0.085540
0.056805
0.008527
-0.035486
-0.077311
-0.130361
-0.163342
-0.195370
-0.232609
-0.212755
-0.175497
-0.149854
-0.086786
-0.023087
0.027050
0.070948
0.116177
0.130189
0.120491
0.093289
0.073786
0.050395
0.024206
-0.043437
-0.082670
-0.125747
-0.166347
-0.184534
-0.198734
-0.193193
-0.169567
-0.142795
-0.098363
-0.052737
0.000362
0.044829
0.084122
0.111302
0.125872
0.115862
0.084410
0.052126
0.010332
-0.050061
-0.105234
-0.158076
-0.191907
-0.196173
-0.202396
-0.197501
-0.196786
-0.159364
-0.101808
-0.042249
-0.009442
0.012281
0.094379
0.126109
0.127128
0.097202
0.079038
0.047715
0.005420
-0.044281
-0.102595
-0.138793
-0.174225
-0.204362
-0.219326
-0.202979
-0.172705
-0.146806
-0.100562
-0.050928
-0.003956
0.041844
0.092265
0.107649
0.111156
0.099629
0.070165
0.042751
-0.006922
-0.062729
-0.123334
-0.181266
-0.214251
-0.202131
-0.198145
-0.187387
-0.175967
-0.139938
-0.100513
-0.057249
-0.017357
0.030117
0.065399
0.079262
0.112699
0.114890
0.090978
0.045147
0.000453
-0.054772
-0.089720
-0.134603
-0.181014
-0.206344
-0.214257
-0.202568
-0.179273
-0.138785
-0.110009
-0.066286
-0.021898
0.025737
0.054427
0.072819
0.108875
0.095553
0.065319
0.034269
-0.003680
-0.052062
-0.094870
-0.155948
-0.189739
-0.207537
-0.227565
-0.224786
-0.200536
-0.135265
-0.051785
0.004671
0.037157
0.081469
0.100216
0.127189
0.135046
0.108756
0.087273
0.072172
0.026396
-0.017780
-0.056995
-0.091114
-0.133035
-0.157232
-0.171206
-0.163712
-0.127636
-0.093119
-0.038184
-0.008145
0.022787
0.048164
0.111979
0.135863
0.133806
0.120839
0.110224
0.072685
0.030429
-0.014268
-0.052152
-0.093998
-0.115247
-0.135391
-0.148122
-0.140157
-0.123243
-0.097522
-0.063398
-0.000729
0.067657
0.102448
0.122829
0.131046
0.146087
0.123398
0.093421
0.059884
0.011890
-0.044460
-0.084891
-0.132648
-0.166149
-0.174566
-0.184192
-0.170712
-0.155122
-0.121536
-0.077379
-0.033459
0.015513
0.061489
0.090679
0.106340
0.102256
0.088824
0.086283
0.045821
0.004802
-0.050280
-0.101118
-0.146476
-0.178815
-0.199871
-0.218436
-0.210431
-0.191506
-0.161012
-0.112814
-0.060658
-0.018359
0.008106
0.046101
0.082869
0.106363
0.089088
0.043403
0.002132
-0.049183
-0.089826
-0.124090
-0.165713
-0.202390
-0.218675
-0.234266
-0.216746
-0.182479
-0.163406
-0.134717
-0.081182
-0.032806
0.020392
0.063811
0.075653
0.075595
0.066015
0.047191
0.014378
-0.027074
-0.074689
-0.125518
-0.163602
-0.209018
-0.222651
-0.234497
-0.220763
-0.200300
-0.167113
-0.120959
-0.063694
-0.030112
0.005684
0.038449
0.058167
0.063881
0.060043
0.058356
0.009337
-0.025655
-0.071922
-0.118907
-0.189876
-0.225962
-0.231142
-0.226622
-0.220205
-0.193188
-0.138814
-0.077646
-0.044752
-0.026128
0.001587
0.012559
0.032418
0.060948
0.069966
0.053483
0.010475
-0.048952
-0.094009
-0.120178
-0.155930
-0.201242
-0.216175
-0.227337
-0.205178
-0.149231
-0.108626
-0.061750
-0.001649
0.058648
0.124177
0.176393
0.203095
0.213086
0.202014
0.181218
0.161508
0.147131
0.170543
0.165913
0.155608
0.131282
0.116643
0.144427
0.190224
0.229441
0.294180
0.363391
0.420432
0.508093
0.586832
0.643707
0.705574
0.748625
0.784860
0.799614
0.776616
0.720296
0.667751
0.632458
0.576782
0.523891
0.483359
0.443837
0.423186
0.383178
0.349335
0.343035
0.336917
0.347261
0.349988
0.336185
0.303470
0.283570
0.250181
0.201815
0.143107
0.078659
0.017239
-0.027196
-0.078024
-0.120600
-0.146674
-0.158747
-0.129956
-0.114071
-0.079947
-0.034258
0.013671
0.053025
0.099907
0.138345
0.158185
0.160384
0.145415
0.123128
0.079187
0.033994
-0.022171
-0.067616
-0.103299
-0.126078
-0.149438
-0.166835
-0.168063
-0.132892
-0.099069
-0.075599
-0.028542
0.017799
0.053194
0.093709
0.109114
0.123502
0.105432
0.093846
0.051996
0.012250
-0.046043
-0.082944
-0.121968
-0.145547
-0.174079
-0.193845
-0.173706
-0.153729
-0.131234
-0.056634
-0.013736
0.022740
0.080885
0.115141
0.130567
0.138595
0.111680
0.091284
0.063690
0.022363
-0.018928
-0.062201
-0.111325
-0.142723
-0.153795
-0.165409
-0.150675
-0.135673
-0.102499
-0.045647
0.004951
0.043782
0.074009
0.132461
0.134632
0.134172
0.111544
0.098010
0.070524
0.037007
-0.011716
-0.039543
-0.067745
-0.111107
-0.143774
-0.161566
-0.154052
-0.119842
-0.077942
-0.029799
0.016259
0.042990
0.079602
0.144175
0.170717
0.169610
0.148067
0.139147
0.124566
0.068597
0.004515
-0.038816
-0.075203
-0.105885
-0.124158
-0.140802
-0.128757
-0.094740
-0.042310
-0.004386
0.038691
0.080045
0.136920
0.179596
0.203823
0.221303
0.212711
0.196007
0.153781
0.111360
0.053909
0.009281
-0.026387
-0.076604
-0.094433
-0.085678
-0.061152
-0.058374
-0.019347
0.033497
0.064714
0.110145
0.158291
0.198222
0.205771
0.222249
0.220855
0.195646
0.170404
0.137384
0.096769
0.049400
-0.002911
-0.036511
-0.045095
-0.056949
-0.047647
-0.026222
0.003145
0.049475
0.091533
0.125097
0.169341
0.205871
0.232414
0.232482
0.225814
0.201826
0.166141
0.125389
0.067188
0.022145
-0.003122
-0.044653
-0.096365
-0.078336
-0.030955
-0.005720
0.006412
0.033020
0.048146
0.124668
0.172132
0.228260
0.240863
0.258364
0.230059
0.195253
0.159526
0.107350
0.049087
0.004791
-0.042423
-0.062352
-0.076692
-0.101488
-0.106791
-0.076679
-0.042747
-0.002591
0.041897
0.085826
0.124948
0.177153
0.206788
0.201951
0.194864
0.167072
0.128807
0.070895
0.019193
-0.021507
-0.065175
-0.109577
-0.116598
-0.128781
-0.132503
-0.111485
-0.072906
-0.034240
0.018572
0.058427
0.092014
0.120448
0.144037
0.158996
0.146095
0.122249
0.116432
0.062007
-0.020546
-0.068779
-0.108424
-0.142826
-0.161915
-0.175903
-0.161611
-0.130333
-0.111595
-0.066786
-0.013141
0.032693
0.059805
0.101336
0.118303
0.125485
0.111696
0.089957
0.053390
0.003592
-0.038055
-0.080866
-0.126906
-0.169704
-0.188925
-0.196528
-0.184184
-0.161371
-0.135839
-0.093958
-0.044701
0.004701
0.042411
0.060532
0.071537
0.079967
0.065884
0.044037
0.065056
0.050815
0.004325
-0.068101
-0.120429
-0.179957
-0.211910
-0.221253
-0.197567
-0.168514
-0.132163
-0.078917
-0.019485
0.034081
0.062778
0.099040
0.112072
0.119930
0.115297
0.084942
0.035388
-0.011515
-0.057653
-0.094306
-0.106536
-0.132773
-0.173658
-0.188143
-0.185931
-0.173746
-0.146198
-0.092948
-0.046120
-0.007416
0.044345
0.081486
0.096005
0.113093
0.101014
0.080313
0.057839
0.024128
-0.016229
-0.061709
-0.121085
-0.161450
-0.163251
-0.179491
-0.179010
-0.171877
-0.134023
-0.095063
-0.045755
-0.005395
0.050336
0.101882
0.104585
0.099673
0.122828
0.100337
0.066790
0.024726
-0.033383
-0.086471
-0.117850
-0.138273
-0.153990
-0.178084
-0.181081
-0.166433
-0.130507
-0.090514
-0.060522
0.010130
0.065765
0.096370
0.106396
0.122999
0.106869
0.097980
0.069626
0.017439
-0.033547
-0.092313
-0.148203
-0.175613
-0.161375
-0.189747
-0.180427
-0.154627
-0.136678
-0.092571
-0.039404
0.002142
0.048691
0.087822
0.109734
0.116512
0.100666
0.077193
0.040899
-0.011816
-0.052603
-0.077110
-0.123686
-0.169561
-0.204610
-0.210659
-0.185832
-0.171470
-0.137575
-0.084407
-0.027023
0.026591
0.053131
0.069792
0.096355
0.112919
0.092006
0.067392
0.035736
0.007480
-0.038320
-0.096586
-0.144585
-0.182324
-0.206394
-0.209606
-0.183810
-0.149316
-0.116268
-0.084649
-0.041840
-0.002674
0.043759
0.090202
0.107036
0.114302
0.091985
0.058565
0.062304
0.023234
-0.058285
-0.105369
-0.142110
-0.174455
-0.196022
-0.226794
-0.221365
-0.203058
-0.165659
-0.103124
-0.031762
0.008507
0.038947
0.063346
0.082153
0.095353
0.085455
0.058399
0.024668
-0.000623
-0.057893
-0.103626
-0.146743
-0.177954
-0.205755
-0.218787
-0.206182
-0.191478
-0.157974
-0.098787
-0.049029
-0.001060
0.033396
0.065841
0.088726
0.097822
0.082839
0.065314
0.021556
-0.035537
-0.066660
-0.086136
-0.149188
-0.181400
-0.179093
-0.215399
-0.216644
-0.201149
-0.160825
-0.107729
-0.068471
-0.018981
0.028690
0.064017
0.080084
0.090161
0.084859
0.045025
0.008250
-0.007822
-0.030209
-0.074534
-0.133742
-0.177286
-0.195356
-0.221014
-0.208054
-0.190627
-0.141395
-0.091580
-0.041754
0.019814
0.083692
0.114972
0.123865
0.139408
0.136721
0.112264
0.070301
0.037826
-0.019418
-0.061790
-0.109750
-0.143912
-0.170967
-0.191864
-0.180202
-0.156175
-0.146219
-0.102719
-0.053433
-0.002033
0.066104
0.125035
0.141672
0.136995
0.128306
0.122945
0.094667
0.052041
-0.006372
-0.058971
-0.089213
-0.109906
-0.142905
-0.160255
-0.153597
-0.129467
-0.089018
-0.053943
-0.012479
0.029959
0.072633
0.108218
0.134917
0.156339
0.121897
0.086005
0.053357
0.004763
-0.028506
-0.059633
-0.107339
-0.166863
-0.180329
-0.196981
-0.204925
-0.175968
-0.137318
-0.093264
-0.028644
0.004295
0.031455
0.071516
0.077514
0.071433
0.078391
0.065861
0.028749
-0.007770
-0.030907
-0.080525
-0.137383
-0.194231
-0.219592
-0.246905
-0.229810
-0.204911
-0.172570
-0.137471
-0.077654
-0.012942
0.031506
0.053674
0.081712
0.101354
0.071877
0.045275
0.013441
-0.038004
-0.087230
-0.144203
-0.171036
-0.178488
-0.210040
-0.232501
-0.236635
-0.216298
-0.182952
-0.137517
-0.078468
-0.031388
0.008879
0.037713
0.055134
0.089864
0.078147
0.036696
-0.000464
-0.046095
-0.097497
-0.131049
-0.184213
-0.215888
-0.235910
-0.232278
-0.226981
-0.208447
-0.181374
-0.128901
-0.089096
-0.049748
0.000326
0.034143
0.052609
0.079709
0.077924
0.065807
0.011637
-0.059095
-0.090279
-0.128898
-0.166055
-0.211301
-0.244576
-0.253250
-0.255363
-0.228287
-0.199636
-0.136873
-0.071934
-0.029873
0.006193
0.031635
0.061845
0.074905
0.081920
0.038925
-0.000390
-0.051591
-0.100093
-0.130065
-0.153762
-0.187231
-0.199177
-0.206903
-0.182247
-0.146914
-0.098086
-0.043788
0.010321
0.072072
0.126594
0.172801
0.200130
0.248855
0.264049
0.277415
0.245559
0.218604
0.216137
0.202655
0.178106
0.166924
0.172580
0.198013
0.226959
0.276846
0.337694
0.398863
0.524044
0.584101
0.667047
0.724029
0.796049
0.841776
0.838631
0.810305
0.797046
0.781270
0.703436
0.634673
0.579222
0.515268
0.448542
0.345869
0.283718
0.269804
0.244469
0.252514
0.262544
0.258013
0.250899
0.237780
0.237040
0.216936
0.181485
0.140978
0.128992
0.083285
0.028824
-0.021216
-0.080228
-0.104844
-0.116506
-0.121059
-0.124559
-0.120676
-0.088234
-0.037586
-0.000329
0.047704
0.095443
0.129793
0.145625
0.150589
0.129218
0.108996
0.077746
0.035697
-0.011609
-0.077730
-0.124356
-0.148284
-0.165226
-0.184494
-0.158465
-0.153331
-0.122838
-0.072838
-0.023885
0.013279
0.062934
0.098924
0.116400
0.125248
0.116062
0.083246
0.053403
0.013036
-0.039656
-0.086759
-0.129740
-0.162879
-0.162974
-0.165720
-0.162548
-0.153696
-0.133946
-0.095549
-0.046349
0.016257
0.061368
0.107982
0.131461
0.130768
0.105318
0.097806
0.060433
0.003447
-0.043216
-0.085784
-0.118450
-0.157808
-0.189030
-0.195901
-0.172707
-0.157876
-0.119263
-0.065374
0.010894
0.047027
0.076024
0.107383
0.129125
0.140402
0.132867
0.119421
0.108947
0.053100
-0.005586
-0.051004
-0.094007
-0.134171
-0.150839
-0.159123
-0.138136
-0.127262
-0.095838
-0.052992
-0.002677
0.045488
0.087393
0.115402
0.174618
0.202440
0.175099
0.149928
0.114916
0.069398
0.032327
-0.020664
-0.078106
-0.103073
-0.118720
-0.134086
-0.110165
-0.075554
-0.034706
-0.011285
0.030750
0.080555
0.152000
0.180242
0.186427
0.193137
0.169676
0.147239
0.132727
0.100161
0.074790
0.008797
-0.030095
-0.062183
-0.093183
-0.097595
-0.085564
-0.057024
-0.000507
0.035922
0.086609
0.114714
0.152620
0.188880
0.216287
0.225509
0.207369
0.182558
0.147831
0.098068
0.054303
0.044017
0.019390
-0.030774
-0.069169
-0.084082
-0.068632
-0.045711
-0.028981
0.014576
0.072934
0.130614
0.155008
0.179896
0.214702
0.233590
0.212290
0.190320
0.151862
0.122149
0.072162
0.015228
-0.013090
-0.037534
-0.057513
-0.061769
-0.063934
-0.042921
-0.018724
0.032137
0.078305
0.121509
0.154981
0.195244
0.218224
0.233999
0.216750
0.188776
0.150947
0.094431
0.041668
-0.005830
-0.053183
-0.107025
-0.090689
-0.117532
-0.104745
-0.083723
-0.046597
-0.009525
0.040508
