0.004168
0.047173
0.089722
0.114057
0.138521
0.144028
0.129223
0.103373
0.074007
0.039475
0.004363
-0.037789
-0.080044
-0.110339
-0.126599
-0.133561
-0.128535
-0.113487
-0.080048
-0.041200
0.004299
0.047380
0.086324
0.119336
0.145167
0.143217
0.139537
0.114098
0.084052
0.042902
-0.004756
-0.055371
-0.093371
-0.111067
-0.134226
-0.142203
-0.138679
-0.112191
-0.074386
-0.031696
0.012506
0.056962
0.089513
0.127782
0.146112
0.151331
0.137671
0.117669
0.087706
0.041802
0.003765
-0.050535
-0.081549
-0.113232
-0.138084
-0.138702
-0.134959
-0.116159
-0.080021
-0.040059
-0.001479
0.051202
0.087520
0.115926
0.140132
0.138251
0.137758
0.111796
0.075986
0.042797
0.004933
-0.057847
-0.093920
-0.125963
-0.148857
-0.148289
-0.145170
-0.118460
-0.078127
-0.045549
-0.004200
0.046967
0.090901
0.124040
0.138625
0.139578
0.127731
0.100101
0.072888
0.036358
-0.002190
-0.047032
-0.088497
-0.131825
-0.145844
-0.148362
-0.136808
-0.110652
-0.084171
-0.047534
0.000954
0.047460
0.078379
0.108205
0.130648
0.132515
0.129939
0.106977
0.062276
0.031959
-0.014729
-0.066317
-0.106149
-0.136343
-0.150403
-0.155731
-0.145045
-0.129351
-0.098550
-0.049842
-0.012689
0.034049
0.074780
0.100198
0.127090
0.130635
0.132434
0.113232
0.073982
0.033680
-0.013042
-0.065244
-0.100499
-0.131390
-0.149237
-0.156968
-0.157513
-0.122672
-0.086664
-0.058422
-0.012100
0.038308
0.078868
0.109822
0.132527
0.131311
0.121511
0.094484
0.066556
0.028658
-0.023495
-0.063202
-0.101308
-0.134116
-0.153436
-0.165032
-0.161469
-0.139605
-0.100470
-0.059250
-0.010929
0.032714
0.071877
0.111911
0.122797
0.131844
0.129993
0.103160
0.063289
0.028310
-0.008861
-0.063570
-0.101274
-0.126118
-0.143384
-0.150818
-0.145014
-0.125987
-0.094732
-0.053545
-0.010612
0.039152
0.077390
0.108659
0.124850
0.130627
0.117742
0.099365
0.070912
0.028489
-0.016793
-0.060636
-0.103694
-0.131918
-0.161477
-0.168127
-0.155838
-0.135371
-0.099356
-0.059734
-0.015770
0.028362
0.067308
0.105069
0.123662
0.126842
0.122358
0.093509
0.066871
0.034449
-0.012105
-0.062412
-0.106845
-0.132806
-0.150184
-0.155116
-0.145252
-0.128184
-0.093024
-0.048842
-0.005349
0.031658
0.071529
0.107653
0.130910
0.139590
0.120133
0.110767
0.073207
0.023706
-0.018562
-0.061941
-0.102567
-0.136229
-0.153505
-0.165969
-0.154102
-0.137680
-0.104003
-0.061647
-0.020077
0.027884
0.069455
0.102190
0.127042
0.130283
0.113253
0.093435
0.061491
0.020854
-0.020228
-0.063845
-0.103716
-0.129209
-0.144003
-0.149959
-0.138039
-0.115527
-0.086740
-0.049474
-0.003080
0.045922
0.089457
0.116082
0.136111
0.144105
0.136145
0.117403
0.090233
0.047587
-0.001218
-0.047496
-0.075495
-0.103762
-0.119589
-0.127366
-0.121281
-0.091896
-0.067502
-0.019412
0.027839
0.073071
0.105726
0.145113
0.167089
0.168685
0.158372
0.138336
0.109259
0.068576
0.020828
-0.028421
-0.069120
-0.101740
-0.120947
-0.127881
-0.118944
-0.096358
-0.061722
-0.009433
0.043999
0.089015
0.127485
0.176353
0.204718
0.196022
0.176291
0.158614
0.130651
0.081912
0.029121
-0.009169
-0.048359
-0.088535
-0.101539
-0.113198
-0.098178
-0.081562
-0.049887
-0.019036
0.021394
0.069446
0.108415
0.140749
0.155639
0.166785
0.161699
0.144667
0.103850
0.052417
0.009619
-0.036916
-0.076620
-0.116568
-0.123525
-0.131783
-0.127614
-0.111258
-0.082641
-0.032930
0.007819
0.044239
0.086852
0.116759
0.131297
0.134081
0.124788
0.103551
0.068749
0.030951
-0.013795
-0.063348
-0.106303
-0.143425
-0.155588
-0.161599
-0.163855
-0.141494
-0.114773
-0.070447
-0.026634
0.025027
0.064028
0.089208
0.103275
0.112318
0.102688
0.078493
0.050353
0.010569
-0.038814
-0.076759
-0.114893
-0.147364
-0.166773
-0.175404
-0.176307
-0.154922
-0.112492
-0.066336
-0.027186
0.017114
0.063667
0.094638
0.112155
0.116724
0.100262
0.076243
0.057880
0.015979
-0.035526
-0.081041
-0.128235
-0.150357
-0.171280
-0.174400
-0.160476
-0.135880
-0.109656
-0.069826
-0.028048
0.017704
0.053366
0.087570
0.094464
0.102767
0.102914
0.084712
0.048754
0.003731
-0.036463
-0.089813
-0.136537
-0.167943
-0.184107
-0.178675
-0.174661
-0.153126
-0.119625
-0.067392
-0.029789
0.020322
0.065011
0.107478
0.139374
0.164805
0.164615
0.152647
0.133791
0.102660
0.070333
0.047681
0.026877
-0.000368
0.002832
0.014152
0.046068
0.087515
0.149633
0.208490
0.282479
0.370214
0.445742
0.516249
0.573231
0.606629
0.634609
0.643889
0.659253
0.645166
0.636864
0.634318
0.632481
0.627989
0.647011
0.663602
0.672332
0.684236
0.716377
0.741088
0.758362
0.782164
0.799427
0.800287
0.754554
0.684635
0.609543
0.524126
0.447069
0.355338
0.250178
0.154703
0.076547
0.032516
0.017618
0.001938
-0.000909
0.003108
0.023925
0.054433
0.093243
0.128147
0.161305
0.182044
0.187651
0.201458
0.187049
0.167916
0.127070
0.079667
0.033646
-0.013088
-0.053748
-0.090419
-0.109287
-0.118606
-0.108675
-0.097490
-0.064415
-0.023444
0.027148
0.068145
0.106562
0.136407
0.144513
0.155032
0.146214
0.124943
0.089542
0.045179
-0.002147
-0.041617
-0.092440
-0.116342
-0.133766
-0.140174
-0.136799
-0.114129
-0.086376
-0.038457
0.005747
0.048091
0.089437
0.123148
0.133092
0.139226
0.140213
0.120912
0.084512
0.044685
-0.002423
-0.044908
-0.082900
-0.115866
-0.135916
-0.139663
-0.130383
-0.109177
-0.074223
-0.035954
0.010794
0.052206
0.097441
0.133363
0.149872
0.160510
0.155446
0.145874
0.105083
0.066690
0.019333
-0.023541
-0.060565
-0.092002
-0.108089
-0.114634
-0.104503
-0.080636
-0.050688
-0.007931
0.040028
0.088918
0.129826
0.159354
0.167518
0.177403
0.173945
0.154414
0.119787
0.085308
0.037100
-0.004980
-0.040739
-0.070426
-0.086766
-0.087489
-0.084081
-0.055332
-0.030732
0.011920
0.057782
0.103595
0.144555
0.178616
0.203830
0.211021
0.207436
0.187370
0.160698
0.121396
0.072953
0.037142
0.004661
-0.026527
-0.044659
-0.048076
-0.041707
-0.022226
0.007043
0.047106
0.099941
0.145696
0.192830
0.227469
0.245267
0.254173
0.241967
0.226334
0.190276
0.144161
0.111894
0.068231
0.032881
-0.000915
-0.019836
-0.016429
-0.009463
0.016240
0.049796
0.084344
0.140320
0.190841
0.222270
0.253401
0.273760
0.285057
0.277693
0.253257
0.228315
0.185971
0.143539
0.093711
0.063231
0.027959
0.012294
-0.004089
0.001929
0.029161
0.052393
0.099175
0.151498
0.193436
0.232362
0.261098
0.279900
0.287059
0.277965
0.250359
0.220348
0.176018
0.129791
0.086125
0.049047
0.010746
-0.013123
-0.016985
-0.009674
0.008552
0.037230
0.078345
0.123539
0.166003
0.195808
0.220880
0.240657
0.245667
0.233982
0.216386
0.184216
0.140122
0.103644
0.057461
0.010949
-0.029910
-0.050680
-0.048313
-0.036596
-0.024862
-0.001190
0.030015
0.077984
0.123235
0.165475
0.193406
0.211468
0.211888
0.193046
0.179306
0.145916
0.102898
0.053420
0.003538
-0.040266
-0.071364
-0.095911
-0.103143
-0.099193
-0.076927
-0.049126
-0.000836
0.038933
0.078320
0.110742
0.137271
0.161130
0.162930
0.155295
0.148767
0.109350
0.069827
0.016332
-0.025565
-0.064578
-0.093159
-0.123483
-0.131467
-0.118174
-0.094503
-0.066516
-0.027526
0.022491
0.068611
0.102973
0.133979
0.152177
0.162464
0.149788
0.133124
0.093985
0.049898
0.005994
-0.034697
-0.087586
-0.111566
-0.132221
-0.138940
-0.128589
-0.115395
-0.085544
-0.041291
0.009188
0.048505
0.083692
0.114534
0.145684
0.149137
0.141990
0.124410
0.091597
0.051974
-0.000770
-0.043723
-0.074306
-0.105995
-0.125781
-0.130924
-0.128698
-0.105823
-0.074354
-0.029092
0.018303
0.060075
0.102335
0.133069
0.150136
0.146735
0.146560
0.129645
0.100014
0.060788
0.020872
-0.016003
-0.063041
-0.097463
-0.113139
-0.129510
-0.126074
-0.111764
-0.071716
-0.026853
0.022139
0.062320
0.111183
0.136680
0.154340
0.153492
0.149827
0.132764
0.108568
0.062865
0.014863
-0.028525
-0.071662
-0.099646
-0.121964
-0.125673
-0.110244
-0.086112
-0.062324
-0.020022
0.026549
0.074451
0.114915
0.137837
0.159269
0.168736
0.157266
0.140972
0.109190
0.064859
0.023505
-0.028031
-0.066641
-0.087383
-0.106678
-0.108964
-0.107725
-0.091353
-0.064602
-0.031490
0.016422
0.069598
0.110423
0.133110
0.157754
0.165407
0.162600
0.137237
0.100811
0.059027
0.015099
-0.026609
-0.071559
-0.105945
-0.124941
-0.135676
-0.126719
-0.099331
-0.063472
-0.026290
0.021537
0.063208
0.106329
0.137511
0.144269
0.154385
0.152564
0.142350
0.110341
0.065847
0.017368
-0.033286
-0.083784
-0.100255
-0.126357
-0.132255
-0.127646
-0.110582
-0.068962
-0.016250
0.026081
0.062932
0.099324
0.124436
0.147497
0.152050
0.150254
0.126914
0.094451
0.060530
0.011708
-0.042510
-0.081613
-0.110764
-0.130813
-0.139861
-0.138868
-0.120867
-0.083850
-0.035476
0.008069
0.055504
0.097832
0.124633
0.149779
0.150250
0.137751
0.122390
0.089549
0.056144
0.005007
-0.041105
-0.077933
-0.109390
-0.123398
-0.139437
-0.129803
-0.103444
-0.071327
-0.040216
0.011027
0.053488
0.089663
0.124622
0.144636
0.149869
0.145313
0.121632
0.086422
0.038758
0.000083
-0.042263
-0.084106
-0.112869
-0.129452
-0.137335
-0.141983
-0.122771
-0.085627
-0.044330
0.000567
0.038507
0.082598
0.118642
0.140498
0.147540
0.128935
0.116492
0.079012
0.035810
-0.006352
-0.044743
-0.091067
-0.118878
-0.141119
-0.142964
-0.139339
-0.116508
-0.091198
-0.047017
0.002648
0.046444
0.091849
0.119852
0.137284
0.141830
0.133428
0.111783
0.080004
0.050012
0.004267
-0.046200
-0.086106
-0.122716
-0.142327
-0.150082
-0.147100
-0.125423
-0.090995
-0.042315
-0.004241
0.044163
0.083326
0.119866
0.132010
0.144516
0.126310
0.114285
0.086120
0.033199
-0.006079
-0.049671
-0.091318
-0.117975
-0.145724
-0.156105
-0.139559
-0.126261
-0.089685
-0.040223
0.005485
0.043591
0.083737
0.112050
0.135033
0.146197
0.145737
0.125600
0.093095
0.037013
-0.002703
-0.046690
-0.082508
-0.119464
-0.139944
-0.148536
-0.135820
-0.127342
-0.088734
-0.051427
-0.007547
0.041408
0.075585
0.102057
0.115838
0.131968
0.125117
0.112798
0.085134
0.040256
-0.010433
-0.055732
-0.100231
-0.122763
-0.141012
-0.151170
-0.140731
-0.122966
-0.089820
-0.050035
0.001846
0.052140
0.086727
0.118189
0.137355
0.153515
0.142189
0.138081
0.103551
0.066165
0.026221
-0.022930
-0.062584
-0.088278
-0.107816
-0.120163
-0.117801
-0.090997
-0.051541
-0.009936
0.035502
0.082407
0.125624
0.158187
0.170217
0.177811
0.160251
0.151161
0.115634
0.078093
0.034612
-0.011167
-0.047926
-0.074961
-0.105148
-0.109233
-0.102358
-0.078928
-0.043085
-0.001455
0.042001
0.082887
0.132176
0.166973
0.189599
0.191644
0.188584
0.169000
0.136427
0.098301
0.052266
0.007749
-0.033701
-0.065977
-0.091082
-0.099373
-0.086505
-0.068153
-0.034155
0.004301
0.039684
0.086760
0.127675
0.165328
0.181998
0.185067
0.169635
0.136475
0.104361
0.053004
0.002639
-0.035634
-0.076634
-0.104290
-0.126301
-0.130109
-0.131490
-0.108268
-0.077381
-0.037390
0.007096
0.042661
0.085303
0.113916
0.132857
0.133820
0.118096
0.102763
0.081409
0.038144
-0.006075
-0.058457
-0.099667
-0.127865
-0.145570
-0.165104
-0.152992
-0.142237
-0.108129
-0.065178
-0.027682
0.013511
0.062446
0.092964
0.114835
0.126049
0.115702
0.099178
0.068870
0.025556
-0.023939
-0.074037
-0.112388
-0.141197
-0.159619
-0.174596
-0.163405
-0.150815
-0.117084
-0.083915
-0.029121
0.014503
0.056425
0.091440
0.110397
0.106303
0.098314
0.087838
0.057894
0.011017
-0.025944
-0.075654
-0.120719
-0.139462
-0.157947
-0.167910
-0.158541
-0.138703
-0.108841
-0.072521
-0.019743
0.019205
0.053334
0.077077
0.103111
0.113362
0.113540
0.093433
0.061082
0.013390
-0.025436
-0.072454
-0.118051
-0.154410
-0.181332
-0.184700
-0.175129
-0.158909
-0.127713
-0.068627
-0.022601
0.016379
0.069665
0.112373
0.139700
0.155936
0.167133
0.165533
0.142385
0.120252
0.091416
0.060389
0.025446
0.015719
0.027867
0.039247
0.071582
0.115202
0.179180
0.251637
0.332871
0.418414
0.496173
0.561136
0.617452
0.650985
0.670789
0.686289
0.693385
0.706087
0.690950
0.681245
0.664959
0.665901
0.669981
0.666463
0.653171
0.680510
0.689732
0.704598
0.720459
0.741551
0.745785
0.701954
0.640791
0.581224
0.520908
0.456577
0.365577
0.270996
0.177035
0.110400
0.055735
0.018548
-0.016030
-0.025308
-0.022322
-0.010323
0.012514
0.041198
0.079105
0.118011
0.144983
0.167297
0.190388
0.196724
0.194837
0.166123
0.122941
0.077644
0.034171
-0.014151
-0.048069
-0.093640
-0.105031
-0.111928
-0.112649
-0.095477
-0.067909
-0.024314
0.009283
0.059933
0.093075
0.124126
0.138066
0.148987
0.142505
0.124466
0.085137
0.037977
-0.005136
-0.042504
-0.076672
-0.121861
-0.146568
-0.143139
-0.141252
-0.119281
-0.077701
-0.041140
0.006594
0.044283
0.086284
0.119471
0.147146
0.149463
0.147717
0.119828
0.088235
0.040474
0.006917
-0.034081
-0.075476
-0.110939
-0.119694
-0.124650
-0.131113
-0.105795
-0.075822
-0.028324
0.014119
0.050120
0.093709
0.127943
0.151753
0.154165
0.148491
0.131565
0.095913
0.049470
0.013049
-0.022584
-0.069001
-0.094735
-0.113210
-0.119669
-0.109040
-0.081400
-0.054219
-0.013040
0.035210
0.073332
0.115325
0.142823
0.161324
0.176714
0.169751
0.156712
0.133664
0.098316
0.048148
0.000210
-0.032384
-0.058611
-0.079515
-0.076309
-0.082980
-0.060043
-0.021838
0.017117
0.057287
0.104837
0.144488
0.172945
0.200283
0.209267
0.212298
0.192921
0.167462
0.124412
0.082855
0.025768
-0.003403
-0.039298
-0.053832
-0.062513
-0.054638
-0.027235
0.000232
0.047280
0.094013
0.145764
0.188311
0.222038
0.248597
0.247953
0.250193
0.231388
0.206582
0.163218
0.122332
0.077011
0.041189
0.014247
-0.008370
-0.015383
0.002573
0.026121
0.060031
0.104622
0.145190
0.184074
0.217998
0.249816
0.273651
0.289597
0.278958
0.254525
0.224314
0.181629
0.140105
0.098740
0.051413
0.021268
-0.000149
-0.010512
-0.004343
0.018731
0.049239
0.094776
0.143828
0.183356
0.218223
0.245223
0.263120
0.272375
0.273633
0.249038
0.216634
0.170218
0.124700
0.084302
0.047099
0.006585
-0.014517
-0.015835
-0.013574
-0.004493
0.029705
0.075128
0.112512
0.164395
0.202442
0.228114
0.239960
0.240157
0.235580
0.218833
0.190469
0.136079
0.087135
0.046847
0.001366
-0.031606
-0.057961
-0.059744
-0.061153
-0.051506
-0.015700
0.028608
0.072523
0.110745
0.149513
0.171847
0.191281
0.198460
0.189224
0.157547
0.127442
0.089524
0.047225
-0.002104
-0.043656
-0.095338
-0.104847
-0.115813
-0.115721
-0.093594
-0.060506
-0.016489
0.026513
0.060655
0.101655
0.138830
0.160537
0.157376
0.163928
0.138423
0.096924
0.052302
0.012033
-0.036505
-0.069827
-0.102248
-0.131180
-0.127795
-0.110937
-0.085683
-0.070222
-0.039147
0.017600
0.067608
0.096700
0.121687
0.141171
0.140418
0.131752
0.123287
0.092069
0.047030
0.005810
-0.038922
-0.079522
-0.118881
-0.141821
-0.153608
-0.145110
-0.126376
-0.086262
-0.045345
-0.007453
0.045853
0.089351
0.125536
0.147108
0.148801
0.147237
0.117174
0.084734
0.045167
0.010636
-0.038136
-0.077674
-0.109678
-0.136652
-0.141539
-0.128110
-0.111471
-0.074822
-0.037948
0.001741
0.058138
0.093739
0.121366
0.143710
0.154885
0.147004
0.129609
0.086363
0.045459
-0.000383
-0.042173
-0.081805
-0.115862
-0.135317
-0.128776
-0.128425
-0.110777
-0.067273
-0.028804
0.005824
0.058156
0.091657
0.122967
0.144757
0.155991
0.162586
0.135261
0.102452
0.063909
0.020477
-0.027445
-0.061396
-0.092520
-0.117564
-0.124055
-0.116932
-0.102756
-0.067843
-0.032589
0.017930
0.057716
0.096765
0.129770
0.158743
0.165933
0.156794
0.136256
0.106211
0.061364
0.016606
-0.035832
-0.077081
-0.114194
-0.136545
-0.143856
-0.131974
-0.109854
-0.078962
-0.036631
0.015694
0.063271
0.098883
0.131423
0.165801
0.166249
0.147728
0.132129
0.097539
0.060729
0.011265
-0.032261
-0.062922
-0.097470
-0.130736
-0.137417
-0.134447
-0.105700
-0.067233
-0.034071
0.017160
0.063181
0.101397
0.133775
0.154962
0.149254
0.143558
0.120846
0.082073
0.045753
0.002205
-0.041292
-0.085572
-0.117352
-0.130650
-0.135865
-0.139357
-0.119969
-0.078607
-0.036718
0.002545
0.046963
0.079054
0.110116
0.127674
0.139244
0.132118
0.108444
0.082249
0.050520
0.008159
-0.041694
-0.077257
-0.107309
-0.132226
-0.138673
-0.137245
-0.114608
-0.080050
-0.044608
0.005176
0.055415
0.093221
0.115571
0.131033
0.141286
0.142485
0.119439
0.085871
0.044289
0.001485
-0.043614
-0.078903
-0.125226
-0.136201
-0.147700
-0.145573
-0.127401
-0.102113
-0.059396
-0.011286
0.035982
0.068488
0.099515
0.129913
0.136934
0.131025
0.111123
0.081900
0.041265
-0.000117
-0.038200
-0.085038
-0.119468
-0.138379
-0.140095
-0.138716
-0.115451
-0.081870
-0.040730
-0.005557
0.034320
0.067884
0.107040
0.126465
0.134350
0.124390
0.107371
0.075502
0.038095
-0.008119
-0.051248
-0.079214
-0.118623
-0.139227
-0.147810
-0.150035
-0.130673
-0.094490
-0.059032
-0.023322
0.030252
0.066638
0.102703
0.128537
0.132075
0.126165
0.099618
0.068466
0.034745
-0.009717
-0.051169
-0.086605
-0.123034
-0.139405
-0.150943
-0.146126
-0.131232
-0.107550
-0.064369
-0.020970
0.029860
0.068112
0.095003
0.113982
0.122189
0.121414
0.102677
0.070158
0.034334
-0.005034
-0.040999
-0.081269
-0.117823
-0.148525
-0.150502
-0.141518
-0.131466
-0.102742
-0.056100
-0.011161
0.035487
0.071515
0.099648
0.118909
0.122180
0.123919
0.100698
0.055215
0.017421
-0.020115
-0.059407
-0.087599
-0.120551
-0.133726
-0.134771
-0.126157
-0.104063
-0.071195
-0.035894
0.016029
0.057307
0.090481
0.133737
0.155807
0.161590
0.152554
0.129176
0.097298
0.064892
0.021037
-0.032607
-0.072583
-0.092641
-0.108992
-0.123345
-0.107850
-0.082840
-0.039710
-0.005624
0.028098
0.070378
0.102718
0.136771
0.151135
0.155989
0.163445
0.152255
0.118006
0.078078
0.038848
-0.000608
-0.045625
-0.085067
-0.095957
-0.107773
-0.100091
-0.071484
-0.039217
-0.001789
0.035457
0.081442
0.118410
0.145563
0.171097
0.179477
0.179409
0.144423
0.108233
0.060750
0.021406
-0.025858
-0.056848
-0.097130
-0.116070
-0.119231
-0.120036
-0.107561
-0.081019
-0.048843
0.002851
0.043369
0.086898
0.115639
0.123853
0.131522
0.130020
0.108518
0.069595
0.027581
-0.008824
-0.054613
-0.095562
-0.137774
-0.159914
-0.175374
-0.161564
-0.138109
-0.113054
-0.072016
-0.031698
0.012808
0.049817
0.086785
0.107191
0.111810
0.111454
0.088444
0.056110
0.018124
-0.030320
-0.073512
-0.113154
-0.150117
-0.173059
-0.171714
-0.170138
-0.152796
-0.115660
-0.075654
-0.032800
0.015261
0.048419
0.080399
0.105946
0.104980
0.093995
0.082635
0.044122
0.004453
-0.036760
-0.085649
-0.119084
-0.158892
-0.177868
-0.174182
-0.173347
-0.154252
-0.119266
-0.076258
-0.043827
0.003352
0.039401
0.066316
0.105975
0.109121
0.097182
0.083483
0.046419
0.013826
-0.038967
-0.087746
-0.123020
-0.140566
-0.157358
-0.177120
-0.179709
-0.158422
-0.117357
-0.073055
-0.032410
0.012453
0.040208
0.073476
0.090592
0.108509
0.101646
0.075747
0.045788
0.017214
-0.019217
-0.054212
-0.087936
-0.102104
-0.126103
-0.132462
-0.106534
-0.066504
-0.011474
0.049289
0.112591
0.176794
0.226534
0.278179
0.307898
0.341079
0.375269
0.382278
0.373207
0.363948
0.350176
0.337819
0.321067
0.322308
0.333314
0.352934
0.389790
0.446681
0.523427
0.602567
0.686881
0.755804
0.816004
0.855953
0.860064
0.877841
0.860350
0.820687
0.782765
0.709951
0.624878
0.519154
0.403435
0.310922
0.232562
0.175017
0.132200
0.098966
0.085022
0.087818
0.117211
0.143763
0.154810
0.177952
0.191491
0.196376
0.186110
0.158307
0.121916
0.081287
0.036981
-0.004848
-0.052934
-0.086216
-0.100490
-0.114853
-0.110425
-0.107821
-0.067857
-0.026862
0.031886
0.065780
0.096563
0.132470
0.156230
0.167484
0.161075
0.137418
0.101906
0.047257
-0.007937
-0.044183
-0.083789
-0.120322
-0.147434
-0.151442
-0.149681
-0.130565
-0.097471
-0.062857
-0.009243
0.033582
0.067588
0.106054
0.128375
0.140471
0.136578
0.106893
0.065992
0.032300
-0.001875
-0.057655
-0.096279
-0.122265
-0.143676
-0.147799
-0.127016
-0.100518
-0.075672
-0.034794
-0.005426
0.039885
0.085521
0.121053
0.142765
0.150286
0.142494
0.122392
0.093390
0.049780
-0.001071
-0.040195
-0.087359
-0.112779
-0.134680
-0.135174
-0.136543
-0.112288
-0.068832
-0.032981
0.013974
0.056434
0.102338
0.140503
0.161811
0.174108
0.156849
0.142685
0.110252
0.070312
0.024220
-0.014777
-0.047176
-0.078392
-0.105374
-0.118387
-0.109232
-0.081384
-0.059185
-0.010624
0.033800
0.079210
0.121108
0.156322
0.177485
0.190364
0.180236
0.166336
0.133730
0.103586
0.061675
0.020394
-0.024304
-0.052541
-0.072707
-0.071467
-0.065454
-0.051308
-0.001376
0.030039
0.080995
0.125585
0.163345
0.187934
0.219155
0.219906
0.210376
0.200158
0.163638
0.131173
0.083116
0.044239
0.005113
-0.014444
-0.027940
-0.038819
-0.039068
-0.017841
0.020610
0.055090
0.105543
0.156694
0.196682
0.239429
0.259764
0.273147
0.259646
0.234072
0.210484
0.173885
0.130545
0.090883
0.058651
0.020202
0.000340
-0.022126
-0.013948
0.005877
0.040309
0.079395
0.127601
0.176689
0.216354
0.249171
0.257888
0.264051
0.261840
0.250360
0.215757
0.176326
0.134407
0.080202
0.032222
-0.002926
-0.022724
-0.028143
-0.015791
0.005580
0.046166
0.087499
0.127940
0.172997
0.205029
0.229762
0.245123
0.240462
0.237913
0.219530
0.182318
0.143827
0.095254
0.053274
0.006788
-0.029407
-0.052572
-0.063124
-0.061535
-0.045828
-0.019418
0.021096
0.067747
0.116133
0.149021
0.184303
0.203438
0.202722
0.196523
0.174143
0.139355
0.103720
0.045568
-0.003586
-0.044854
-0.072215
-0.096560
-0.111342
-0.113886
-0.090768
-0.062095
-0.025117
0.018493
0.071194
0.110533
0.141950
0.154633
0.177274
0.174359
0.144651
0.093484
0.042868
0.001681
-0.038012
-0.081441
-0.116693
-0.139895
-0.147419
-0.139427
-0.105989
-0.073363
-0.034134
0.004001
0.039675
0.081305
0.109158
0.126343
0.136101
0.129365
0.116723
0.079156
0.036336
-0.008251
-0.054917
-0.103759
-0.125888
-0.153222
-0.161871
-0.150900
-0.129226
-0.098476
-0.058243
-0.023125
0.026356
0.060846
0.097061
0.124312
0.129220
0.118663
0.090849
0.063370
0.028826
-0.013622
-0.050269
-0.095799
-0.137332
-0.151573
-0.162930
-0.151933
-0.124812
-0.094914
-0.051690
-0.007668
0.036736
0.073305
0.102834
0.116811
0.128919
0.129508
0.112621
0.080587
0.031574
-0.013815
-0.051818
-0.096268
-0.127665
-0.153481
-0.157673
-0.145588
-0.127493
-0.095699
-0.052726
-0.007820
0.033003
0.074228
0.099762
0.125767
0.138006
0.123222
0.108747
0.076231
0.050939
0.004812
-0.042316
-0.088949
-0.125326
-0.135009
-0.148058
-0.141150
-0.124854
-0.092896
-0.042109
-0.005299
0.042969
0.079764
0.113298
0.129092
0.139270
0.134495
0.111920
0.084990
0.040330
-0.005977
-0.042329
-0.090173
-0.117441
-0.131644
-0.150792
-0.144090
-0.125613
-0.088996
-0.055953
0.001017
0.041659
0.078403
0.106894
0.127517
0.134357
0.125854
0.108475
0.075217
0.042692
0.005179
-0.032768
-0.090407
-0.121736
-0.136516
-0.149946
-0.138106
-0.113952
-0.072568
-0.039709
-0.008751
0.026259
0.065775
0.088634
0.119048
0.128710
0.133100
0.116711
0.075996
0.038908
0.002559
-0.044704
-0.091848
-0.123540
-0.147940
-0.154589
-0.152525
-0.127776
-0.099159
-0.063671
-0.020866
0.033407
0.066451
0.095987
0.129648
0.138676
0.136868
0.113236
0.069888
0.032475
-0.001377
-0.054742
-0.105491
-0.134690
-0.161925
-0.161312
-0.154215
-0.133793
-0.116667
-0.079780
-0.027803
0.018023
0.066469
0.108859
0.129471
0.140774
0.135463
0.096761
0.068782
0.021742
-0.012441
-0.057568
-0.103777
-0.141339
-0.154942
-0.174764
-0.166412
-0.144980
-0.111443
-0.076984
-0.027174
0.015840
0.051968
0.096731
0.112469
0.120620
0.116153
0.092421
0.055039
0.016656
-0.016268
-0.068173
-0.106091
-0.134444
-0.158745
-0.174075
-0.171329
-0.143901
-0.113516
-0.072246
-0.025605
0.014257
0.057062
0.087322
0.112824
0.118487
0.116937
0.091214
0.049250
0.013724
-0.032217
-0.070795
-0.107743
-0.142422
-0.155997
-0.158386
-0.156992
-0.139168
-0.116681
-0.079981
-0.039336
0.007866
0.056553
0.085871
0.108921
0.114807
0.099840
0.083349
0.051681
0.013303
-0.037598
-0.077106
-0.111238
-0.142567
-0.167528
-0.176891
-0.164625
-0.124708
-0.101837
-0.066531
-0.014531
0.041978
0.074347
0.099056
0.134489
0.148732
0.148625
0.121679
0.088628
0.057052
0.017179
-0.032461
-0.071959
-0.108448
-0.137283
-0.142292
-0.129505
-0.097940
-0.064442
-0.032604
0.004529
0.039304
0.085867
0.117021
0.142615
0.150880
0.142688
0.111623
0.074276
0.040187
-0.007399
-0.040501
-0.069885
-0.102327
-0.120562
-0.123150
-0.115976
-0.097341
-0.055475
-0.010721
0.031239
0.067500
0.112640
0.138613
0.161608
0.177989
0.171934
0.157935
0.120778
0.080237
0.028854
-0.020011
-0.065562
-0.097244
-0.124748
-0.126708
-0.124068
-0.105768
-0.079171
-0.039798
0.002077
0.049093
0.081948
0.112156
0.128053
0.130827
0.131592
0.108296
0.082608
0.044310
-0.011570
-0.065179
-0.106597
-0.143980
-0.167371
-0.178861
-0.174307
-0.139846
-0.105195
-0.073081
-0.036659
0.009356
0.056624
0.087634
0.093183
0.104422
0.087401
0.069350
0.046125
-0.000290
-0.044342
-0.088413
-0.129867
-0.170718
-0.182931
-0.192989
-0.191147
-0.180986
-0.152184
-0.097382
-0.045910
-0.013419
0.027547
0.061596
0.091126
0.099100
0.099836
0.065100
0.025412
-0.011037
-0.051217
-0.090747
-0.140875
-0.173966
-0.189021
-0.200238
-0.191760
-0.175246
-0.144598
-0.103750
-0.054576
-0.015729
0.021605
0.052169
0.072969
0.086364
0.085393
0.065546
0.040348
-0.002169
-0.049134
-0.091433
-0.134311
-0.162497
-0.179290
-0.189668
-0.190264
-0.172338
-0.138941
-0.104469
-0.055874
-0.017444
0.017677
0.045206
0.070925
0.087813
0.077411
0.056393
0.018316
-0.018458
-0.069508
-0.107987
-0.147614
-0.171488
-0.187297
-0.184827
-0.165856
-0.145003
-0.102884
-0.056549
0.010106
0.065229
0.130160
0.185133
0.219954
0.232548
0.232374
0.215498
0.204891
0.184594
0.168434
0.158420
0.136801
0.140080
0.145095
0.175797
0.211125
0.260665
0.322453
0.388757
0.452650
0.530288
0.621113
0.694500
0.739449
0.796108
0.817065
0.820648
0.812260
0.779853
0.731177
0.680737
0.621089
0.573169
0.549903
0.518721
0.475391
0.417860
0.383695
0.353488
0.340489
0.333375
0.324182
0.311117
0.291735
0.268041
0.235355
0.190175
0.152296
0.105534
0.049906
0.000162
-0.042995
-0.078997
-0.107536
-0.113962
-0.102694
-0.086251
-0.061952
-0.028035
0.011982
0.058755
0.096210
0.127090
0.151468
0.151083
0.150975
0.125829
0.081827
0.036648
-0.003901
-0.050567
-0.093838
-0.120614
-0.144251
-0.153687
-0.149504
-0.120441
-0.101062
-0.068122
-0.017595
0.023757
0.063879
0.098777
0.116652
0.122064
0.122178
0.098520
0.071355
0.036078
-0.021384
-0.073438
-0.115310
-0.149285
-0.159577
-0.158798
-0.150764
-0.127170
-0.102397
-0.064764
-0.014914
0.031946
0.068365
0.099284
0.132207
0.139801
0.134925
0.109599
0.078385
0.039956
-0.001894
-0.054039
-0.090681
-0.121171
-0.148498
-0.154282
-0.142632
-0.115850
-0.095959
-0.044906
0.003158
0.047786
0.078219
0.116867
0.133507
0.134716
0.137377
0.118385
0.087950
0.048413
0.001244
-0.046493
-0.084407
-0.119649
-0.143287
-0.135645
-0.127845
-0.096921
-0.069033
-0.030479
0.021218
0.072050
0.106030
0.138287
0.165778
0.169828
0.163356
0.148933
0.123070
0.079891
0.040846
0.000918
-0.048196
-0.074432
-0.097984
-0.101150
-0.087196
-0.055259
-0.015375
0.022152
0.070762
0.094445
0.126821
0.166804
0.199675
0.205154
0.192094
0.170467
0.143924
0.113120
0.079379
0.033949
-0.009990
-0.052182
-0.067382
-0.070048
-0.051192
-0.030515
-0.003851
0.034026
0.082622
0.145971
0.192201
0.231893
0.250140
0.247643
0.239481
0.225514
0.198939
0.148953
0.105401
0.068201
0.030136
-0.004343
-0.019571
-0.025310
-0.020573
0.002317
0.035641
0.075032
0.123299
0.162687
0.193993
0.232507
0.256269
0.263605
0.250110
0.227924
0.210571
0.166085
0.133049
0.088030
0.036892
0.003490
-0.014679
-0.028668
-0.020410
-0.001884
0.032961
0.067397
0.109486
0.154944
0.192819
0.224373
0.241417
0.239351
0.232829
0.218621
0.187091
0.153704
0.109118
0.059243
0.014203
-0.029066
-0.051479
-0.060400
-0.052274
-0.028411
0.000884
0.029915
0.081238
0.130820
0.177291
0.194329
0.202412
0.197799
0.196310
0.170121
0.136154
0.096846
0.054274
0.012925
-0.033128
-0.078221
-0.107302
-0.113223
-0.100183
-0.082089
-0.060120
-0.034454
0.013931
0.055128
0.102137
0.132695
0.147416
0.159260
0.168146
0.146077
0.105936
0.066143
0.026357
-0.032234
-0.074323
-0.112830
-0.137303
-0.142903
-0.144613
-0.120256
-0.077990
-0.034038
-0.006306
0.031354
0.068814
0.099058
0.121346
0.139816
0.133614
0.111926
0.079688
0.031525
-0.008471
-0.046423
-0.104874
-0.142285
-0.148924
-0.159885
-0.154336
-0.138945
-0.113765
-0.076684
-0.035709
0.004122
0.046209
0.077794
0.112373
0.126436
0.120784
0.107079
0.083909
0.032037
-0.006625
-0.050845
-0.088130
-0.137332
-0.167758
-0.174528
-0.166967
-0.143869
-0.111976
-0.069261
-0.017033
0.037453
0.064366
0.089431
0.132946
0.148999
0.134111
0.109071
0.075016
0.033910
-0.000411
-0.049367
-0.089471
-0.124645
-0.137623
-0.157649
-0.158508
-0.144900
-0.112530
-0.066408
-0.025955
0.023408
0.064920
0.089854
0.118778
0.124171
0.119152
0.100479
0.083052
0.031808
-0.013598
-0.054036
-0.093960
-0.139212
-0.159138
-0.159827
-0.145962
-0.125283
-0.084459
-0.051176
-0.003235
0.046423
0.093880
0.120314
0.144336
0.145991
0.136923
0.123836
0.087040
0.045637
0.000858
-0.047619
-0.082484
-0.117436
-0.138898
-0.160057
-0.151790
-0.127529
-0.089055
-0.057017
-0.002953
0.031528
0.080478
0.114473
0.131361
0.128164
0.122749
0.112967
0.089465
0.051851
0.010473
-0.038110
-0.083054
-0.123423
-0.147765
-0.161289
-0.150574
-0.132986
-0.099391
-0.053170
-0.004383
0.049510
0.083185
0.116984
0.140646
0.134369
0.127883
0.101366
0.067286
0.035254
-0.001630
-0.041626
-0.088287
-0.122956
-0.144646
-0.146614
-0.151874
-0.128485
-0.083459
-0.043940
-0.008519
0.032515
0.077245
0.104974
0.131308
0.151394
0.136979
0.107611
0.065030
0.026673
-0.020500
-0.055727
-0.100023
-0.132730
-0.153603
-0.167074
-0.155287
-0.145357
-0.116441
-0.070857
-0.027829
0.021225
0.054978
0.089133
0.107716
0.116627
0.110441
0.105527
0.066792
0.026245
-0.022125
-0.065477
-0.095490
-0.128074
-0.160913
-0.166351
-0.160100
-0.131864
-0.103276
-0.064432
-0.030051
0.003384
0.052037
0.083241
0.104080
0.117030
0.115044
0.103320
0.066522
0.030563
-0.013191
-0.060160
-0.103105
-0.135783
-0.160018
-0.174843
-0.168620
-0.146340
-0.111782
-0.080869
-0.041765
0.003823
0.051768
0.088141
0.098502
0.112026
0.108641
0.101344
0.068047
0.022688
-0.025904
-0.079924
-0.119537
-0.145087
-0.160474
-0.165595
-0.151387
-0.127111
-0.098468
-0.067353
-0.020650
0.011953
0.053008
0.080186
0.105203
0.119144
0.114170
0.090220
0.056715
0.023806
-0.010593
-0.068557
-0.089972
-0.133243
-0.150259
-0.145963
-0.134297
-0.126080
-0.092585
-0.049411
-0.016083
0.042875
0.085261
0.122022
0.149027
0.158323
0.156609
0.124248
0.096539
0.053225
0.017835
-0.033236
-0.074793
-0.103430
-0.130067
-0.134820
-0.129990
-0.114672
-0.073035
-0.030653
0.010994
0.046877
0.080047
0.116284
0.140243
0.144701
0.135423
0.120714
0.100927
0.067359
0.035491
-0.015128
-0.045270
-0.080582
-0.103001
-0.124701
-0.118937
-0.092922
-0.061945
-0.026064
0.014118
0.057532
0.102621
0.128156
0.154404
0.177120
0.167185
0.144695
0.115040
0.075353
0.037935
-0.009541
-0.052592
-0.096866
-0.129506
-0.148485
-0.133724
-0.114818
-0.088234
-0.055348
-0.011159
0.023954
0.056670
0.105724
0.126651
0.135403
0.132630
0.098977
0.063489
0.021205
-0.030844
-0.079460
-0.117577
-0.144487
-0.158135
-0.174694
-0.171759
-0.156756
-0.115262
-0.077669
-0.040791
0.007121
0.042201
0.069693
0.099906
0.107906
0.103762
0.085156
0.058108
0.009140
-0.037741
-0.082439
-0.126425
-0.162423
-0.187020
-0.188439
-0.174099
-0.172327
-0.140152
-0.098626
-0.063809
-0.018573
0.027183
0.058322
0.081621
0.094017
0.079223
0.054911
0.021856
-0.014661
-0.045015
-0.091758
-0.128193
-0.172760
-0.193473
-0.197211
-0.179528
-0.163645
-0.136365
-0.092218
-0.059013
-0.007870
0.030876
0.064143
0.087934
0.092435
0.084181
0.071783
0.037929
-0.001746
-0.041554
-0.085575
-0.135924
-0.174895
-0.198379
-0.204650
-0.191907
-0.175382
-0.158609
-0.115194
-0.076272
-0.025757
0.015214
0.046224
0.072272
0.086312
0.075828
0.058565
0.030177
-0.007082
-0.043504
-0.076605
-0.102460
-0.123042
-0.137623
-0.145328
-0.124532
-0.085187
-0.046819
0.012786
0.078745
0.135058
0.177440
0.230141
0.277475
0.298527
0.314465
0.336273
0.331823
0.326056
0.300946
0.304558
0.299527
0.308837
0.318694
0.340046
0.366669
0.414610
0.478871
0.580316
0.650281
0.726040
0.802295
0.866404
0.897910
0.902358
0.885459
0.877444
0.826479
0.768307
0.706648
0.632815
0.544147
0.450135
0.352262
0.279412
0.226027
0.182913
0.160866
0.146869
0.146996
0.168065
0.196349
0.211867
0.228529
0.235482
0.224525
0.195719
0.156180
0.113067
0.063472
0.007730
-0.043981
-0.089852
-0.117736
-0.123801
-0.114820
-0.094535
-0.064238
-0.027985
0.012223
0.055343
0.087708
0.123963
0.137357
0.148893
0.134895
0.114026
0.075490
0.031075
-0.016082
-0.057372
-0.107533
-0.141205
-0.168781
-0.179255
-0.164411
-0.136993
-0.098753
-0.072810
-0.030514
0.018934
0.061896
0.091292
0.107129
0.126672
0.114975
0.090859
0.055195
0.023777
-0.016677
-0.061076
-0.100123
-0.137626
-0.164711
-0.184658
-0.165438
-0.136919
-0.098848
-0.056553
-0.014710
0.030458
0.078288
0.102130
0.116661
0.137389
0.131257
0.122801
0.088340
0.043747
-0.002284
-0.051672
-0.097432
-0.129391
-0.156897
-0.145072
-0.131334
-0.114883
-0.094474
-0.065580
-0.016908
0.027153
0.079661
0.102711
0.133943
0.147689
0.144189
0.129161
0.105989
0.059138
0.004083
-0.046832
-0.088744
-0.111511
-0.133559
-0.135328
-0.118449
-0.098355
-0.072938
-0.026021
0.010507
0.060246
0.106505
0.142702
0.158041
0.174702
0.177289
0.160222
0.130636
0.096699
0.068666
0.028628
-0.019743
-0.050489
-0.073909
-0.093704
-0.102505
-0.087262
-0.051154
-0.004952
0.047780
0.092900
0.133783
0.178252
0.202029
0.197753
0.189336
0.176371
0.159012
0.122699
0.078834
0.033299
-0.006710
-0.035939
-0.058604
-0.061565
-0.056302
-0.033945
-0.002787
0.034551
0.081269
0.141903
0.188444
0.225721
0.241580
0.261895
0.256904
0.231190
0.200733
0.157930
0.112362
0.073943
0.034120
0.002798
-0.014821
-0.027757
-0.024195
-0.003918
0.027821
0.067276
0.108770
0.157127
0.199129
0.227393
0.256052
0.264914
0.254604
0.237709
0.208600
0.167711
0.130294
0.081167
0.026334
-0.015740
-0.047034
-0.056749
-0.031114
-0.009506
0.015619
0.055119
0.107527
0.139939
0.186562
0.225370
0.238380
0.237766
0.230619
0.204817
0.185438
0.142471
0.093430
0.047223
0.010418
-0.025448
-0.052438
-0.066693
-0.060606
-0.048819
-0.026007
0.013220
0.063594
0.108029
0.140151
0.163768
0.185153
0.192218
0.179763
0.159247
0.128194
0.091986
0.047117
-0.008091
-0.057171
-0.094184
-0.117724
-0.121114
-0.118966
-0.107181
-0.069151
-0.036855
0.013845
0.049368
0.093320
0.128640
0.154291
0.153876
0.141449
0.129229
0.100604
0.053035
-0.002437
-0.054341
-0.093948
-0.121094
-0.130577
-0.131945
-0.123770
-0.112189
-0.085550
-0.061029
-0.006385
0.040277
0.077989
0.101473
0.121634
0.129557
0.120845
0.104152
0.076363
0.028769
-0.018817
-0.059056
-0.099153
-0.128319
-0.154528
-0.167813
-0.169983
-0.150175
-0.118086
-0.081902
-0.026286
0.019626
0.055561
0.089065
0.120206
0.131145
0.126045
0.098170
0.052719
0.020076
-0.028113
-0.076793
-0.125042
-0.156455
-0.153295
-0.162680
-0.157457
-0.139693
-0.108908
-0.067399
-0.030229
0.028290
0.070225
0.103539
0.120736
0.119316
0.110217
0.093921
0.063386
0.034303
-0.013006
-0.060624
-0.091246
-0.129668
-0.153006
-0.164353
-0.145345
-0.123195
-0.097112
-0.068400
-0.026237
0.019014
0.063278
0.104915
0.124986
0.130302
0.125796
0.109606
0.077971
0.043885
-0.003515
-0.045192
-0.085248
-0.123904
-0.147374
-0.148902
-0.142595
-0.124201
-0.096934
-0.057404
-0.015147
0.033977
0.072975
0.102243
0.129251
0.149296
0.144028
0.121586
0.082505
0.037209
-0.009105
-0.050491
-0.090287
-0.124276
-0.142467
-0.145983
-0.135710
-0.123628
-0.093951
-0.048773
-0.000859
0.045330
0.084579
0.118469
0.125253
0.129656
0.124489
0.108021
0.073470
0.037847
-0.009866
-0.059896
-0.102734
-0.138407
-0.149677
-0.162288
-0.158169
-0.144632
-0.109445
-0.068217
-0.027381
0.025358
0.069882
0.115182
0.143857
0.146914
0.132921
0.104180
0.077429
0.034954
-0.020486
-0.060697
-0.105551
-0.129297
-0.149640
-0.156293
-0.153989
-0.134535
-0.098268
-0.068242
-0.025552
0.015200
0.055663
0.088967
0.119807
0.129438
0.129213
0.099320
0.064893
0.032319
-0.014172
-0.062812
-0.103969
-0.145374
-0.157844
-0.164646
-0.160432
-0.140838
-0.110914
-0.072913
-0.039284
-0.003020
0.052051
0.080027
0.114923
0.118545
0.119151
0.099751
0.066647
0.023565
-0.016204
-0.063775
-0.096050
-0.129938
-0.152922
-0.169569
-0.161106
-0.141030
-0.114731
-0.078873
-0.032947
0.007787
0.047688
0.083160
0.104348
0.111240
0.106957
0.087042
0.053314
0.016921
-0.037677
-0.083427
-0.128258
-0.166217
-0.183554
-0.188026
-0.182101
-0.150520
-0.123355
-0.093505
-0.038085
0.013698
0.054833
0.083576
0.108233
0.121339
0.116917
0.086538
0.053366
0.021457
-0.009445
-0.061208
-0.100082
-0.140626
-0.153913
-0.161174
-0.164213
-0.151981
-0.127196
-0.092904
-0.047042
0.004525
0.041814
0.076648
0.089150
0.109929
0.104619
0.095794
0.061638
0.025443
-0.032636
-0.081011
-0.112688
-0.149613
-0.170526
-0.180372
-0.174760
-0.156203
-0.120144
-0.072454
-0.022468
0.028202
0.074416
0.107783
0.129820
0.135970
0.125880
0.115118
0.085897
0.047716
0.006387
-0.047951
-0.087084
-0.122161
-0.131790
-0.133677
-0.134936
-0.115842
-0.073212
-0.040299
-0.001526
0.042573
0.085625
0.126942
0.141948
0.145511
0.140829
0.126506
0.094711
0.048420
-0.007611
-0.048010
-0.078915
-0.112050
-0.128643
-0.141034
-0.137968
-0.106291
-0.066826
-0.026893
0.016842
0.049217
0.082932
0.133175
0.155430
0.158745
0.152685
0.134152
0.109670
0.065987
0.018492
-0.033836
-0.077591
-0.101704
-0.131979
-0.141054
-0.126709
-0.103727
-0.074785
-0.041370
0.002095
0.042067
0.074032
0.106587
0.129504
0.136523
0.130565
0.095964
0.064005
0.027467
-0.014611
-0.057664
-0.099241
-0.145620
-0.166242
-0.182502
-0.176552
-0.162918
-0.135784
-0.104625
-0.056611
-0.015523
0.022810
0.062982
0.087597
0.108316
0.096358
0.075169
0.031971
-0.004395
-0.052683
-0.088280
-0.134911
-0.171218
-0.180797
-0.178658
-0.190335
-0.181161
-0.144116
-0.108705
-0.067684
-0.016169
0.022845
0.059064
0.079930
0.085986
0.085066
0.068560
0.037518
-0.001976
-0.056284
-0.094731
-0.144771
-0.174114
-0.198253
-0.194408
-0.198499
-0.179539
-0.146313
-0.111600
-0.071915
-0.033434
-0.003099
0.031414
0.059413
0.080169
0.082795
0.059578
0.027610
-0.010860
-0.062249
-0.102141
-0.141517
-0.182803
-0.208082
-0.208915
-0.199502
-0.183456
-0.153067
-0.121947
-0.072639
-0.027726
0.013039
0.055925
0.081335
0.086076
0.079563
0.060114
0.028593
-0.014792
-0.074075
-0.118922
-0.158955
-0.181245
-0.208244
-0.213262
-0.202776
-0.169039
-0.145401
-0.092235
-0.021508
0.033674
0.093006
0.137138
0.184783
0.206975
0.218504
0.204506
0.186202
0.166823
0.144836
0.119789
0.108864
0.102601
0.100658
0.125148
0.172527
0.234716
0.305955
0.374759
0.453133
0.525152
0.607311
0.669680
0.745385
0.786217
0.815093
0.840604
0.837305
0.811372
0.756224
0.701578
0.675480
0.629507
0.585564
0.553993
0.535223
0.508943
0.487647
0.448437
0.428781
0.419264
0.410515
0.394614
0.359633
0.318809
0.277655
0.252173
0.210546
0.163020
0.097158
0.037788
-0.016987
-0.066658
-0.091874
-0.111051
-0.115392
-0.104799
-0.072769
-0.038675
0.010086
0.055279
0.096760
0.122667
0.145012
0.147946
0.134706
0.111988
0.073237
0.041820
0.005448
-0.050083
-0.092225
-0.121060
-0.142299
-0.160735
-0.166073
-0.153682
-0.117636
-0.081212
-0.036050
0.014847
0.058765
0.097701
0.109992
0.108550
0.093532
0.075778
0.035867
0.011320
-0.039236
-0.086065
-0.120209
-0.150934
-0.169630
-0.172805
-0.171872
-0.161702
-0.128842
-0.090734
-0.056542
0.003381
0.052886
0.082097
0.092368
0.108070
0.113062
0.088013
0.054275
0.024585
-0.022702
-0.069651
-0.119456
-0.147416
-0.163175
-0.173419
-0.167109
-0.146150
-0.107772
-0.066559
-0.029065
0.022300
0.053582
0.092489
0.120123
0.117184
0.117047
0.097012
0.068636
0.030870
-0.004655
-0.052397
-0.097582
-0.136342
-0.149441
-0.160189
-0.155186
-0.140371
-0.098221
-0.050254
-0.008624
0.039966
0.107793
0.143015
0.160014
0.158748
0.158953
0.137559
0.099629
0.075505
0.026619
-0.034216
-0.078307
-0.117981
-0.134957
-0.129731
-0.117174
-0.094955
-0.059250
-0.019668
0.030265
0.072863
0.117675
0.155101
0.179647
0.185003
0.185867
0.172843
0.147362
0.111127
0.067969
0.023328
-0.021089
-0.051978
-0.083034
-0.101640
-0.097964
-0.068975
-0.039348
0.014238
0.060274
0.112534
0.158680
0.195992
0.232391
0.237716
0.235022
0.210240
0.186254
0.140123
0.090783
0.047194
0.004119
-0.035952
-0.053988
-0.051173
-0.048132
-0.033891
0.007582
0.049783
0.098697
0.147815
0.181957
0.221182
0.242913
0.248692
0.245994
0.219737
0.187357
0.141908
0.097039
0.050508
0.016846
-0.006078
-0.038872
-0.057295
-0.052892
-0.030032
0.010489
0.045043
0.074264
0.109227
0.160804
0.200050
0.211094
0.219473
0.218517
0.198594
0.165491
0.130280
0.080903
0.022940
-0.018068
-0.042486
-0.065160
-0.067563
-0.065451
-0.045426
-0.026724
0.016603
0.070003
0.115006
0.156573
0.177795
0.182975
0.188602
0.186583
0.165758
0.142405
0.093009
0.043311
-0.002942
-0.057058
-0.094525
-0.111765
-0.128120
-0.128682
-0.121583
-0.097806
-0.052868
-0.000801
0.042178
0.083081
0.119973
0.143819
0.152607
0.143382
0.117781
0.082248
0.038378
-0.010962
-0.054675
-0.091055
-0.120559
-0.161432
-0.159139
-0.166513
-0.147798
-0.113209
-0.074050
-0.035551
0.015926
0.057891
0.099418
0.128120
0.130119
0.119463
0.101284
0.069728
0.025481
-0.023649
-0.083030
-0.128357
-0.156313
-0.169502
-0.178623
-0.180322
-0.169899
-0.145449
-0.093837
-0.025025
0.019691
0.060125
0.083170
0.101171
0.097865
0.089141
0.068267
0.041174
0.006324
-0.042779
-0.089995
-0.130285
-0.162141
-0.178521
-0.187562
-0.180396
-0.161270
-0.139038
-0.090526
-0.051997
0.000257
0.041492
0.078863
0.096377
0.095387
0.096194
0.082323
0.047602
0.005369
-0.041710
-0.083913
-0.123743
-0.152020
-0.166862
-0.181177
-0.177353
-0.165752
-0.129270
-0.079595
-0.031677
0.011695
0.052260
0.084487
0.104981
0.104615
0.106710
0.081305
0.047518
0.005090
-0.032949
-0.077447
-0.122248
-0.151778
-0.173563
-0.182790
-0.180698
-0.154662
-0.131276
-0.090283
-0.035418
0.007450
0.052033
0.085432
0.104183
0.113915
0.126458
0.094963
0.063904
0.010760
-0.032532
-0.075628
-0.113061
-0.143438
-0.164679
-0.166538
-0.162239
-0.137489
-0.107551
-0.074332
-0.026951
0.013901
0.052990
0.080827
0.108829
0.115261
0.105495
0.087312
0.054395
0.020426
-0.023642
-0.076093
-0.120976
-0.144965
-0.165110
-0.174470
-0.169157
-0.140390
-0.102750
-0.061720
-0.026611
0.024160
0.062820
0.097175
0.117550
0.122992
0.118169
0.097387
0.061119
0.014545
-0.031262
-0.083647
-0.123925
-0.145568
-0.169964
-0.184018
-0.175803
-0.162060
-0.130035
-0.087151
-0.043300
-0.003790
0.031497
0.068911
0.078582
0.099206
0.095523
0.078595
0.052209
0.007826
-0.029467
-0.079359
-0.120389
-0.161189
-0.188519
-0.194674
-0.182325
-0.154676
-0.116802
-0.082299
-0.041299
0.000193
0.052607
0.086372
0.094439
0.106811
0.100516
0.058498
0.031514
-0.000965
-0.038500
-0.080233
-0.113228
-0.150622
-0.177064
-0.190545
-0.182503
-0.165331
-0.129366
-0.091514
-0.054494
-0.003948
0.046479
0.077048
0.082644
0.090988
0.085179
0.061115
0.032441
0.003586
-0.042871
-0.094913
-0.143296
-0.180110
-0.199001
-0.205313
-0.188690
-0.169994
-0.134549
-0.095278
-0.052799
-0.003939
0.043152
0.081358
0.093765
0.094234
0.094406
0.075070
0.051811
0.007268
-0.035216
-0.078261
-0.109830
-0.147621
-0.172829
-0.188770
-0.188262
-0.175961
-0.153970
-0.109118
-0.067951
-0.008985
0.026639
0.061051
0.088433
0.108397
0.105261
0.075269
0.040243
0.007264
-0.030260
-0.085233
-0.133734
-0.179031
-0.195727
-0.206476
-0.202505
-0.184355
-0.142494
-0.116320
-0.075364
-0.031246
0.028012
0.079991
0.099824
0.104155
0.111370
0.092748
0.054020
0.006943
-0.045939
-0.096681
-0.143989
-0.176981
-0.196409
-0.206708
-0.200953
-0.183814
-0.152030
-0.103914
-0.055174
-0.003309
0.044249
0.077927
0.099191
0.104126
0.098567
0.080519
0.057657
0.016807
-0.024402
-0.070498
-0.116361
-0.143510
-0.168005
-0.176783
-0.170886
-0.150952
-0.123098
-0.078784
-0.031601
0.020921
0.068078
0.103362
0.123515
0.130439
0.133987
0.109878
0.075536
0.027256
-0.023200
-0.057718
-0.103659
-0.135699
-0.154229
-0.161813
-0.156096
-0.132403
-0.088428
-0.040498
0.010382
0.062298
0.102080
0.135494
0.155955
0.167480
0.164065
0.135898
0.097773
0.058854
0.005864
-0.064527
-0.096713
-0.125351
-0.144782
-0.149294
-0.148039
-0.129042
-0.101150
-0.063723
-0.022793
0.027188
0.066013
0.086272
0.102065
0.114152
0.119653
0.095177
0.068430
0.011604
-0.040784
-0.087797
-0.135390
-0.165012
-0.185214
-0.194485
-0.182590
-0.153343
-0.127447
-0.093113
-0.046461
0.003708
0.050812
0.084596
0.102748
0.111171
0.100862
0.086151
0.058467
0.018120
-0.031964
-0.086882
-0.144195
-0.178886
-0.200335
-0.221538
-0.225007
-0.200609
-0.179576
-0.133681
-0.087724
-0.048453
0.000877
0.025622
0.050536
0.071036
0.060258
0.040046
0.010179
-0.023553
-0.063682
-0.105166
-0.153796
-0.182203
-0.206145
-0.215954
-0.220749
-0.197543
-0.173343
-0.123907
-0.080737
-0.040591
0.006089
0.036656
0.050790
0.061238
0.064497
0.058021
0.016741
-0.021706
-0.066612
-0.110060
-0.155452
-0.185997
-0.214241
-0.223560
-0.217622
-0.187869
-0.161767
-0.120504
-0.075942
-0.021489
0.017042
0.048778
0.084878
0.091895
0.070668
0.042653
0.014454
-0.021656
-0.065301
-0.109790
-0.160641
-0.198687
-0.225204
-0.238891
-0.223740
-0.197447
-0.167388
-0.115825
-0.059772
-0.022399
0.029734
0.069723
0.110713
0.138416
0.146266
0.139709
0.122251
0.089865
0.069726
0.034289
-0.000583
-0.031279
-0.028008
-0.011942
0.011040
0.062111
0.125880
0.204607
0.283101
0.367016
0.451492
0.516321
0.570128
0.608690
0.624115
0.628524
0.654421
0.656528
0.644409
0.634798
0.629329
0.618557
0.607027
0.584751
0.579632
0.598455
0.607642
0.633269
0.663319
0.682804
0.690396
0.657153
0.621345
0.559927
0.499262
0.431995
0.343957
0.237511
0.143662
0.068167
-0.003535
-0.045031
-0.071234
-0.077676
-0.078937
-0.080483
-0.061255
-0.018473
0.021010
0.057427
0.087769
0.117757
0.132833
0.143626
0.148767
0.128412
0.094627
0.054411
-0.001409
-0.044391
-0.094713
-0.127490
-0.153127
-0.158904
-0.157624
-0.139219
-0.114600
-0.067341
-0.026720
0.013311
0.054127
0.085267
0.114688
0.121165
0.108867
0.091226
0.050821
0.002346
-0.046590
-0.091591
-0.123907
-0.142903
-0.166873
-0.181671
-0.174696
-0.155084
-0.127879
-0.094114
-0.053072
-0.004635
0.035899
0.074596
0.101057
0.106143
0.106979
0.084331
0.057723
0.015277
-0.026727
-0.071416
-0.105233
-0.134910
-0.157450
-0.163564
-0.160188
-0.152759
-0.118943
-0.075271
-0.041340
-0.019247
0.027475
0.075932
0.115812
0.121140
0.122216
0.094867
0.075929
0.037647
-0.009863
-0.059899
-0.101203
-0.133488
-0.149144
-0.150638
-0.159415
-0.140058
-0.110563
-0.064143
-0.026443
0.026014
0.072327
0.115009
0.143125
0.158261
0.150808
0.135202
0.106392
0.072321
0.018634
-0.032953
-0.074451
-0.106665
-0.132198
-0.137016
-0.142332
-0.120927
-0.083955
-0.034598
0.011609
0.063083
0.112948
0.144859
0.167248
0.174929
0.190139
0.170129
0.141264
0.102363
0.053725
-0.003953
-0.046918
-0.070513
-0.091119
-0.097660
-0.089700
-0.062693
-0.033225
0.001864
0.053442
0.100078
0.152302
0.189799
0.209654
0.209362
0.217985
0.193799
0.176737
0.128986
0.083307
0.043905
-0.001855
-0.028948
-0.051985
-0.059826
-0.053327
-0.029938
-0.003770
0.037740
0.076100
0.121061
0.176162
0.215075
0.239121
0.246693
0.243324
0.235010
0.205248
0.164759
0.118931
0.066317
0.025792
-0.005511
-0.015231
-0.019787
-0.018255
0.001835
0.013770
0.050886
0.095087
0.144402
0.184040
0.213470
0.229760
0.241164
0.228346
0.224886
0.193243
0.149836
0.100708
0.054052
0.018486
-0.027750
-0.051639
-0.061395
-0.057724
-0.045498
-0.016718
0.024621
0.074595
0.123085
0.162596
0.189102
0.204031
0.211976
0.212596
0.191761
0.155580
0.103711
0.050335
-0.015492
-0.051905
-0.081462
-0.096408
-0.102011
-0.102737
-0.082403
-0.051268
-0.012841
0.038975
0.079723
0.119746
0.152881
0.174123
0.166908
0.152704
0.131237
0.104590
0.069129
0.021638
-0.035955
-0.086466
-0.124724
-0.158937
-0.168597
-0.160457
-0.137535
-0.105210
-0.064391
-0.025114
0.014473
0.056050
0.090801
0.114638
0.128341
0.132940
0.107917
0.075852
0.032019
-0.023467
-0.072084
-0.111732
-0.150113
-0.159124
-0.166132
-0.162615
-0.146059
-0.127781
-0.081145
-0.035559
0.017013
0.060459
0.091594
0.116974
0.124777
0.116334
0.096939
0.071190
0.026936
-0.009315
-0.065571
-0.090858
-0.127121
-0.151150
-0.168897
-0.157302
-0.143851
-0.119920
-0.075752
-0.030411
0.002001
0.046515
0.087193
0.107538
0.108024
0.107451
0.087911
0.066977
0.027515
-0.019002
-0.072243
-0.120241
-0.149914
-0.166076
-0.171080
-0.165016
-0.149632
-0.110687
-0.071834
-0.021171
0.027198
0.063314
0.103884
0.117119
0.116386
0.112463
0.094924
0.073853
0.039876
-0.008562
-0.063461
-0.103471
-0.143297
-0.163800
-0.164761
-0.158879
-0.133888
-0.111710
-0.061375
-0.020080
0.027511
0.063853
0.108592
0.125009
0.144608
0.129079
0.106956
0.075184
0.035702
-0.022743
-0.063456
-0.097744
-0.137497
-0.161475
-0.172278
-0.171000
-0.141214
-0.107531
-0.065146
-0.019361
0.023209
0.063288
0.099398
0.129197
0.141679
0.135026
0.120858
0.096938
0.049277
-0.005464
-0.066305
-0.114412
-0.139764
-0.162364
-0.168573
-0.152156
-0.140163
-0.103894
-0.058009
-0.010701
0.041987
0.083689
0.119299
0.136054
0.150065
0.135361
0.109545
0.077930
0.046294
-0.003332
-0.055418
-0.103529
-0.140112
-0.156070
-0.167397
-0.164385
-0.135790
-0.113737
-0.075844
-0.028702
0.018829
0.072019
0.103715
0.122465
0.131019
0.129486
0.101017
0.058594
0.024561
-0.022047
-0.080837
-0.123946
-0.152644
-0.167069
-0.177922
-0.166589
-0.160430
-0.128473
-0.078971
-0.032046
0.019803
0.063190
0.092021
0.114762
0.129011
0.111586
0.087113
0.057419
0.013075
-0.022564
-0.072333
-0.114265
-0.153997
-0.164552
-0.182028
-0.174006
-0.158784
-0.119211
-0.079317
-0.027779
0.018656
0.056387
0.082642
0.111736
0.122324
0.103250
0.093501
0.064190
0.023385
-0.021552
-0.068356
-0.107584
-0.146768
-0.165947
-0.187114
-0.177444
-0.148700
-0.112469
-0.074298
-0.040002
-0.000950
0.037549
0.080355
0.098804
0.115839
0.105183
0.079722
0.052044
0.015458
-0.033736
-0.089143
-0.125669
-0.145612
-0.164795
-0.171888
-0.180012
-0.151428
-0.131866
-0.100021
-0.048799
0.004407
0.042800
0.082172
0.103190
0.112974
0.107301
0.081708
0.045184
0.010113
-0.033667
-0.084539
-0.127443
-0.156989
-0.170688
-0.180386
-0.166217
-0.153732
-0.132777
-0.096857
-0.040911
0.009692
0.049300
0.088501
0.104253
0.116497
0.104686
0.081393
0.047153
0.008428
-0.045639
-0.088966
-0.124719
-0.149193
-0.162594
-0.180821
-0.193565
-0.159219
-0.132278
-0.099816
-0.054690
0.001870
0.034753
0.069361
0.104105
0.117987
0.114475
0.108715
0.062430
0.007577
-0.036519
-0.087278
-0.131511
-0.157206
-0.179910
-0.181671
-0.168750
-0.144881
-0.107154
-0.063684
-0.014790
0.033832
0.087293
0.114040
0.153779
0.171777
0.159814
0.132916
0.096799
0.056043
0.011507
-0.036852
-0.088787
-0.134846
-0.164044
-0.165681
-0.150684
-0.135810
-0.096919
-0.058238
-0.026467
0.013097
0.052266
0.089506
0.116841
0.136289
0.123232
0.098256
0.076243
0.042225
0.002463
-0.036705
-0.084267
-0.109602
-0.129487
-0.144249
-0.140008
-0.111248
-0.075035
-0.025453
0.021089
0.083151
0.118567
0.140896
0.149606
0.155531
0.168206
0.141283
0.094595
0.057969
0.019796
-0.016867
-0.055910
-0.107876
-0.138093
-0.172457
-0.160938
-0.147250
-0.126807
-0.090673
-0.043023
-0.004480
0.029782
0.079446
0.101382
0.105626
0.106862
0.094561
0.059986
0.017766
-0.028978
-0.075923
-0.113388
-0.146633
-0.176540
-0.184123
-0.166855
-0.146082
-0.119278
-0.081881
-0.039541
0.008776
0.034868
0.056380
0.090548
0.114951
0.105301
0.072016
0.043125
0.002701
-0.048862
-0.095926
-0.150517
-0.188049
-0.212558
-0.223139
-0.224153
-0.203204
-0.171186
-0.119377
-0.078933
-0.028572
0.017557
0.059494
0.086860
0.107598
0.099215
0.072638
0.029609
-0.014655
-0.063439
-0.110093
-0.150107
-0.186682
-0.215367
-0.217269
-0.205478
-0.181699
-0.157764
-0.121056
-0.085442
-0.036417
0.015497
0.056967
0.078844
0.088198
0.067629
0.052833
0.019559
-0.012781
-0.050561
-0.101038
-0.145046
-0.173114
-0.196311
-0.207229
-0.208789
-0.193288
-0.152176
-0.114303
-0.060990
-0.022057
0.018389
0.049676
0.076953
0.083033
0.078157
0.056165
0.026253
-0.018066
-0.062859
-0.089131
-0.128573
-0.155414
-0.172574
-0.171438
-0.151275
-0.117481
-0.064468
-0.007892
0.057480
0.116577
0.170156
0.205008
0.245311
0.278366
0.294721
0.299727
0.291751
0.282427
0.267091
0.249962
0.248281
0.240947
0.243184
0.268934
0.301511
0.333888
0.407238
0.487297
0.579055
0.666024
0.746800
0.804471
0.851025
0.875227
0.864843
0.838133
0.805280
0.759250
0.706322
0.629242
0.536033
0.441891
0.337933
0.261224
0.202919
0.174667
0.161042
0.152360
0.154624
0.148600
0.176295
0.193787
0.199909
0.198087
0.187081
0.170408
0.126796
0.081006
0.025063
-0.022220
-0.072324
-0.111435
-0.142608
-0.146592
-0.148980
-0.124789
-0.088696
-0.057473
-0.012916
0.034010
0.078543
0.097866
0.118732
0.134846
0.126183
0.113908
0.080200
0.035366
-0.011337
-0.062220
-0.105013
-0.139248
-0.167068
-0.179576
-0.169456
-0.149541
-0.126303
-0.082721
-0.038719
0.017230
0.059747
0.092504
0.115681
0.120583
0.126905
0.107372
0.070299
0.017228
-0.031465
-0.083282
-0.130021
-0.155544
-0.172497
-0.156815
-0.153362
-0.139626
-0.089584
-0.057455
-0.039940
0.003321
0.038168
0.081065
0.101414
0.111409
0.104615
0.094091
0.076038
0.031788
-0.022227
-0.066654
-0.111722
-0.138708
-0.154186
-0.168188
-0.162452
-0.157780
-0.117591
-0.081516
-0.037427
0.012578
0.061380
0.089467
0.118892
0.134311
0.125434
0.112899
0.085709
0.039574
0.003655
-0.043266
-0.076561
-0.101145
-0.130280
-0.142377
-0.132441
-0.111124
-0.069000
-0.036764
0.016678
0.067951
0.108479
0.143860
0.169992
0.187105
0.176226
0.150540
0.115049
0.079852
0.035390
-0.014094
-0.062457
-0.087442
-0.115518
-0.138188
-0.122669
-0.098700
-0.057574
-0.008241
0.037112
0.081527
0.119821
0.147901
0.187900
0.204476
0.207008
0.187933
0.150688
0.106757
0.066161
0.019357
-0.012780
-0.042165
-0.064504
-0.068199
-0.063828
-0.047417
-0.015593
0.036492
0.084469
0.128191
0.173408
0.212772
0.238929
0.251773
0.245035
0.234412
0.206818
0.160445
0.104953
0.058235
0.018775
-0.017259
-0.029471
-0.040441
-0.040420
-0.028489
-0.002423
0.045499
0.094217
0.149788
0.189009
0.229601
0.253383
0.264770
0.257153
0.232027
0.195621
0.162014
0.111590
0.066576
0.030672
-0.017041
-0.049541
-0.059775
-0.052156
-0.035929
0.001779
0.038141
0.082130
0.129652
0.171315
0.204327
0.231130
0.237736
0.218422
0.207143
0.179038
0.139783
0.084432
0.037508
-0.017969
-0.063056
-0.083218
-0.088473
-0.080845
-0.063629
-0.035059
0.003365
0.049474
0.096325
0.133303
0.161886
0.195242
0.205124
0.189117
0.167441
0.120859
0.073923
0.037165
0.000414
-0.057330
-0.089260
-0.120999
-0.130971
-0.124360
-0.111462
-0.077378
-0.033106
0.013475
0.052604
0.095747
0.136430
0.156156
0.162559
0.139635
0.125813
0.090287
0.054894
0.006784
-0.050863
-0.105488
-0.132115
-0.160215
-0.173208
-0.165694
-0.162341
-0.130845
-0.087773
-0.043957
0.005484
0.046728
0.067895
0.092557
0.106080
0.102237
0.086680
0.047182
0.007178
-0.035130
-0.083207
-0.131198
-0.158444
-0.178446
-0.185675
-0.175158
-0.158480
-0.136338
-0.089568
-0.043866
0.012938
0.058959
0.097542
0.118802
0.126296
0.118622
0.096779
0.072762
0.027618
-0.019042
-0.072994
-0.123011
-0.167616
-0.199718
-0.216572
-0.211993
-0.193528
-0.160799
-0.113159
-0.058572
-0.009539
0.028988
0.070599
0.092445
0.100782
0.096877
0.075933
0.047866
0.008946
-0.036427
-0.076040
-0.131341
-0.170003
-0.183964
-0.186930
-0.177357
-0.169468
-0.137699
-0.093821
-0.042390
0.017658
0.053043
0.086638
0.105785
0.121609
0.113009
0.092668
0.064169
0.022504
-0.014811
-0.062685
-0.109713
-0.134233
-0.160777
-0.179334
-0.173107
-0.154997
-0.126079
-0.095435
-0.045262
0.003788
0.042216
0.083140
0.107941
0.119426
0.114421
0.097016
0.059493
0.021997
-0.031940
-0.071801
-0.117426
-0.144106
-0.167480
-0.181884
-0.176790
-0.164583
-0.113640
-0.075171
-0.018379
0.030436
0.060626
0.108822
0.124609
0.125646
0.124827
0.118867
0.073531
0.026687
-0.032833
-0.085417
-0.135730
-0.160703
-0.176505
-0.181566
-0.174200
-0.162104
-0.129323
-0.094609
-0.050850
-0.003351
0.036313
0.063099
0.089309
0.107349
0.105910
0.081787
0.038869
0.007792
-0.035827
-0.083487
-0.124204
-0.162540
-0.189343
-0.188453
-0.176705
-0.162891
-0.127990
-0.081184
-0.039053
0.005950
0.050110
0.082768
0.114796
0.135311
0.133786
0.099301
0.055076
0.014255
-0.035798
-0.094994
-0.136583
-0.162224
-0.182697
-0.198740
-0.184408
-0.162009
-0.125897
-0.090165
-0.046157
0.000227
0.044014
0.075695
0.100729
0.104197
0.108201
0.076358
0.041956
-0.002068
-0.053519
-0.104423
-0.154118
-0.172233
-0.196176
-0.191310
-0.184245
-0.155486
-0.134231
-0.098300
-0.049976
-0.006962
0.030068
0.059418
0.093206
0.099598
0.090638
0.064904
0.045728
0.009305
-0.046646
-0.088272
-0.132858
-0.160270
-0.180720
-0.194895
-0.191841
-0.182408
-0.157461
-0.107747
-0.052998
0.008853
0.060000
0.091977
0.115076
0.119445
0.112755
0.083993
0.041014
0.006985
-0.051408
-0.082167
-0.136962
-0.175931
-0.216288
-0.224621
-0.229391
-0.200461
-0.150363
-0.112823
-0.058442
-0.015315
0.026853
0.044141
0.067500
0.079813
0.067205
0.048831
0.026435
-0.011499
-0.057845
-0.094389
-0.145885
-0.176033
-0.199486
-0.203610
-0.197034
-0.170346
-0.144263
-0.104454
-0.052317
-0.024304
0.026775
0.075596
0.107541
0.108753
0.088513
0.070712
0.037466
-0.005262
-0.045006
-0.081134
-0.115750
-0.141135
-0.168137
-0.169980
-0.164399
-0.148499
-0.120504
-0.078167
-0.021231
0.019639
0.058665
0.091370
0.121848
0.130518
0.115782
0.099335
0.067727
0.031683
-0.008620
-0.053639
-0.090446
-0.128231
-0.148840
-0.167037
-0.153226
-0.137487
-0.102602
-0.079981
-0.030082
0.016086
0.067734
0.110337
0.138889
0.144244
0.148075
0.121442
0.096412
0.059286
0.018681
-0.039933
-0.082257
-0.115946
-0.158172
-0.165961
-0.156850
-0.138541
-0.106952
-0.068235
-0.023063
0.029229
0.067478
0.084172
0.107117
0.125106
0.123545
0.113135
0.088722
0.042754
-0.011440
-0.072644
-0.128471
-0.169185
-0.202004
-0.210841
-0.202025
-0.169281
-0.147865
-0.104562
-0.054447
-0.003845
0.041510
0.068378
0.106675
0.107017
0.096332
0.081687
0.025546
-0.026406
-0.074101
-0.117232
-0.155139
-0.186942
-0.204706
-0.216055
-0.211101
-0.188128
-0.162246
-0.122176
-0.077274
-0.040936
0.001246
0.035920
0.063084
0.072218
0.066307
0.048570
0.017941
-0.023350
-0.067519
-0.117162
-0.160534
-0.194842
-0.225854
-0.228826
-0.215983
-0.184010
-0.152163
-0.114508
-0.072704
-0.033608
0.002868
0.033513
0.047339
0.061628
0.069486
0.054399
0.006617
-0.036042
-0.085503
-0.123745
-0.162863
-0.188284
-0.214092
-0.222107
-0.216146
-0.195628
-0.184282
-0.139492
-0.079822
-0.037210
0.008082
0.038471
0.060927
0.073558
0.053704
0.029817
0.007289
-0.026680
-0.085846
-0.131682
-0.171968
-0.198832
-0.216190
-0.234209
-0.233118
-0.204578
-0.169176
-0.126994
-0.069856
-0.030138
0.008147
0.039135
0.069764
0.084561
0.094080
0.094013
0.080307
0.049654
0.007618
-0.019382
-0.060514
-0.085152
-0.095509
-0.103026
-0.089049
-0.056754
0.001840
0.058221
0.125234
0.194164
0.264034
0.329501
0.390114
0.426772
0.461074
0.459990
0.458577
0.450939
0.428867
0.414650
0.409706
0.413107
0.428220
0.460565
0.500386
0.564592
0.612443
0.649103
0.699880
0.755237
0.782227
0.802644
0.809932
0.781124
0.728710
0.646844
0.549065
0.442302
0.339369
0.240409
0.161793
0.086835
0.008109
-0.042179
-0.077358
-0.079944
-0.053317
-0.030014
0.013883
0.061419
0.092230
0.119154
0.134005
0.143761
0.144117
0.117661
0.086164
0.046484
-0.003539
-0.049024
-0.092769
-0.123325
-0.146128
-0.165186
-0.161622
-0.140895
-0.115712
-0.083226
-0.032716
0.006290
0.045345
0.078977
0.099156
0.116417
0.112968
0.085533
0.057431
0.026921
-0.014808
-0.072959
-0.131150
-0.165261
-0.191099
-0.201645
-0.199794
-0.178360
-0.148751
-0.102294
-0.049689
-0.003384
0.043682
0.076686
0.108891
0.123419
0.116817
0.086115
0.051127
0.007925
-0.030495
-0.079553
-0.106796
-0.151036
-0.185631
-0.199669
-0.193946
-0.168974
-0.126673
-0.073086
-0.016848
0.026623
0.063733
0.100044
0.115747
0.118209
0.117067
0.090110
0.059805
0.030109
-0.016996
-0.063446
-0.102415
-0.141641
-0.160643
-0.168043
-0.173447
-0.158400
-0.125932
-0.087076
-0.034748
0.016228
0.052457
0.093972
0.108496
0.120900
0.118437
0.107918
0.078990
0.039697
-0.003481
-0.050209
-0.089786
-0.116898
-0.140668
-0.152408
-0.147688
-0.121580
-0.087457
-0.052998
0.001739
0.060736
0.110886
0.145326
0.171406
0.197567
0.194343
0.158479
0.132307
0.094386
0.041332
-0.005465
-0.050818
-0.089236
-0.114671
-0.127838
-0.113990
-0.097142
-0.068686
-0.017539
0.032378
0.088131
0.142533
0.185128
0.211469
0.211145
0.199853
0.180151
0.161317
0.119340
0.073681
0.034627
-0.007121
-0.039432
-0.054282
-0.057464
-0.048275
-0.031087
-0.008110
0.013962
0.057391
0.116087
0.167925
0.197652
0.217364
0.234325
0.234810
0.220719
0.191218
0.144920
0.093502
0.050589
0.016114
-0.008239
-0.040117
-0.047893
-0.044189
-0.018968
0.007927
0.047642
0.100575
0.147196
0.190919
0.230253
0.239113
0.241772
0.233246
0.212506
0.180281
0.133727
0.082216
0.032213
-0.011177
-0.048311
-0.067548
-0.083395
-0.072893
-0.053500
-0.022463
0.014938
0.060895
0.103500
0.143477
0.171565
0.196524
0.198914
0.208944
0.189354
0.152344
0.105193
0.049686
-0.001185
-0.044760
-0.066528
-0.092289
-0.107760
-0.116026
-0.087482
-0.057278
-0.014914
0.021051
0.064607
0.106968
0.137808
0.158408
0.157954
0.155100
0.133955
0.091993
0.045573
-0.005400
-0.047177
-0.069711
-0.114938
-0.143696
-0.160243
-0.150966
-0.140957
-0.110207
-0.064679
-0.016195
0.031168
0.076313
0.119679
0.140497
0.152018
0.147083
0.109879
0.075885
0.034356
-0.005327
-0.055926
-0.097105
-0.133551
-0.167097
-0.176772
-0.180462
-0.139933
-0.114902
-0.082231
-0.039287
-0.000810
0.032439
0.071418
0.092936
0.116166
0.109553
0.072468
0.036312
-0.001293
-0.052358
-0.096019
-0.138682
-0.165694
-0.183392
-0.185827
-0.183200
-0.180217
-0.149522
-0.099493
-0.066051
-0.013613
0.031339
0.071054
0.105052
0.123119
0.126764
0.090149
0.059677
0.023093
-0.011952
-0.070168
-0.108877
-0.136483
-0.160229
-0.169068
-0.167679
-0.165256
-0.134761
-0.097723
-0.051573
-0.001410
0.037056
0.066227
0.087395
0.096543
0.098300
0.078513
0.050991
0.005307
-0.043728
-0.089983
-0.133369
-0.161394
-0.190804
-0.200528
-0.187791
-0.173594
-0.135038
-0.090540
-0.035725
0.012232
0.055866
0.085922
0.116179
0.118750
0.119507
0.094800
0.064457
0.028269
-0.023284
-0.076770
-0.119879
-0.149646
-0.166905
-0.178120
-0.191244
-0.162547
-0.121171
-0.083350
-0.029025
0.014549
0.052675
0.097668
0.119807
0.126665
0.118238
0.088019
0.064294
0.029049
-0.016115
-0.065915
-0.106537
-0.145219
-0.170940
-0.187294
-0.185751
-0.164152
-0.124172
-0.080516
-0.030876
0.019420
0.070681
0.105088
0.119763
0.118374
0.132107
0.112226
0.064470
0.017379
-0.023620
-0.070821
-0.100528
-0.127820
-0.163173
-0.185340
-0.176508
-0.144084
-0.124078
-0.084392
-0.047031
0.010823
0.072163
0.108414
0.107000
0.112199
0.104762
0.088518
0.048950
0.021640
-0.036933
-0.078732
-0.127104
-0.168777
-0.186453
-0.188361
-0.192215
-0.168175
-0.147015
-0.105907
-0.045377
-0.001311
0.038455
0.076920
0.103840
0.114435
0.113659
0.091839
0.060395
0.016788
-0.028949
-0.082783
-0.132559
-0.178718
-0.201211
-0.207267
-0.199669
-0.177355
-0.143213
-0.096172
-0.051653
-0.005926
0.039085
0.071382
0.089612
0.105669
0.104412
0.088477
0.044929
0.003156
-0.044864
-0.092741
-0.136858
-0.178856
-0.197217
-0.197901
-0.204030
-0.173715
-0.147811
-0.107340
-0.055237
-0.004371
0.040186
0.069834
0.083242
0.077291
0.088603
0.075599
0.053861
0.010076
-0.031345
-0.083132
-0.139059
-0.177562
-0.194805
-0.198459
-0.194085
-0.176781
-0.133231
-0.092366
-0.041574
-0.002205
0.046053
0.075983
0.098556
0.110090
0.097555
0.068789
0.045553
0.006983
-0.043528
-0.092593
-0.151601
-0.181479
-0.192142
-0.201144
-0.203720
-0.187461
-0.151443
-0.107470
-0.062643
-0.008541
0.040079
0.082819
0.111795
0.110644
0.104923
0.080471
0.037180
-0.009571
-0.056586
-0.100319
-0.126114
-0.149378
-0.170184
-0.181180
-0.186807
-0.162008
-0.118955
-0.075944
-0.024108
0.024205
0.071955
0.097634
0.123697
0.132957
0.132516
0.102347
0.071180
0.034834
-0.019884
-0.063582
-0.100389
-0.136148
-0.155577
-0.169625
-0.165372
-0.147510
-0.104586
-0.065861
-0.027175
0.015972
0.053136
0.097114
0.115764
0.129079
0.118973
0.110506
0.093688
0.046888
-0.000884
-0.039952
-0.090754
-0.115895
-0.133150
-0.153886
-0.155330
-0.123763
-0.085410
-0.039580
-0.003531
0.047020
0.085690
0.127557
0.140699
0.154390
0.143547
0.126716
0.075672
0.038373
-0.005765
-0.049863
-0.090816
-0.142004
-0.176298
-0.190755
-0.190680
-0.177968
-0.146872
-0.101722
-0.058890
-0.008268
0.029871
0.066166
0.085078
0.089886
0.082454
0.058798
0.029602
-0.009534
-0.056540
-0.109738
-0.150127
-0.171386
-0.194538
-0.215921
-0.216479
-0.187232
-0.159466
-0.113508
-0.060152
-0.018469
0.016912
0.052350
0.083822
0.087365
0.087244
0.066486
0.027576
-0.030061
-0.087714
-0.131990
-0.169402
-0.208437
-0.227410
-0.238154
-0.247008
-0.222047
-0.188641
-0.132296
-0.083405
-0.038063
0.006091
0.036968
0.067343
0.070038
0.070253
0.045442
0.004106
-0.026132
-0.074623
-0.124479
-0.168300
-0.202943
-0.229671
-0.237372
-0.231437
-0.197733
-0.165138
-0.125453
-0.090485
-0.029248
0.009447
0.047127
0.071596
0.084681
0.078620
0.046670
0.002677
-0.037021
-0.075588
-0.123404
-0.162407
-0.203984
-0.224595
-0.232393
-0.225635
-0.207529
-0.183428
-0.137765
-0.095311
-0.045768
-0.001562
0.036559
0.056913
0.063126
0.055208
0.043987
0.019509
-0.023109
-0.062399
-0.093190
-0.129178
-0.157097
-0.170196
-0.163141
-0.135319
-0.108660
-0.045177
0.012708
0.067378
0.115561
0.180433
0.237501
0.280322
0.316032
0.340048
0.341061
0.345001
0.324431
0.317948
0.287070
0.272836
0.272830
0.287732
0.310961
0.352504
0.405241
0.469424
0.547738
0.643562
0.729573
0.799125
0.832654
0.851246
0.848984
0.855561
0.806288
0.754318
0.691536
0.601056
0.511041
0.405227
0.286926
0.206127
0.140684
0.095943
0.067789
0.049866
0.047558
0.076898
0.110411
0.139528
0.176365
0.196514
0.204938
0.183632
0.150326
0.111519
0.065071
0.017297
-0.035103
-0.075591
-0.121552
-0.149790
-0.166118
-0.161658
-0.149196
-0.120461
-0.075155
-0.022319
0.025668
0.062159
0.107628
0.119428
0.121755
0.114286
0.093437
0.049807
0.008496
-0.038906
-0.087157
-0.126641
-0.158893
-0.186810
-0.205703
-0.193379
-0.178420
-0.146971
-0.096346
-0.047877
-0.013306
0.030797
0.070157
0.095950
0.113205
0.103842
0.087811
0.055599
0.004160
-0.044910
-0.093763
-0.138506
-0.176501
-0.190636
-0.200234
-0.191832
-0.175913
-0.127167
-0.087429
-0.046563
-0.009636
0.034098
0.074881
0.097761
0.112885
0.101771
0.075609
0.048169
0.013708
-0.035931
-0.085911
-0.130589
-0.161201
-0.183966
-0.195606
-0.195849
-0.162065
-0.127241
-0.085772
-0.038197
0.016774
0.062656
0.104807
0.123939
0.126208
0.122372
0.105952
0.069694
0.035892
-0.006318
-0.055330
-0.095119
-0.136253
-0.156447
-0.166919
-0.153867
-0.133182
-0.103170
-0.060871
-0.010961
0.044706
0.084258
0.122926
0.145715
0.149351
0.149173
0.139243
0.105694
0.060055
0.012208
-0.038463
-0.082941
-0.110111
-0.128276
-0.143433
-0.132795
-0.100076
-0.072612
-0.034625
0.024847
0.075402
0.112092
0.162306
0.184701
0.195567
0.193444
0.183274
0.151130
0.112993
0.062169
0.018158
-0.020597
-0.059675
-0.076228
-0.088941
-0.075588
-0.058641
-0.033165
0.019668
0.074071
0.120957
0.159892
0.201362
0.231597
0.235449
0.221314
0.208220
0.168260
0.130322
0.085502
0.045163
0.002913
-0.032490
-0.055297
-0.078881
-0.073073
-0.042507
-0.011666
0.029565
0.081376
0.126746
0.168018
0.199665
0.220984
0.232384
0.229628
0.210829
0.170527
0.131911
0.082274
0.031235
-0.007490
-0.047642
-0.063130
-0.079874
-0.069873
-0.041539
-0.014996
0.018955
0.066545
0.108888
0.153574
0.203792
0.216540
0.227880
0.214001
0.189476
0.154650
0.108109
0.049338
0.006526
-0.040330
-0.074318
-0.100106
-0.118880
-0.118110
-0.095544
-0.059407
-0.019339
0.004193
0.060711
0.098529
0.133535
0.145344
0.157536
0.160392
0.143073
0.092490
0.045795
0.009241
-0.042550
-0.084917
-0.123146
-0.146929
-0.161301
-0.158143
-0.133800
-0.099382
-0.062418
-0.017783
0.034504
0.065383
0.105215
0.120405
0.139963
0.130473
0.105333
0.067632
0.022411
-0.027299
-0.074351
-0.118918
-0.159323
-0.178795
-0.200163
-0.188320
-0.177400
-0.140821
-0.093487
-0.046348
-0.005093
0.032020
0.076776
0.095222
0.102167
0.104673
0.080548
0.041984
-0.001854
-0.049348
-0.094862
-0.137782
-0.160686
-0.193138
-0.208380
-0.195249
-0.177112
-0.142671
-0.104744
-0.056482
-0.015054
0.033979
0.077830
0.100611
0.102719
0.088673
0.070146
0.039975
-0.004031
-0.049555
-0.098262
-0.138606
-0.173382
-0.200999
-0.211424
-0.201302
-0.173099
-0.142441
-0.102977
-0.058291
-0.009963
0.038827
0.070900
0.085199
0.100729
0.093502
0.074591
0.044828
-0.001918
-0.052862
-0.099973
-0.135707
-0.167972
-0.182992
-0.196431
-0.185890
-0.168438
-0.137751
-0.093832
-0.036212
0.008818
0.052771
0.092927
0.114887
0.119479
0.106021
0.093769
0.060923
0.012579
-0.042649
-0.086620
-0.136849
-0.168622
-0.186724
-0.188600
-0.183107
-0.163705
-0.130708
-0.099190
-0.048002
0.001114
0.049176
0.080118
0.104260
0.109901
0.096636
0.077009
0.055694
0.015313
-0.033047
-0.090170
-0.127443
-0.156085
-0.184010
-0.196681
-0.189752
-0.166101
-0.127858
-0.088545
-0.037219
0.004019
0.049036
0.094984
0.118145
0.123040
0.116200
0.095191
0.058306
0.013433
-0.036233
-0.073859
-0.121355
-0.159621
-0.187364
-0.191571
-0.180275
-0.154765
-0.126305
-0.080289
-0.044006
0.000811
0.034506
0.078336
0.102540
0.113103
0.111803
0.087515
0.044587
0.009090
-0.040699
-0.086644
-0.134156
-0.176970
-0.197320
-0.211284
-0.196688
-0.174371
-0.143380
-0.093149
-0.045794
-0.006422
0.034864
0.076694
0.099181
0.107764
0.102945
0.083203
0.044172
0.006112
-0.041619
-0.092199
-0.133978
-0.171599
-0.191755
-0.202924
-0.209217
-0.184956
-0.150733
-0.110285
-0.063330
-0.020798
0.029800
0.069622
0.080873
0.104259
0.096386
0.073962
0.042054
0.002390
-0.039263
-0.080735
-0.126266
-0.173771
-0.192108
-0.207681
-0.199271
-0.195227
-0.160702
-0.120115
-0.060050
-0.006554
0.033968
0.066707
0.081977
0.094208
0.085470
0.075591
0.046679
0.010354
-0.038714
-0.098222
-0.147597
-0.185944
-0.208813
-0.210360
-0.205283
-0.186452
-0.152507
-0.105951
-0.058488
-0.009286
0.031186
0.064661
0.093358
0.100297
0.092178
0.079337
0.038490
-0.001212
-0.054406
-0.104785
-0.140485
-0.174997
-0.210799
-0.220877
-0.211717
-0.194076
-0.161224
-0.122681
-0.070119
-0.013327
0.030503
0.063747
0.082791
0.103221
0.093915
0.082555
0.046478
-0.003816
-0.046260
-0.093892
-0.142475
-0.180631
-0.209554
-0.222321
-0.207368
-0.189392
-0.145984
-0.105752
-0.050973
-0.008906
0.041060
0.067874
0.085840
0.101777
0.090542
0.068191
0.032993
-0.013269
-0.057903
-0.097396
-0.147093
-0.185267
-0.205984
-0.224362
-0.211552
-0.194029
-0.156097
-0.109411
-0.052186
-0.001855
0.044914
0.069345
0.094628
0.110907
0.099912
0.081212
0.052532
0.021909
-0.034844
-0.076287
-0.122587
-0.149936
-0.164888
-0.184069
-0.184156
-0.156075
-0.124264
-0.074998
-0.030016
0.019060
0.058510
0.097386
0.122950
0.139782
0.129051
0.122133
0.074163
0.026000
-0.020272
-0.066039
-0.115300
-0.149582
-0.179050
-0.198886
-0.172583
-0.146594
-0.118792
-0.073363
-0.027490
0.021260
0.070521
0.108829
0.136166
0.158354
0.148608
0.130892
0.100705
0.058052
0.006151
-0.037154
-0.095794
-0.127931
-0.147647
-0.154374
-0.146959
-0.125392
-0.090866
-0.057420
-0.014023
0.023835
0.071404
0.104058
0.126327
0.137617
0.129946
0.099312
0.066887
0.024759
-0.023702
-0.070804
-0.127983
-0.164695
-0.193593
-0.212641
-0.203891
-0.181398
-0.150577
-0.110908
-0.065928
-0.012658
0.038802
0.072246
0.093822
0.110917
0.102139
0.077728
0.046771
-0.003353
-0.052129
-0.104554
-0.149661
-0.175116
-0.205012
-0.224431
-0.213562
-0.188943
-0.146518
-0.104320
-0.060797
-0.025127
0.015435
0.056082
0.079721
0.083136
0.066487
0.047974
0.020361
-0.024539
-0.064788
-0.115675
-0.155252
-0.199381
-0.215699
-0.235259
-0.233183
-0.202464
-0.154413
-0.118055
-0.069903
-0.031929
0.014525
0.046356
0.070210
0.078574
0.064783
0.036873
0.017082
-0.022374
-0.080959
-0.122880
-0.159201
-0.194373
-0.220342
-0.226520
-0.220800
-0.201750
-0.167116
-0.121433
-0.082356
-0.033603
0.010251
0.043233
0.062338
0.073990
0.071046
0.045792
0.028609
-0.019764
-0.070046
-0.117352
-0.164179
-0.204271
-0.228222
-0.242354
-0.240083
-0.218265
-0.178203
-0.140821
-0.089178
-0.031605
0.020905
0.051657
0.075745
0.104790
0.107749
0.090773
0.068693
0.036539
0.006596
-0.022075
-0.054010
-0.066345
-0.080519
-0.073347
-0.057688
-0.019260
0.034509
0.109586
0.189739
0.258037
0.315827
0.388304
0.442094
0.493997
0.510494
0.526716
0.531045
0.510557
0.486531
0.484117
0.477316
0.487329
0.507533
0.529738
0.570161
0.617429
0.665115
0.697868
0.735787
0.780878
0.796774
0.804545
0.792226
0.768202
0.720971
0.624205
0.517993
0.412881
0.302734
0.220991
0.121404
0.029934
-0.039583
-0.060476
-0.057241
-0.051852
-0.015697
0.013749
0.046097
0.090969
0.124370
0.150826
0.172237
0.181956
0.172502
0.150354
0.103125
0.058663
0.011011
-0.043203
-0.078107
-0.119282
-0.154254
-0.166186
-0.157633
-0.141691
-0.118488
-0.080575
-0.018490
0.014426
0.057457
0.096750
0.111386
0.119456
0.107121
0.089092
0.057506
0.014959
-0.040962
-0.085785
-0.130364
-0.163525
-0.191039
-0.192737
-0.180713
-0.161305
-0.120720
-0.081372
-0.048458
-0.001700
0.041554
0.086814
0.111435
0.122461
0.120005
0.089424
0.061427
0.020153
-0.029682
-0.081060
-0.118447
-0.154387
-0.185937
-0.192480
-0.187003
-0.173179
-0.120785
-0.080217
-0.034871
0.013894
0.058594
0.099260
0.116460
0.125698
0.111278
0.105667
0.070868
0.025177
-0.030239
-0.074263
-0.117902
-0.152261
-0.167486
-0.170018
-0.165875
-0.133643
-0.101392
-0.061611
-0.021100
0.027674
0.082529
0.119614
0.139866
0.157455
0.149219
0.138443
0.091901
0.050976
0.005263
-0.046637
-0.087888
-0.109129
-0.130846
-0.151532
-0.131953
-0.101096
-0.061440
-0.032288
0.015993
0.062756
0.116881
0.158358
0.157480
0.174803
0.172373
0.146442
0.115261
0.068501
0.020409
-0.028615
-0.066827
-0.096836
-0.108209
-0.119941
-0.110758
-0.096061
-0.064791
-0.013730
0.038011
0.092772
0.141686
0.174630
0.199597
0.213788
0.212168
0.185265
0.160692
0.119932
0.075059
0.041777
-0.003785
-0.036176
-0.062374
-0.079203
-0.067264
-0.045419
-0.009289
0.042595
0.083689
0.135398
0.175458
0.210064
0.237274
0.256764
0.245737
0.221275
0.190099
0.149432
0.094343
0.048487
0.011177
-0.025264
-0.049813
-0.062098
-0.052141
-0.031762
-0.001997
0.036808
0.078049
0.131879
0.183694
0.213556
0.226618
0.237873
0.241054
0.219776
0.178274
0.135617
0.089661
0.051960
-0.000669
-0.032519
-0.062148
-0.072187
-0.076224
-0.060868
-0.027193
0.014014
0.068944
0.104494
0.147186
0.186535
0.207429
0.224527
0.212559
0.190013
0.155030
0.105942
0.051171
-0.004755
-0.054103
-0.092679
-0.119862
-0.126900
-0.124246
-0.108775
-0.065745
-0.025488
0.013099
0.062104
0.107510
0.140525
0.149996
0.157154
0.149807
0.132913
0.094993
0.056864
0.010169
-0.042975
-0.093261
-0.137252
-0.158315
-0.165054
-0.160408
-0.149818
-0.108371
-0.072733
-0.020152
0.016645
0.066996
0.106571
0.125036
0.121660
0.121446
0.108133
0.076181
0.024263
-0.025939
-0.070199
-0.115123
-0.154620
-0.173398
-0.180689
-0.184973
-0.158712
-0.135319
-0.084943
-0.035036
0.001068
0.037159
0.072305
0.103807
0.112707
0.102904
0.087400
0.049590
0.007587
-0.049318
-0.091889
-0.138763
-0.168786
-0.195270
-0.196084
-0.182138
-0.167994
-0.135380
-0.094156
-0.050241
0.005417
0.051963
0.081056
0.105692
0.112654
0.116728
0.096951
0.050932
0.007385
-0.040317
-0.080037
-0.122858
-0.155150
-0.193870
-0.215068
-0.202356
-0.178759
-0.136286
-0.092303
-0.048199
0.005048
0.044009
0.085208
0.104479
0.118463
0.113421
0.088586
0.051090
0.005936
-0.041884
-0.085666
-0.125577
-0.158943
-0.174346
-0.189099
-0.188477
-0.163581
-0.125986
-0.085291
-0.026886
0.018635
0.062128
0.101414
0.120367
0.133521
0.121455
0.100249
0.070479
0.018150
-0.027526
-0.073894
-0.118286
-0.142880
-0.169419
-0.179986
-0.181569
-0.162330
-0.123901
-0.078878
-0.028469
0.019962
0.057296
0.095037
0.119903
0.122742
0.124480
0.099572
0.059955
0.017753
-0.036018
-0.077916
-0.126277
-0.153243
-0.172978
-0.179540
-0.178465
-0.164006
-0.125701
-0.082548
-0.030945
0.015836
0.062739
0.100545
0.130337
0.132045
0.128245
0.106289
0.067245
0.018656
-0.022366
-0.068852
-0.112420
-0.148293
-0.176497
-0.181232
-0.176075
-0.153146
-0.115843
-0.086535
-0.036723
0.018082
0.063362
0.090121
0.114820
0.120824
0.107120
0.082086
0.055260
0.008290
-0.028984
-0.081476
-0.126959
-0.163597
-0.185935
-0.190923
-0.189410
-0.165575
-0.131477
-0.088189
-0.046819
0.002129
0.051132
0.089874
0.113482
0.124249
0.118192
0.097543
0.053267
0.006307
-0.023729
-0.074188
-0.114861
-0.151711
-0.179795
-0.180819
-0.187108
-0.170503
-0.139188
-0.095665
-0.033305
0.021376
0.060155
0.085273
0.101165
0.111267
0.099852
0.073233
0.035797
-0.003618
-0.051069
-0.095762
-0.136645
-0.172714
-0.202047
-0.208583
-0.203389
-0.171036
-0.141545
-0.097292
-0.049409
0.005121
0.045630
0.075854
0.100905
0.111256
0.109656
0.088749
0.050106
0.001040
-0.047214
-0.087777
-0.135403
-0.165634
-0.196077
-0.197755
-0.184853
-0.170338
-0.129126
-0.093567
-0.052373
0.001002
0.038007
0.063393
0.089264
0.112984
0.115525
0.090449
0.044971
-0.003392
-0.054679
-0.098802
-0.138623
-0.179358
-0.201095
-0.210803
-0.211203
-0.185200
-0.149557
-0.105107
-0.058046
-0.011396
0.038699
0.078560
0.095683
0.090975
0.093375
0.069525
0.034326
0.000740
-0.040816
-0.086480
-0.135916
-0.171938
-0.207827
-0.212839
-0.195741
-0.172513
-0.128182
-0.098611
-0.051600
-0.002730
0.043051
0.078059
0.110201
0.113654
0.107541
0.079838
0.045040
-0.000523
-0.040944
-0.093825
-0.140010
-0.171091
-0.194893
-0.202285
-0.198949
-0.182173
-0.138854
-0.099714
-0.042994
-0.008494
0.037929
0.079798
0.105263
0.110927
0.106066
0.086793
0.042849
-0.006537
-0.058721
-0.101784
-0.147077
-0.178239
-0.199319
-0.197902
-0.187714
-0.163686
-0.121413
-0.080425
-0.034040
0.008965
0.053175
0.084222
0.111378
0.117702
0.115475
0.095108
0.069942
0.029293
-0.006041
-0.056372
-0.110404
-0.144159
-0.173507
-0.171303
-0.166361
-0.146734
-0.122589
-0.075764
-0.022848
0.034763
0.073536
0.099329
0.138046
0.144642
0.127370
0.109429
0.075106
0.030547
-0.019610
-0.067220
-0.102493
-0.140331
-0.157506
-0.168222
-0.155005
-0.123914
-0.091027
-0.052884
-0.008878
0.043651
0.085922
0.126266
0.152723
0.158438
0.161981
0.141513
0.104553
0.062662
0.014696
-0.027283
-0.074895
-0.110860
-0.152627
-0.167825
-0.162360
-0.145005
-0.108855
-0.065181
-0.017650
0.029907
0.076195
0.105427
0.132045
0.143619
0.127978
0.105586
0.058559
0.009019
-0.029725
-0.074908
-0.118707
-0.158173
-0.179489
-0.200925
-0.195081
-0.171151
-0.135119
-0.087552
-0.042646
0.006210
0.063140
0.087652
0.102493
0.101300
0.084957
0.057431
0.037475
-0.010338
-0.053056
-0.107460
-0.147594
-0.182251
-0.208191
-0.218635
-0.221824
-0.198755
-0.159029
-0.113969
-0.069150
-0.018589
0.022930
0.051531
0.074266
0.083920
0.080117
0.050204
0.016930
-0.025038
-0.070417
-0.126168
-0.168195
-0.193938
-0.226147
-0.235726
-0.229240
-0.203347
-0.161935
-0.114034
-0.078388
-0.026403
0.019765
0.052427
0.085029
0.093160
0.086566
0.066375
0.031240
-0.011020
-0.059466
-0.108587
-0.157163
-0.186183
-0.214948
-0.217486
-0.214254
-0.195309
-0.161523
-0.117027
-0.057321
-0.006068
0.026616
0.058338
0.078049
0.077086
0.059604
0.046567
0.013747
-0.023568
-0.073673
-0.119074
-0.162979
-0.200247
-0.231448
-0.229180
-0.228515
-0.203488
-0.155948
-0.101447
-0.065439
-0.006080
0.040854
0.076639
0.126194
0.144530
0.152473
0.157195
0.132602
0.105158
0.077185
0.046266
0.015962
-0.002805
-0.011526
0.007371
0.018348
0.078723
0.138567
0.216513
0.289168
0.390320
0.473404
0.536793
0.582105
0.620573
0.637668
0.655269
0.658357
0.668118
0.654558
0.654084
0.648463
0.641792
0.614166
0.606706
0.604145
0.631146
0.640566
0.657216
0.673875
0.697134
0.712203
0.675088
0.632960
0.570498
0.499969
0.430545
0.337506
0.236809
0.151809
0.085441
0.026180
-0.025892
-0.054198
-0.058707
-0.062334
-0.062241
-0.034669
-0.003900
0.032553
0.079907
0.116959
0.142877
0.166658
0.181593
0.180210
0.156337
0.114291
0.070282
0.011729
-0.045062
-0.099330
-0.136787
-0.170561
-0.168077
-0.165133
-0.155042
-0.118164
-0.075322
-0.022853
0.025538
0.061267
0.098852
0.136133
0.142180
0.134434
0.098772
0.061659
0.012397
-0.034315
-0.068876
-0.104466
-0.140988
-0.162400
-0.182777
-0.179409
-0.156993
-0.120220
-0.080815
-0.033434
0.019223
0.064035
0.102799
0.135234
0.139800
0.130950
0.103975
0.065783
0.013115
-0.021343
-0.071798
-0.103640
-0.144838
-0.178858
-0.182679
-0.177863
-0.150308
-0.115938
-0.073687
-0.025129
0.027325
0.066783
0.099327
0.137264
0.144377
0.131656
0.107428
0.068632
0.017602
-0.022140
-0.058092
-0.096287
-0.126081
-0.153071
-0.153110
-0.150329
-0.138152
-0.103215
-0.049825
-0.000288
0.047966
0.099994
0.143908
0.165532
0.167354
0.167503
0.146992
0.115240
0.064754
0.018442
-0.026421
-0.063085
-0.112153
-0.130381
-0.136573
-0.121203
-0.102541
-0.069216
-0.024907
0.027333
0.078780
0.123075
0.153003
0.175019
0.186816
0.186809
0.163245
0.135045
0.095283
0.050613
0.008750
-0.033718
-0.058181
-0.084434
-0.098528
-0.088985
-0.063905
-0.018038
0.021536
0.064283
0.117505
0.171935
0.205348
0.237208
0.252330
0.239300
0.219480
0.192232
0.152184
0.096570
0.041304
-0.003619
-0.034346
-0.047344
-0.053291
-0.049390
-0.023757
0.024373
0.064042
0.112326
0.157857
0.193010
0.236067
0.255443
0.258182
0.251679
0.236372
0.207842
0.164603
0.118654
0.066386
0.024872
-0.018402
-0.040039
-0.053007
-0.044861
-0.025083
0.014962
0.050237
0.101343
0.161065
0.208553
0.237818
0.258395
0.266527
0.259387
0.244010
0.203645
0.154250
0.117720
0.069492
0.026559
-0.005848
-0.030800
-0.044441
-0.047962
-0.037878
-0.001340
0.033893
0.074881
0.111202
0.147341
0.186533
0.215681
0.222802
0.207799
0.181482
0.141757
0.099581
0.059154
0.009874
-0.039170
-0.072533
-0.106872
-0.125155
-0.115764
-0.096694
-0.057380
-0.013931
0.033734
0.075489
0.123396
0.149551
0.179598
0.188327
0.175723
0.149570
0.108342
0.069847
0.018988
-0.034823
-0.071562
-0.105355
-0.126970
-0.147849
-0.137157
-0.115247
-0.086946
-0.040722
0.005829
0.044668
0.088812
0.127962
0.158901
0.161742
0.146995
0.119622
0.090246
0.033701
-0.016960
-0.045768
-0.092371
-0.137031
-0.161272
-0.167141
-0.166742
-0.141114
-0.101720
-0.074672
-0.028058
0.017548
0.064755
0.100902
0.125393
0.129731
0.128475
0.099239
0.070862
0.033096
-0.004649
-0.054502
-0.098588
-0.143338
-0.172889
-0.177195
-0.169100
-0.150864
-0.120874
-0.070290
-0.026884
0.019871
0.057620
0.095853
0.133854
0.139448
0.133710
0.112063
0.069402
0.023149
-0.018548
-0.067764
-0.106212
-0.146005
-0.178844
-0.189144
-0.171163
-0.141737
-0.112285
-0.071223
-0.020361
0.035473
0.071235
0.110126
0.124827
0.147357
0.147418
0.116420
0.080685
0.035561
0.000244
-0.046499
-0.092346
-0.122224
-0.147852
-0.158816
-0.158727
-0.149985
-0.119062
-0.080599
-0.029838
0.025874
0.076373
0.116846
0.137021
0.162515
0.165754
0.129697
0.090248
0.046261
-0.003419
-0.052882
-0.091800
-0.126509
-0.147910
-0.154707
-0.160863
-0.139450
-0.105625
-0.055716
-0.009992
0.035367
0.082002
0.110354
0.144634
0.153158
0.141388
0.122173
0.097412
0.043672
0.001798
-0.045239
-0.086555
-0.122376
-0.143266
-0.157317
-0.156811
-0.127450
-0.098705
-0.057993
-0.013396
0.040196
0.085951
0.122230
0.144114
0.159626
0.143907
0.110064
0.084327
0.052616
-0.000389
-0.043206
-0.088430
-0.126455
-0.155193
-0.153576
-0.149568
-0.145369
-0.120631
-0.077127
-0.019539
0.036982
0.073408
0.101549
0.136742
0.153733
0.150877
0.123695
0.077718
0.033700
-0.011203
-0.057249
-0.101377
-0.142395
-0.159730
-0.172662
-0.159135
-0.135079
-0.101757
-0.052965
-0.020279
0.017670
0.067085
0.113968
0.138201
0.154075
0.142577
0.120964
0.088400
0.040784
-0.017969
-0.067692
-0.107831
-0.134855
-0.163979
-0.174954
-0.165945
-0.143530
-0.120322
-0.076011
-0.037094
0.017814
0.060601
0.095307
0.106783
0.112152
0.107600
0.099221
0.069060
0.023720
-0.024354
-0.057214
-0.092644
-0.138808
-0.169024
-0.178612
-0.162685
-0.128781
-0.102663
-0.064436
-0.026072
0.033785
0.078587
0.114398
0.137257
0.144544
0.142207
0.122192
0.076468
0.028828
-0.016899
-0.065513
-0.120833
-0.152767
-0.171564
-0.182012
-0.183681
-0.159317
-0.121557
-0.080515
-0.035990
0.021075
0.058514
0.097393
0.127095
0.127328
0.123707
0.101313
0.066614
0.020933
-0.023350
-0.070705
-0.108216
-0.146755
-0.178272
-0.184573
-0.176184
-0.146171
-0.110024
-0.061561
-0.016212
0.021807
0.064463
0.109590
0.132954
0.146823
0.132643
0.104745
0.063103
0.014505
-0.029571
-0.074071
-0.123447
-0.153938
-0.168297
-0.169113
-0.178833
-0.166146
-0.119759
-0.081282
-0.038771
0.008655
0.061697
0.090870
0.115300
0.118564
0.111118
0.086867
0.058085
0.019000
-0.027185
-0.077278
-0.104283
-0.137146
-0.158540
-0.175877
-0.180968
-0.162483
-0.126993
-0.064633
-0.016102
0.039003
0.078592
0.122240
0.148093
0.161150
0.143361
0.119547
0.080400
0.040377
-0.001109
-0.050252
-0.099098
-0.133655
-0.156429
-0.164223
-0.153270
-0.125575
-0.094102
-0.042923
0.008914
0.053041
0.107715
0.141996
0.163208
0.165119
0.148015
0.116248
0.088314
0.063507
0.020951
-0.017355
-0.061508
-0.096299
-0.129196
-0.144039
-0.144445
-0.121046
-0.086351
-0.042859
0.013401
0.069285
0.111376
0.158173
0.195220
0.205738
0.193059
0.176231
0.140477
0.083702
0.038988
-0.008915
-0.052352
-0.094073
-0.118162
-0.129394
-0.134080
-0.124280
-0.081414
-0.040292
0.001860
0.045353
0.086520
0.128745
0.153432
0.162752
0.137252
0.104405
0.072076
0.031184
-0.018898
-0.071135
-0.116446
-0.153993
-0.168522
-0.182711
-0.156134
-0.117157
-0.085111
-0.045794
-0.019920
0.028686
0.063589
0.108109
0.151689
0.144740
0.133514
0.105563
0.067534
0.026841
-0.021683
-0.056144
-0.113862
-0.147555
-0.184722
-0.187677
-0.178781
-0.149442
-0.128462
-0.079679
-0.045764
-0.000303
0.034615
0.073384
0.104860
0.112011
0.098010
0.075037
0.048084
0.007604
-0.035862
-0.081368
-0.127352
-0.179011
-0.204947
-0.196765
-0.181686
-0.166249
-0.148990
-0.106154
-0.063862
-0.004683
0.043824
0.094119
0.119431
0.122990
0.115304
0.082796
0.060081
0.008579
-0.036883
-0.094170
-0.133714
-0.174506
-0.202016
-0.208166
-0.207462
-0.170393
-0.141983
-0.089390
-0.042008
-0.010236
0.034820
0.077733
0.098710
0.095883
0.091976
0.066871
0.038876
-0.004778
-0.058117
-0.103842
-0.142591
-0.170673
-0.193821
-0.220097
-0.208759
-0.178359
-0.148870
-0.102393
-0.052043
0.006361
0.050039
0.089470
0.134055
0.153191
0.155983
0.160132
0.140689
0.108937
0.073673
0.030638
-0.006078
-0.033814
-0.042503
-0.016453
0.019319
0.078018
0.122789
0.196520
0.299280
0.372406
0.457585
0.531125
0.591940
0.621662
0.649888
0.672238
0.674999
0.671948
0.675890
0.659360
0.648950
0.634241
0.632269
0.622593
0.622111
0.650175
0.685299
0.693359
0.717167
0.746191
0.759488
0.745345
0.686867
0.635929
0.564999
0.495157
0.414228
0.326142
0.225939
0.143615
0.074650
0.025246
-0.005069
-0.022247
-0.025552
-0.006962
0.010531
0.041333
0.075948
0.117831
0.155574
0.182098
0.189231
0.182717
0.172752
0.158626
0.127213
0.076164
0.027813
-0.034397
-0.080648
-0.113773
-0.136267
-0.145422
-0.144408
-0.127085
-0.105778
-0.055709
-0.006816
0.036919
0.083357
0.112991
0.135192
0.135757
0.121308
0.119624
0.096861
0.064093
0.012079
-0.037654
-0.086015
-0.132720
-0.159937
-0.169301
-0.161357
-0.132014
-0.089648
-0.057080
-0.013842
0.033980
0.082140
0.114080
0.131681
0.144584
0.132307
0.099865
0.065756
0.008442
-0.043739
-0.078946
-0.106920
-0.184911
-0.209331
-0.199539
-0.176208
-0.160103
-0.129490
-0.089305
-0.037165
0.025335
0.066761
0.107768
0.130803
0.151547
0.151786
0.129904
0.103767
0.054868
0.015139
-0.031071
-0.076295
-0.115617
-0.139129
-0.163869
-0.154939
-0.129560
-0.088940
-0.042637
0.001251
0.046020
0.099934
0.145002
0.156262
0.156385
0.153166
0.133916
0.106367
0.065934
0.011180
-0.034480
-0.081414
-0.125486
-0.135856
-0.120738
-0.112891
-0.098267
-0.059441
-0.017850
0.036010
0.082268
0.122511
0.167414
0.190953
0.198004
0.185202
0.168697
0.141985
0.100133
0.049815
0.010940
-0.021421
-0.065165
-0.084203
-0.082493
-0.075440
-0.044003
-0.007119
0.029555
0.073902
0.134079
0.174982
0.210992
0.218315
0.235976
0.239438
0.213284
0.181213
0.135160
0.077343
0.038338
-0.005795
-0.046053
-0.055743
-0.056389
-0.042733
-0.003113
0.027991
0.061195
0.113964
0.154883
0.196293
0.229520
0.232512
0.235366
0.238985
0.218421
0.195180
0.156967
0.107194
0.057093
0.032608
0.004377
-0.030227
-0.050313
-0.030513
-0.008401
0.031902
0.086771
0.141238
0.174065
0.206936
0.242844
0.256046
0.261461
0.252342
0.225404
0.187960
0.150111
0.112827
0.070056
0.013434
-0.018356
-0.035721
-0.062301
-0.062082
-0.037129
0.001796
0.032796
0.087313
0.129561
0.180145
0.218972
0.235555
0.235671
0.217330
0.189962
0.161278
0.127412
0.069703
0.017987
-0.029140
-0.082664
-0.100592
-0.113595
-0.108158
-0.080882
-0.034756
-0.011152
0.045941
0.099825
0.148735
0.178536
0.180834
0.188167
0.191601
0.162132
0.123785
0.078686
0.027588
-0.027081
-0.080749
-0.113470
-0.136620
-0.151598
-0.153788
-0.123212
-0.104749
-0.060962
-0.013692
0.025668
0.070244
0.107209
0.128381
0.148761
0.137574
0.110918
0.068151
0.035943
-0.010483
-0.059876
-0.097705
-0.130300
-0.154784
-0.161161
-0.151262
-0.133026
-0.107418
-0.061065
-0.012878
0.045098
0.078515
0.112761
0.124870
0.152083
0.150375
0.128318
0.092150
0.045787
-0.012065
-0.073098
-0.114850
-0.151445
-0.165257
-0.157909
-0.170416
-0.144531
-0.103680
-0.063398
-0.021849
0.018940
0.043365
0.088208
0.109236
0.116364
0.116397
0.098504
0.071057
0.032070
-0.028412
-0.074791
-0.115802
-0.153726
-0.174604
-0.180909
-0.163407
-0.130125
-0.097297
-0.051323
-0.012295
0.037940
0.089848
0.127510
0.131385
0.143732
0.146605
0.129958
0.114333
0.070970
0.014212
-0.042641
-0.090008
-0.125889
-0.157427
-0.181779
-0.186824
-0.161269
-0.112757
-0.067402
-0.019127
0.018394
0.060134
0.100018
0.133470
0.143846
0.132900
0.097973
0.075892
0.037393
0.002328
-0.051487
-0.089983
-0.117267
-0.146653
-0.165290
-0.161443
-0.139283
-0.080140
-0.035278
0.018837
0.060579
0.090036
0.141455
0.154307
0.163691
0.142769
0.117620
0.091966
0.056807
0.008993
-0.037696
-0.079075
-0.118350
-0.147872
-0.163472
-0.159259
-0.130289
-0.096647
-0.059236
-0.007850
0.032253
0.063592
0.115879
0.138638
0.131881
0.126812
0.108007
0.071675
0.029595
-0.020215
-0.076836
-0.111134
-0.159528
-0.187324
-0.181330
-0.169437
-0.140250
-0.089957
-0.048513
0.001443
0.055891
0.093861
0.113046
0.141146
0.146446
0.142920
0.106480
0.079547
0.051645
0.002135
-0.052331
-0.106089
-0.153584
-0.168070
-0.171768
-0.166771
-0.154514
-0.127766
-0.086863
-0.029600
0.025206
0.059023
0.097315
0.125786
0.128933
0.129382
0.106133
0.082059
0.045827
-0.004828
-0.065235
-0.106701
-0.142628
-0.173307
-0.177950
-0.175777
-0.150067
-0.114564
-0.086061
-0.033726
0.022781
0.057556
0.086330
0.119861
0.135242
0.136301
0.110967
0.073523
0.044250
-0.002699
-0.039515
-0.090348
-0.135783
-0.159095
-0.171079
-0.163754
-0.147290
-0.114408
-0.072979
-0.021258
0.038214
0.060492
0.101177
0.117512
0.113200
0.115845
0.087232
0.050682
0.003974
-0.051671
-0.087444
-0.129186
-0.172175
-0.185458
-0.189685
-0.166969
-0.155461
-0.129289
-0.091236
-0.046752
0.025257
0.070974
0.104021
0.124957
0.124461
0.129689
0.108687
0.067558
0.017670
-0.027442
-0.067739
-0.111268
-0.147909
-0.160300
-0.175519
-0.169125
-0.140619
-0.108010
-0.081122
-0.025227
0.025693
0.070005
0.097133
0.118510
0.111237
0.109979
0.098146
0.053008
0.013851
-0.008886
-0.048910
-0.104894
-0.134307
-0.158971
-0.190902
-0.193885
-0.171057
-0.137984
-0.079760
-0.026729
0.025057
0.083548
0.125582
0.150877
0.160814
0.143181
0.119742
0.095729
0.051937
0.002274
-0.062596
-0.099493
-0.115487
-0.128546
-0.139120
-0.131399
-0.108701
-0.075196
-0.037687
0.007296
0.047012
0.090113
0.126744
0.158428
0.171619
0.164463
0.145289
0.110041
0.070753
0.011706
-0.036307
-0.077691
-0.114365
-0.141612
-0.149480
-0.153749
-0.123378
-0.087965
-0.045401
0.004756
0.064359
0.109552
0.164802
0.191691
0.191386
0.177590
0.152561
0.128871
0.078872
0.025705
-0.031938
-0.065500
-0.102923
-0.122196
-0.127019
-0.118950
-0.102693
-0.062749
-0.027463
-0.000281
0.043073
0.103263
0.138522
0.154957
0.153886
0.136904
0.112007
0.074921
0.040483
-0.012977
-0.070876
-0.114564
-0.144827
-0.181713
-0.187217
-0.189744
-0.167810
-0.131489
-0.089684
-0.043269
0.000911
0.041774
0.092762
0.126066
0.130978
0.114719
0.091310
0.057299
0.016405
-0.034545
-0.107079
-0.151624
-0.176580
-0.199690
-0.196525
-0.185880
-0.154575
-0.127898
-0.089078
-0.052567
-0.010479
0.031659
0.060739
0.094788
0.104753
0.094834
0.065602
0.032003
-0.008388
-0.056483
-0.105133
-0.156295
-0.189480
-0.199546
-0.204532
-0.197555
-0.182509
-0.149169
-0.112113
-0.067712
-0.027073
0.028695
0.071751
0.091863
0.100520
0.079212
0.057412
0.023552
-0.019964
-0.069443
-0.108252
-0.144687
-0.169653
-0.188885
-0.204708
-0.194453
-0.166466
-0.133109
-0.093203
-0.041372
0.005033
0.050708
0.085183
0.105617
0.107336
0.082016
0.052161
0.013941
-0.029190
-0.072369
-0.130508
-0.169377
-0.222171
-0.227091
-0.234189
-0.225005
-0.199942
-0.153470
-0.103680
-0.039091
0.018332
0.087887
0.133696
0.161100
0.175778
0.185211
0.180982
0.161980
0.137604
0.113085
0.078306
0.064710
0.059269
0.061023
0.096572
0.133735
0.188720
0.276555
0.359554
0.437655
0.521402
0.594663
0.656253
0.719487
0.774170
0.822015
0.837489
0.835302
0.810107
0.776164
0.730282
0.666441
0.618049
0.584540
0.546211
0.551215
0.568772
0.577539
0.556365
0.540206
0.518754
0.500613
0.491247
0.457704
0.402704
0.348118
0.286449
0.240403
0.190984
0.131442
0.080213
0.017465
-0.027552
-0.066992
-0.082623
-0.078926
-0.058537
-0.048551
-0.017209
0.033464
0.084817
0.127896
0.148849
0.177876
0.179211
0.159809
0.134316
0.093213
0.044070
0.000517
-0.042334
-0.093106
-0.128247
-0.158734
-0.169945
-0.160848
-0.143200
-0.115378
-0.080223
-0.038372
0.011636
0.055208
0.090392
0.123595
0.133048
0.125804
0.094609
0.064237
0.020894
-0.032494
-0.084829
-0.126737
-0.166235
-0.189679
-0.192887
-0.176473
-0.146033
-0.123907
-0.078836
-0.023436
0.035674
0.084736
0.119383
0.144576
0.156615
0.137326
0.115553
0.078340
0.033586
-0.030743
-0.079590
-0.118778
-0.143383
-0.165367
-0.173661
-0.164234
-0.139206
-0.102802
-0.059930
-0.016217
0.029964
0.075760
0.108606
0.130733
0.129251
0.119501
0.097937
0.068345
0.031167
-0.005016
-0.039395
-0.098446
-0.126467
-0.134700
-0.139065
-0.149308
-0.126558
-0.082205
-0.037782
0.019528
0.063392
0.102103
0.142891
0.164541
0.176358
0.166220
0.139749
0.100657
0.063373
0.015234
-0.026207
-0.070912
-0.099421
-0.127779
-0.132745
-0.114356
-0.094327
-0.064027
-0.021445
0.026191
0.082932
0.124606
0.155215
0.185735
0.192208
0.188917
0.181773
0.152563
0.107332
0.056480
0.019383
-0.020846
-0.057117
-0.086621
-0.104899
-0.087887
-0.055784
-0.020510
0.021216
0.068720
0.115123
0.164018
0.191790
0.214199
0.245172
0.239090
0.223397
0.189675
0.148472
0.100742
0.045072
0.000504
-0.037881
-0.057762
-0.062065
-0.058278
-0.028195
0.018236
0.064144
0.102704
0.140712
0.191658
0.221866
0.241546
0.256747
0.251300
0.216232
0.183094
0.143388
0.082215
0.042716
-0.006312
-0.036195
-0.053722
-0.054105
-0.043459
-0.007211
0.020888
0.068370
0.114274
0.155371
0.185057
0.224310
0.247523
0.250180
0.237789
0.207618
0.173819
0.138395
0.077767
0.033551
-0.008070
-0.042440
-0.059860
-0.070769
-0.069709
-0.054562
-0.025690
0.008375
0.057210
0.093831
0.134869
0.166370
0.195687
0.199259
0.185018
0.168116
0.138990
0.093883
0.045498
-0.010100
-0.059550
-0.092952
-0.105151
-0.118221
-0.114565
-0.095346
-0.068277
-0.036454
0.011236
0.053049
0.101648
0.137936
0.162081
0.173152
0.164737
0.140223
0.100285
0.052616
0.007328
-0.039469
-0.089510
-0.116345
-0.138776
-0.156381
-0.142411
-0.139034
-0.110269
-0.068073
-0.022721
0.025125
0.075174
0.105182
0.125990
0.136660
0.120747
0.094994
0.068471
0.025689
-0.022824
-0.077521
-0.129877
-0.163858
-0.180851
-0.194007
-0.178604
-0.159999
-0.130199
-0.084395
-0.038463
0.019409
0.068647
0.098880
0.128727
0.142899
0.131650
0.092108
0.062812
0.020946
-0.019582
-0.074787
-0.123972
-0.172864
-0.190066
-0.198930
-0.190750
-0.160631
-0.125500
-0.080159
-0.027713
0.017397
0.075877
0.098458
0.127658
0.128814
0.109195
0.093336
0.058030
0.025156
-0.022894
-0.084684
-0.136665
-0.178270
-0.199260
-0.197287
-0.182266
-0.157411
-0.128533
-0.085882
-0.031798
0.030674
0.073293
0.111866
0.135120
0.135303
0.123892
0.092053
0.060573
0.016035
-0.029831
-0.069828
-0.105745
-0.128464
-0.155410
-0.180064
-0.164426
-0.147112
-0.129020
-0.084408
-0.038377
0.006151
0.075984
0.107096
0.126556
0.129877
0.116298
0.106498
0.074222
0.026334
-0.022923
-0.071570
-0.112826
-0.143437
-0.165282
-0.176613
-0.170425
-0.152547
-0.115201
-0.073748
-0.030013
0.022838
0.074406
0.104096
0.126746
0.134525
0.120577
0.094018
0.063760
0.029632
-0.000274
-0.053117
-0.103980
-0.148944
-0.170973
-0.181321
-0.169857
-0.159045
-0.125303
-0.086584
-0.026393
0.028117
0.086539
0.120095
0.132434
0.126206
0.109506
0.084950
0.053215
0.013784
-0.036832
-0.087450
-0.126117
-0.162142
-0.176474
-0.181748
-0.173374
-0.141399
-0.097621
-0.052776
-0.006821
0.030366
0.066894
0.088825
0.117393
0.130156
0.126305
0.096512
0.058454
0.008119
-0.049429
-0.080848
-0.114764
-0.140846
-0.170084
-0.195900
-0.174356
-0.145171
-0.113331
-0.084388
-0.037512
0.008467
0.048791
0.082730
0.111259
0.111947
0.104309
0.077594
0.034204
-0.011730
-0.060758
-0.103832
-0.146729
-0.173528
-0.197605
-0.202022
-0.179875
-0.161389
-0.130212
-0.083846
-0.034150
0.009861
0.045165
0.079126
0.104287
0.119826
0.119176
0.089146
0.055364
0.005566
-0.038835
-0.088687
-0.137372
-0.168050
-0.184395
-0.196645
-0.187058
-0.162784
-0.126308
-0.081068
-0.039013
-0.007084
0.042456
0.065793
0.092090
0.101935
0.088997
0.067322
0.031431
-0.018372
-0.067731
-0.111363
-0.155464
-0.191743
-0.198145
-0.198991
-0.193961
-0.187378
-0.148613
-0.095459
-0.050439
-0.012275
0.022924
0.050427
0.081112
0.109918
0.106992
0.088082
0.061572
0.022788
-0.043419
-0.100742
-0.156378
-0.185111
-0.198360
-0.208122
-0.205456
-0.184553
-0.149648
-0.102358
-0.058224
-0.022171
0.026559
0.052032
0.078731
0.092004
0.093366
0.074411
0.040135
0.009402
-0.041111
-0.098363
-0.141470
-0.171104
-0.195635
-0.203905
-0.177306
-0.149580
-0.127641
-0.092795
-0.037798
0.001745
0.063571
0.094081
0.118656
0.120066
0.113709
0.095423
0.075295
0.030617
-0.011355
-0.052749
-0.099188
-0.133590
-0.157738
-0.178151
-0.168266
-0.153506
-0.115168
-0.064561
-0.013699
0.036287
0.083740
0.104443
0.124757
0.131557
0.132034
0.103438
0.062909
0.016179
-0.025591
-0.065521
-0.112786
-0.145457
-0.171527
-0.178179
-0.166289
-0.129630
-0.082158
-0.037423
-0.009847
0.033995
0.102865
0.140327
0.156565
0.148547
0.136425
0.124365
0.091904
0.041914
-0.009798
-0.060663
-0.117770
-0.157789
-0.185108
-0.180441
-0.169433
-0.149365
-0.114355
-0.069718
-0.031150
0.005206
0.047528
0.085355
0.118705
0.118827
0.098744
0.080326
0.041720
0.007898
-0.059687
-0.113488
-0.158113
-0.192737
-0.218269
-0.235752
-0.214636
-0.204745
-0.172284
-0.114375
-0.057304
-0.015454
0.023027
0.053135
0.067834
0.075582
0.072875
0.052862
0.020829
-0.018797
-0.079625
-0.128681
-0.173974
-0.208566
-0.229468
-0.237462
-0.229216
-0.213223
-0.183117
-0.138079
-0.095241
-0.042176
0.004146
0.040980
0.055260
0.068783
0.068892
0.049956
0.005650
-0.040694
-0.104434
-0.154457
-0.204675
-0.233011
-0.243352
-0.253288
-0.247493
-0.232482
-0.197975
-0.151561
-0.098875
-0.056686
0.000479
0.040390
0.057214
0.057580
0.052500
0.029476
-0.007885
-0.036126
-0.092301
-0.147024
-0.200954
-0.234862
-0.243828
-0.242492
-0.230587
-0.218567
-0.189754
-0.127618
-0.073985
-0.045201
-0.005761
0.025960
0.040109
0.055736
0.052125
0.028890
-0.015764
-0.068978
-0.113697
-0.146161
-0.170189
-0.198555
-0.216049
-0.210669
-0.210730
-0.191362
-0.137510
-0.075361
-0.008331
0.060798
0.109793
0.156287
0.198295
0.243764
0.267349
0.247751
0.240532
0.234987
0.219944
0.203218
0.188850
0.181187
0.190694
0.225573
0.278576
0.335219
0.397158
0.479328
0.564852
0.646555
0.731579
0.800542
0.849483
0.874039
0.857381
0.821932
0.793486
0.736147
0.672863
0.604923
0.523485
0.458469
0.365714
0.295600
0.248002
0.216489
0.187033
0.195524
0.202611
0.192578
0.189146
0.206052
0.218642
0.229583
0.218333
0.186325
0.143943
0.101796
0.051612
-0.004782
-0.065290
-0.115640
-0.153176
-0.166183
-0.155383
-0.135017
-0.106889
-0.071919
-0.034884
0.007089
0.044389
0.063978
0.086982
0.099864
0.089829
0.060486
0.023464
-0.018502
-0.065038
-0.114847
-0.142230
-0.184009
-0.220531
-0.238501
-0.224633
-0.200569
-0.158412
-0.127994
-0.095399
-0.039144
0.007839
0.040223
0.078766
0.071705
0.067327
0.051031
0.029007
-0.017191
-0.084456
-0.130439
-0.174195
-0.209058
-0.229605
-0.235273
-0.226952
-0.216302
-0.173063
-0.123807
-0.074881
-0.021406
0.015378
0.044838
0.062074
0.063832
0.055393
0.047469
0.019630
-0.027657
-0.084208
-0.136667
-0.185533
-0.219439
-0.237242
-0.235708
-0.215144
-0.196775
-0.156656
-0.107478
-0.061017
-0.007601
0.031734
0.055685
0.078697
0.079228
0.075176
0.049194
0.018868
-0.024962
-0.067989
-0.104479
-0.140857
-0.181275
-0.201502
-0.200777
-0.187706
-0.171719
-0.137470
-0.100519
-0.036324
0.016877
0.067665
0.092648
0.114439
0.111308
0.099728
0.070052
0.033018
-0.007205
-0.060928
-0.098334
-0.131452
-0.155263
-0.164848
-0.183835
-0.182487
-0.161092
-0.125839
-0.077352
-0.031543
0.029207
0.066911
0.101784
0.123460
0.135598
0.133812
0.103492
0.080614
0.054385
0.008609
-0.041836
-0.087059
-0.117349
-0.136437
-0.141897
-0.131368
-0.106281
-0.081344
-0.026763
0.015194
0.063326
0.102721
0.141847
0.166775
0.188927
0.173843
0.149534
0.113156
0.068650
0.014475
-0.019246
-0.063198
-0.091601
-0.116211
-0.120738
-0.104513
-0.084910
-0.056447
-0.015732
0.022087
0.078306
0.116893
0.148834
0.162485
0.166936
0.160238
0.146987
0.117250
0.066248
0.022694
-0.032648
-0.081785
-0.115542
-0.137509
-0.135696
-0.120010
-0.092969
-0.071221
-0.050450
-0.005178
0.064229
0.110072
0.141249
0.161074
0.163639
0.145220
0.131497
0.096404
0.054266
0.004740
-0.053794
-0.101791
-0.135999
-0.155839
-0.158288
-0.153953
-0.124394
-0.110128
-0.058388
-0.012630
0.028929
0.070525
0.092517
0.101517
0.107694
0.106944
0.082534
0.048332
0.004632
-0.054547
-0.114472
-0.161320
-0.187077
-0.208899
-0.213824
-0.195273
-0.175230
-0.147950
-0.108834
-0.061557
-0.009148
0.039290
0.071633
0.089378
0.084582
0.067323
0.044982
0.008197
-0.033144
-0.092061
-0.148560
-0.190246
-0.224355
-0.250004
-0.241835
-0.247026
-0.224837
-0.197978
-0.161345
-0.122460
-0.076953
-0.029218
0.022174
0.052694
0.048559
0.047835
0.019841
-0.019276
-0.066446
-0.121136
-0.172731
-0.212373
-0.241425
-0.264466
-0.270636
-0.265725
-0.236003
-0.199258
-0.163120
-0.117702
-0.062243
-0.013013
0.030030
0.044544
0.037167
0.026330
0.002989
-0.015140
-0.069895
-0.121010
-0.181955
-0.234593
-0.257037
-0.271234
-0.268643
-0.253223
-0.217952
-0.184294
-0.142907
-0.083381
-0.049259
-0.022660
0.003329
0.024725
0.034752
0.032352
0.019000
-0.018466
-0.074789
-0.130090
-0.175329
-0.215006
-0.239462
-0.263799
-0.272284
-0.278853
-0.247251
-0.211311
-0.163844
-0.117797
-0.064016
-0.011583
0.027304
0.041520
0.048364
0.053567
0.036067
-0.013866
-0.058045
-0.117059
-0.157200
-0.192451
-0.243604
-0.271278
-0.288672
-0.274576
-0.248214
-0.209735
-0.151205
-0.110277
-0.070572
-0.026481
0.022584
0.035470
0.036599
0.027083
0.003208
-0.022657
-0.064259
-0.118418
-0.147524
-0.190400
-0.234388
-0.258439
-0.277978
-0.266058
-0.233869
-0.194797
-0.150351
-0.109025
-0.053968
-0.018673
0.005565
0.027982
0.034875
0.035171
0.009686
-0.023491
-0.063709
-0.120673
-0.157997
-0.202829
-0.242247
-0.258304
-0.265958
-0.262486
-0.256157
-0.231513
-0.176969
-0.123046
-0.070167
-0.023806
0.008940
0.037516
0.031080
0.032485
0.009605
-0.030544
-0.084655
-0.139345
-0.179364
-0.209224
-0.248702
-0.271571
-0.285529
-0.287881
-0.261280
-0.224967
-0.177988
-0.121204
-0.077305
-0.045187
-0.009073
0.011019
0.024470
0.024223
0.004102
-0.028317
-0.085576
-0.136835
-0.180619
-0.222798
-0.266223
-0.286838
-0.294815
-0.282531
-0.263365
-0.229437
-0.178160
-0.110639
-0.062594
-0.021885
0.007401
0.023258
0.008347
-0.002842
-0.027292
-0.050259
-0.095977
-0.149564
-0.197024
-0.235912
-0.279089
-0.292206
-0.295677
-0.290790
-0.271012
-0.240441
-0.180121
-0.129585
-0.082310
-0.044123
-0.008342
0.018726
0.029515
0.017596
-0.013017
-0.053831
-0.097464
-0.151809
-0.202847
-0.246124
-0.272769
-0.287062
-0.282287
-0.268446
-0.251191
-0.228644
-0.183282
-0.143566
-0.086024
-0.039777
-0.020480
-0.013363
-0.011312
-0.018887
-0.033408
-0.063450
-0.109246
-0.161529
-0.211956
-0.240482
-0.263286
-0.295478
-0.298590
-0.302632
-0.275255
-0.248143
-0.214668
-0.157189
-0.089490
-0.053302
-0.026205
-0.004668
0.028327
0.013932
-0.007599
-0.045231
-0.106732
-0.151776
-0.188622
-0.219225
-0.258274
-0.280999
-0.295328
-0.288121
-0.266890
-0.232612
-0.200886
-0.168416
-0.112801
-0.058326
-0.021293
-0.003438
-0.015696
-0.021176
-0.044305
-0.080878
-0.120256
-0.168499
-0.213774
-0.244976
-0.272334
-0.305302
-0.303037
-0.290454
-0.269575
-0.225347
-0.166439
-0.113089
-0.053958
-0.022929
-0.005899
0.008260
0.013059
0.007719
0.003489
-0.033815
-0.080034
-0.119317
-0.178779
-0.224597
-0.246809
-0.277089
-0.270563
-0.257212
-0.243768
-0.211239
-0.177753
-0.124423
-0.085454
-0.045262
-0.002890
0.023532
0.023639
0.025059
-0.008504
-0.052826
-0.098377
-0.122221
-0.166678
-0.199890
-0.224365
-0.252547
-0.269480
-0.267930
-0.247569
-0.209150
-0.147160
-0.102762
-0.063893
-0.015554
0.029241
0.052880
0.063144
0.057494
0.039989
0.019029
-0.027817
-0.067855
-0.120672
-0.174851
-0.215364
-0.237646
-0.248742
-0.254327
-0.236873
-0.209778
-0.166929
-0.121044
-0.065111
-0.022512
0.022605
0.040652
0.038491
0.023103
-0.015393
-0.055775
-0.096455
-0.143783
-0.198029
-0.228636
-0.258365
-0.289419
-0.299910
-0.290587
-0.271156
-0.233354
-0.188977
-0.141219
-0.083907
-0.041525
-0.016743
-0.007667
-0.004763
-0.014406
-0.036946
-0.071830
-0.117694
-0.152563
-0.216727
-0.264153
-0.300530
-0.321406
-0.317767
-0.309062
-0.292753
-0.262966
-0.222574
-0.159254
-0.110439
-0.082146
-0.051303
-0.031094
-0.030880
-0.041053
-0.053653
-0.082421
-0.114871
-0.162035
-0.226282
-0.273863
-0.292627
-0.316614
-0.329168
-0.330274
-0.320656
-0.284379
-0.225736
-0.166402
-0.113236
-0.066227
-0.037310
-0.020688
-0.025446
-0.030017
-0.059282
-0.092899
-0.127851
-0.174008
-0.223810
-0.258641
-0.289524
-0.305435
-0.318534
-0.316277
-0.304278
-0.272605
-0.223523
-0.164476
-0.114860
-0.077557
-0.042196
-0.025839
-0.006448
-0.020244
-0.054090
-0.092395
-0.136478
-0.186993
-0.236774
-0.278039
-0.321386
-0.340222
-0.346161
-0.338558
-0.312065
-0.256859
-0.202944
-0.157727
-0.112080
-0.060532
-0.029305
0.000018
0.011763
0.034117
0.026044
0.001216
-0.018484
-0.040654
-0.068544
-0.102219
-0.114073
-0.118119
-0.117440
-0.080082
-0.035495
0.029287
0.097315
0.183392
0.283013
0.356500
0.431321
0.486657
0.518332
0.542337
0.562132
0.566490
0.562125
0.547329
0.522096
0.509257
0.508463
0.486041
0.481161
0.476974
0.484881
0.503788
0.534364
0.555309
0.579261
0.565206
0.532620
0.491044
0.446041
0.382118
0.302020
0.235489
0.132121
0.062499
0.004014
-0.047461
-0.111307
-0.136988
-0.160943
-0.168284
-0.157982
-0.125469
-0.105019
-0.067381
-0.033345
-0.000131
0.037591
0.061010
0.069706
0.057348
0.027055
-0.015259
-0.073183
-0.118454
-0.175305
-0.219743
-0.258579
-0.277510
-0.279518
-0.266987
-0.237500
-0.205268
-0.165822
-0.123138
-0.082908
-0.043717
-0.008719
0.009276
0.027746
0.028409
0.013760
-0.032611
-0.082359
-0.125051
-0.170889
-0.208630
-0.250542
-0.284399
-0.299531
-0.281113
-0.263118
-0.230128
-0.187768
-0.144401
-0.089252
-0.052263
-0.025690
0.001847
0.008771
0.016561
0.010977
-0.030096
-0.080553
-0.132393
-0.172066
-0.214664
-0.248697
-0.278715
-0.291107
-0.275946
-0.265913
-0.216595
-0.165999
-0.111324
-0.054086
-0.004617
0.026954
0.044165
0.049877
0.039519
0.011326
-0.019747
-0.065829
-0.119726
-0.166489
-0.202275
-0.248548
-0.268843
-0.269201
-0.243007
-0.206026
-0.176664
-0.142061
-0.111882
-0.057102
-0.018168
0.006183
0.031482
0.050165
0.044814
0.024566
-0.015454
-0.063823
-0.104876
-0.150516
-0.194466
-0.226114
-0.238770
-0.229104
-0.206190
-0.188003
-0.165953
-0.114698
-0.076878
-0.034204
0.012480
0.053558
0.081568
0.084382
0.074006
0.057409
0.036044
0.004671
-0.034883
-0.071912
-0.120614
-0.159332
-0.186027
-0.201390
-0.189818
-0.162572
-0.116306
-0.052332
-0.012858
0.018200
0.053849
0.093857
0.118505
0.118277
0.114713
0.105272
0.063008
0.022112
-0.011349
-0.073062
-0.119559
-0.143245
-0.150267
-0.152721
-0.145193
-0.138286
-0.095572
-0.051084
-0.000155
0.059636
0.103939
0.140661
0.154422
0.166553
0.154565
0.137172
0.098841
0.057230
0.028897
-0.022599
-0.078745
-0.112693
-0.126704
-0.133175
-0.131062
-0.113082
-0.080600
-0.041056
0.005002
0.050733
0.098264
0.134046
0.167061
0.171708
0.144829
0.119071
0.075881
0.027985
-0.019238
-0.076708
-0.128672
-0.162784
-0.183763
-0.179959
-0.171937
-0.155918
-0.100828
-0.043470
0.002008
0.048351
0.085558
0.104735
0.134796
0.144571
0.140929
0.100339
0.068068
0.026139
-0.023925
-0.077886
-0.115709
-0.155809
-0.174728
-0.187688
-0.191480
-0.175990
-0.142636
-0.101086
-0.049994
-0.005862
0.050066
0.094221
0.104343
0.095026
0.080729
0.053616
0.017275
-0.031007
-0.085234
-0.145968
-0.191814
-0.209264
-0.226565
-0.240035
-0.224231
-0.207378
-0.174883
-0.125276
-0.075427
-0.028860
0.001978
0.038057
0.049269
0.060250
0.054652
0.034671
0.003550
-0.037397
-0.096500
-0.146640
-0.194151
-0.219632
-0.234592
-0.242637
-0.241808
-0.224021
-0.187213
-0.150875
-0.096298
-0.031070
0.003516
0.030802
0.061349
0.053504
0.063486
0.041829
0.006014
-0.045117
-0.088092
-0.140610
-0.190050
-0.220325
-0.251778
-0.256844
-0.252092
-0.241352
-0.207174
-0.167542
-0.106563
-0.049601
-0.004429
0.027487
0.048220
0.056138
0.057050
0.042279
0.007615
-0.038536
-0.091957
-0.141127
-0.182945
-0.212792
-0.223294
-0.227267
-0.235112
-0.211364
-0.166661
-0.111036
-0.056506
-0.021096
0.013008
0.044043
0.070798
0.074669
0.072913
0.050273
0.010064
-0.035558
-0.082236
-0.113389
-0.162346
-0.203538
-0.243760
-0.261036
-0.254329
-0.226560
-0.173196
-0.121513
-0.077559
-0.020655
0.022990
0.057329
0.075246
0.076862
0.060259
0.038521
0.012721
-0.029123
-0.071650
-0.120715
-0.169765
-0.191955
-0.226766
-0.231403
-0.227130
-0.203121
-0.168478
-0.119353
-0.062867
-0.020038
0.026948
0.080899
0.101831
0.100633
0.088869
0.064722
0.026751
-0.019438
-0.082351
-0.131962
-0.169540
-0.207256
-0.230692
-0.222768
-0.215123
-0.192725
-0.158699
-0.115908
-0.074332
-0.029568
0.017955
0.049549
0.073383
0.081697
0.077536
0.056368
0.031530
-0.008637
-0.063018
-0.107084
-0.152470
-0.186628
-0.216613
-0.221468
-0.211779
-0.182960
-0.143634
-0.096218
-0.048675
-0.006211
0.028576
0.056948
0.080837
0.093874
0.076934
0.060666
0.040309
-0.021765
-0.071159
-0.113010
-0.160184
-0.206291
-0.221392
-0.233810
-0.224450
-0.200090
-0.169427
-0.124118
-0.071531
-0.035244
-0.001609
0.046925
0.073402
0.075173
0.076317
0.040939
0.003956
-0.041477
-0.079865
-0.119266
-0.151249
-0.202153
-0.219252
-0.231990
-0.226338
-0.194477
-0.155107
-0.115981
-0.056349
-0.018120
0.014559
0.059807
0.075594
0.077449
0.080196
0.061886
0.014317
-0.028756
-0.083908
-0.128115
-0.182035
-0.207453
-0.220056
-0.223728
-0.221333
-0.208920
-0.165355
-0.120321
-0.073931
-0.028961
0.024273
0.054809
0.069446
0.079507
0.070529
0.047912
0.020055
-0.015216
-0.069345
-0.107953
-0.160938
-0.196263
-0.224698
-0.226800
-0.213008
-0.189349
-0.160128
-0.113330
-0.055787
-0.006665
0.021782
0.052715
0.077947
0.089406
0.087039
0.077257
0.027193
-0.024709
-0.080824
-0.124687
-0.161416
-0.206155
-0.226791
-0.231899
-0.223761
-0.197603
-0.167272
-0.111899
-0.055224
-0.002457
0.040653
0.072334
0.079322
0.076206
0.066994
0.038332
-0.004308
-0.045933
-0.087372
-0.123806
-0.148283
-0.172287
-0.192435
-0.214686
-0.210544
-0.193866
-0.152325
-0.104587
-0.046875
0.001978
0.044498
0.090089
0.107589
0.115167
0.103911
0.071340
0.047051
0.010814
-0.050918
-0.087375
-0.116022
-0.149833
-0.177473
-0.183622
-0.175948
-0.160835
-0.121464
-0.068278
-0.014635
0.017264
0.063199
0.085984
0.104077
0.107891
0.089037
0.083381
0.049667
0.018877
-0.021035
-0.058490
-0.102561
-0.143907
-0.169710
-0.168107
-0.164252
-0.139805
-0.100665
-0.050530
0.002581
0.045375
0.093131
0.125912
0.134440
0.162838
0.159444
0.114839
0.082541
0.029257
-0.024846
-0.063993
-0.104329
-0.132150
-0.144637
-0.162062
-0.164485
-0.148148
-0.112783
-0.073026
-0.028034
0.010612
0.041414
0.063129
0.081198
0.081258
0.071006
0.052472
0.029965
-0.012923
-0.063126
-0.108896
-0.155397
-0.179585
-0.199845
-0.212585
-0.210857
-0.175387
-0.155655
-0.104701
-0.045620
0.006688
0.047551
0.072763
0.092906
0.095854
0.088843
0.061124
0.020652
-0.023615
-0.065782
-0.104692
-0.149057
-0.193409
-0.220656
-0.223800
-0.218794
-0.186920
-0.158717
-0.131332
-0.080441
-0.036600
0.004682
0.040964
0.052330
0.062100
0.054050
0.037655
0.003491
-0.052469
-0.101997
-0.144380
-0.182603
-0.206470
-0.228230
-0.241720
-0.216779
-0.192569
-0.157298
-0.125436
-0.084272
-0.034246
0.010969
0.047997
0.077683
0.103549
0.096045
0.075382
0.041103
0.005469
-0.054865
-0.113075
-0.164994
-0.199346
-0.219260
-0.232570
-0.235711
-0.212216
-0.169181
-0.125924
-0.074215
-0.033490
0.012706
0.035410
0.051468
0.046387
0.042659
0.014731
-0.022828
-0.062615
-0.089196
-0.127460
-0.168117
-0.200295
-0.222354
-0.229592
-0.207049
-0.172024
-0.132455
-0.073934
0.005528
0.067336
0.121679
0.169220
0.201400
0.222971
0.224385
0.206080
0.181633
0.166314
0.135130
0.122184
0.114256
0.110879
0.129906
0.149045
0.179861
0.238267
0.292641
0.362267
0.441594
0.503436
0.599662
0.674974
0.721455
0.760178
0.793936
0.794635
0.769590
0.729307
0.678414
0.641263
0.593464
0.549364
0.530742
0.499063
0.460059
0.428450
0.400165
0.365853
0.348910
0.356911
0.348976
0.351631
0.324559
0.294439
0.255818
0.208618
0.155175
0.105405
0.051107
0.003406
-0.043844
-0.087841
-0.104808
-0.116310
-0.117788
-0.103065
-0.077469
-0.033748
0.011347
0.050384
0.096813
0.117974
0.140416
0.144660
0.124284
0.089740
0.056480
0.007837
-0.042965
-0.073623
-0.123571
-0.164702
-0.172036
-0.184006
-0.179287
-0.153072
-0.127354
-0.095496
-0.044881
0.008796
0.049270
0.084334
0.112615
0.124267
0.115033
0.094885
0.055184
0.021170
-0.020457
-0.072429
-0.117994
-0.145426
-0.160604
-0.195976
-0.197967
-0.169240
-0.130865
-0.098166
-0.044418
-0.010438
0.031480
0.072552
0.097773
0.113319
0.098697
0.067922
0.027927
-0.001705
-0.035930
-0.080011
-0.127234
-0.150282
-0.170270
-0.180004
-0.170282
-0.132851
-0.094016
-0.048423
-0.006869
0.045483
0.081409
0.107726
0.126861
0.137602
0.140640
0.110930
0.077727
0.038922
-0.001347
-0.049490
-0.096315
-0.119968
-0.139807
-0.140597
-0.125611
-0.115396
-0.085307
-0.041925
0.002719
0.047172
0.095731
0.126068
0.138975
0.146923
0.139085
0.123144
0.087263
0.044055
-0.004072
-0.048887
-0.079599
-0.103621
-0.145826
-0.152968
-0.134825
-0.105597
-0.061024
-0.014412
0.017720
0.082339
0.142504
0.172250
0.188747
0.199593
0.203136
0.175298
0.145287
0.111697
0.064550
0.017470
-0.022173
-0.055177
-0.073489
-0.096652
-0.092421
-0.071996
-0.029923
0.012831
0.078799
0.124987
0.162571
0.203526
0.222159
0.230915
0.235281
0.211116
0.162799
0.120015
0.069114
0.017508
-0.023141
-0.051367
-0.071203
-0.079964
-0.066604
-0.033066
0.001828
0.038178
0.095268
0.139449
0.185763
0.226668
0.252263
0.257192
0.234072
0.214581
0.185984
0.141799
0.092943
0.050910
0.011187
-0.017834
-0.051841
-0.050668
-0.048009
-0.024344
0.005124
0.044525
0.092391
0.140371
0.178471
0.208296
0.221492
0.232837
0.231952
0.204412
0.163996
0.106472
0.064052
0.021953
-0.026455
-0.058808
-0.071069
-0.087882
-0.087789
-0.058103
-0.012752
0.028619
0.064909
0.105675
0.151130
0.168005
0.197606
0.202627
0.189760
0.164667
0.135225
0.096927
0.044961
0.004569
-0.038249
-0.079195
-0.099258
-0.119999
-0.111672
-0.093350
-0.056056
-0.004919
0.040196
0.074808
0.104335
0.135129
0.156636
0.166611
0.148136
0.123912
0.080601
0.036281
-0.001862
-0.035185
-0.085261
-0.130502
-0.152374
-0.160028
-0.155460
-0.143385
-0.109511
-0.055159
0.005929
0.044043
0.075979
0.110532
0.126537
0.142075
0.129130
0.107509
0.078398
0.025667
-0.040387
-0.091349
-0.132264
-0.168257
-0.185922
-0.196290
-0.183939
-0.145086
-0.111240
-0.068464
0.002973
0.055461
0.094179
0.119113
0.126279
0.128404
0.120573
0.089288
0.061284
0.011565
-0.042602
-0.089632
-0.130411
-0.148303
-0.170790
-0.182638
-0.178034
-0.158599
-0.119153
-0.077592
-0.030474
0.008358
0.057020
0.098755
0.121146
0.122595
0.111111
0.081563
0.057831
0.023805
-0.024507
-0.039208
-0.079216
-0.117372
-0.128991
-0.145892
-0.141601
-0.118608
-0.098529
-0.047526
-0.000058
0.043647
0.081521
0.128585
0.151067
0.153426
0.136623
0.108232
0.075956
0.022555
-0.040457
-0.090306
-0.122298
-0.161255
-0.185434
-0.180820
-0.176989
-0.146111
-0.108973
-0.050852
-0.003258
0.036348
0.081447
0.112536
0.129031
0.131175
0.126857
0.104629
0.094139
0.046396
-0.014962
-0.063150
-0.103011
-0.117352
-0.145740
-0.150389
-0.136530
-0.124411
-0.084436
-0.034635
0.031599
0.078580
0.104317
0.116758
0.121145
0.118955
0.128326
0.115852
0.081364
0.022669
-0.030143
-0.068968
-0.114156
-0.164321
-0.179582
-0.176854
-0.161968
-0.128455
-0.102532
-0.065173
-0.023979
0.029462
0.072346
0.104034
0.130446
0.139229
0.123843
0.108218
0.064942
0.023470
-0.017478
-0.070602
-0.118031
-0.136427
-0.157844
-0.169493
-0.155793
-0.131751
-0.091117
-0.044087
-0.006947
0.034791
0.070465
0.102870
0.114160
0.114541
0.105648
0.086468
0.063916
0.022179
-0.033562
-0.093925
-0.137021
-0.168843
-0.188132
-0.193581
-0.181927
-0.142664
-0.101601
-0.059859
-0.025024
0.010346
0.048686
0.083782
0.107416
0.109429
0.100464
0.080608
0.056859
0.016458
-0.023698
-0.077548
-0.117534
-0.149677
-0.168883
-0.168290
-0.168213
-0.146265
-0.099008
-0.071295
-0.016124
0.024963
0.057586
0.087625
0.107978
0.122588
0.119142
0.102865
0.076014
0.008528
-0.033998
-0.086662
-0.142469
-0.172482
-0.202442
-0.202879
-0.199065
-0.164411
-0.125031
-0.084084
-0.041919
0.011609
0.049907
0.069805
0.096306
0.104768
0.094963
0.070736
0.046184
0.006703
-0.039097
-0.085825
-0.124151
-0.137077
-0.158984
-0.161917
-0.154539
-0.138151
-0.099659
-0.054498
-0.016631
0.043179
0.086398
0.120062
0.136535
0.136367
0.128621
0.115331
0.091167
0.054327
-0.007557
-0.059914
-0.104547
-0.128831
-0.168576
-0.171324
-0.158721
-0.124161
-0.093138
-0.041223
-0.001375
0.043221
0.081610
0.113469
0.127915
0.132517
0.132413
0.114502
0.078300
0.036678
-0.019675
-0.046425
-0.082188
-0.113594
-0.127380
-0.129526
-0.116289
-0.095115
-0.073821
-0.027503
0.038961
0.096467
0.124343
0.146072
0.166258
0.172631
0.162849
0.136326
0.100786
0.044666
0.000566
-0.050029
-0.101293
-0.127609
-0.161061
-0.163457
-0.153373
-0.139201
-0.113262
-0.075064
-0.019791
0.015797
0.052510
0.085771
0.092430
0.095270
0.099442
0.093283
0.058402
-0.008074
-0.051104
-0.092337
-0.129405
-0.160177
-0.183984
-0.199998
-0.190448
-0.170118
-0.154319
-0.100270
-0.044972
0.000623
0.046590
0.078742
0.105777
0.108368
0.088058
0.064612
0.036792
-0.001727
-0.047298
-0.111414
-0.156187
-0.197421
-0.218243
-0.218985
-0.215278
-0.187736
-0.145653
-0.109819
-0.060975
-0.022169
0.015714
0.050818
0.067282
0.086019
0.076230
0.049532
0.015634
-0.031467
-0.064314
-0.102451
-0.154004
-0.191172
-0.209741
-0.213388
-0.199944
-0.176131
-0.141107
-0.091210
-0.042049
0.009953
0.051211
0.073414
0.067016
0.066107
0.050122
0.046845
0.002722
-0.031988
-0.068638
-0.128379
-0.185411
-0.219080
-0.241289
-0.233812
-0.215175
-0.190623
-0.159742
-0.117071
-0.090392
-0.058790
-0.024643
0.030137
0.055445
0.079269
0.074458
0.052874
0.024780
-0.020452
-0.068367
-0.104037
-0.122157
-0.130708
-0.140961
-0.128456
-0.108143
-0.092490
-0.041507
0.027837
0.080135
0.131094
0.202972
0.258600
0.296604
0.320988
0.346188
0.352375
0.339448
0.342105
0.312409
0.299061
0.290481
0.291184
0.285373
0.298903
0.342663
0.414861
0.488247
0.559216
0.634161
0.702110
0.780156
0.836955
0.862777
0.882736
0.875953
0.846162
0.807246
0.736120
0.658112
0.556910
0.446995
0.353374
0.280463
0.204141
0.163000
0.143401
0.128808
0.118045
0.125606
0.156479
0.178925
0.195334
0.220355
0.208586
0.195327
0.154576
0.097095
0.062488
0.026174
-0.018265
-0.052861
-0.082458
-0.100779
-0.112021
-0.109006
-0.092927
-0.063708
-0.022982
0.007271
0.030628
0.053416
0.090366
0.129018
0.123604
0.105610
0.090807
0.057046
0.019222
-0.025425
-0.079031
-0.120512
-0.148539
-0.156188
-0.183184
-0.188277
-0.158651
-0.122220
-0.078365
-0.015602
0.028276
0.074767
0.108797
0.109235
0.115401
0.116187
0.092315
0.047511
0.003151
-0.035593
-0.079397
-0.123843
-0.147476
-0.173309
-0.190976
-0.179904
-0.163579
-0.125604
-0.101926
-0.064982
-0.012246
0.046118
0.091323
0.127041
0.146647
0.116824
0.098445
0.067385
0.030277
-0.013636
-0.061897
-0.091735
-0.123397
-0.150255
-0.147305
-0.135973
-0.121411
-0.085648
-0.040797
-0.004057
0.041793
0.084547
0.127922
0.150422
0.150815
0.137894
0.106515
0.067272
0.009869
-0.039092
-0.080555
-0.108398
-0.127689
-0.144561
-0.144329
-0.139618
-0.114165
-0.089804
-0.055190
-0.018723
0.032093
0.083966
0.117224
0.165533
0.180410
0.160842
0.130320
0.105464
0.055701
0.005401
-0.041210
-0.069895
-0.083369
-0.099250
-0.109656
-0.109598
-0.093133
-0.055967
0.000436
0.055522
0.104025
0.149953
0.194304
0.209708
0.220441
0.195505
0.176697
0.132950
0.102936
0.068568
0.034313
-0.019517
-0.078028
-0.104369
-0.103912
-0.095095
-0.092524
-0.060269
0.001334
0.050228
0.098925
0.142197
0.169118
0.195952
0.221441
0.203030
0.178332
0.148537
0.117290
0.070552
0.019892
-0.028605
-0.058036
-0.059634
-0.042031
-0.027949
0.002255
0.034179
0.074930
0.108819
0.167314
0.216160
0.231335
0.247763
0.246712
0.226475
0.213104
0.168767
0.118942
0.079277
0.039324
-0.024851
-0.067235
-0.097477
-0.107473
-0.080420
-0.063044
-0.029099
0.022840
0.072774
0.115804
0.172375
0.204853
0.218671
0.199628
0.174109
0.138918
0.111346
0.090960
0.039815
-0.012888
-0.053255
-0.075522
-0.097222
-0.098261
-0.092037
-0.073433
-0.029751
0.020787
0.052011
0.089132
0.119727
0.145976
0.174307
0.184549
0.176335
0.150450
0.117485
0.068016
0.013294
-0.073551
-0.128371
-0.154383
-0.154659
-0.134995
