-0.044394
0.023595
0.049882
0.040904
0.096934
0.100783
0.109965
0.091182
0.059130
0.011634
-0.039435
-0.088668
-0.148544
-0.167976
-0.181002
-0.213310
-0.202509
-0.167187
-0.170860
-0.127043
-0.074548
0.014402
0.073598
0.066418
0.027939
0.071859
0.114391
0.110819
0.087031
0.066385
0.011781
-0.077060
-0.152296
-0.206934
-0.200477
-0.155035
-0.130068
-0.114559
-0.114650
-0.077068
-0.024791
-0.016404
0.053961
0.102010
0.146408
0.172312
0.176124
0.141769
0.105861
0.032916
-0.009372
-0.052845
-0.122069
-0.154004
-0.166461
-0.171383
-0.148623
-0.121002
-0.094952
-0.049859
-0.003411
0.061648
0.110377
0.160500
0.180123
0.180040
0.172582
0.156535
0.130018
0.078329
0.042552
-0.009699
-0.044698
-0.095827
-0.113181
-0.100575
-0.090371
-0.090875
-0.067420
-0.020643
0.041469
0.093026
0.136905
0.165378
0.181667
0.183987
0.202524
0.174059
0.127294
0.072950
0.024653
-0.009708
-0.045851
-0.084350
-0.107906
-0.102331
-0.075199
-0.036824
-0.011525
0.022774
0.059725
0.105329
0.146693
0.179611
0.187262
0.186965
0.189099
0.142647
0.115120
0.073910
0.036122
0.013535
-0.029794
-0.068750
-0.103026
-0.104289
-0.106382
-0.082337
-0.040409
0.047776
0.106480
0.160932
0.172178
0.165560
0.216352
0.228388
0.206418
0.205206
0.190152
0.151233
0.106970
0.028242
-0.043225
-0.064291
-0.082649
-0.104411
-0.098257
-0.085209
-0.036245
0.021610
0.080374
0.143936
0.182021
0.201011
0.216073
0.223361
0.218914
0.187119
0.135788
0.093060
0.065556
0.012527
-0.021108
-0.049560
-0.095295
-0.121037
-0.107935
-0.080186
-0.044267
-0.009972
0.029358
0.086301
0.103336
0.126164
0.155589
0.173338
0.163408
0.139077
0.086160
0.032357
-0.024249
-0.058301
-0.092637
-0.158465
-0.163273
-0.143648
-0.148656
-0.121753
-0.095089
-0.051093
-0.018821
0.028078
0.073193
0.100177
0.116421
0.120585
0.111291
0.078894
0.057532
0.013711
-0.062334
-0.099205
-0.123529
-0.155891
-0.185037
-0.172788
-0.178534
-0.148812
-0.129204
-0.078876
-0.051047
-0.025031
0.004071
0.053839
0.073252
0.075762
0.060618
0.031377
0.019925
-0.021127
-0.074481
-0.121728
-0.170454
-0.208523
-0.226182
-0.230135
-0.206752
-0.165225
-0.126494
-0.102504
-0.066838
-0.033163
-0.008528
0.028776
0.064512
0.071412
0.061436
0.040657
0.023140
-0.013932
-0.052602
-0.094826
-0.134681
-0.179764
-0.210260
-0.209909
-0.196857
-0.177380
-0.154281
-0.109223
-0.054710
-0.009749
0.024011
0.039155
0.072520
0.084148
0.061348
0.040613
0.029539
-0.006629
-0.038358
-0.084113
-0.128000
-0.159975
-0.197174
-0.208279
-0.214647
-0.223524
-0.184577
-0.107280
-0.051771
-0.051060
0.021857
0.078202
0.088209
0.101743
0.103308
0.060448
0.033541
-0.029677
-0.079952
-0.102504
-0.162901
-0.205245
-0.223379
-0.209310
-0.207517
-0.174503
-0.142499
-0.117516
-0.083629
-0.045465
-0.006823
0.039715
0.070005
0.078737
0.078596
0.052677
-0.000073
-0.047498
-0.056658
-0.076627
-0.116221
-0.168799
-0.209610
-0.222921
-0.210479
-0.181915
-0.149058
-0.116111
-0.067997
-0.021538
-0.003109
0.029577
0.063354
0.090252
0.080478
0.060366
0.042841
0.004105
-0.053386
-0.073723
-0.124188
-0.162703
-0.198806
-0.204017
-0.194538
-0.173593
-0.154447
-0.115986
-0.066572
-0.024019
0.021431
0.057022
0.099140
0.103490
0.100408
0.091375
0.061246
0.024201
-0.036650
-0.097253
-0.146942
-0.175723
-0.216533
-0.228167
-0.217572
-0.187680
-0.160993
-0.129799
-0.085375
-0.040274
0.007109
0.037152
0.049283
0.072742
0.102183
0.078481
0.050861
-0.010744
-0.062111
-0.109062
-0.160091
-0.194176
-0.215195
-0.220158
-0.210797
-0.207016
-0.182597
-0.123125
-0.079217
-0.029467
0.019217
0.051267
0.061805
0.079596
0.076102
0.066872
0.015386
-0.059096
-0.106763
-0.145822
-0.156526
-0.235711
-0.250705
-0.273011
-0.248524
-0.212063
-0.207069
-0.161415
-0.109978
-0.047910
0.014506
0.046646
0.047435
0.045854
0.048588
0.033238
0.005363
-0.032025
-0.072589
-0.107283
-0.147523
-0.179715
-0.216325
-0.253630
-0.242032
-0.217372
-0.187260
-0.147997
-0.090004
-0.038000
0.008666
0.045042
0.076925
0.078968
0.067867
0.050210
0.005773
-0.045995
-0.068251
-0.131883
-0.182004
-0.221248
-0.246978
-0.250153
-0.244401
-0.205424
-0.151386
-0.120002
-0.090612
-0.039175
-0.000555
0.043350
0.065398
0.065791
0.054225
0.036666
0.007814
-0.030651
-0.103506
-0.147925
-0.166655
-0.187487
-0.226730
-0.237711
-0.238933
-0.198512
-0.149324
-0.080671
-0.023968
0.005243
0.033922
0.054141
0.090664
0.092060
0.088356
0.063612
0.038085
-0.005615
-0.063767
-0.113217
-0.155249
-0.185826
-0.216541
-0.212477
-0.214454
-0.189592
-0.142694
-0.101238
-0.066494
-0.040692
0.002828
0.042596
0.064433
0.068758
0.091422
0.072778
0.042939
0.003459
-0.057528
-0.103766
-0.138437
-0.161524
-0.176192
-0.194887
-0.198826
-0.175280
-0.155608
-0.118170
-0.052291
0.012703
0.055388
0.080806
0.075393
0.068517
0.066258
0.058887
0.051601
0.007790
-0.024834
-0.080620
-0.117263
-0.163127
-0.210794
-0.188879
-0.175724
-0.162594
-0.134163
-0.097248
-0.071212
-0.025276
0.025059
0.067824
0.072396
0.070714
0.061337
0.048753
0.010422
-0.045944
-0.085112
-0.133222
-0.163901
-0.199210
-0.237256
-0.217029
-0.214497
-0.205325
-0.199746
-0.145838
-0.105208
-0.064233
-0.033458
-0.014126
0.014110
0.030875
0.030996
0.007484
-0.015611
-0.046716
-0.099302
-0.148876
-0.193466
-0.244647
-0.282959
-0.281135
-0.252361
-0.216404
-0.188833
-0.151790
-0.114150
-0.076122
-0.032741
-0.003372
0.015111
0.007781
-0.001447
0.008625
-0.015454
-0.072608
-0.123965
-0.179132
-0.216886
-0.242575
-0.271260
-0.282865
-0.267929
-0.248392
-0.225412
-0.188722
-0.142786
-0.085013
-0.029717
0.002805
0.010014
0.021341
0.022539
0.000057
-0.018870
-0.066370
-0.114251
-0.163982
-0.196806
-0.218457
-0.243367
-0.244580
-0.238082
-0.242328
-0.227463
-0.178062
-0.138655
-0.091392
-0.056492
-0.024118
-0.004321
0.019546
0.003730
-0.028620
-0.064036
-0.100836
-0.124916
-0.180358
-0.221541
-0.255241
-0.263940
-0.252728
-0.261760
-0.259607
-0.219476
-0.147881
-0.058719
-0.024596
0.035030
0.087593
0.120271
0.137350
0.138386
0.140121
0.119608
0.093298
0.061636
0.032164
0.007799
-0.013451
-0.014144
0.023558
0.051955
0.059374
0.152399
0.234596
0.312173
0.399331
0.484061
0.539851
0.594509
0.640528
0.695149
0.704211
0.710146
0.697393
0.696011
0.677751
0.629630
0.566948
0.541563
0.529782
0.521016
0.509723
0.510706
0.519827
0.525882
0.497396
0.477805
0.457088
0.435021
0.403125
0.344900
0.265884
0.175583
0.100035
0.051421
-0.013732
-0.057168
-0.099704
-0.126417
-0.153592
-0.159776
-0.148764
-0.134626
-0.111003
-0.056246
0.009715
0.039725
0.068300
0.092526
0.104277
0.099082
0.075830
0.050505
0.006645
-0.035740
-0.113186
-0.170790
-0.189920
-0.186362
-0.202422
-0.204618
-0.184462
-0.116453
-0.069476
-0.050025
-0.016207
0.022107
0.062020
0.089355
0.090105
0.074669
0.063031
0.025196
-0.011955
-0.044006
-0.094087
-0.158349
-0.207699
-0.220568
-0.201945
-0.207187
-0.208490
-0.167557
-0.112907
-0.075618
-0.022902
0.031256
0.079932
0.107052
0.097645
0.070888
0.048124
0.023906
-0.038535
-0.072063
-0.107216
-0.145203
-0.194816
-0.212079
-0.237437
-0.227447
-0.192166
-0.169008
-0.119520
-0.057126
-0.027719
0.005927
0.064445
0.081106
0.087716
0.088764
0.069615
0.039510
0.002758
-0.054070
-0.111686
-0.157218
-0.208107
-0.196038
-0.191807
-0.189904
-0.179640
-0.143600
-0.103840
-0.062959
-0.022839
0.020444
0.054024
0.081895
0.089329
0.081357
0.054796
0.030808
0.014014
-0.025114
-0.078841
-0.117039
-0.136897
-0.162064
-0.171620
-0.158241
-0.123579
-0.088647
-0.063477
-0.020112
0.032581
0.095511
0.141846
0.159465
0.159802
0.136077
0.121546
0.106334
0.053846
0.016255
-0.039762
-0.088831
-0.126165
-0.121958
-0.115742
-0.107261
-0.087207
-0.041331
-0.007497
0.040092
0.087571
0.116365
0.161366
0.174106
0.192253
0.175539
0.159547
0.116460
0.096097
0.061072
-0.043709
-0.128395
-0.123108
-0.081663
-0.088504
-0.123895
-0.084305
-0.052493
0.011336
0.043132
0.084665
0.113894
0.159433
0.189974
0.203569
0.198461
0.165140
0.136789
0.109454
0.058146
-0.006903
-0.051612
-0.113629
-0.116459
-0.124552
-0.112354
-0.090147
-0.039786
-0.025334
0.018048
0.050556
0.069350
0.112178
0.195826
0.196821
0.161977
0.146936
0.120858
0.069662
0.037115
-0.002191
-0.037258
-0.093559
-0.124240
-0.102413
-0.081470
-0.071041
-0.063849
-0.029344
-0.005856
0.035392
0.096177
0.150554
0.160030
0.143382
0.133972
0.119640
0.093384
0.020163
-0.008223
-0.053253
-0.089403
-0.128514
-0.155977
-0.172802
-0.146161
-0.136894
-0.102613
-0.056609
-0.031188
0.017757
0.065326
0.094301
0.110004
0.111975
0.093567
0.076906
0.041669
0.013145
-0.038314
-0.105116
-0.135934
-0.167847
-0.193969
-0.222892
-0.217730
-0.190238
-0.147203
-0.112730
-0.073126
-0.035768
0.003765
0.031274
0.067168
0.078192
0.036052
0.020646
0.015058
-0.016559
-0.057761
-0.118488
-0.152690
-0.191669
-0.230261
-0.276799
-0.265314
-0.229348
-0.181336
-0.131629
-0.091855
-0.052698
-0.001551
0.023917
0.050228
0.069078
0.050497
0.035863
-0.005395
-0.051504
-0.093147
-0.137428
-0.177529
-0.214257
-0.236856
-0.252365
-0.238621
-0.213280
-0.188140
-0.134160
-0.110947
-0.047624
0.030433
0.039714
0.061110
0.052777
0.034417
0.028017
0.005803
-0.033780
-0.074003
-0.116580
-0.174739
-0.192990
-0.215676
-0.234162
-0.239371
-0.207313
-0.173316
-0.139929
-0.110930
-0.053514
-0.010293
0.032084
0.056721
0.071036
0.069120
0.043465
0.025469
-0.013120
-0.060511
-0.100523
-0.142031
-0.177601
-0.208573
-0.230462
-0.235266
-0.206951
-0.186815
-0.146254
-0.102652
-0.039901
0.007877
0.049103
0.070088
0.076889
0.069400
0.043126
0.026825
-0.017029
-0.077990
-0.147356
-0.197137
-0.194237
-0.204443
-0.227081
-0.212094
-0.184772
-0.138193
-0.123571
-0.092014
-0.043955
0.007830
0.039796
0.064621
0.073482
0.073240
0.064868
0.023835
-0.022359
-0.042250
-0.099744
-0.164272
-0.212073
-0.237555
-0.242891
-0.257103
-0.237733
-0.189965
-0.137548
-0.082578
-0.037774
0.021950
0.055744
0.071525
0.093456
0.071463
0.056162
0.017196
-0.009465
-0.042929
-0.111334
-0.169846
-0.208437
-0.219170
-0.225096
-0.225409
-0.222852
-0.213328
-0.157200
-0.105221
-0.040841
0.012142
0.053282
0.063642
0.080174
0.088788
0.067624
0.015942
-0.029816
-0.061870
-0.112015
-0.151468
-0.188354
-0.213267
-0.231316
-0.219982
-0.208243
-0.176099
-0.135056
-0.078912
-0.011836
0.023462
0.058251
0.071907
0.073140
0.072746
0.061068
0.021737
-0.044443
-0.105558
-0.135966
-0.184057
-0.224838
-0.236634
-0.239086
-0.235644
-0.201299
-0.185793
-0.161281
-0.103179
-0.055550
-0.017103
0.037825
0.068899
0.075133
0.058417
0.034469
-0.022022
-0.046822
-0.095721
-0.193559
-0.235406
-0.199532
-0.193041
-0.201542
-0.197205
-0.187893
-0.160327
-0.129597
-0.080318
-0.026164
0.005929
0.028360
0.053943
0.067393
0.058363
0.030605
0.005211
-0.027786
-0.078022
-0.145480
-0.178759
-0.221924
-0.238281
-0.260316
-0.251614
-0.240642
-0.192654
-0.141724
-0.102454
-0.063051
-0.040318
0.015503
0.050703
0.052550
0.058302
0.044852
0.009601
-0.022761
-0.076600
-0.135103
-0.177272
-0.215747
-0.241376
-0.232150
-0.221683
-0.214138
-0.188713
-0.133791
-0.080095
-0.038332
-0.012813
0.021916
0.039576
0.050751
0.062739
0.047394
0.009305
-0.044229
-0.084390
-0.140823
-0.173934
-0.223604
-0.239571
-0.257361
-0.242734
-0.223359
-0.188497
-0.153475
-0.120987
-0.065778
-0.017641
0.030940
0.056553
0.045483
0.032310
0.038846
0.009338
-0.019315
-0.060479
-0.100363
-0.129802
-0.168307
-0.207142
-0.213766
-0.199371
-0.187646
-0.160100
-0.119464
-0.068290
-0.015523
0.009955
0.031951
0.068369
0.085147
0.099540
0.065194
0.041071
-0.002929
-0.053824
-0.081388
-0.119112
-0.166831
-0.194703
-0.196158
-0.180323
-0.167373
-0.127042
-0.117341
-0.072543
-0.020582
0.037565
0.086532
0.100263
0.120842
0.131931
0.095965
0.062506
0.045882
-0.000437
-0.062216
-0.119843
-0.165377
-0.236309
-0.223048
-0.197299
-0.182135
-0.152039
-0.116632
-0.068000
-0.021149
0.022043
0.047253
0.064689
0.063103
0.067273
0.036835
0.004536
-0.019075
-0.065220
-0.115473
-0.174410
-0.199943
-0.201408
-0.215839
-0.207933
-0.199715
-0.183949
-0.134210
-0.079257
-0.049863
-0.004535
0.018281
0.060717
0.064976
0.069750
0.055376
0.016722
-0.011720
-0.056934
-0.113865
-0.171549
-0.220295
-0.236684
-0.238929
-0.239362
-0.220196
-0.193551
-0.170577
-0.111720
-0.059617
-0.021462
0.011148
0.032416
0.034433
0.035038
0.036879
-0.003639
-0.043833
-0.097754
-0.152494
-0.211415
-0.239436
-0.256467
-0.277124
-0.287400
-0.271367
-0.231217
-0.173500
-0.121664
-0.063843
-0.029194
0.003235
0.037141
0.041918
0.028754
0.015045
-0.020127
-0.042198
-0.102021
-0.161812
-0.201661
-0.250691
-0.289703
-0.290217
-0.278762
-0.264994
-0.223092
-0.191015
-0.128547
-0.086737
-0.039306
-0.029517
0.004392
0.035436
0.045508
0.044189
-0.008996
-0.061799
-0.114787
-0.165760
-0.228685
-0.241093
-0.275614
-0.295311
-0.274147
-0.235673
-0.196374
-0.142742
-0.106518
-0.066725
-0.031293
-0.008486
0.013251
0.033988
0.019757
0.005104
-0.021485
-0.051074
-0.093683
-0.148848
-0.200629
-0.229802
-0.241323
-0.243106
-0.238958
-0.203594
-0.123948
-0.059649
-0.002259
0.048168
0.110744
0.146841
0.177523
0.198799
0.207229
0.200880
0.205079
0.191526
0.190795
0.189375
0.190836
0.214156
0.206122
0.198660
0.246810
0.303813
0.382018
0.463661
0.554527
0.638818
0.713121
0.777170
0.835556
0.878955
0.883021
0.862432
0.818568
0.776007
0.706844
0.625850
0.575207
0.519411
0.463776
0.392948
0.316306
0.241340
0.234103
0.246719
0.249558
0.244024
0.227846
0.232596
0.246423
0.244615
0.224724
0.201029
0.128646
0.068680
0.000821
-0.031861
-0.070954
-0.136027
-0.176311
-0.162175
-0.132583
-0.128296
-0.110243
-0.062153
-0.029419
0.024465
0.068915
0.081183
0.099156
0.128484
0.118794
0.095729
0.041434
0.004557
-0.034264
-0.079200
-0.121431
-0.161263
-0.207357
-0.221322
-0.206153
-0.160854
-0.126098
-0.122356
-0.090836
-0.042073
-0.012655
0.024649
0.060764
0.090407
0.079682
0.061983
0.021527
-0.019026
-0.062955
-0.112342
-0.151403
-0.172527
-0.201584
-0.241882
-0.254108
-0.204291
-0.147738
-0.091910
-0.027775
-0.001269
0.029322
0.070454
0.079748
0.071609
0.073434
0.055305
0.041010
0.017036
-0.038685
-0.092483
-0.134941
-0.165580
-0.192853
-0.196306
-0.199409
-0.179153
-0.134608
-0.089208
-0.046225
-0.014989
0.033320
0.063591
0.099813
0.111186
0.104937
0.084581
0.057100
0.018680
-0.054661
-0.092344
-0.146134
-0.139501
-0.154812
-0.173942
-0.171137
-0.151189
-0.111315
-0.076616
-0.047157
-0.004907
0.055036
0.068778
0.101141
0.120448
0.134326
0.122508
0.090123
0.045742
-0.013350
-0.087289
-0.128800
-0.129155
-0.136607
-0.131292
-0.130973
-0.119758
-0.088363
-0.040781
-0.004205
0.047586
0.054798
0.083918
0.161018
0.205924
0.206042
0.141895
0.112161
0.065891
0.039884
0.016674
-0.023204
-0.057056
-0.093675
-0.116301
-0.106728
-0.094079
-0.056551
-0.011644
0.037167
0.082439
0.142700
0.179223
0.194894
0.201900
0.207360
0.192711
0.150592
0.128003
0.079008
0.010125
-0.047914
-0.060612
-0.086972
-0.074835
-0.093898
-0.073108
-0.032463
0.002030
0.055298
0.103331
0.141563
0.173181
0.194418
0.213665
0.211944
0.187430
0.144814
0.102197
0.058108
0.008521
-0.037946
-0.080881
-0.099134
-0.109123
-0.101315
-0.080652
-0.034476
0.000696
0.058267
0.075200
0.118510
0.160864
0.187482
0.190831
0.188699
0.168839
0.134151
0.053337
0.033242
-0.011907
-0.055066
-0.101237
-0.115877
-0.120556
-0.124235
-0.122583
-0.087131
-0.050513
0.004517
0.066724
0.100499
0.137123
0.168915
0.178033
0.171063
0.127364
0.095849
0.042969
-0.008568
-0.051584
-0.108753
-0.127920
-0.142456
-0.172391
-0.173389
-0.146763
-0.085202
-0.044287
-0.016123
-0.007481
0.036683
0.092757
0.129800
0.133615
0.124025
0.112166
0.079450
0.028676
-0.039045
-0.103278
-0.143597
-0.158884
-0.191042
-0.229559
-0.214973
-0.196021
-0.142325
-0.098501
-0.058631
-0.016799
0.029440
0.054812
0.072056
0.094809
0.086643
0.074153
0.026986
-0.021191
-0.069745
-0.121497
-0.146699
-0.180660
-0.196341
-0.200109
-0.207551
-0.207924
-0.176674
-0.128877
-0.077603
-0.017554
0.029791
0.074423
0.083627
0.086415
0.096183
0.091151
0.034984
-0.051108
-0.101744
-0.145310
-0.216220
-0.229673
-0.235090
-0.227944
-0.228550
-0.207880
-0.166732
-0.126184
-0.094414
-0.047752
0.028016
0.061450
0.080383
0.096027
0.075276
0.053131
0.013469
-0.018547
-0.061814
-0.112662
-0.169616
-0.196911
-0.217814
-0.229018
-0.214629
-0.189093
-0.157179
-0.109296
-0.050496
-0.001358
0.032237
0.059441
0.078843
0.072829
0.061583
0.039328
0.005932
-0.011374
-0.052962
-0.094357
-0.134089
-0.192219
-0.222622
-0.220743
-0.203047
-0.179839
-0.144247
-0.101239
-0.050149
-0.006315
0.032814
0.071921
0.084071
0.093592
0.095103
0.074141
0.033644
-0.017249
-0.075567
-0.127460
-0.150432
-0.180756
-0.183138
-0.187633
-0.185471
-0.167411
-0.141361
-0.097994
-0.033146
0.015639
0.060015
0.080583
0.092994
0.087882
0.074827
0.042623
0.027627
0.004337
-0.054394
-0.119826
-0.156873
-0.172220
-0.191336
-0.194375
-0.180201
-0.166254
-0.138153
-0.080090
-0.035163
-0.004461
0.039901
0.076570
0.096595
0.102520
0.068013
0.054892
0.039630
-0.007139
-0.071559
-0.110232
-0.150554
-0.172785
-0.200408
-0.217552
-0.203972
-0.179541
-0.154818
-0.121021
-0.068516
-0.020455
-0.015118
0.019463
0.062158
0.066220
0.067079
0.070258
0.022769
-0.015730
-0.053473
-0.083594
-0.126824
-0.179876
-0.201065
-0.217822
-0.209723
-0.192341
-0.174321
-0.144093
-0.091649
-0.030092
0.028613
0.058655
0.067516
0.080450
0.085907
0.041040
-0.010417
-0.033102
-0.055296
-0.103591
-0.154860
-0.202072
-0.212345
-0.205217
-0.195297
-0.182811
-0.159556
-0.108034
-0.061474
-0.008591
0.036771
0.076390
0.082328
0.069146
0.077640
0.049883
0.009485
-0.008259
-0.051701
-0.097392
-0.143749
-0.177884
-0.206283
-0.216198
-0.214225
-0.186995
-0.148784
-0.114907
-0.057967
-0.034304
-0.000719
0.037347
0.057078
0.060366
0.074393
0.052618
-0.003589
-0.066834
-0.099325
-0.116965
-0.161471
-0.167157
-0.190340
-0.202829
-0.203402
-0.201017
-0.189166
-0.144454
-0.067991
-0.021363
0.009977
0.056650
0.078141
0.087898
0.094954
0.047261
0.014138
-0.015245
-0.053342
-0.104678
-0.133775
-0.185299
-0.225965
-0.240756
-0.213548
-0.181615
-0.216049
-0.181897
-0.076081
-0.007061
0.038199
0.045791
0.068108
0.088176
0.082225
0.068991
0.023737
-0.045180
-0.076428
-0.112590
-0.165759
-0.195016
-0.201420
-0.213915
-0.209715
-0.194774
-0.168341
-0.126369
-0.078890
-0.037877
0.011075
0.046897
0.074370
0.082118
0.078798
0.052823
0.039040
-0.010540
-0.070598
-0.108629
-0.160299
-0.206170
-0.231844
-0.233040
-0.237801
-0.217382
-0.167446
-0.115415
-0.052895
-0.009339
0.019916
0.068440
0.056170
0.084932
0.115409
0.103224
0.044767
0.003534
-0.043261
-0.077340
-0.116275
-0.162662
-0.183770
-0.194928
-0.211008
-0.179322
-0.130861
-0.092153
-0.046084
-0.014253
0.043794
0.067349
0.121400
0.129340
0.128071
0.103670
0.082807
0.036157
-0.022231
-0.075053
-0.110240
-0.142153
-0.182401
-0.188692
-0.177881
-0.145634
-0.112469
-0.070348
-0.011959
0.041772
0.086140
0.102374
0.151772
0.156635
0.132086
0.118685
0.077016
0.018765
-0.033776
-0.063852
-0.122941
-0.171179
-0.200678
-0.213046
-0.206783
-0.179124
-0.154965
-0.123903
-0.054710
0.009626
0.050344
0.097046
0.112329
0.112505
0.085837
0.077602
0.032741
0.003480
-0.029579
-0.083375
-0.137963
-0.208157
-0.238767
-0.249948
-0.228429
-0.200364
-0.177578
-0.160054
-0.091478
-0.050463
-0.009405
0.032270
0.054373
0.071281
0.085327
0.082066
0.038930
-0.023568
-0.093854
-0.140110
-0.183722
-0.198014
-0.233983
-0.225377
-0.216461
-0.205729
-0.174316
-0.150119
-0.115377
-0.050946
-0.017877
0.018848
0.052113
0.074713
0.078285
0.053045
0.012209
-0.035984
-0.087452
-0.147541
-0.182793
-0.213078
-0.222436
-0.239649
-0.256422
-0.240283
-0.201357
-0.137467
-0.087885
-0.043293
-0.007066
0.010984
0.047097
0.058954
0.034992
-0.007991
-0.034962
-0.039778
-0.096460
-0.140575
-0.176031
-0.214605
-0.248108
-0.265550
-0.258534
-0.219048
-0.163576
-0.145957
-0.129102
-0.069059
-0.018784
0.000297
0.022963
0.041087
0.037093
-0.001824
0.033079
-0.006912
-0.073868
-0.108281
-0.139532
-0.203339
-0.234933
-0.233812
-0.246235
-0.231608
-0.198554
-0.133751
-0.075122
-0.044487
-0.005137
0.015428
0.021891
0.022729
0.032113
0.050436
0.044191
0.028530
-0.022845
-0.051837
-0.064821
-0.076528
-0.097540
-0.087351
-0.087857
-0.090287
-0.022305
0.051023
0.104784
0.176646
0.242976
0.326397
0.402387
0.450130
0.466327
0.450611
0.455346
0.456520
0.447153
0.425373
0.410550
0.411742
0.468652
0.495916
0.545797
0.598489
0.682033
0.700607
0.772943
0.823949
0.808540
0.804169
0.819458
0.807768
0.779985
0.720331
0.610195
0.512034
0.404390
0.307967
0.250663
0.165019
0.091312
0.015489
-0.026530
0.001566
0.030068
0.059070
0.111491
0.136716
0.137090
0.139470
0.140208
0.166797
0.144816
0.050483
0.015713
0.030626
0.016492
-0.004546
-0.058982
-0.124900
-0.127062
-0.135989
-0.102179
-0.105501
-0.084257
-0.078280
-0.010454
0.040487
0.073141
0.106500
0.107083
0.113599
0.125861
0.106280
0.075258
0.053504
0.006814
-0.068761
-0.133943
-0.120903
-0.135379
-0.135451
-0.165806
-0.175460
-0.149338
-0.088465
-0.055866
-0.021565
0.015201
0.046372
0.088080
0.139723
0.154233
0.131269
0.087662
0.035283
-0.044645
-0.080272
-0.135853
-0.185362
-0.204096
-0.199695
-0.175793
-0.164074
-0.158385
-0.099193
-0.034071
0.007160
0.051792
0.097745
0.110750
0.092742
0.129783
0.107665
0.118495
0.109706
0.026585
-0.071733
-0.122310
-0.178016
-0.160273
-0.179223
-0.181060
-0.187710
-0.121500
-0.041650
-0.000647
0.012017
0.067988
0.118683
0.145689
0.165012
0.172014
0.131586
0.117296
0.057382
-0.000178
-0.055416
-0.047727
-0.101988
-0.173159
-0.220473
-0.212112
-0.148089
-0.077152
-0.010034
0.019583
0.082028
0.151477
0.163687
0.151891
0.150097
0.148781
0.146983
0.125416
0.100791
0.074555
0.012972
-0.043558
-0.072328
-0.096771
-0.124131
-0.112673
-0.066391
-0.034301
0.006815
0.048439
0.117217
0.166656
0.221024
0.241120
0.224400
0.195896
0.181944
0.174548
0.133839
0.041092
0.017601
-0.001876
0.001066
-0.070194
-0.086215
-0.057039
-0.029935
-0.047688
0.007162
0.004583
0.074153
0.138227
0.227119
0.244692
0.242869
0.250484
0.215017
0.196446
0.142717
0.096016
0.065665
0.019368
-0.034629
-0.058370
-0.085612
-0.084823
-0.060914
-0.018952
0.030745
0.094463
0.147606
0.230047
0.231617
0.214307
0.215117
0.201530
0.194508
0.182315
0.128256
0.065920
0.022244
-0.021318
-0.046206
-0.055522
-0.053870
-0.069822
-0.086330
-0.047354
0.012138
0.021031
0.050516
0.108741
0.208108
0.237041
0.227695
0.227697
0.226496
0.196957
0.131625
0.053316
-0.020204
-0.062225
-0.124384
-0.139091
-0.104437
-0.086567
-0.073342
-0.066902
-0.003684
0.043911
0.079227
0.140092
0.194847
0.164072
0.136545
0.154895
0.129472
0.101970
0.044943
-0.004105
-0.040455
-0.072886
-0.110202
-0.137930
-0.141774
-0.128830
-0.110586
-0.083483
-0.041118
-0.023223
0.012923
0.055112
0.103103
0.144673
0.165985
0.167145
0.116379
-0.000256
-0.064155
-0.049038
-0.022420
-0.035271
-0.122663
-0.207155
-0.223031
-0.242224
-0.180457
-0.103150
-0.069692
-0.038726
0.029332
0.041862
0.091479
0.122984
0.127376
0.115401
0.067361
0.023734
-0.018370
-0.048802
-0.099480
-0.160196
-0.183108
-0.197827
-0.218500
-0.197716
-0.168969
-0.141435
-0.104160
-0.050486
0.015201
0.047671
0.072894
0.106629
0.110353
0.088055
0.059777
0.047473
-0.006155
-0.042430
-0.094816
-0.140031
-0.192673
-0.189241
-0.191007
-0.174493
-0.156597
-0.119731
-0.054268
-0.043957
0.003276
0.052332
0.068180
0.082737
0.114721
0.118343
0.116832
0.065618
-0.018698
-0.072335
-0.102210
-0.153652
-0.184958
-0.197693
-0.193405
-0.185964
-0.156718
-0.123871
-0.094696
-0.038441
0.012259
0.049962
0.085979
0.077539
0.074407
0.093958
0.069230
0.040752
0.009336
-0.021320
-0.065939
-0.091704
-0.142096
-0.186340
-0.193664
-0.202177
-0.172804
-0.126666
-0.084484
-0.042575
0.008276
0.069020
0.101429
0.109027
0.088058
0.105423
0.102509
0.064090
0.012148
-0.056058
-0.085964
-0.124335
-0.143238
-0.161019
-0.193611
-0.195204
-0.168305
-0.138929
-0.092710
-0.039521
0.005639
0.041245
0.072384
0.096479
0.109622
0.106988
0.109383
0.085955
0.032860
-0.050061
-0.079217
-0.139851
-0.176240
-0.160927
-0.164700
-0.191625
-0.165675
-0.123991
-0.081097
-0.044420
0.005903
0.062998
0.106054
0.113493
0.092938
0.092160
0.088912
0.046930
0.009462
-0.017213
-0.046804
-0.095759
-0.141102
-0.168936
-0.183332
-0.197652
-0.167901
-0.137517
-0.087639
-0.051412
-0.006336
0.047473
0.087386
0.092011
0.114233
0.114162
0.104595
0.059177
0.029786
-0.040923
-0.115258
-0.150727
-0.168578
-0.195635
-0.207965
-0.208212
-0.208311
-0.160949
-0.122490
-0.093547
-0.030797
0.024405
0.071837
0.105752
0.112855
0.085776
0.078786
0.054958
0.026559
-0.037022
-0.098681
-0.146168
-0.177577
-0.191738
-0.197904
-0.196093
-0.170290
-0.141435
-0.097870
-0.065729
-0.009997
0.035129
0.067532
0.062044
0.080748
0.081662
0.075190
0.063470
0.012539
-0.036467
-0.096702
-0.139788
-0.174038
-0.191683
-0.204366
-0.214364
-0.196804
-0.158276
-0.113783
-0.066088
0.007740
0.027482
0.069250
0.107056
0.106788
0.108336
0.078149
0.047597
-0.002292
-0.057060
-0.103208
-0.145947
-0.181608
-0.207111
-0.205433
-0.204018
-0.174208
-0.141881
-0.097066
-0.046556
0.006440
0.047771
0.084169
0.103198
0.090755
0.078932
0.076575
0.051581
-0.022092
-0.073135
-0.119427
-0.161257
-0.180841
-0.204987
-0.205002
-0.191081
-0.182823
-0.158422
-0.114953
-0.053181
-0.006949
0.027084
0.082673
0.080088
0.088419
0.077721
0.061282
0.027206
-0.000344
-0.044859
-0.098985
-0.166635
-0.207140
-0.222554
-0.231945
-0.229991
-0.194769
-0.143696
-0.099020
-0.054008
-0.014326
0.015640
0.051255
0.064332
0.071723
0.077755
0.047257
0.018142
-0.027448
-0.072762
-0.125075
-0.159092
-0.186660
-0.186579
-0.185989
-0.192623
-0.191632
-0.160502
-0.111906
-0.049344
-0.007544
0.038566
0.068756
0.103151
0.111252
0.104874
0.091409
0.027492
-0.007897
-0.045212
-0.083527
-0.107014
-0.143378
-0.150171
-0.148847
-0.117628
-0.102509
-0.080532
-0.048898
0.006046
0.067928
0.100634
0.117269
0.125577
0.111476
0.103562
0.097036
0.065281
0.022342
-0.024777
-0.084425
-0.131943
-0.149239
-0.156712
-0.164711
-0.156738
-0.137457
-0.102465
-0.052277
-0.004483
0.040314
0.092972
0.117027
0.128044
0.149001
0.160683
0.128365
0.089749
0.043948
0.012006
-0.037207
-0.094831
-0.115814
-0.140516
-0.170033
-0.169994
-0.146466
-0.123249
-0.084223
-0.051489
-0.002318
0.034360
0.080895
0.117962
0.118338
0.110331
0.091016
0.065611
0.020847
-0.004806
-0.057386
-0.112453
-0.162848
-0.171724
-0.196561
-0.211754
-0.199246
-0.155306
-0.098249
-0.045597
-0.012170
0.012777
0.037223
0.076199
0.078210
0.079734
0.060878
0.021476
-0.035504
-0.077748
-0.127427
-0.172413
-0.194128
-0.217315
-0.227103
-0.228708
-0.210078
-0.167885
-0.127781
-0.071436
-0.035647
0.002505
0.038311
0.073092
0.089141
0.078586
0.050018
0.051077
-0.015252
-0.062025
-0.116128
-0.161196
-0.197164
-0.196054
-0.233478
-0.229215
-0.212160
-0.172116
-0.129456
-0.083938
-0.022124
0.013286
0.035674
0.064242
0.088691
0.075474
0.064705
0.018204
-0.045365
-0.106621
-0.128130
-0.157371
-0.185748
-0.198901
-0.223577
-0.241226
-0.244580
-0.196069
-0.130655
-0.085499
-0.033912
-0.004537
0.020332
0.063421
0.087025
0.080666
0.062721
0.043100
-0.016747
-0.075927
-0.127207
-0.193007
-0.212487
-0.232374
-0.238865
-0.238242
-0.228510
-0.191422
-0.140765
-0.100964
-0.056895
-0.012802
0.035412
0.052125
0.057814
0.061830
0.036203
0.006156
-0.040157
-0.085684
-0.146617
-0.172360
-0.178168
-0.173777
-0.171047
-0.152309
-0.113572
-0.051145
0.006715
0.069356
0.144497
0.207881
0.250379
0.284757
0.345303
0.354721
0.362697
0.362028
0.375221
0.369192
0.353098
0.312884
0.309184
0.304922
0.333821
0.353824
0.452661
0.540977
0.624282
0.707663
0.760399
0.823088
0.854707
0.876536
0.893884
0.890427
0.832515
0.759850
0.701317
0.634345
0.552863
0.427792
0.332243
0.248268
0.176391
0.142907
0.112879
0.058977
0.079814
0.114951
0.166469
0.227370
0.255622
0.278566
0.255194
0.203909
0.184388
0.147693
0.091116
0.034567
-0.025481
-0.066902
-0.100110
-0.134656
-0.146785
-0.126090
-0.111191
-0.087861
-0.044234
0.001797
0.060063
0.109145
0.106392
0.114708
0.133060
0.142051
0.124934
0.094014
0.045937
-0.000903
-0.065110
-0.107395
-0.143168
-0.151220
-0.197346
-0.191734
-0.165645
-0.131773
-0.092445
-0.040487
0.014220
0.055283
0.074808
0.095259
0.104630
0.105727
0.097766
0.053115
-0.001281
-0.032716
-0.093196
-0.125255
-0.164915
-0.194707
-0.178811
-0.185245
-0.155722
-0.123675
-0.046347
-0.016622
0.023365
0.080340
0.123523
0.128418
0.148498
0.151207
0.131708
0.083530
0.045363
-0.008792
-0.062162
-0.104931
-0.142810
-0.160129
-0.167580
-0.154336
-0.131982
-0.099475
-0.077763
-0.002900
0.074233
0.115605
0.136978
0.135872
0.129379
0.122943
0.136491
0.081318
0.032768
-0.003362
-0.053528
-0.096613
-0.121282
-0.124810
-0.137364
-0.127964
-0.118618
-0.068376
-0.001595
0.031453
0.069085
0.108040
0.167985
0.187970
0.181937
0.190478
0.168746
0.124351
0.074518
0.024077
-0.032303
-0.067008
-0.094913
-0.115857
-0.111181
-0.100096
-0.091693
-0.040635
0.003027
0.049368
0.086876
0.122358
0.157419
0.190553
0.211934
0.197234
0.177835
0.150883
0.101524
0.061776
0.010114
-0.009126
-0.028029
-0.096628
-0.134869
-0.079413
-0.038974
-0.005047
0.086055
0.105933
0.132427
0.151921
0.193480
0.218157
0.228594
0.225226
0.196580
0.163382
0.111536
0.080080
0.043658
-0.002312
-0.045056
-0.082833
-0.089797
-0.063833
-0.007981
-0.000241
0.041830
0.096371
0.146633
0.179817
0.219185
0.246182
0.260713
0.244027
0.215997
0.175583
0.132397
0.084609
0.044705
0.001542
-0.055543
-0.114904
-0.095847
-0.070590
-0.047663
-0.006112
0.032160
0.070116
0.119319
0.165671
0.195223
0.210335
0.217894
0.202111
0.192484
0.157169
0.111844
0.073081
0.016251
-0.009195
-0.044812
-0.083396
-0.104840
-0.079242
-0.050960
-0.032990
0.009339
0.041499
0.074352
0.113359
0.143646
0.185230
0.199107
0.171435
0.138940
0.103896
0.061798
0.021000
-0.014216
-0.070524
-0.095097
-0.128235
-0.165033
-0.168684
-0.136274
-0.108916
-0.039559
0.001016
0.039012
0.081908
0.103407
0.138006
0.165560
0.137578
0.109014
0.079085
0.033473
-0.006110
-0.042512
-0.091329
-0.138653
-0.187931
-0.189203
-0.206473
-0.173522
-0.159342
-0.100929
-0.017378
0.020882
0.065737
0.117346
0.126869
0.139264
0.113868
0.077961
0.028752
0.012149
-0.040829
-0.102683
-0.157527
-0.159211
-0.155854
-0.178214
-0.169999
-0.156824
-0.125835
-0.086952
-0.035869
0.019820
0.053512
0.086441
0.105113
0.108213
0.108003
0.107119
0.080392
0.020505
-0.040352
-0.085421
-0.126735
-0.152077
-0.204198
-0.204401
-0.206616
-0.203680
-0.145134
-0.054610
-0.027403
0.012180
0.075694
0.105632
0.126114
0.136653
0.118897
0.107389
0.084790
0.013763
-0.048884
-0.082985
-0.132336
-0.156880
-0.174566
-0.186137
-0.180035
-0.171190
-0.140066
-0.076069
-0.040623
0.005034
0.044246
0.085439
0.113920
0.126736
0.128501
0.111545
0.080775
0.026843
-0.052117
-0.081431
-0.097558
-0.128485
-0.155050
-0.179944
-0.164403
-0.157210
-0.119091
-0.072210
-0.019842
0.029388
0.064789
0.097513
0.136308
0.153824
0.138416
0.116930
0.078844
0.011927
-0.025172
-0.060599
-0.094832
-0.129548
-0.158075
-0.184884
-0.164012
-0.132060
-0.112084
-0.100605
-0.019095
0.013119
0.070297
0.101967
0.125148
0.139357
0.126748
0.120062
0.076844
0.021089
-0.023730
-0.059849
-0.108720
-0.155956
-0.178268
-0.206671
-0.205595
-0.161470
-0.101175
-0.053306
0.003063
0.022000
0.038271
0.087283
0.118775
0.140631
0.129834
0.115414
0.086882
0.013910
-0.038965
-0.053967
-0.084458
-0.129860
-0.165552
-0.192757
-0.176448
-0.157028
-0.114754
-0.073561
-0.039755
0.009818
0.054140
0.086897
0.120884
0.128985
0.110050
0.100201
0.071201
0.015271
-0.021181
-0.031220
-0.084284
-0.161615
-0.174906
-0.223490
-0.201873
-0.154308
-0.107813
-0.071322
-0.016317
0.015170
0.063489
0.097786
0.115290
0.117677
0.108230
0.101887
0.053834
-0.001348
-0.053847
-0.077462
-0.117086
-0.151301
-0.177914
-0.197549
-0.185441
-0.161328
-0.126730
-0.080311
-0.032449
0.004017
0.049999
0.091173
0.124004
0.130065
0.104459
0.083170
0.049644
0.000928
-0.061009
-0.082063
-0.118386
-0.154897
-0.172814
-0.178932
-0.165183
-0.181250
-0.144791
-0.086920
-0.031739
0.006159
0.042334
0.090482
0.097036
0.103015
0.095446
0.075722
0.034309
-0.038182
-0.057852
-0.079077
-0.121814
-0.154300
-0.177374
-0.224586
-0.197121
-0.189464
-0.161021
-0.095253
-0.051104
-0.014053
0.021810
0.064602
0.114211
0.115065
0.112715
0.090635
0.052163
-0.000871
-0.049722
-0.086055
-0.125808
-0.158889
-0.175252
-0.183273
-0.180330
-0.163764
-0.133630
-0.080276
-0.044494
-0.021836
0.027324
0.070893
0.098411
0.105755
0.080035
0.079477
0.053759
-0.018914
-0.067232
-0.093213
-0.124439
-0.151989
-0.193066
-0.206623
-0.225087
-0.199483
-0.128139
-0.068950
-0.070944
-0.020368
0.036553
0.086180
0.117061
0.114803
0.114793
0.105616
0.059433
0.004602
-0.038921
-0.078951
-0.120814
-0.169487
-0.187248
-0.187727
-0.180958
-0.171323
-0.149784
-0.115584
-0.069357
-0.024357
0.025562
0.069000
0.097717
0.106850
0.088147
0.075134
0.051722
0.004010
-0.047703
-0.086507
-0.124671
-0.141608
-0.160688
-0.195384
-0.186514
-0.174137
-0.149667
-0.079281
-0.025590
0.026812
0.073757
0.110151
0.137606
0.146254
0.133764
0.119115
0.096887
0.054550
0.006802
-0.038743
-0.082475
-0.134884
-0.143315
-0.173441
-0.174156
-0.156137
-0.117021
-0.078928
-0.034078
0.002421
0.043803
0.112560
0.146407
0.169548
0.153121
0.127801
0.089275
0.034660
0.000296
-0.047155
-0.065460
-0.096607
-0.130339
-0.163969
-0.152549
-0.144193
-0.092477
-0.033841
0.015917
0.037412
0.069779
0.117676
0.149003
0.150092
0.137576
0.110491
0.079207
0.037354
-0.022938
-0.070900
-0.112292
-0.153440
-0.194938
-0.210544
-0.197740
-0.156851
-0.122589
-0.083068
-0.034955
0.005286
0.032649
0.059679
0.085992
0.113973
0.106793
0.093025
0.043918
-0.005744
-0.054713
-0.116250
-0.163968
-0.187521
-0.208814
-0.213851
-0.196500
-0.191780
-0.158196
-0.116568
-0.067079
-0.042561
0.034398
0.077059
0.070194
0.077846
0.073252
0.049749
0.016411
-0.012240
-0.062996
-0.127695
-0.168031
-0.206073
-0.226148
-0.247645
-0.239025
-0.212354
-0.171864
-0.116175
-0.069151
-0.010167
0.030291
0.072629
0.085513
0.078689
0.047871
0.058068
0.020760
-0.026297
-0.082254
-0.154017
-0.182350
-0.208908
-0.228421
-0.229339
-0.231950
-0.237916
-0.174919
-0.131234
-0.081365
-0.024995
0.026260
0.059266
0.081979
0.091565
0.069686
0.027489
-0.007792
-0.038540
-0.078687
-0.106583
-0.152123
-0.179302
-0.197690
-0.211639
-0.217996
-0.191942
-0.161778
-0.117435
-0.064843
-0.032310
0.021130
0.056746
0.085405
0.092499
0.064554
0.029301
-0.030678
-0.052654
-0.069463
-0.116272
-0.173796
-0.203078
-0.205100
-0.206895
-0.188985
-0.170242
-0.115454
-0.033579
0.041016
0.086600
0.141414
0.183670
0.219875
0.241803
0.254661
0.238191
0.230524
0.221265
0.198904
0.182582
0.170792
0.180135
0.192275
0.195990
0.236276
0.292718
0.362395
0.409279
0.482677
0.577469
0.672949
0.741869
0.810357
0.798768
0.810066
0.805604
0.781420
0.723758
0.655548
0.606038
0.558837
0.483681
0.406407
0.324784
0.288095
0.254013
0.248696
0.239888
0.226438
0.239320
0.251291
0.251073
0.236496
0.228439
0.212374
0.168633
0.128625
0.088509
0.022678
-0.032551
-0.061590
-0.079721
-0.106617
-0.124349
-0.122558
-0.107477
-0.078138
-0.047088
-0.013309
0.042747
0.078389
0.102727
0.139832
0.167701
0.154567
0.122527
0.080595
0.020073
-0.023561
-0.047510
-0.094152
-0.150899
-0.165065
-0.181561
-0.179511
-0.154238
-0.125220
-0.086146
-0.030038
0.020551
0.071434
0.096946
0.115445
0.126810
0.131083
0.111651
0.062248
0.021629
-0.037741
-0.081418
-0.125176
-0.158929
-0.176097
-0.194278
-0.192017
-0.159180
-0.120148
-0.092395
-0.030475
0.022432
0.055858
0.089158
0.118374
0.117021
0.117876
0.103875
0.079774
0.038962
-0.007368
-0.049452
-0.106936
-0.145820
-0.179939
-0.183295
-0.160156
-0.143864
-0.108040
-0.065975
-0.003381
0.040813
0.074968
0.106514
0.142359
0.155610
0.147749
0.131840
0.095917
0.046288
-0.008982
-0.052085
-0.099603
-0.135999
-0.148145
-0.152086
-0.146550
-0.144851
-0.108377
-0.043602
-0.004242
0.049206
0.100881
0.136798
0.140682
0.150252
0.147218
0.137015
0.094802
0.037106
0.004780
-0.022882
-0.060758
-0.099761
-0.112110
-0.110849
-0.105024
-0.068667
-0.052368
-0.014495
0.052371
0.099865
0.159657
0.197767
0.208717
0.209147
0.221085
0.197629
0.145503
0.097158
0.051884
0.006676
-0.025091
-0.065126
-0.100485
-0.105879
-0.091826
-0.067024
-0.014622
0.022877
0.063903
0.119235
0.178843
0.187418
0.209946
0.215426
0.203202
0.193899
0.170338
0.125677
0.079143
0.040259
-0.018374
-0.051589
-0.071083
-0.079320
-0.084370
-0.048690
-0.011112
0.028928
0.069258
0.138694
0.178664
0.209549
0.223006
0.233601
0.236323
0.214626
0.162881
0.108403
0.070130
0.027844
-0.007968
-0.029587
-0.047940
-0.057141
-0.059173
-0.045756
-0.017223
0.038280
0.099378
0.128508
0.167048
0.198399
0.220910
0.209144
0.206389
0.185466
0.143522
0.110457
0.055385
0.018700
-0.023900
-0.054549
-0.073907
-0.090437
-0.077008
-0.060580
-0.011755
0.030615
0.060848
0.102490
0.137912
0.141107
0.166018
0.193550
0.188697
0.158887
0.110405
0.056552
0.016400
-0.020892
-0.063859
-0.109119
-0.142934
-0.144326
-0.137700
-0.114440
-0.067312
-0.041581
0.012023
0.048288
0.092368
0.120457
0.143919
0.136796
0.146968
0.117584
0.075644
0.021011
-0.044576
-0.078850
-0.127010
-0.153642
-0.188213
-0.195871
-0.192757
-0.184266
-0.124850
-0.082365
-0.034680
0.015632
0.046659
0.082899
0.126370
0.144419
0.119726
0.088547
0.051310
0.041261
-0.017329
-0.067133
-0.104081
-0.123662
-0.169045
-0.203085
-0.187093
-0.149791
-0.125571
-0.118740
-0.068860
0.003475
0.024656
0.040439
0.071215
0.083620
0.074405
0.042322
0.022184
-0.012764
-0.042375
-0.080309
-0.128661
-0.158705
-0.191078
-0.195444
-0.203081
-0.177916
-0.128068
-0.084643
-0.024359
0.007963
0.042174
0.080023
0.104867
0.120866
0.124983
0.092015
0.051583
0.013467
-0.031131
-0.093669
-0.143127
-0.180562
-0.179105
-0.189678
-0.187136
-0.179922
-0.132633
-0.098874
-0.053758
-0.012458
0.025414
0.084214
0.112409
0.123107
0.122983
0.104675
0.048752
-0.006404
-0.046149
-0.079714
-0.126220
-0.152151
-0.174047
-0.186857
-0.186296
-0.174666
-0.153668
-0.100173
-0.038420
-0.015939
0.024789
0.090432
0.123222
0.119337
0.104801
0.075459
0.043247
-0.007459
-0.040678
-0.087606
-0.136561
-0.171847
-0.180974
-0.184879
-0.227135
-0.185733
-0.132809
-0.103185
-0.040984
0.018344
0.066145
0.100061
0.117595
0.103577
0.115929
0.099780
0.064184
-0.005873
-0.039286
-0.082488
-0.126668
-0.149313
-0.167032
-0.165376
-0.170464
-0.162942
-0.126848
-0.084696
-0.020103
0.018176
0.055101
0.085182
0.111869
0.115124
0.106256
0.099332
0.043203
-0.012707
-0.050329
-0.076236
-0.128729
-0.157205
-0.183717
-0.193198
-0.177402
-0.160496
-0.121455
-0.078211
-0.015831
0.020148
0.045341
0.082337
0.114360
0.104611
0.080605
0.065192
0.034076
0.007814
-0.054020
-0.101541
-0.124694
-0.169494
-0.209732
-0.212085
-0.194463
-0.165523
-0.137801
-0.088804
-0.019722
0.006558
0.032142
0.065956
0.097726
0.105595
0.100753
0.087949
0.045266
0.014782
-0.027571
-0.077978
-0.135618
-0.188745
-0.217356
-0.214757
-0.196574
-0.180069
-0.162615
-0.125758
-0.083316
-0.018794
0.033814
0.064967
0.089365
0.100708
0.083105
0.062483
0.025783
-0.014203
-0.075362
-0.118252
-0.151397
-0.199788
-0.212867
-0.220245
-0.209967
-0.186945
-0.143185
-0.112712
-0.076482
-0.010612
0.038723
0.051590
0.069200
0.095918
0.075456
0.044953
0.013480
-0.004629
-0.051687
-0.099470
-0.147142
-0.188661
-0.215018
-0.219945
-0.211467
-0.192872
-0.153123
-0.121157
-0.065014
-0.018929
0.017186
0.046115
0.077658
0.098812
0.094883
0.082031
0.035028
0.011019
-0.041899
-0.094384
-0.139623
-0.183793
-0.230376
-0.220657
-0.195201
-0.187533
-0.149080
-0.104800
-0.062880
-0.009843
0.036561
0.061356
0.085650
0.093034
0.083608
0.038373
0.008312
-0.015644
-0.041075
-0.089046
-0.137569
-0.181363
-0.206037
-0.203788
-0.178877
-0.155376
-0.101803
-0.068696
-0.051808
0.000250
0.042402
0.082118
0.125140
0.127601
0.114002
0.082414
0.066958
0.038391
-0.020677
-0.078626
-0.117543
-0.138735
-0.183634
-0.203063
-0.184102
-0.180530
-0.151766
-0.099591
-0.045556
0.014041
0.046936
0.090138
0.110263
0.108348
0.101825
0.077382
0.040394
0.020088
-0.015531
-0.057775
-0.082439
-0.116312
-0.152353
-0.190881
-0.156384
-0.122289
-0.084248
-0.044200
-0.006718
0.030736
0.065673
0.112384
0.132922
0.136662
0.125824
0.101396
0.061472
0.011200
-0.056897
-0.069218
-0.099032
-0.129576
-0.176677
-0.216051
-0.200655
-0.159673
-0.142438
-0.110122
-0.060831
-0.019353
0.036913
0.088596
0.090504
0.098568
0.064902
0.051614
0.022839
-0.021827
-0.082791
-0.114614
-0.164114
-0.188112
-0.223570
-0.230625
-0.227812
-0.226401
-0.176660
-0.120417
-0.064323
-0.027116
0.002850
0.054255
0.096386
0.077860
0.057682
0.042572
0.016053
-0.023677
-0.072613
-0.131048
-0.191715
-0.220066
-0.236485
-0.244654
-0.239437
-0.231569
-0.195143
-0.143192
-0.093822
-0.038894
-0.004602
0.044856
0.075234
0.075470
0.066116
0.051716
0.019084
-0.040059
-0.097520
-0.161254
-0.203455
-0.237088
-0.266990
-0.265078
-0.255661
-0.245829
-0.194612
-0.143270
-0.098032
-0.044114
-0.002737
0.024000
0.040676
0.069214
0.054838
0.029893
0.005959
-0.029544
-0.074065
-0.136390
-0.197087
-0.246696
-0.272501
-0.268130
-0.269004
-0.248904
-0.211028
-0.160151
-0.117320
-0.059056
-0.002790
0.010572
0.037424
0.064731
0.068188
0.055154
0.008511
-0.060480
-0.112057
-0.136640
-0.167394
-0.197250
-0.215498
-0.221414
-0.218573
-0.192747
-0.130217
-0.083557
-0.032809
0.026617
0.105031
0.155551
0.200815
0.200315
0.204800
0.223914
0.218342
0.186261
0.155073
0.134419
0.113241
0.101385
0.085236
0.072282
0.116685
0.182368
0.309692
0.398676
0.460466
0.536016
0.610850
0.683861
0.750777
0.781192
0.790038
0.802287
0.765006
0.722967
0.684696
0.636153
0.568888
0.513332
0.468327
0.432616
0.399023
0.345363
0.324807
0.308942
0.285778
0.288375
0.286941
0.263274
0.254396
0.224947
0.200409
0.156039
0.098248
0.042007
-0.011584
-0.065814
-0.094205
-0.137988
-0.160015
-0.153598
-0.147675
-0.130917
-0.110829
-0.051004
-0.020330
0.029692
0.071543
0.096697
0.127356
0.131608
0.098361
0.085226
0.040236
-0.011771
-0.043262
-0.078840
-0.119899
-0.155570
-0.190196
-0.192187
-0.177934
-0.163435
-0.130339
-0.091682
-0.049833
0.001964
0.033827
0.048871
0.099207
0.118963
0.106501
0.085668
0.040015
0.021408
-0.025624
-0.099508
-0.153014
-0.187822
-0.186496
-0.194415
-0.187947
-0.185003
-0.141821
-0.096162
-0.039235
-0.004718
0.038364
0.085106
0.095807
0.106454
0.107052
0.076933
0.048019
0.005875
-0.014875
-0.066466
-0.120151
-0.162784
-0.199062
-0.201477
-0.183480
-0.173130
-0.137501
-0.100429
-0.056002
0.002795
0.057360
0.096214
0.127899
0.126796
0.108995
0.074250
0.059676
0.058926
0.022051
-0.047024
-0.109378
-0.139191
-0.191761
-0.165369
-0.157178
-0.142845
-0.123593
-0.077031
-0.021988
0.035227
0.087907
0.110929
0.134651
0.142143
0.130098
0.105642
0.089350
0.038842
-0.002685
-0.042839
-0.085621
-0.128030
-0.152159
-0.144593
-0.108936
-0.112395
-0.090931
-0.026328
0.034931
0.107179
0.167082
0.189383
0.189697
0.189302
0.207503
0.181103
0.137473
0.085910
0.035127
-0.021593
-0.050438
-0.090005
-0.106893
-0.109002
-0.109392
-0.093101
-0.047054
0.007093
0.071685
0.118122
0.152810
0.171815
0.193902
0.215483
0.230616
0.215961
0.177638
0.104765
0.056927
0.033808
-0.016029
-0.052114
-0.076307
-0.088117
-0.090335
-0.066130
-0.024988
0.026529
0.064236
0.113950
0.170350
0.232519
0.260690
0.228521
0.231097
0.191317
0.152340
0.111685
0.068469
0.028335
-0.039912
-0.095708
-0.114086
-0.095218
-0.096607
-0.066446
-0.033180
0.019707
0.060636
0.115132
0.157218
0.195545
0.222954
0.231779
0.221541
0.194322
0.151863
0.092543
0.027152
-0.002166
-0.038597
-0.079137
-0.097509
-0.109457
-0.115870
-0.095667
-0.072248
-0.042571
0.004266
0.061269
0.115857
0.144776
0.162001
0.165330
0.144713
0.139698
0.102706
0.058966
0.015410
-0.036996
-0.100585
-0.125098
-0.168951
-0.152029
-0.139582
-0.102022
-0.083647
-0.043135
0.025202
0.052360
0.068974
0.105349
0.133758
0.148296
0.132629
0.111442
0.055511
0.011575
-0.007835
-0.063515
-0.130588
-0.162697
-0.175089
-0.173634
-0.170381
-0.169470
-0.128482
-0.074480
-0.041306
0.004825
0.046100
0.073011
0.093694
0.099374
0.085972
0.074698
0.041271
-0.000821
-0.037262
-0.088087
-0.142223
-0.192290
-0.206609
-0.197213
-0.178686
-0.165650
-0.129690
-0.086141
-0.039166
-0.008240
0.029571
0.075378
0.090530
0.083454
0.086484
0.067763
0.019504
-0.029333
-0.063883
-0.121676
-0.166373
-0.186987
-0.206921
-0.219469
-0.209919
-0.170636
-0.135018
-0.095138
-0.040162
0.015930
0.049734
0.053066
0.084936
0.091902
0.089683
0.069686
0.053452
-0.001416
-0.055279
-0.097368
-0.135591
-0.173723
-0.196887
-0.208979
-0.187481
-0.162890
-0.134177
-0.096834
-0.042507
-0.005615
0.041939
0.071714
0.106715
0.100057
0.104730
0.085511
0.045882
-0.000596
-0.065839
-0.114460
-0.141526
-0.142441
-0.188110
-0.236166
-0.225694
-0.178981
-0.135715
-0.082136
-0.036700
-0.006503
0.063050
0.101681
0.118505
0.126069
0.114692
0.082457
0.043004
-0.004854
-0.040700
-0.086146
-0.125809
-0.156263
-0.176142
-0.183239
-0.183620
-0.168784
-0.154285
-0.115380
-0.050388
0.014765
0.064356
0.084076
0.119300
0.109527
0.118014
0.098087
0.070784
0.018682
-0.022234
-0.088099
-0.159245
-0.186183
-0.219780
-0.229189
-0.209392
-0.191183
-0.178967
-0.125610
-0.076474
-0.017987
0.031250
0.089768
0.103747
0.106418
0.091600
0.072331
0.059787
0.025696
-0.049875
-0.097657
-0.139212
-0.170093
-0.201030
-0.211717
-0.191622
-0.178075
-0.139633
-0.106038
-0.060635
0.010114
0.062041
0.094792
0.112425
0.127429
0.130123
0.092760
0.062732
0.027035
-0.031905
-0.086440
-0.134095
-0.188353
-0.240187
-0.213878
-0.189433
-0.183678
-0.143107
-0.087135
-0.036974
0.022797
0.066109
0.100408
0.114921
0.110525
0.108195
0.080315
0.043781
0.003521
-0.056646
-0.109498
-0.149316
-0.190286
-0.211396
-0.214502
-0.199981
-0.171934
-0.154283
-0.114065
-0.050289
-0.015857
0.030002
0.050213
0.078523
0.085718
0.083199
0.074542
0.024694
-0.014287
-0.069704
-0.106156
-0.146080
-0.175031
-0.201764
-0.202809
-0.200131
-0.179355
-0.151141
-0.087357
-0.047577
-0.022322
0.006632
0.037209
0.060517
0.083740
0.081381
0.050452
0.016909
-0.030804
-0.068246
-0.115699
-0.161107
-0.171309
-0.198081
-0.204847
-0.195896
-0.176321
-0.139843
-0.088808
-0.039666
0.007487
0.062004
0.078921
0.097721
0.105921
0.104120
0.073488
0.031430
-0.000011
-0.051302
-0.108184
-0.141698
-0.163739
-0.174619
-0.176245
-0.179859
-0.168162
-0.119203
-0.048134
-0.005334
0.050108
0.103357
0.132884
0.149833
0.128312
0.109743
0.110951
0.077153
0.017239
-0.045205
-0.075017
-0.110041
-0.135750
-0.169900
-0.182370
-0.158596
-0.136287
-0.116832
-0.095723
-0.047071
0.014502
0.048261
0.092947
0.134839
0.149824
0.158553
0.132011
0.093854
0.063710
0.008105
-0.039235
-0.078519
-0.118309
-0.149931
-0.147404
-0.134061
-0.117538
-0.106391
-0.067269
-0.023240
0.046478
0.087288
0.116625
0.117156
0.121843
0.118197
0.103051
0.066855
0.033878
-0.003659
-0.041811
-0.104412
-0.162508
-0.184225
-0.185240
-0.199773
-0.200737
-0.167382
-0.113442
-0.071244
0.000163
0.043163
0.067093
0.086967
0.110617
0.093729
0.057546
0.018183
-0.024174
-0.079695
-0.130337
-0.171889
-0.210515
-0.234702
-0.244367
-0.224998
-0.208672
-0.194974
-0.154574
-0.077382
-0.032368
0.030439
0.062232
0.098020
0.105890
0.076062
0.021950
-0.006032
-0.044941
-0.079425
-0.122528
-0.172554
-0.219045
-0.222544
-0.233986
-0.228459
-0.189021
-0.167784
-0.127352
-0.082566
-0.031862
0.011530
0.031227
0.050325
0.078983
0.072255
0.051021
0.007861
-0.048803
-0.097567
-0.148166
-0.191695
-0.218518
-0.230316
-0.243758
-0.229157
-0.201677
-0.169588
-0.115505
-0.068720
-0.029934
0.019739
0.070463
0.087526
0.097916
0.069431
0.021916
-0.005988
-0.033844
-0.079604
-0.133011
-0.175651
-0.222186
-0.239730
-0.243890
-0.244707
-0.225509
-0.179754
-0.135402
-0.086678
-0.040142
-0.004407
0.036177
0.062752
0.046764
0.047808
0.027380
0.002243
-0.036105
-0.080789
-0.114532
-0.138720
-0.166896
-0.181820
-0.178974
-0.156682
-0.105241
-0.055295
0.006551
0.071830
0.105503
0.156390
0.219229
0.265453
0.289103
0.319055
0.320902
0.312208
0.277583
0.250917
0.254777
0.271249
0.276604
0.300762
0.301934
0.345491
0.393721
0.452614
0.554047
0.644313
0.734329
0.812481
0.857959
0.872993
0.881350
0.884779
0.843923
0.797611
0.719886
0.643511
0.565659
0.457385
0.362879
0.272597
0.210596
0.147182
0.130040
0.110227
0.120326
0.126793
0.150226
0.173776
0.193098
0.196475
0.230297
0.207122
0.166773
0.124962
0.084494
0.026006
-0.031919
-0.071904
-0.110843
-0.153591
-0.157310
-0.136345
-0.123765
-0.095966
-0.056230
-0.005916
0.052134
0.084216
0.113072
0.134891
0.133099
0.127591
0.115766
0.080077
0.035210
-0.005719
-0.066485
-0.123483
-0.180508
-0.199471
-0.183948
-0.168153
-0.132595
-0.118853
-0.079673
-0.022923
-0.016909
-0.001722
0.081357
0.125403
0.127592
0.113392
0.080858
0.059454
-0.007676
-0.064655
-0.107257
-0.136368
-0.165387
-0.186313
-0.197102
-0.197608
-0.180380
-0.132382
-0.099864
-0.061024
0.003612
0.058811
0.097783
0.123203
0.128434
0.134237
0.112833
0.071122
0.023234
-0.010166
-0.063152
-0.107795
-0.142848
-0.162110
-0.170298
-0.150617
-0.125311
-0.097347
-0.051739
-0.009889
0.010523
0.072809
0.113426
0.138342
0.158306
0.146302
0.123518
0.097685
0.051631
0.003478
-0.057420
-0.096070
-0.132518
-0.152874
-0.146022
-0.141107
-0.116545
-0.081607
-0.024672
0.023237
0.054000
0.091863
0.136033
0.171489
0.180932
0.170248
0.144492
0.122273
0.056504
-0.018125
-0.037580
-0.057537
-0.107622
-0.108887
-0.113305
-0.112764
-0.097678
-0.067692
-0.015228
0.045189
0.090110
0.123293
0.164767
0.190147
0.204793
0.207861
0.169064
0.122648
0.086335
0.045275
0.014789
-0.019015
-0.067686
-0.095792
-0.108165
-0.100474
-0.054352
-0.023005
0.019199
0.061529
0.112732
0.153062
0.179999
0.197452
0.222829
0.232644
0.214866
0.188108
0.138870
0.081882
0.025468
-0.007520
-0.058218
-0.062108
-0.070277
-0.041585
-0.019898
0.011007
0.053408
0.095730
0.143989
0.183042
0.213802
0.208825
0.244245
0.252470
0.213203
0.174636
0.134873
0.082925
0.020095
-0.008758
-0.051210
-0.085169
-0.086540
-0.063728
-0.037675
-0.032766
0.018454
0.075461
0.118245
0.165750
0.191417
0.215658
0.226226
0.200775
0.163121
0.141892
0.091677
0.049003
-0.000632
-0.032264
-0.074287
-0.095079
-0.127718
-0.107717
-0.079825
-0.074921
-0.015751
0.042983
0.075862
0.112793
0.170855
0.177713
0.171850
0.169613
0.141090
0.099982
0.051564
0.005036
-0.036797
-0.097301
-0.133573
-0.148272
-0.151954
-0.139228
-0.121552
-0.101368
-0.060854
-0.023366
0.024767
0.099832
0.141269
0.141155
0.141984
0.119537
0.094135
0.054243
0.013792
-0.034723
-0.091978
-0.137553
-0.159997
-0.175706
-0.187330
-0.168056
-0.141055
-0.129370
-0.117262
-0.073411
-0.011627
0.025143
0.073689
0.121166
0.119693
0.111087
0.074522
0.038577
0.001429
-0.048860
-0.100560
-0.154458
-0.187479
-0.225177
-0.215519
-0.193661
-0.149473
-0.138516
-0.129381
-0.094102
0.006164
0.056869
0.097658
0.122845
0.117158
0.096061
0.059780
0.045751
-0.002365
-0.033712
-0.062719
-0.114030
-0.160642
-0.187144
-0.198328
-0.187562
-0.158370
-0.121971
-0.072402
-0.017131
0.024791
0.054521
0.087100
0.097165
0.094280
0.090023
0.065358
0.038435
-0.012695
-0.070634
-0.111538
-0.137384
-0.176718
-0.190414
-0.184696
-0.190046
-0.157239
-0.121568
-0.087845
-0.034239
0.019038
0.063363
0.113114
0.108792
0.096417
0.098734
0.082634
0.054501
0.014490
-0.038397
-0.071648
-0.122282
-0.171706
-0.186990
-0.184000
-0.162260
-0.146770
-0.120438
-0.079131
-0.029528
0.013811
0.063684
0.095003
0.109280
0.116983
0.116218
0.084015
0.056032
0.005948
-0.037072
-0.084005
-0.117532
-0.163534
-0.181266
-0.183967
-0.182039
-0.161064
-0.124493
-0.085065
-0.049105
0.002648
0.053749
0.093878
0.113655
0.118492
0.118741
0.092468
0.046926
0.002526
-0.045451
-0.088500
-0.128589
-0.156407
-0.176858
-0.191212
-0.195659
-0.179793
-0.174032
-0.100672
-0.034914
0.018228
0.066872
0.099356
0.102379
0.123020
0.120997
0.084695
0.059430
0.007237
-0.035561
-0.081375
-0.124813
-0.175480
-0.178505
-0.194779
-0.195212
-0.168013
-0.127846
-0.107500
-0.074615
-0.019184
0.054381
0.105831
0.129484
0.134961
0.142213
0.087796
0.048699
0.010063
-0.042074
-0.086745
-0.130972
-0.176965
-0.205665
-0.193236
-0.183876
-0.169562
-0.137884
-0.113175
-0.058361
0.003942
0.050661
0.086646
0.088283
0.102812
0.098607
0.087048
0.053386
0.007829
-0.057553
-0.106281
-0.143073
-0.170903
-0.186107
-0.213478
-0.218222
-0.180806
-0.136496
-0.088234
-0.043428
0.006236
0.040870
0.085137
0.093066
0.084885
0.098180
0.091343
0.027018
-0.021422
-0.055791
-0.097831
-0.140489
-0.182212
-0.217830
-0.209989
-0.185189
-0.163234
-0.179233
-0.121172
-0.073691
-0.017507
0.043472
0.082260
0.099374
0.120774
0.123647
0.094753
0.049939
0.009119
-0.045357
-0.106807
-0.157646
-0.188185
-0.203584
-0.227795
-0.205687
-0.180087
-0.148488
-0.110216
-0.055535
-0.014199
0.033122
0.078474
0.090223
0.088415
0.079890
0.063781
0.023405
-0.026056
-0.068795
-0.109555
-0.155806
-0.208836
-0.212063
-0.215126
-0.217459
-0.195776
-0.161517
-0.120261
-0.057717
-0.016819
0.040528
0.086934
0.110743
0.103858
0.105712
0.103450
0.069327
0.036555
-0.004033
-0.068791
-0.119382
-0.154556
-0.176821
-0.180727
-0.161774
-0.139497
-0.102615
-0.058905
-0.004310
0.036448
0.075194
0.126703
0.144181
0.132602
0.108508
0.077573
0.059753
0.020888
-0.032134
-0.074308
-0.116063
-0.151467
-0.182938
-0.168246
-0.146207
-0.132160
-0.106804
-0.060540
-0.017160
0.030174
0.086172
0.143236
0.155546
0.139872
0.127908
0.102617
0.079056
0.036845
-0.012904
-0.044397
-0.080037
-0.122127
-0.147878
-0.162382
-0.152781
-0.123956
-0.097193
-0.067213
-0.025266
0.023353
0.055482
0.087011
0.120690
0.120276
0.112950
0.087116
0.038430
-0.030460
-0.048700
-0.096552
-0.147050
-0.175986
-0.184076
-0.185909
-0.187229
-0.167131
-0.129185
-0.087283
-0.052811
-0.011546
0.026079
0.063361
0.092483
0.081273
0.073790
0.046121
0.012785
-0.028608
-0.056628
-0.118902
-0.165260
-0.214858
-0.212199
-0.214114
-0.229484
-0.193472
-0.160801
-0.124151
-0.069972
-0.014081
0.012138
0.053151
0.062398
0.077581
0.057560
0.028563
-0.004599
-0.042831
-0.081147
-0.126509
-0.171010
-0.201846
-0.245938
-0.241279
-0.233343
-0.218626
-0.188448
-0.149593
-0.095730
-0.043531
0.002414
0.056573
0.077095
0.062814
0.065437
0.046023
0.008091
-0.033611
-0.074476
-0.122353
-0.188753
-0.248874
-0.250219
-0.260627
-0.239128
-0.190609
-0.163803
-0.125773
-0.074025
-0.029494
0.011768
0.045711
0.054975
0.051903
0.041671
0.033205
-0.003051
-0.055196
-0.104435
-0.141089
-0.178001
-0.216624
-0.243525
-0.249597
-0.234068
-0.216223
-0.178180
-0.137176
-0.088865
-0.045450
0.007265
0.049512
0.053360
0.068266
0.087632
0.063751
0.036804
0.000925
-0.034121
-0.066205
-0.099478
-0.128851
-0.128627
-0.110937
-0.090204
-0.054133
-0.004713
0.079339
0.135475
0.203085
0.268167
0.347743
0.397091
0.432020
0.478282
0.493398
0.496911
0.497911
0.487280
0.459662
0.446449
0.439465
0.478862
0.504811
0.550679
0.586279
0.622630
0.696730
0.773109
0.830959
0.880960
0.890841
0.888644
0.871392
0.829139
0.763130
0.665402
0.559203
0.434564
0.330279
0.259422
0.162580
0.076462
0.020195
-0.000872
-0.000486
0.013640
0.066157
0.112161
0.137753
0.162431
0.205377
0.207994
0.211428
0.208313
0.164822
0.094703
0.025523
-0.008939
-0.048387
-0.081576
-0.118846
-0.153228
-0.157863
-0.150490
-0.137034
-0.091051
-0.040493
-0.012510
0.031678
0.079695
0.125183
0.154886
0.157339
0.147383
0.099235
0.067017
0.021974
-0.041283
-0.099635
-0.138951
-0.199474
-0.225795
-0.231276
-0.198405
-0.185517
-0.146126
-0.112596
-0.077328
-0.010913
0.055379
0.096600
0.120181
0.109097
0.105557
0.078590
0.031890
0.005040
-0.032355
-0.085629
-0.114312
-0.151457
-0.184788
-0.198422
-0.188865
-0.139568
-0.105439
-0.082255
-0.027390
0.033145
0.067301
0.119791
0.141428
0.143332
0.119835
0.087763
0.058206
0.023508
-0.013108
-0.066608
-0.110583
-0.160730
-0.201306
-0.182057
-0.166528
-0.122243
-0.078357
-0.044199
-0.017228
0.049739
0.086555
0.117834
0.143758
0.148505
0.134918
0.105456
0.058833
0.006124
-0.015891
-0.045631
-0.078070
-0.128104
-0.140095
-0.148238
-0.131147
-0.115018
-0.072444
-0.043090
0.015606
0.058530
0.093975
0.130455
0.166499
0.189394
0.182354
0.147950
0.114779
0.086621
0.042466
-0.011690
-0.061768
-0.097644
-0.110643
-0.124117
-0.124449
-0.093618
-0.049549
0.006822
0.058067
0.103864
0.149862
0.180067
0.196434
0.190547
0.163496
0.143465
0.142843
0.106147
0.038550
-0.001662
-0.031008
-0.044740
-0.073218
-0.087981
-0.089640
-0.060738
-0.035077
0.002459
0.073799
0.133700
0.162600
0.182155
0.190167
0.197741
0.204546
0.195598
0.164848
0.125899
0.073445
0.030758
0.012777
-0.033610
-0.051648
-0.057859
-0.044692
-0.023352
0.005749
0.034815
0.071350
0.102308
0.123972
0.177599
0.208626
0.253058
0.236563
0.209454
0.175609
0.115850
0.046459
0.018134
-0.028697
-0.069649
-0.079509
-0.079865
-0.056289
-0.042714
-0.009614
0.021369
0.070604
0.115658
0.141680
0.180954
0.187611
0.179208
0.185950
0.167673
0.135753
0.087789
0.036324
0.007418
-0.045439
-0.093476
-0.126810
-0.155277
-0.121898
-0.095572
-0.063702
-0.033298
0.004698
0.055451
0.087341
0.138015
0.164151
0.162106
0.143970
0.127725
0.084366
0.038436
-0.013730
-0.064272
-0.093361
-0.122391
-0.154181
-0.169073
-0.163137
-0.158996
-0.110770
-0.075637
-0.037615
0.021343
0.054302
0.106668
0.125300
0.111946
0.090905
0.067423
0.037448
-0.013218
-0.019392
-0.066857
-0.121482
-0.163074
-0.192610
-0.228462
-0.203603
-0.180928
-0.165570
-0.123585
-0.061798
-0.007346
0.049452
0.080461
0.081834
0.096024
0.084848
0.050595
0.021788
-0.004138
-0.044789
-0.089746
-0.127388
-0.170487
-0.193424
-0.215786
-0.209376
-0.167978
-0.113997
-0.082696
-0.068756
-0.024686
0.017337
0.066118
0.093289
0.103146
0.091403
0.074667
0.037847
0.007652
-0.045118
-0.089084
-0.139568
-0.192089
-0.209023
-0.217654
-0.210132
-0.188079
-0.153614
-0.117425
-0.084233
-0.040567
0.000260
0.046766
0.082330
0.091575
0.079387
0.057815
0.031821
-0.010630
-0.047213
-0.092806
-0.154206
-0.197570
-0.190749
-0.179161
-0.183397
-0.161115
-0.135655
-0.088807
-0.031949
0.004031
0.026586
0.069553
0.108486
0.120870
0.103721
0.076202
0.045816
-0.008352
-0.053909
-0.092750
-0.139111
-0.196971
-0.198427
-0.194873
-0.174816
-0.163220
-0.130335
-0.071774
-0.038443
0.004318
0.040226
0.081239
0.106343
0.111210
0.093234
0.078698
0.036793
-0.010288
-0.055505
-0.105908
-0.145744
-0.172010
-0.195120
-0.199559
-0.209158
-0.159884
-0.111988
-0.063745
-0.019228
0.013257
0.051451
0.081383
0.106340
0.111284
0.095461
0.073492
0.045768
-0.006066
-0.059777
-0.115343
-0.156329
-0.178690
-0.188008
-0.195594
-0.195115
-0.168314
-0.130311
-0.093113
-0.042960
0.014260
0.043344
0.083241
0.121762
0.116893
0.090017
0.056898
0.023965
-0.034434
-0.085384
-0.122406
-0.141951
-0.162568
-0.186371
-0.208065
-0.216456
-0.188788
-0.139819
-0.093352
-0.037913
0.013362
0.050937
0.086146
0.103956
0.103583
0.090948
0.081342
0.035108
-0.017195
-0.061107
-0.112675
-0.154475
-0.200642
-0.217693
-0.229141
-0.217766
-0.179077
-0.130977
-0.085681
-0.035857
0.016889
0.037769
0.065294
0.082419
0.101996
0.085409
0.061904
0.031191
-0.010940
-0.049398
-0.113150
-0.150034
-0.188901
-0.199476
-0.210151
-0.201286
-0.185972
-0.155368
-0.105762
-0.056382
-0.028387
0.010211
0.060362
0.083959
0.079376
0.088892
0.068059
0.004874
-0.043210
-0.080058
-0.128245
-0.161567
-0.189484
-0.195927
-0.213471
-0.202873
-0.177375
-0.146505
-0.112008
-0.063210
0.007475
0.061675
0.086285
0.089397
0.075284
0.063585
0.053555
0.017675
-0.032616
-0.092227
-0.143034
-0.188290
-0.200101
-0.233855
-0.223615
-0.209318
-0.190508
-0.156176
-0.096111
-0.041962
0.001678
0.024752
0.059443
0.069771
0.068506
0.080289
0.042790
0.006877
-0.022403
-0.090047
-0.113493
-0.147328
-0.175877
-0.205468
-0.219775
-0.215201
-0.202034
-0.162960
-0.126896
-0.078857
-0.028456
0.015394
0.060031
0.080473
0.092177
0.100539
0.088227
0.047984
0.008415
-0.066521
-0.119892
-0.130439
-0.151314
-0.173732
-0.171447
-0.154932
-0.145102
-0.128308
-0.084809
-0.027899
0.018220
0.060540
0.095000
0.125763
0.120953
0.107131
0.107666
0.072195
0.021773
-0.044313
-0.107858
-0.152713
-0.184274
-0.184178
-0.177966
-0.170327
-0.164536
-0.138929
-0.087278
-0.016317
0.014502
0.064885
0.104068
0.136023
0.145119
0.121544
0.108441
0.092173
0.048850
-0.006298
-0.047425
-0.093351
-0.138290
-0.138903
-0.143402
-0.144703
-0.131693
-0.114486
-0.090002
-0.071812
-0.014584
0.034292
0.062036
0.086748
0.120902
0.118615
0.086946
0.051947
-0.002967
-0.034703
-0.083555
-0.131476
-0.164698
-0.202094
-0.213667
-0.197048
-0.169553
-0.144258
-0.104811
-0.047445
0.020265
0.046564
0.054650
0.070838
0.081739
0.055857
0.029598
-0.012449
-0.053489
-0.107084
-0.132903
-0.183941
-0.219431
-0.224615
-0.234270
-0.229452
-0.223498
-0.177220
-0.128828
-0.106728
-0.052990
-0.020321
0.024227
0.049969
0.073665
0.061792
0.039693
-0.000527
-0.040371
-0.088206
-0.117629
-0.164061
-0.202994
-0.222296
-0.250330
-0.246507
-0.209115
-0.158294
-0.118590
-0.086015
-0.041650
-0.004066
0.013813
0.024538
0.040976
0.053287
0.026944
-0.002497
-0.049965
-0.096027
-0.142048
-0.202819
-0.237985
-0.247802
-0.247615
-0.228338
-0.221987
-0.203782
-0.154420
-0.110762
-0.051347
0.013573
0.058598
0.063914
0.071423
0.061309
0.057108
0.018810
-0.023386
-0.101973
-0.136640
-0.169986
-0.181843
-0.209631
-0.259505
-0.249640
-0.224914
-0.204156
-0.147686
-0.102435
-0.063839
-0.019306
0.018607
0.043618
0.050492
0.038333
0.014433
-0.018110
-0.051674
-0.089904
-0.125616
-0.170692
-0.204936
-0.218929
-0.217980
-0.186950
-0.160505
-0.121513
-0.063678
0.007523
0.062593
0.113312
0.171306
0.225143
0.257481
0.273528
0.286129
0.291050
0.266292
0.255005
0.249456
0.243915
0.246649
0.249287
0.272250
0.309364
0.375324
0.469433
0.555319
0.637565
0.731430
0.802836
0.829034
0.858557
0.865763
0.869472
0.840716
0.791244
0.736471
0.692265
0.625189
0.544157
0.434601
0.350765
0.283980
0.232054
0.202184
0.173359
0.154550
0.159165
0.184702
0.194760
0.218002
0.242744
0.230745
0.207500
0.158201
0.136245
0.101325
0.042266
-0.012700
-0.058483
-0.091751
-0.118640
-0.137063
-0.129308
-0.106841
-0.077616
-0.035058
0.008384
0.057568
0.095291
0.128600
0.150909
0.144332
0.110904
0.093189
0.052907
0.010984
-0.040644
-0.080191
-0.125761
-0.150909
-0.173683
-0.191269
-0.189200
-0.190951
-0.156370
-0.105932
-0.043368
0.000661
0.048107
0.080795
0.110833
0.111210
0.092196
0.040577
-0.014861
-0.041313
-0.074597
-0.117084
-0.165606
-0.207187
-0.229368
-0.214703
-0.192363
-0.157371
-0.120901
-0.084144
-0.029500
0.018522
0.077128
0.098062
0.117964
0.143427
0.125804
0.088891
0.051426
-0.003129
-0.042318
-0.101131
-0.140418
-0.159307
-0.177715
-0.184990
-0.183714
-0.173760
-0.123868
-0.062910
-0.009071
0.046976
0.074542
0.079090
0.117205
0.131073
0.121610
0.094218
0.060484
0.019164
-0.026514
-0.070101
-0.115240
-0.141288
-0.156965
-0.157965
-0.152969
-0.135935
-0.090293
-0.043179
-0.001222
0.019976
0.069872
0.136277
0.155612
0.176150
0.170399
0.145574
0.083642
0.030947
-0.007057
-0.051411
-0.094489
-0.125124
-0.126494
-0.136811
-0.142782
-0.142463
-0.073529
-0.012208
0.031777
0.075364
0.130046
0.159177
0.185012
0.187208
0.186289
0.163226
0.148040
0.085236
0.013661
-0.023476
-0.046210
-0.091091
-0.107621
-0.099479
-0.092761
-0.067588
-0.032734
0.002472
0.071326
0.114461
0.159562
0.178598
0.200015
0.216732
0.202944
0.169894
0.143425
0.102299
0.066206
0.004151
-0.048223
-0.070277
-0.081766
-0.091275
-0.068769
-0.057292
-0.017781
0.035728
0.087376
0.127478
0.170519
0.196948
0.216852
0.212800
0.204181
0.181875
0.148181
0.093444
0.035212
-0.027532
-0.069577
-0.071027
-0.064785
-0.077191
-0.085859
-0.079754
-0.035558
0.023592
0.049462
0.103194
0.154462
0.166807
0.192907
0.224080
0.205665
0.179387
0.141628
0.088275
0.023839
-0.013008
-0.057582
-0.104826
-0.128376
-0.123236
-0.101672
-0.091532
-0.075528
-0.027962
0.016895
0.066073
0.103648
0.133450
0.145159
0.141155
0.136918
0.119574
0.095660
0.057115
0.003435
-0.043801
-0.103643
-0.138813
-0.143458
-0.154284
-0.152582
-0.136372
-0.114322
-0.078600
-0.021504
0.034752
0.068207
0.093471
0.109930
0.126372
0.102826
0.086248
0.043872
-0.002939
-0.033860
-0.083947
-0.146939
-0.189664
-0.216075
-0.195440
-0.171074
-0.174713
-0.157357
-0.133931
-0.073078
-0.025313
0.017558
0.069549
0.086810
0.093451
0.086142
0.071865
0.043764
0.002666
-0.045866
-0.101451
-0.138942
-0.189233
-0.231640
-0.221029
-0.208607
-0.186829
-0.161239
-0.117156
-0.087161
-0.050017
0.013137
0.043706
0.088437
0.084824
0.073747
0.056867
0.041494
0.015754
-0.036184
-0.086811
-0.133958
-0.170405
-0.190164
-0.220009
-0.216890
-0.193159
-0.156748
-0.099846
-0.049841
-0.010966
0.044470
0.092953
0.115761
0.129195
0.092285
0.063726
0.017602
-0.028350
-0.071655
-0.107540
-0.155949
-0.176436
-0.188318
-0.204402
-0.200459
-0.192243
-0.160321
-0.116868
-0.061695
-0.011523
0.048057
0.072707
0.086870
0.092876
0.088844
0.064758
0.041358
-0.014916
-0.080940
-0.115998
-0.142535
-0.176092
-0.218455
-0.209318
-0.199611
-0.185877
-0.148226
-0.095125
-0.068452
-0.021379
0.023047
0.059157
0.083770
0.128704
0.130883
0.112700
0.058314
-0.000390
-0.057466
-0.108863
-0.151869
-0.171892
-0.197883
-0.209374
-0.197027
-0.200278
-0.147813
-0.088614
-0.053379
0.005684
0.054902
0.072022
0.100791
0.127435
0.119168
0.083362
0.042449
-0.006272
-0.049964
-0.109936
-0.162732
-0.191933
-0.221346
-0.213797
-0.219159
-0.197201
-0.150484
-0.104782
-0.043819
-0.000742
0.060959
0.101476
0.114107
0.133746
0.119827
0.115200
0.067690
-0.000104
-0.042711
-0.102020
-0.148795
-0.159916
-0.190758
-0.201135
-0.189839
-0.162948
-0.119996
-0.074035
-0.040797
0.014384
0.051046
0.072344
0.077696
0.095646
0.092138
0.077808
0.036092
-0.014379
-0.073963
-0.106662
-0.151096
-0.181737
-0.198228
-0.200268
-0.187393
-0.156957
-0.145878
-0.108197
-0.063953
-0.010678
0.034415
0.057059
0.073438
0.085582
0.084711
0.058943
0.029030
-0.009871
-0.058879
-0.107346
-0.160267
-0.191233
-0.209141
-0.214947
-0.203990
-0.203320
-0.177884
-0.126222
-0.064773
-0.019014
0.021513
0.030206
0.044724
0.081499
0.084171
0.058664
0.022427
-0.032938
-0.065930
-0.111456
-0.159502
-0.185270
-0.212054
-0.253326
-0.217087
-0.191518
-0.165423
-0.105138
-0.063705
-0.004396
0.057210
0.078955
0.096597
0.092567
0.082421
0.039416
0.009218
-0.017247
-0.070412
-0.136514
-0.172536
-0.192453
-0.221177
-0.234045
-0.221898
-0.187669
-0.150591
-0.104928
-0.082085
-0.029944
0.019161
0.062978
0.082348
0.087574
0.073587
0.053649
0.026467
-0.017712
-0.064890
-0.139018
-0.186084
-0.187092
-0.197371
-0.219403
-0.185253
-0.180256
-0.158643
-0.104375
-0.051121
-0.012329
0.027134
0.062425
0.083002
0.086769
0.073885
0.054587
0.015652
-0.040834
-0.083937
-0.123878
-0.153528
-0.186714
-0.209229
-0.229677
-0.221310
-0.199666
-0.162320
-0.110226
-0.071896
-0.027848
0.023903
0.055983
0.081742
0.099805
0.096957
0.074255
0.041025
0.011000
-0.057759
-0.124891
-0.156483
-0.162677
-0.183131
-0.204691
-0.189878
-0.165022
-0.129376
-0.079921
-0.036152
0.023608
0.065269
0.080265
0.100335
0.107702
0.114453
0.082584
0.056098
-0.000051
-0.036691
-0.067430
-0.121541
-0.157135
-0.184564
-0.199147
-0.210410
-0.193983
-0.164582
-0.103732
-0.032250
0.017571
0.067853
0.106308
0.129045
0.142972
0.141606
0.131717
0.093140
0.032191
-0.024774
-0.080125
-0.137237
-0.151215
-0.160471
-0.147823
-0.132025
-0.119839
-0.093375
-0.064246
-0.019562
0.026872
0.084954
0.088721
0.098485
0.095732
0.084161
0.057616
0.027057
-0.008185
-0.066746
-0.121694
-0.162498
-0.196481
-0.218040
-0.242447
-0.229456
-0.191354
-0.136039
-0.080848
-0.036135
0.004094
0.034340
0.079816
0.090841
0.098532
0.090902
0.073540
0.033775
-0.020190
-0.085205
-0.123052
-0.154195
-0.195136
-0.231070
-0.242403
-0.236890
-0.206068
-0.158969
-0.117792
-0.099131
-0.054625
-0.005649
0.031867
0.050453
0.058314
0.050327
0.015672
-0.010084
-0.058407
-0.106424
-0.158211
-0.218127
-0.234934
-0.246248
-0.249818
-0.232033
-0.210149
-0.179352
-0.117268
-0.087359
-0.047096
-0.004630
0.045478
0.059752
0.067821
0.035050
0.018528
-0.017079
-0.048966
-0.083017
-0.137065
-0.176418
-0.221088
-0.243955
-0.250160
-0.227047
-0.207159
-0.207961
-0.145101
-0.084445
-0.058829
-0.035752
0.019300
0.039827
0.040690
0.059380
0.041149
-0.002428
-0.040890
-0.073238
-0.121060
-0.184484
-0.213435
-0.239626
-0.251534
-0.238632
-0.220159
-0.188627
-0.139015
-0.090242
-0.046629
-0.006431
0.025216
0.047944
0.055708
0.041830
0.021632
-0.028749
-0.065699
-0.100812
-0.140654
-0.182668
-0.198974
-0.200703
-0.197371
-0.197213
-0.186584
-0.140312
-0.058839
0.017661
0.078966
0.141100
0.181668
0.231170
0.291173
0.259404
0.253738
0.262318
0.248769
0.228911
0.207033
0.189089
0.185463
0.186607
0.230177
0.267955
0.333681
0.415785
0.502419
0.585909
0.645740
0.719221
0.818173
0.890346
0.906383
0.863760
0.802507
0.799160
0.738917
0.679523
0.602462
0.513077
0.460269
0.409227
0.345852
0.284647
0.232991
0.196870
0.171845
0.157893
0.161189
0.196382
0.226870
0.227834
0.240287
0.206906
0.171043
0.160795
0.127974
0.069166
0.011757
-0.044824
-0.099095
-0.125410
-0.137235
-0.125676
-0.122877
-0.087613
-0.049341
0.006126
0.027629
0.074631
0.124473
0.145243
0.138366
0.108882
0.078084
0.068472
0.026444
-0.038293
-0.102759
-0.151279
-0.162928
-0.180390
-0.219828
-0.209197
-0.168038
-0.115716
-0.066020
-0.030997
0.015342
0.057778
0.087491
0.105692
0.113890
0.107169
0.083060
0.052127
-0.001581
-0.048697
-0.084217
-0.130195
-0.149062
-0.170215
-0.192451
-0.195358
-0.164913
-0.133508
-0.089224
-0.042924
0.004496
0.051637
0.085866
0.104466
0.110071
0.098509
0.058358
0.056495
0.023514
-0.036635
-0.076622
-0.125565
-0.153802
-0.171731
-0.204870
-0.196658
-0.168115
-0.139355
-0.079149
-0.011525
0.029630
0.066864
0.104416
0.125213
0.129299
0.129395
0.110089
0.087443
0.039417
-0.020258
-0.075978
-0.105125
-0.134421
-0.162382
-0.180471
-0.180504
-0.136916
-0.083191
-0.031524
0.017730
0.035621
0.109068
0.155287
0.167325
0.165495
0.135721
0.121558
0.099996
0.048259
0.004429
-0.019938
-0.067900
-0.098314
-0.115028
-0.123593
-0.115541
-0.104682
-0.071652
-0.021325
0.016534
0.074401
0.132992
0.154568
0.178037
0.206775
0.191801
0.169137
0.127209
0.083477
0.050980
0.011684
-0.052530
-0.093331
-0.119876
-0.135447
-0.107325
-0.076874
-0.041560
0.005814
0.058575
0.108572
0.129973
0.154826
0.191287
0.213265
0.210250
0.182410
0.143512
0.095307
0.055656
0.019042
-0.022885
-0.056961
-0.086495
-0.071356
-0.063937
-0.043098
-0.010928
0.042967
0.078751
0.115646
0.166764
0.220442
0.241774
0.235710
0.222394
0.184858
0.154995
0.117423
0.077803
0.032637
-0.023163
-0.064552
-0.088707
-0.091698
-0.088650
-0.059489
-0.026925
0.014601
0.054645
0.108675
0.162016
0.191991
0.213532
0.220728
0.190819
0.150631
0.124219
0.096789
0.046756
-0.013313
-0.067406
-0.102380
-0.130345
-0.120380
-0.102256
-0.077955
-0.040645
-0.016153
0.022323
0.071812
0.118419
0.131720
0.146927
0.158734
0.156429
0.137131
0.087235
0.054767
-0.005721
-0.043626
-0.104378
-0.114367
-0.139205
-0.156821
-0.139136
-0.127495
-0.113295
-0.077962
-0.013887
0.032758
0.078148
0.101780
0.117924
0.112037
0.109486
0.090542
0.063473
0.019615
-0.038670
-0.091464
-0.126061
-0.143559
-0.171472
-0.182030
-0.183761
-0.196493
-0.167392
-0.108338
-0.059703
-0.007883
0.034300
0.062256
0.099086
0.113477
0.113036
0.092361
0.044217
0.007176
-0.041626
-0.079769
-0.148416
-0.171966
-0.193015
-0.202921
-0.195132
-0.167690
-0.138359
-0.092785
-0.054710
-0.001328
0.045614
0.066106
0.085663
0.107625
0.098684
0.078784
0.040292
-0.001301
-0.060635
-0.093565
-0.134344
-0.187041
-0.210597
-0.201448
-0.200240
-0.178239
-0.152888
-0.102625
-0.073389
-0.028470
0.048408
0.082359
0.101285
0.100024
0.091162
0.073865
0.047814
-0.010604
-0.064443
-0.104821
-0.144035
-0.169951
-0.184895
-0.201316
-0.184418
-0.163529
-0.141769
-0.107855
-0.080777
-0.022071
0.064202
0.117288
0.115107
0.107158
0.108558
0.072099
0.025259
-0.017609
-0.038773
-0.074408
-0.147180
-0.184945
-0.197393
-0.236128
-0.192707
-0.172970
-0.150484
-0.110262
-0.040618
0.003506
0.056921
0.083385
0.108409
0.124338
0.116776
0.090532
0.054632
0.014439
-0.062777
-0.127991
-0.137220
-0.152308
-0.184353
-0.191129
-0.184774
-0.156255
-0.140694
-0.107943
-0.062265
-0.019896
0.031521
0.092932
0.098099
0.073663
0.102103
0.099681
0.097471
0.034631
-0.032500
-0.079517
-0.135294
-0.180260
-0.215858
-0.199373
-0.181529
-0.166176
-0.150068
-0.087257
-0.029553
0.016693
0.056816
0.075135
0.074987
0.101839
0.116549
0.087538
0.039576
0.003159
-0.040395
-0.096813
-0.145967
-0.177608
-0.194500
-0.191301
-0.184615
-0.161015
-0.135680
-0.105313
-0.059741
-0.018158
0.040343
0.092185
0.125649
0.106863
0.094768
0.071781
0.042900
0.004720
-0.053147
-0.102019
-0.157375
-0.184686
-0.207899
-0.215461
-0.212558
-0.200926
-0.161666
-0.109596
-0.037179
0.007133
0.045029
0.064885
0.094444
0.103886
0.100954
0.082022
0.050385
-0.009518
-0.056628
-0.102675
-0.148734
-0.169303
-0.201423
-0.213313
-0.200814
-0.171537
-0.146010
-0.101586
-0.053810
-0.013580
0.033444
0.069816
0.085145
0.091201
0.066093
0.052475
0.037590
0.010907
-0.031693
-0.079473
-0.177518
-0.191600
-0.208492
-0.231727
-0.214058
-0.158254
-0.116379
-0.089903
-0.054539
0.006050
0.064275
0.076133
0.086214
0.088317
0.095088
0.058797
0.020773
-0.013882
-0.056758
-0.107558
-0.148698
-0.184830
-0.203649
-0.214259
-0.199598
-0.181472
-0.152913
-0.115109
-0.059120
-0.012958
0.017967
0.051889
0.067657
0.074931
0.079070
0.057268
0.019223
-0.033736
-0.070785
-0.120810
-0.158864
-0.188679
-0.215966
-0.224133
-0.203945
-0.178104
-0.150071
-0.130915
-0.065456
-0.013441
0.036362
0.053055
0.069432
0.089574
0.097653
0.065355
0.023502
-0.021832
-0.072796
-0.132929
-0.183002
-0.206921
-0.223612
-0.207892
-0.200638
-0.181906
-0.153407
-0.071900
-0.021158
-0.006980
0.043481
0.069393
0.096783
0.097278
0.069274
0.026483
0.008346
-0.016929
-0.045331
-0.090316
-0.142070
-0.175326
-0.190825
-0.205171
-0.200776
-0.173045
-0.145833
-0.097856
-0.051218
-0.006345
0.043177
0.061645
0.084444
0.123079
0.116483
0.084689
0.067132
0.030270
-0.036596
-0.087469
-0.121463
-0.139927
-0.166998
-0.168628
-0.159924
-0.144359
-0.117287
-0.080852
-0.039450
0.008886
0.064793
0.105627
0.125965
0.122336
0.116269
0.091202
0.052984
0.009263
-0.030830
-0.086271
-0.124895
-0.157332
-0.175877
-0.196080
-0.170551
-0.132560
-0.091915
-0.057132
-0.017547
0.038707
0.109056
0.146511
0.167542
0.165591
0.144704
0.118558
0.084754
0.032492
-0.005700
-0.069558
-0.125088
-0.163007
-0.199160
-0.180656
-0.175763
-0.178923
-0.159732
-0.074213
-0.039188
0.010757
0.067398
0.081725
0.095022
0.103150
0.063805
0.044902
0.033485
0.013756
-0.044555
-0.107238
-0.162918
-0.175617
-0.193193
-0.191748
-0.212632
-0.205363
-0.155705
-0.101211
-0.065438
-0.031283
0.006603
0.041611
0.063566
0.083067
0.078771
0.069560
0.039006
-0.006955
-0.088051
-0.135816
-0.182838
-0.213015
-0.225082
-0.222061
-0.220654
-0.208877
-0.177522
-0.133016
-0.086824
-0.032469
0.006223
0.036235
0.061719
0.054670
0.060677
0.039041
-0.003258
-0.057291
-0.106292
-0.153774
-0.183425
-0.207824
-0.223971
-0.233732
-0.212369
-0.179521
-0.154343
-0.109764
-0.059549
-0.015271
0.015660
0.024471
0.058465
0.065140
0.044861
0.016426
-0.017386
-0.056061
-0.094139
-0.121111
-0.175964
-0.210635
-0.233116
-0.241821
-0.229437
-0.208369
-0.186596
-0.127137
-0.076872
-0.018537
0.029470
0.035801
0.063990
0.072688
0.041143
0.014564
-0.003284
-0.040220
-0.090540
-0.150635
-0.201120
-0.215811
-0.226452
-0.233725
-0.224182
-0.188709
-0.153662
-0.107754
-0.057394
-0.023045
0.026075
0.056395
0.087744
0.102276
0.113676
0.112462
0.083619
0.040079
0.019802
-0.014032
-0.051738
-0.062516
-0.041398
-0.049236
-0.025095
0.038436
0.119597
0.183493
0.238332
0.296494
0.376767
0.429728
0.492295
0.531817
0.550953
0.563155
0.559070
0.544427
0.545333
0.543693
0.530884
0.532589
0.551840
0.531723
0.522668
0.548202
0.570406
0.592996
0.622799
0.633174
0.665309
0.657819
0.619407
0.555438
0.503905
0.439824
0.371610
0.282743
0.191032
0.090080
0.010019
-0.027958
-0.082688
-0.094230
-0.081299
-0.050321
-0.042423
0.005147
0.054420
0.082137
0.121131
0.145338
0.154409
0.151287
0.143345
0.131770
0.101881
0.056234
0.011086
-0.041459
-0.088088
-0.122103
-0.151436
-0.156439
-0.160840
-0.147483
-0.137389
-0.091021
-0.034537
0.021107
0.053959
0.094401
0.110869
0.111374
0.107884
0.092161
0.064476
0.005150
-0.040586
-0.076805
-0.144554
-0.182233
-0.183937
-0.179455
-0.199952
-0.188577
-0.145433
-0.088134
-0.041247
0.006577
0.043337
0.067885
0.097887
0.122837
0.105594
0.092475
0.052432
0.012458
-0.049124
-0.097256
-0.142541
-0.178493
-0.201560
-0.200591
-0.207513
-0.171145
-0.113266
-0.070562
-0.037390
0.026957
0.065491
0.077642
0.085149
0.119745
0.135996
0.124710
0.086729
0.049496
-0.006998
-0.069555
-0.116943
-0.152174
-0.166552
-0.168415
-0.144561
-0.129279
-0.101350
-0.060158
-0.023464
0.019448
0.078076
0.129190
0.159271
0.177394
0.177031
0.145517
0.105505
0.052594
-0.005027
-0.030925
-0.088646
-0.113865
-0.134462
-0.131733
-0.128913
-0.113338
-0.072652
-0.029090
0.029963
0.075502
0.108875
0.152951
0.188524
0.192707
0.196953
0.170620
0.135106
0.063748
0.032425
-0.015257
-0.046010
-0.094634
-0.106429
-0.112840
-0.105574
-0.084548
-0.052045
-0.005164
0.059005
0.104437
0.150998
0.189465
0.210526
0.216597
0.204419
0.181169
0.147118
0.109817
0.052510
0.010399
-0.026118
-0.067507
-0.092701
-0.100895
-0.070212
-0.034162
-0.009763
0.027085
0.086085
0.124477
0.165828
0.184608
0.211815
0.216482
0.224247
0.191983
0.134293
0.083369
0.066374
0.012216
-0.016892
-0.055911
-0.070182
-0.074846
-0.077381
-0.069375
-0.019714
0.029679
0.084797
0.123666
0.152874
0.172387
0.187530
0.188653
0.202761
0.179316
0.148694
0.098266
0.049534
0.019882
-0.060117
-0.097330
-0.085918
-0.086052
-0.076355
-0.056904
-0.046200
0.004888
0.053248
0.122860
0.161823
0.185081
0.197886
0.194235
0.184909
0.144959
0.116964
0.085721
0.048342
-0.006338
-0.064763
-0.094018
-0.118370
-0.103101
-0.084039
-0.076355
-0.045519
-0.013214
0.015353
0.058573
0.104594
0.155306
0.164566
0.141018
0.118677
0.099790
0.059580
0.026701
-0.015223
-0.059024
-0.106076
-0.125071
-0.151598
-0.151152
-0.157003
-0.131747
-0.114200
-0.075497
-0.035307
0.019241
0.056303
0.070925
0.090824
0.098098
0.095428
0.087375
0.064990
0.029905
-0.015050
-0.069777
-0.138150
-0.162105
-0.160427
-0.159965
-0.162735
-0.164215
-0.134832
-0.075242
-0.046387
-0.007777
0.038947
0.082884
0.090089
0.086882
0.077992
0.054481
0.048738
0.015863
-0.030831
-0.099496
-0.163945
-0.196169
-0.204548
-0.206586
-0.193794
-0.185499
-0.142883
-0.089913
-0.053135
-0.005516
0.028820
0.052745
0.077216
0.082154
0.103193
0.075832
0.044904
0.002335
-0.069218
-0.125617
-0.151242
-0.177115
-0.201327
-0.203717
-0.192811
-0.181672
-0.133683
-0.086312
-0.026531
-0.009363
0.005442
0.054725
0.086821
0.097153
0.097725
0.063550
0.029254
-0.010922
-0.046574
-0.079328
-0.108674
-0.156377
-0.177173
-0.187776
-0.182090
-0.164533
-0.131027
-0.098672
-0.044096
0.007432
0.061002
0.078782
0.088408
0.092673
0.096136
0.057266
0.047137
-0.005387
-0.063815
-0.102548
-0.149485
-0.178313
-0.180950
-0.174660
-0.165201
-0.177550
-0.164645
-0.122551
-0.066856
-0.009374
0.032257
0.062151
0.083742
0.090614
0.086161
0.072344
0.044951
0.005481
-0.026599
-0.059810
-0.108977
-0.149936
-0.168981
-0.179292
-0.176172
-0.146276
-0.115175
-0.081451
-0.031566
0.011718
0.044318
0.065075
0.110163
0.109173
0.077456
0.050349
0.028865
-0.000684
-0.048225
-0.097672
-0.162682
-0.179398
-0.205539
-0.213856
-0.194079
-0.155836
-0.130024
-0.105974
-0.055965
0.001448
0.057362
0.102318
0.102606
0.114600
0.106687
0.079956
0.059547
0.014099
-0.040606
-0.095636
-0.141213
-0.193583
-0.192725
-0.196952
-0.207443
-0.195140
-0.156069
-0.109620
-0.061750
-0.023314
0.021603
0.068063
0.087640
0.106115
0.072823
0.049976
0.027621
-0.019855
-0.068873
-0.113213
-0.160190
-0.205865
-0.227427
-0.218836
-0.221926
-0.209330
-0.166734
-0.121374
-0.092413
-0.022366
0.027466
0.063711
0.088447
0.089812
0.078946
0.060297
0.027170
-0.011948
-0.068887
-0.126807
-0.163625
-0.200711
-0.230125
-0.234398
-0.219473
-0.186250
-0.154442
-0.124775
-0.079562
-0.015747
0.029028
0.056660
0.073768
0.070761
0.057476
0.035647
0.026073
-0.016012
-0.052712
-0.106167
-0.156784
-0.196793
-0.220479
-0.223065
-0.221471
-0.204325
-0.157783
-0.116114
-0.074493
-0.022057
0.031688
0.058164
0.089557
0.071422
0.035825
0.031497
0.007391
-0.024017
-0.069192
-0.096152
-0.149292
-0.191326
-0.222210
-0.225753
-0.207112
-0.177619
-0.136385
-0.070468
-0.026383
0.014333
0.048325
0.098746
0.132252
0.131802
0.100746
0.080489
0.049749
0.018499
-0.033211
-0.101906
-0.153853
-0.177809
-0.187766
-0.194749
-0.182833
-0.149563
-0.108228
-0.074527
-0.011823
0.035580
0.061585
0.069634
0.085851
0.089380
0.093458
0.042326
0.001204
-0.007073
-0.049935
-0.094236
-0.126520
-0.154626
-0.192542
-0.207566
-0.186150
-0.125124
-0.081244
-0.039832
-0.004470
0.047683
0.085623
0.127083
0.150699
0.141420
0.117310
0.098548
0.063947
0.033073
-0.034476
-0.080855
-0.127448
-0.149259
-0.178366
-0.181967
-0.171481
-0.160030
-0.119553
-0.078830
-0.059628
-0.027012
0.042893
0.082314
0.105705
0.101394
0.090987
0.059530
0.016969
-0.031707
-0.081021
-0.127081
-0.153396
-0.190320
-0.210730
-0.213718
-0.211620
-0.191272
-0.177971
-0.137411
-0.074135
-0.025441
0.009223
0.053101
0.078791
0.092720
0.095334
0.056868
-0.010144
-0.060959
-0.085483
-0.131305
-0.175253
-0.220042
-0.240072
-0.241949
-0.241585
-0.219229
-0.186832
-0.143279
-0.087105
-0.023481
0.005136
0.025185
0.048875
0.054365
0.063026
0.028342
-0.012702
-0.057949
-0.106061
-0.152785
-0.194813
-0.230086
-0.242331
-0.245371
-0.237157
-0.212878
-0.183631
-0.148434
-0.105374
-0.036782
0.014119
0.029272
0.034680
0.045658
0.036726
0.006046
-0.023083
-0.054083
-0.113967
-0.167186
-0.186825
-0.206870
-0.224776
-0.229460
-0.220008
-0.185916
-0.170610
-0.139540
-0.099617
-0.047578
-0.019168
0.023519
0.049209
0.037874
0.025362
0.012156
-0.016795
-0.056138
-0.111276
-0.178955
-0.227090
-0.264964
-0.280344
-0.267379
-0.258400
-0.224843
-0.187493
-0.131725
-0.082094
-0.038506
0.012548
0.051844
0.092383
0.118557
0.147469
0.156833
0.118674
0.090364
0.056265
0.007187
-0.031754
-0.036830
-0.030898
-0.011385
0.014337
0.045601
0.096391
0.176382
0.242735
0.322770
0.398582
0.465659
0.530941
0.552427
0.539128
0.549735
0.563307
0.541668
0.532744
0.497701
0.513180
0.521311
0.520697
0.497609
0.491764
0.537633
0.557142
0.583393
0.623364
0.654586
0.650735
0.623567
0.573123
0.536129
0.476797
0.403356
0.325070
0.227935
0.141920
0.064092
-0.001670
-0.047790
-0.087299
-0.117760
-0.135297
-0.115241
-0.083957
-0.054679
-0.018308
0.037160
0.073359
0.094454
0.111210
0.145500
0.144369
0.123183
0.080593
0.029165
-0.019580
-0.074859
-0.133050
-0.156944
-0.175642
-0.178761
-0.175132
-0.149699
-0.126354
-0.074372
-0.028663
-0.001236
0.039991
0.080979
0.105613
0.100215
0.100672
0.074521
0.026214
-0.015281
-0.075567
-0.109727
-0.149593
-0.173216
-0.190551
-0.189494
-0.183268
-0.170394
-0.150125
-0.100363
-0.062776
-0.011067
0.036763
0.075831
0.095181
0.089043
0.088844
0.076953
0.033287
-0.014369
-0.043313
-0.104542
-0.145278
-0.191143
-0.223051
-0.227076
-0.208243
-0.199121
-0.139309
-0.086955
-0.040352
-0.013931
0.001430
0.040233
0.088418
0.088660
0.097327
0.074530
0.054216
0.011035
-0.042147
-0.088640
-0.113412
-0.135618
-0.163556
-0.165773
-0.152135
-0.132908
-0.096825
-0.046972
-0.001632
0.048274
0.091208
0.131539
0.140287
0.158026
0.149079
0.114443
0.089431
0.044559
-0.034054
-0.078085
-0.094572
-0.133212
-0.145425
-0.134219
-0.158268
-0.136305
-0.083152
-0.051062
-0.016255
0.059265
0.103485
0.121377
0.152339
0.157770
0.137011
0.148671
0.130218
0.080026
0.028061
-0.033685
-0.062546
-0.101589
-0.120390
-0.120434
-0.100824
-0.083035
-0.040648
-0.001792
0.049634
0.101596
0.124917
0.165122
0.205752
0.210082
0.198977
0.173624
0.132382
0.086137
0.029379
-0.006093
-0.035751
-0.068941
-0.100171
-0.103011
-0.092417
-0.064254
-0.027017
0.011302
0.044505
0.095445
0.149675
0.187710
0.214025
0.205391
0.182742
0.167834
0.125781
0.100976
0.051201
0.001014
-0.025510
-0.081128
-0.114759
-0.103340
-0.101986
-0.075353
-0.045955
-0.005226
0.042837
0.115369
0.150959
0.188017
0.205637
0.195985
0.161976
0.145455
0.114602
0.075497
0.028760
-0.000885
-0.048066
-0.075365
-0.113279
-0.139112
-0.145884
-0.107416
-0.040742
-0.012724
0.027624
0.086453
0.109124
0.141327
0.164098
0.166464
0.145724
0.119030
0.086818
0.045119
-0.006971
-0.055019
-0.093682
-0.127045
-0.149989
-0.153964
-0.159914
-0.131788
-0.088395
-0.054882
0.006873
0.049769
0.089800
0.120273
0.149177
0.145331
0.121898
0.101001
0.066622
0.023698
-0.014433
-0.091918
-0.123006
-0.138096
-0.183149
-0.182815
-0.163855
-0.156842
-0.111577
-0.069486
-0.028593
0.006406
0.039106
0.065590
0.092430
0.099118
0.068154
0.043175
0.006710
-0.040771
-0.093679
-0.134398
-0.169663
-0.203177
-0.213999
-0.226660
-0.210111
-0.185232
-0.148307
-0.110952
-0.060872
-0.007706
0.034455
0.063943
0.080021
0.080129
0.074813
0.051502
0.029346
-0.032273
-0.072728
-0.136752
-0.170111
-0.192352
-0.203461
-0.200938
-0.209733
-0.224058
-0.178980
-0.111122
-0.050123
-0.011167
0.024381
0.040069
0.074903
0.070526
0.066766
0.045534
0.006463
-0.033482
-0.084802
-0.137723
-0.167910
-0.190454
-0.232264
-0.231600
-0.213815
-0.196234
-0.147955
-0.107061
-0.074977
-0.025909
0.004862
0.052212
0.081726
0.090024
0.083207
0.047888
0.015928
-0.030750
-0.089615
-0.123410
-0.156890
-0.199965
-0.213476
-0.218526
-0.209948
-0.208085
-0.162589
-0.117116
-0.072964
-0.021270
0.019167
0.059511
0.087355
0.103663
0.066853
0.041602
0.017768
-0.023565
-0.063969
-0.130444
-0.158754
-0.187714
-0.223469
-0.201038
-0.193656
-0.157136
-0.126316
-0.088010
-0.052225
0.000258
0.045669
0.089009
0.120336
0.112779
0.077834
0.065836
0.031509
-0.041617
-0.085906
-0.097448
-0.119159
-0.188497
-0.239128
-0.201331
-0.176588
-0.174879
-0.150144
-0.107148
-0.059196
-0.001309
0.039727
0.078939
0.107228
0.113626
0.088754
0.076052
0.042512
0.005989
-0.035687
-0.092448
-0.161570
-0.196027
-0.210541
-0.228441
-0.206568
-0.181237
-0.149718
-0.118976
-0.078129
-0.019210
0.020758
0.059943
0.080536
0.093710
0.082195
0.051423
0.015179
-0.024632
-0.069667
-0.126519
-0.161923
-0.198569
-0.234094
-0.256084
-0.257512
-0.223547
-0.179103
-0.121709
-0.079385
-0.025459
0.035072
0.093909
0.120341
0.122794
0.095188
0.068289
0.032777
-0.008062
-0.057015
-0.111090
-0.156033
-0.202094
-0.223934
-0.224420
-0.212754
-0.188376
-0.147388
-0.120298
-0.094242
-0.049785
0.017200
0.081030
0.086033
0.068238
0.044933
0.044485
0.021850
-0.021446
-0.086358
-0.150773
-0.179188
-0.223122
-0.253299
-0.246348
-0.216831
-0.197518
-0.157306
-0.111897
-0.058529
-0.006034
0.033612
0.069774
0.085926
0.055262
0.063234
0.048717
0.019051
-0.033815
-0.079258
-0.132790
-0.157390
-0.188154
-0.201394
-0.209301
-0.195368
-0.173450
-0.134567
-0.094028
-0.043688
0.016891
0.042175
0.060729
0.093683
0.107339
0.102642
0.078739
0.039268
0.008470
-0.042668
-0.109524
-0.149585
-0.162972
-0.184277
-0.200041
-0.191586
-0.187490
-0.170238
-0.109867
-0.042079
0.014911
0.049196
0.085877
0.105604
0.113121
0.110796
0.105140
0.072893
0.036665
-0.003046
-0.080640
-0.130807
-0.156825
-0.156808
-0.168457
-0.167614
-0.148230
-0.101234
-0.047650
0.003809
0.051203
0.088660
0.104991
0.123542
0.118826
0.112484
0.095038
0.067973
0.024045
-0.017097
-0.082227
-0.133289
-0.170164
-0.188020
-0.194894
-0.212991
-0.179746
-0.136389
-0.084924
-0.036963
0.000345
0.024718
0.053365
0.074200
0.067454
0.074409
0.073077
0.017950
-0.034285
-0.082285
-0.148785
-0.196256
-0.215150
-0.251484
-0.249395
-0.251584
-0.218875
-0.182550
-0.129301
-0.100687
-0.037567
0.002849
0.007131
0.031550
0.040721
0.027499
0.038830
0.005506
-0.049728
-0.114578
-0.170597
-0.216990
-0.243779
-0.276132
-0.237198
-0.211986
-0.211218
-0.164215
-0.129228
-0.092933
-0.034210
-0.025647
0.020866
0.039745
0.027035
0.024568
0.007953
-0.023413
-0.056446
-0.107813
-0.174293
-0.214187
-0.252688
-0.265272
-0.258319
-0.239142
-0.200238
-0.169783
-0.132429
-0.096679
-0.071608
-0.024674
0.013676
0.045800
0.050352
0.049347
0.018819
-0.025570
-0.094824
-0.134006
-0.184595
-0.193187
-0.229446
-0.249321
-0.256758
-0.239971
-0.215993
-0.159767
-0.124646
-0.106321
-0.060919
-0.008391
0.022844
0.043151
0.019374
0.022044
0.004709
-0.014452
-0.069095
-0.125873
-0.153456
-0.196710
-0.231721
-0.240729
-0.242205
-0.225677
-0.192932
-0.139946
-0.079248
-0.017850
0.034530
0.104135
0.138283
0.174268
0.193213
0.185997
0.174133
0.179600
0.168332
0.160908
0.124024
0.106819
0.084863
0.096914
0.116463
0.155586
0.218570
0.295157
0.361183
0.403031
0.481355
0.563736
0.647082
0.718735
0.745279
0.783851
0.785978
0.776861
0.736072
0.692074
0.657207
0.607285
0.542770
0.496595
0.444863
0.419564
0.402956
0.370177
0.345857
0.327173
0.331496
0.335319
0.299199
0.274480
0.222211
0.187741
0.169170
0.124498
0.063733
-0.007884
-0.079216
-0.092306
-0.151301
-0.184707
-0.169764
-0.121588
-0.108892
-0.090782
-0.057073
-0.012895
0.016223
0.053357
0.073639
0.102448
0.136707
0.146336
0.095109
0.054964
0.018925
-0.031674
-0.094097
-0.139204
-0.182719
-0.208844
-0.206530
-0.206599
-0.182963
-0.157055
-0.127760
-0.093068
-0.036349
0.017826
0.052945
0.083369
0.100516
0.111356
0.062911
0.026168
-0.023298
-0.084329
-0.122277
-0.140958
-0.188623
-0.204162
-0.197469
-0.179076
-0.174310
-0.163936
-0.140440
-0.052690
0.004716
0.024855
0.054992
0.079271
0.083605
0.083414
0.049157
0.009255
-0.046504
-0.054279
-0.097309
-0.159666
-0.195391
-0.205488
-0.184370
-0.171966
-0.176060
-0.165146
-0.104652
-0.053389
-0.003659
0.030761
0.083205
0.103013
0.121797
0.121604
0.104967
0.052407
-0.002680
-0.026277
-0.072870
-0.154721
-0.150410
-0.175234
-0.162140
-0.167276
-0.167279
-0.139880
-0.063050
-0.029709
0.037479
0.084833
0.104246
0.132833
0.137932
0.128577
0.089393
0.068874
0.048699
0.010327
-0.055093
-0.101015
-0.137822
-0.152446
-0.160627
-0.162068
-0.130712
-0.085376
-0.037862
0.015604
0.060699
0.103728
0.148776
0.168765
0.178522
0.159457
0.145729
0.115207
0.067215
0.016048
-0.032948
-0.065995
-0.104760
-0.134367
-0.130851
-0.110570
-0.070899
-0.041114
0.014934
0.033751
0.086132
0.126576
0.159457
0.178828
0.205094
0.187919
0.159620
0.118157
0.073443
0.028381
-0.020398
-0.060488
-0.094627
-0.095281
-0.104568
-0.100377
-0.083008
-0.049799
-0.006300
0.056982
0.103614
0.136641
0.141141
0.185795
0.191054
0.177734
0.174201
0.139671
0.095207
0.023979
-0.033789
-0.073288
-0.083081
-0.101614
-0.092552
-0.082895
-0.089434
-0.060512
-0.014249
0.038992
0.093137
0.128920
0.138904
0.193812
0.206303
0.192441
0.162004
0.124270
0.077575
0.043658
-0.012488
-0.047670
-0.094340
-0.142934
-0.161677
-0.145482
-0.129764
-0.096128
-0.047982
-0.001127
0.074593
0.091255
0.108084
0.136530
0.148783
0.141029
0.111064
0.076696
0.030599
-0.039826
-0.081856
-0.119287
-0.150425
-0.151721
-0.158814
-0.157531
-0.135930
-0.104213
-0.060104
-0.026714
0.040473
0.076394
0.095502
0.107316
0.129003
0.111153
0.101417
0.069258
0.014393
-0.046002
-0.113085
-0.145851
-0.178845
-0.214853
-0.232632
-0.219927
-0.196726
-0.161483
-0.111542
-0.062794
0.005281
0.033940
0.073971
0.085612
0.081359
0.068615
0.055757
0.012145
-0.039135
-0.096040
-0.135124
-0.149272
-0.172306
-0.220126
-0.231772
-0.235267
-0.185694
-0.144908
-0.105992
-0.060255
-0.022419
0.006158
0.035982
0.074388
0.096245
0.076973
0.046889
0.014581
-0.028592
-0.086203
-0.134412
-0.171124
-0.203805
-0.221736
-0.222061
-0.214602
-0.187089
-0.161173
-0.122051
-0.078098
-0.016518
0.017095
0.053131
0.078050
0.073231
0.084126
0.062283
0.010035
-0.035899
-0.076042
-0.134967
-0.188274
-0.195909
-0.227354
-0.228614
-0.191602
-0.180148
-0.132461
-0.116150
-0.061828
-0.005439
0.008066
0.057994
0.077271
0.099647
0.088754
0.058693
0.006227
-0.040888
-0.074773
-0.109050
-0.143711
-0.183482
-0.209802
-0.221601
-0.188646
-0.156931
-0.131473
-0.100532
-0.049118
0.002204
0.040166
0.078687
0.086697
0.091871
0.085003
0.061522
0.035496
-0.037480
-0.106151
-0.130134
-0.164918
-0.176650
-0.188389
-0.187256
-0.197485
-0.180005
-0.147085
-0.089557
-0.043674
0.020922
0.059130
0.069265
0.091784
0.094140
0.079655
0.048240
0.014249
-0.017228
-0.061596
-0.121444
-0.167903
-0.191522
-0.212842
-0.207121
-0.191323
-0.165143
-0.137496
-0.093073
-0.028313
0.010504
0.041195
0.082895
0.076217
0.080191
0.092548
0.076425
0.037890
0.017810
-0.047728
-0.124884
-0.158742
-0.182930
-0.203753
-0.204807
-0.208355
-0.190621
-0.152697
-0.108922
-0.086862
-0.025736
0.017406
0.069069
0.078202
0.067991
0.057352
0.041682
0.023203
-0.013668
-0.062975
-0.115592
-0.151073
-0.181703
-0.202783
-0.218393
-0.210762
-0.195454
-0.156468
-0.113387
-0.071862
-0.027067
0.025881
0.079103
0.074197
0.084559
0.070907
0.046777
-0.014203
-0.045161
-0.049855
-0.111965
-0.158882
-0.193916
-0.211315
-0.188926
-0.176273
-0.168625
-0.157720
-0.122446
-0.059565
-0.023661
0.003178
0.039938
0.063617
0.079676
0.064773
0.049569
0.011513
-0.022527
-0.056050
-0.105861
-0.144079
-0.179789
-0.196990
-0.206003
-0.211257
-0.203720
-0.164958
-0.123446
-0.080755
-0.014434
0.018664
0.069946
0.096343
0.098568
0.095709
0.091257
0.050762
-0.003152
-0.035890
-0.094738
-0.136437
-0.172964
-0.192017
-0.202815
-0.179910
-0.169361
-0.140584
-0.083664
-0.028068
0.012209
0.045172
0.071742
0.089431
0.101020
0.107883
0.082311
0.039792
-0.006538
-0.061447
-0.117602
-0.154125
-0.180145
-0.192477
-0.181495
-0.177079
-0.131013
-0.088466
-0.050747
-0.012430
0.045703
0.084616
0.119544
0.137296
0.139498
0.125583
0.115499
0.082487
0.034693
-0.007269
-0.057365
-0.113912
-0.144535
-0.153748
-0.158578
-0.173022
-0.162669
-0.125801
-0.071286
-0.024240
0.017989
0.064714
0.076956
0.096699
0.102162
0.090942
0.063937
0.011115
-0.022136
-0.062881
-0.120857
-0.161081
-0.194082
-0.220330
-0.225395
-0.217288
-0.203082
-0.170833
-0.124603
-0.079575
-0.030539
-0.006658
0.023078
0.053162
0.064326
0.068222
0.060571
0.006329
-0.052806
-0.092329
-0.142797
-0.191949
-0.250972
-0.252853
-0.253199
-0.248502
-0.232628
-0.195818
-0.155977
-0.091934
-0.052227
-0.019725
0.018520
0.047823
0.056553
0.043682
0.048216
-0.009653
-0.071175
-0.115241
-0.163402
-0.180148
-0.219783
-0.233544
-0.209977
-0.250119
-0.233023
-0.198017
-0.125552
-0.085438
-0.018785
0.004043
0.028821
0.050574
0.062868
0.057010
0.036388
-0.000210
-0.060632
-0.121872
-0.164863
-0.196192
-0.231880
-0.255320
-0.275754
-0.257715
-0.233845
-0.199661
-0.130170
-0.083572
-0.035985
0.008141
0.035683
0.048431
0.054481
0.041363
0.027949
0.002992
-0.040809
-0.080297
-0.136397
-0.206335
-0.261944
-0.266833
-0.269975
-0.265847
-0.246343
-0.193089
-0.154677
-0.103161
-0.054249
-0.002319
0.049360
0.079343
0.096040
0.098021
0.090201
0.068318
0.041157
0.002389
-0.032960
-0.051437
-0.071969
-0.098259
-0.088036
-0.038415
-0.005358
0.048391
0.116725
0.183051
0.265698
0.343602
0.403433
0.465872
0.502713
0.533386
0.541707
0.515676
0.516204
0.500738
0.477266
0.471583
0.480109
0.509207
0.526935
0.564149
0.600005
0.618184
0.644722
0.709545
0.738757
0.738448
0.758285
0.780671
0.740755
0.643628
0.553937
0.449065
0.347572
0.253339
0.144823
0.045682
-0.031099
-0.081755
-0.092970
-0.100511
-0.078983
-0.039816
-0.015082
0.029720
0.069880
0.108467
0.137808
0.150292
0.145696
0.147291
0.117307
0.069267
0.017166
0.010253
-0.042497
-0.094684
-0.133703
-0.160060
-0.169542
-0.169573
-0.151524
-0.110536
-0.068464
-0.018893
0.029499
0.068981
0.100131
0.125623
0.129691
0.098478
0.068075
0.036294
-0.016290
-0.072122
-0.118974
-0.153208
-0.179697
-0.214444
-0.229755
-0.203190
-0.186380
-0.143643
-0.114515
-0.070315
-0.008598
0.049570
0.075430
0.082613
0.073045
0.071856
0.082614
0.059119
0.021361
-0.038754
-0.084877
-0.132032
-0.179083
-0.191555
-0.185898
-0.174868
-0.156373
-0.127000
-0.094968
-0.038642
-0.018544
0.042927
0.065792
0.087139
0.112343
0.124511
0.125020
0.067907
0.019745
-0.031866
-0.076661
-0.130773
-0.160821
-0.180717
-0.186182
-0.172414
-0.146140
-0.112044
-0.064599
-0.014763
0.038938
0.083547
0.100672
0.124799
0.124816
0.107901
0.082348
0.056207
0.022444
-0.033757
-0.081188
-0.103689
-0.136725
-0.158768
-0.155631
-0.144017
-0.118274
-0.085442
-0.033101
0.001522
0.038950
0.087823
0.138601
0.158780
0.188894
0.177031
0.140461
0.081840
0.045670
0.001409
-0.036486
-0.072680
-0.107468
-0.116332
-0.103374
-0.108670
-0.092896
-0.045932
-0.006369
0.043971
0.106226
0.138262
0.168994
0.179428
0.201409
0.185551
0.168688
0.126364
0.085270
0.045406
0.008446
-0.034095
-0.065586
-0.075318
-0.095012
-0.087568
-0.075309
-0.050919
0.002013
0.086194
0.133565
0.151254
0.178671
0.183073
0.205336
0.208122
0.187160
0.167653
0.100158
0.066469
0.011788
-0.031832
-0.068252
-0.077669
-0.073744
-0.079391
-0.064767
-0.027550
0.005084
0.053657
0.103615
0.173983
0.203917
0.196634
0.191204
0.195470
0.166418
0.113784
0.067318
0.045471
0.012190
-0.046917
-0.086804
-0.102827
-0.104563
-0.103263
-0.085553
-0.061450
-0.020631
0.035854
0.092060
0.122371
0.155425
0.170946
0.165843
0.158949
0.139920
0.090627
0.037463
-0.002380
-0.046501
-0.078293
-0.113681
-0.137904
-0.149895
-0.132866
-0.117892
-0.106527
-0.069845
-0.034896
0.024214
0.067687
0.103927
0.114805
0.101635
0.108219
0.093775
0.066541
0.015475
-0.040345
-0.086149
-0.127166
-0.168436
-0.189825
-0.191213
-0.177979
-0.136259
-0.109243
-0.089968
-0.050695
0.004077
0.037434
0.068215
0.094095
0.109597
0.100559
0.075887
0.055728
0.007842
-0.014230
-0.069289
-0.109088
-0.151411
-0.199415
-0.217408
-0.180875
-0.150198
-0.131142
-0.102236
-0.068398
-0.007564
0.046457
0.065522
0.091017
0.095997
0.067070
0.043846
0.010683
-0.026486
-0.062267
-0.119171
-0.159891
-0.183779
-0.191050
-0.199793
-0.194888
-0.180262
-0.147701
-0.103996
-0.063076
-0.019610
0.026726
0.072661
0.093146
0.087773
0.069292
0.060001
0.033412
-0.013562
-0.066478
-0.115815
-0.138859
-0.169384
-0.200789
-0.209228
-0.178276
-0.175877
-0.142311
-0.101457
-0.049968
0.003197
0.033883
0.070167
0.087345
0.089650
0.087549
0.076375
0.033266
0.000928
-0.042882
-0.102813
-0.144683
-0.171614
-0.201763
-0.229959
-0.219360
-0.173463
-0.138964
-0.094598
-0.055685
-0.001169
0.046291
0.034814
0.086556
0.109525
0.099223
0.079917
0.036407
-0.005361
-0.068592
-0.105684
-0.166827
-0.189964
-0.189144
-0.183485
-0.184217
-0.174230
-0.145450
-0.099896
-0.057096
0.023659
0.078517
0.093499
0.110989
0.116040
0.109611
0.085657
0.054024
-0.009585
-0.064183
-0.098977
-0.131721
-0.173448
-0.190168
-0.194313
-0.183463
-0.154254
-0.116686
-0.075209
-0.037220
0.008316
0.038464
0.076127
0.101065
0.111810
0.088720
0.078616
0.058280
0.012186
-0.051811
-0.106388
-0.131306
-0.177587
-0.169860
-0.177301
-0.180022
-0.171292
-0.131720
-0.079362
-0.032120
0.016004
0.046363
0.093819
0.105416
0.106978
0.096121
0.071603
0.051446
0.006223
-0.049786
-0.108998
-0.154884
-0.193597
-0.214570
-0.228106
-0.208560
-0.175394
-0.141812
-0.104929
-0.059267
-0.013655
0.034326
0.065454
0.085520
0.122705
0.121597
0.084080
0.034100
-0.021475
-0.050640
-0.099871
-0.139640
-0.179402
-0.208349
-0.210757
-0.203946
-0.182449
-0.169737
-0.135932
-0.078446
-0.009708
0.046788
0.062016
0.052502
0.051400
0.060078
0.056165
0.013047
-0.023835
-0.070909
-0.137903
-0.178661
-0.201281
-0.212155
-0.236625
-0.223986
-0.197828
-0.157444
-0.095189
-0.052849
-0.023275
0.046595
0.092530
0.108675
0.116970
0.090736
0.063484
0.022883
-0.025104
-0.079517
-0.121612
-0.161007
-0.199158
-0.220618
-0.213935
-0.207444
-0.186058
-0.140130
-0.090090
-0.052733
0.001655
0.027835
0.050559
0.070696
0.084505
0.072566
0.067016
0.048816
0.003895
-0.059057
-0.132762
-0.157106
-0.188382
-0.203544
-0.216923
-0.235278
-0.183730
-0.152075
-0.115599
-0.062098
-0.028635
0.037088
0.093197
0.109887
0.094265
0.086240
0.076191
0.024442
-0.041487
-0.095855
-0.080340
-0.123934
-0.171397
-0.179788
-0.178521
-0.172001
-0.146025
-0.115569
-0.054795
-0.010228
0.035087
0.067089
0.110355
0.107113
0.114260
0.109577
0.103789
0.074014
0.008208
-0.045516
-0.083732
-0.126784
-0.171945
-0.193704
-0.188841
-0.174305
-0.147113
-0.107083
-0.075859
-0.019519
0.022105
0.053664
0.091762
0.104160
0.118554
0.090052
0.093027
0.060725
0.002106
-0.042767
-0.070847
-0.108167
-0.147503
-0.160033
-0.174831
-0.161759
-0.129425
-0.086146
-0.048833
0.002498
0.038406
0.082352
0.105558
0.104733
0.102702
0.083137
0.079588
0.041174
-0.019316
-0.074930
-0.107725
-0.147354
-0.153260
-0.169465
-0.183444
-0.208158
-0.168691
-0.138078
-0.092479
-0.058489
-0.012696
0.034166
0.073690
0.076280
0.077200
0.053569
0.025428
0.013836
-0.009249
-0.036752
-0.105563
-0.172037
-0.203374
-0.204839
-0.217812
-0.221326
-0.198064
-0.159584
-0.116094
-0.058690
-0.008832
-0.000173
0.029260
0.045069
0.045951
0.046668
0.014123
-0.010709
-0.028922
-0.078933
-0.138352
-0.188823
-0.210003
-0.222770
-0.233198
-0.247714
-0.222459
-0.185993
-0.149201
-0.095070
-0.042107
0.002915
0.048997
0.057308
0.055387
0.034411
0.011527
0.011873
-0.021168
-0.086758
-0.131199
-0.158896
-0.204308
-0.246290
-0.246962
-0.233338
-0.198726
-0.154333
-0.145042
-0.104718
-0.070580
-0.041448
0.027340
0.055927
0.059294
0.047544
0.037072
-0.009660
-0.067847
-0.100319
-0.149609
-0.223342
-0.273470
-0.265134
-0.264343
-0.239911
-0.201577
-0.175352
-0.146983
-0.114458
-0.055232
-0.033314
0.014147
0.054407
0.053883
0.066215
0.034820
-0.001075
-0.051075
-0.084245
-0.118758
-0.154401
-0.166534
-0.167628
-0.165606
-0.151196
-0.120445
-0.084029
-0.022004
0.041411
0.097895
0.153886
0.195723
0.216958
0.245683
0.260128
0.273874
0.260888
0.267221
0.245535
0.241915
0.246077
0.225722
0.235785
0.270826
0.314324
0.366234
0.433667
0.528715
0.614026
0.703411
0.754889
0.803037
0.856731
0.890153
0.882743
0.865638
0.827741
0.768535
0.681722
0.625600
0.549907
0.470953
0.377685
0.330187
0.265456
0.208363
0.194529
0.178086
0.195009
0.213684
0.234075
0.206961
0.194105
0.232696
0.260250
0.210621
0.177234
0.147121
0.070438
0.002653
-0.053400
-0.097907
-0.114926
-0.130823
-0.121027
-0.111500
-0.076434
-0.044011
0.000010
0.044573
0.070472
0.101201
0.128219
0.134606
0.129265
0.101539
0.059778
0.031064
-0.020537
-0.083835
-0.131452
-0.148432
-0.178594
-0.199104
-0.183417
-0.163965
-0.150351
-0.136443
-0.053419
0.010396
0.065620
0.095592
0.098714
0.088969
0.105770
0.081907
0.038811
-0.007028
-0.050412
-0.107885
-0.160835
-0.203667
-0.204349
-0.182099
-0.154890
-0.153807
-0.115659
-0.073498
-0.001392
0.057477
0.091279
0.082304
0.108679
0.117288
0.096066
0.049404
0.051653
0.011238
-0.031637
-0.080926
-0.118359
-0.142174
-0.169301
-0.175785
-0.180779
-0.163162
-0.125481
-0.069102
-0.028919
0.017407
0.059430
0.102956
0.110281
0.113869
0.095816
0.091096
0.073426
0.025932
-0.028566
-0.052565
-0.080495
-0.149098
-0.165895
-0.172263
-0.143540
-0.158648
-0.134944
-0.075150
-0.018077
0.048686
0.113017
0.137093
0.142827
0.156525
0.149574
0.142374
0.117337
0.081264
0.013679
-0.018505
-0.055743
-0.096270
-0.131739
-0.146267
-0.132613
-0.103102
-0.062463
-0.016295
0.036084
0.087481
0.144756
0.175414
0.201339
0.201219
0.184425
0.171986
0.149117
0.103761
0.045605
0.006078
-0.024009
-0.086386
-0.100123
-0.097860
-0.074648
-0.070479
-0.037560
0.002582
0.082963
0.110742
0.145405
0.184854
0.194608
0.206272
0.206487
0.208239
0.168730
0.122814
0.074288
0.016793
-0.017144
-0.048188
-0.072416
-0.099718
-0.086271
-0.057352
0.004585
0.055646
0.093101
0.123673
0.168040
0.203249
0.226454
0.236646
0.231737
0.204449
0.165281
0.119575
0.071458
0.027977
-0.016571
-0.050622
-0.073884
-0.097630
-0.086251
-0.069237
-0.018537
0.020261
0.040313
0.095718
0.145046
0.148480
0.182748
0.206188
0.215997
0.198784
0.139496
0.084577
0.042138
-0.002805
-0.045443
-0.082474
-0.103273
-0.131066
-0.141269
-0.099724
-0.055314
-0.010500
0.036733
0.081811
0.124297
0.164976
0.167242
0.160609
0.125091
0.115347
0.086353
0.049698
0.012426
-0.028377
-0.099475
-0.175957
-0.176064
-0.170240
-0.153269
-0.141566
-0.128870
-0.095636
-0.043941
0.030079
0.077657
0.115238
0.147922
0.141465
0.145200
0.106304
0.075083
0.049272
-0.008812
-0.071537
-0.115178
-0.165313
-0.179508
-0.165541
-0.152764
-0.132579
-0.111871
-0.067787
-0.005497
0.032016
0.071907
0.080325
0.068884
0.104970
0.108245
0.099550
0.057000
-0.022214
-0.053076
-0.086833
-0.127708
-0.164562
-0.209572
-0.217095
-0.152787
-0.161025
-0.137288
-0.088205
-0.030235
0.005990
0.045704
0.073078
0.060956
0.049778
0.094960
0.075733
0.062310
0.013432
-0.043948
-0.089517
-0.141546
-0.201164
-0.203682
-0.198644
-0.198856
-0.163537
-0.118631
-0.084736
-0.034078
-0.003704
0.052520
0.087371
0.117325
0.102767
0.106695
0.085724
0.053304
-0.000907
-0.046307
-0.093241
-0.141867
-0.200363
-0.211442
-0.193879
-0.172360
-0.147976
-0.125785
-0.093756
-0.049350
-0.001145
0.055469
0.084028
0.094711
0.090195
0.092025
0.066081
0.020160
-0.020770
-0.102474
-0.102092
-0.110805
-0.145886
-0.158337
-0.159138
-0.148183
-0.141193
-0.118439
-0.099103
-0.046335
0.037367
0.088881
0.099143
0.113992
0.134728
0.131680
0.104774
0.070609
0.031850
-0.018515
-0.072366
-0.125464
-0.159572
-0.162929
-0.164970
-0.150383
-0.131615
-0.100585
-0.061178
-0.011350
0.023793
0.019338
0.093330
0.125845
0.127807
0.113897
0.076809
0.032616
-0.010743
-0.059064
-0.080457
-0.086010
-0.129928
-0.168001
-0.177400
-0.198337
-0.161899
-0.105432
-0.080962
-0.024172
0.024590
0.077768
0.123867
0.129724
0.095687
0.086758
0.071001
0.019289
-0.031744
-0.051991
-0.059482
-0.096350
-0.140369
-0.166831
-0.164765
-0.138415
-0.128274
-0.105954
-0.088133
-0.031619
0.017735
0.049995
0.068012
0.087813
0.114043
0.074836
0.068605
0.043909
0.001958
-0.063156
-0.104259
-0.124952
-0.158352
-0.195988
-0.214068
-0.203378
-0.154093
-0.111408
-0.086655
-0.073284
0.007721
0.025044
0.063762
0.071445
0.069090
0.085581
0.070460
0.056954
0.031285
-0.014976
-0.100143
-0.144165
-0.181807
-0.198303
-0.185184
-0.178767
-0.174853
-0.158667
-0.111397
-0.044185
0.037313
0.063875
0.094693
0.125851
0.145200
0.123777
0.076251
0.028974
-0.005625
-0.045665
-0.093369
-0.137809
-0.159180
-0.161011
-0.178706
-0.183961
-0.157017
-0.133362
-0.087650
-0.033779
0.018236
0.057676
0.091157
0.099091
0.105608
0.089839
0.063013
0.050014
0.006861
-0.058223
-0.112077
-0.155864
-0.192121
-0.199788
-0.203217
-0.228547
-0.179991
-0.111691
-0.088775
-0.011138
0.021852
0.049890
0.096184
0.087263
0.105104
0.100019
0.083414
0.071320
0.017910
-0.063648
-0.121499
-0.174592
-0.211520
-0.228060
-0.190106
-0.157985
-0.160964
-0.148682
-0.088096
-0.039791
0.001906
0.053067
0.065361
0.067074
0.080584
0.099629
0.078026
0.031276
-0.027253
-0.036120
-0.101075
-0.147417
-0.186189
-0.211219
-0.212156
-0.195204
-0.171757
-0.140633
-0.097517
-0.043318
-0.007146
0.043758
0.063355
0.089964
0.113762
0.099493
0.079887
0.057906
0.007745
-0.049061
-0.096807
-0.188060
-0.196813
-0.191240
-0.203817
-0.190775
-0.167797
-0.149108
-0.109624
-0.057597
-0.003275
0.036431
0.067180
0.069833
0.092286
0.077788
0.095281
0.046943
-0.021563
-0.058418
-0.106159
-0.136194
-0.155416
-0.158244
-0.193639
-0.177687
-0.189027
-0.164460
-0.108455
-0.047840
-0.027639
0.066656
0.125823
0.130369
0.107931
0.107540
0.091919
0.064187
0.021745
-0.027949
-0.072010
-0.119315
-0.144651
-0.151894
-0.150877
-0.134326
-0.111259
-0.087610
-0.066804
-0.021056
0.057760
0.057094
0.093351
0.126136
0.153509
0.132441
0.105944
0.070402
0.019330
-0.031093
-0.070763
-0.112275
-0.151714
-0.159288
-0.161654
-0.146333
-0.138629
-0.079529
-0.025947
0.033967
0.064783
0.066534
0.102120
0.155099
0.174124
0.160750
0.105317
0.083989
0.067986
0.029916
-0.033335
-0.094951
-0.139630
-0.178923
-0.180944
-0.157346
-0.153536
-0.137731
-0.079824
-0.029126
-0.005705
0.045132
0.102995
0.126059
0.132468
0.109322
0.095681
0.060686
0.009122
-0.049753
-0.109927
-0.164225
-0.212722
-0.199579
-0.203080
-0.185510
-0.192552
-0.183034
-0.099834
-0.034124
0.007415
0.057438
0.099193
0.090895
0.102153
0.081296
0.045957
0.006435
-0.018336
-0.096587
-0.136057
-0.159340
-0.209480
-0.224783
-0.223685
-0.215540
-0.193547
-0.157988
-0.101825
-0.053163
-0.017858
0.012016
0.045476
0.059860
0.078542
0.065511
0.035559
0.015461
-0.034633
-0.091639
-0.147945
-0.171820
-0.208846
-0.198931
-0.208046
-0.207420
-0.188222
-0.160585
-0.108702
-0.043128
0.014936
0.045122
0.060222
0.057142
0.052491
0.052113
0.037323
0.012612
-0.050112
-0.101858
-0.120184
-0.148477
-0.194182
-0.210295
-0.218746
-0.213288
-0.190185
-0.157918
-0.098646
-0.067509
-0.023578
0.005168
0.037683
0.067027
0.077127
0.066152
0.037819
0.021360
-0.020897
-0.085553
-0.126750
-0.180608
-0.213760
-0.223281
-0.226669
-0.227895
-0.216322
-0.190453
-0.123867
-0.087228
-0.025611
0.057467
0.086706
0.109811
0.104862
0.090994
0.131979
0.093771
0.044710
-0.002415
-0.023236
-0.029292
-0.051364
-0.048724
-0.049419
-0.017536
0.039741
0.114483
0.185903
0.273565
0.319720
0.389675
0.424537
0.490709
0.531239
0.584890
0.605363
0.619809
0.612969
0.600153
0.597917
0.591616
0.606925
0.616521
0.625547
0.628968
0.678354
0.709997
0.724750
0.745976
0.770944
0.797685
0.802985
0.762267
0.699260
0.631321
0.540152
0.445153
0.355721
0.239316
0.166109
0.103333
0.030789
0.010050
-0.013062
-0.033636
0.002622
0.049843
0.059061
0.077047
0.105001
0.150917
0.167379
0.184891
0.182804
0.172830
0.140908
0.105620
0.067200
0.027094
-0.032997
-0.090918
-0.123610
-0.146640
-0.120732
-0.135002
-0.127964
-0.088564
-0.038817
-0.002847
0.024028
0.058902
0.110615
0.130605
0.153520
0.135457
0.101289
0.069196
0.018493
-0.029572
-0.083117
-0.124289
-0.159864
-0.187555
-0.186024
-0.145058
-0.147171
-0.111275
-0.068772
-0.023031
0.020815
0.073997
0.102037
0.114021
0.128121
0.113102
0.078932
0.045842
0.014032
-0.023321
-0.054021
-0.118142
-0.171593
-0.186960
-0.180711
-0.166969
-0.157835
-0.136191
-0.083049
0.006541
0.029100
0.042915
0.086989
0.113173
0.121234
0.113725
0.091587
0.068717
0.027460
-0.028622
-0.086273
-0.149796
-0.154194
-0.144608
-0.159508
-0.142365
-0.122650
-0.076569
-0.038753
-0.001492
0.063110
0.103241
0.144552
0.154418
0.154648
0.135524
0.132749
0.121085
0.090554
0.025640
-0.032484
-0.065309
-0.124248
-0.125768
-0.135410
-0.130116
-0.080692
-0.063658
-0.032675
0.029489
0.072273
0.115056
0.157754
0.173295
0.179295
0.174263
0.149973
0.125297
0.082255
0.043263
0.000118
-0.044620
-0.086644
-0.106840
-0.109352
-0.093144
-0.062703
-0.039069
0.008471
0.062396
0.121048
0.165212
0.189958
0.207707
0.204592
0.182473
0.159521
0.169226
0.132202
0.076302
0.029925
-0.023474
-0.058204
-0.055382
-0.074146
-0.062238
-0.031760
0.015553
0.017707
0.064148
0.113924
0.180947
0.230470
0.240386
0.226524
0.226422
0.201616
0.147759
0.089305
0.042173
0.017636
-0.019679
-0.063445
-0.089064
-0.116498
-0.099378
-0.060263
-0.041735
0.010175
0.065883
0.112455
0.144647
0.185011
0.203602
0.196279
0.181880
0.187935
0.151739
0.096396
0.040944
0.002000
-0.030688
-0.044730
-0.049576
-0.066287
-0.046508
-0.026810
0.003952
0.049027
0.087449
0.136473
0.175942
0.209190
0.217737
0.224894
0.220338
0.181738
0.136153
0.093950
0.039950
-0.006772
-0.054929
-0.097086
-0.106461
-0.129737
-0.133572
-0.098731
-0.064950
-0.029206
0.019487
0.068037
0.097535
0.125046
0.162089
0.173680
0.159196
0.131707
0.081890
0.044581
-0.016399
-0.047741
-0.087489
-0.135856
-0.179821
-0.183564
-0.165048
-0.133000
-0.092009
-0.069434
-0.014748
0.030259
0.073547
0.122062
0.130778
0.120894
0.113248
0.097996
0.071247
0.015481
-0.046143
-0.101006
-0.141536
-0.174465
-0.191061
-0.190155
-0.186783
-0.149649
-0.117435
-0.088272
-0.027387
0.010270
0.029282
0.072179
0.113521
0.108287
0.094568
0.078496
0.049538
0.018315
-0.062342
-0.098875
-0.152656
-0.171033
-0.206159
-0.212786
-0.219374
-0.185268
-0.140176
-0.110356
-0.052912
-0.007229
0.037287
0.060424
0.077611
0.058483
0.060774
0.064548
0.034952
-0.022911
-0.072753
-0.116558
-0.160933
-0.163455
-0.187322
-0.197682
-0.170226
-0.144363
-0.099321
-0.058473
-0.012542
0.028348
0.064914
0.105535
0.098841
0.113521
0.104637
0.085740
0.055102
0.008037
-0.058938
-0.100867
-0.139560
-0.159168
-0.180330
-0.187798
-0.183275
-0.162031
-0.120257
-0.049589
0.009223
0.035464
0.046500
0.086481
0.113141
0.117534
0.108831
0.097388
0.069337
0.022966
-0.017339
-0.061661
-0.120343
-0.164426
-0.227732
-0.203536
-0.148961
-0.126384
-0.119584
-0.068085
-0.030584
0.011048
0.048140
0.088080
0.106073
0.090103
0.103399
0.081227
0.040286
-0.016585
-0.061551
-0.107616
-0.138554
-0.174674
-0.225484
-0.210603
-0.187357
-0.155350
-0.129355
-0.072864
-0.000460
0.016869
0.055567
0.085670
0.089456
0.137045
0.133229
0.115680
0.056564
-0.003876
-0.064896
-0.097365
-0.112892
-0.163108
-0.179098
-0.185715
-0.164274
-0.131591
-0.112174
-0.076340
-0.029565
-0.001500
0.025797
0.051880
0.039147
0.101775
0.102079
0.124131
0.073238
-0.012701
-0.052383
-0.090598
-0.103425
-0.105818
-0.123551
-0.185419
-0.160434
-0.149066
-0.109652
-0.068876
-0.039958
0.009775
0.059430
0.088006
0.105661
0.121941
0.098442
0.092189
0.060461
0.018055
-0.033588
-0.075927
-0.122178
-0.169215
-0.189822
-0.195310
-0.186150
-0.173621
-0.134320
-0.091233
-0.034176
0.003601
0.052350
0.087141
0.094144
0.074373
0.069429
0.059851
0.044163
0.019437
-0.033782
-0.089536
-0.133229
-0.153617
-0.178929
-0.207979
-0.210161
-0.180314
-0.137323
-0.105636
-0.050504
-0.005910
0.044849
0.078955
0.095982
0.107167
0.080337
0.052773
0.038745
-0.001612
-0.060883
-0.116264
-0.160073
-0.186958
-0.218027
-0.215595
-0.215545
-0.187738
-0.132691
-0.077559
-0.036724
0.003475
0.037334
0.064993
0.095492
0.102387
0.088222
0.071997
0.015964
-0.013257
-0.075098
-0.151696
-0.216387
-0.233689
-0.241024
-0.245165
-0.211857
-0.195626
-0.167571
-0.097508
-0.030243
-0.026366
0.041353
0.074620
0.075186
0.073616
0.095122
0.105327
0.065265
0.007832
-0.053885
-0.086425
-0.141791
-0.176606
-0.181435
-0.204750
-0.205913
-0.182399
-0.165024
-0.121100
-0.072257
-0.023831
0.033880
0.086308
0.095900
0.108849
0.104732
0.082441
0.039358
0.002265
-0.047782
-0.102067
-0.149883
-0.169334
-0.183023
-0.197048
-0.196972
-0.144453
-0.105655
-0.087409
-0.051187
-0.004533
0.028262
0.066225
0.099373
0.091309
0.069400
0.052028
0.021473
-0.016625
-0.043082
-0.090463
-0.138264
-0.175009
-0.218870
-0.229693
-0.230625
-0.195288
-0.152536
-0.106940
-0.065890
-0.012574
0.029899
0.057600
0.079853
0.058963
0.099910
0.086202
0.038653
-0.019023
-0.068761
-0.115341
-0.144585
-0.179301
-0.198901
-0.201291
-0.180049
-0.144382
-0.116170
-0.107197
-0.047624
-0.005207
0.053723
0.082158
0.084998
0.095923
0.112238
0.087930
0.044330
0.002940
-0.048577
-0.092747
-0.131867
-0.175597
-0.195556
-0.197953
-0.177248
-0.154242
-0.120723
-0.083483
-0.018866
0.030987
0.057160
0.076087
0.101406
0.106115
0.095475
0.069034
0.049218
-0.009249
-0.048289
-0.063597
-0.101515
-0.142270
-0.165050
-0.169252
-0.151132
-0.135095
-0.051924
-0.014171
0.019037
0.048456
0.066097
0.108716
0.156030
0.138177
0.128454
0.112918
0.085172
0.036233
-0.005284
-0.041662
-0.100345
-0.149210
-0.186088
-0.175504
-0.150297
-0.151695
-0.110032
-0.069877
-0.021122
0.009664
0.050591
0.110427
0.124432
0.090516
0.064586
0.085229
0.037595
0.000333
-0.063780
-0.108409
-0.158547
-0.189131
-0.200715
-0.191600
-0.189936
-0.175864
-0.141676
-0.097885
-0.043503
-0.008576
0.028110
0.056932
0.069507
0.073246
0.071624
0.042664
0.005458
-0.054025
-0.087511
-0.138407
-0.175974
-0.216593
-0.237440
-0.241336
-0.235687
-0.215803
-0.169755
-0.128641
-0.065808
-0.045197
0.004384
0.024150
0.046934
0.038304
0.057564
0.023641
-0.041493
-0.074091
-0.113230
-0.199478
-0.188853
-0.200396
-0.232508
-0.257163
-0.251821
-0.221879
-0.190858
-0.154921
-0.099152
-0.029150
-0.022001
0.017155
0.076246
0.090358
0.093700
0.040216
0.003668
-0.027949
-0.088630
-0.125871
-0.161911
-0.202969
-0.222408
-0.236645
-0.226216
-0.199040
-0.148708
-0.114200
-0.073857
-0.014593
0.024057
0.053041
0.090910
0.099538
0.089302
0.050717
0.008104
-0.038395
-0.108664
-0.124018
-0.181682
-0.220715
-0.241463
-0.244791
-0.248225
-0.226302
-0.183456
-0.148814
-0.069294
-0.004221
0.038185
0.075311
0.111595
0.119073
0.118251
0.104422
0.071762
0.046041
0.003200
-0.041166
-0.098389
-0.108106
-0.090617
-0.068136
-0.063471
0.000239
0.062074
0.135889
0.238905
0.307616
0.373629
0.449004
0.483600
0.531223
0.565934
0.581508
0.581181
0.591490
0.574044
0.570501
0.581549
0.560668
0.570295
0.572729
0.566886
0.584228
0.637926
0.662796
0.685437
0.694712
0.709482
0.717421
0.673042
0.568592
0.459822
0.434014
0.363333
0.288831
0.178705
0.074640
-0.002790
-0.032809
-0.070345
-0.082669
-0.083991
-0.037963
-0.020034
0.009045
0.045444
0.081505
0.114919
0.160049
0.152334
0.144996
0.132342
0.097678
0.093448
0.046999
-0.018109
-0.065104
-0.099169
-0.114209
-0.157080
-0.180671
-0.164481
-0.123898
-0.088127
-0.045704
-0.022410
0.023323
0.056570
0.110782
0.133279
0.133035
0.117141
0.072493
0.045023
-0.009703
-0.060047
-0.115073
-0.160361
-0.195302
-0.220221
-0.201337
-0.186231
-0.160688
-0.128735
-0.077182
-0.033298
0.029903
0.067290
0.089541
0.103817
0.094574
0.088350
0.062145
0.008000
-0.016454
-0.057336
-0.119737
-0.167930
-0.193587
-0.204594
-0.187075
-0.170067
-0.146090
-0.110706
-0.068626
-0.027875
0.018235
0.067310
0.102460
0.119624
0.086379
0.051972
0.035597
0.028665
-0.024409
-0.051758
-0.073055
-0.105382
-0.156752
-0.180102
-0.176338
-0.167760
-0.160674
-0.146264
-0.066887
-0.006937
0.021275
0.069383
0.084363
0.098798
0.125170
0.124424
0.087013
0.064907
0.013342
-0.049999
-0.063601
-0.102890
-0.133206
-0.183787
-0.180897
-0.161170
-0.126345
-0.069252
0.019332
0.064763
0.050233
0.121003
0.138443
0.141185
0.163733
0.157804
0.134215
0.094932
0.022698
-0.030169
-0.030499
-0.046750
-0.073151
-0.115305
-0.125365
-0.125082
-0.084194
-0.063447
-0.024406
0.028466
0.084709
0.124748
0.155888
0.179933
0.168100
0.160733
0.130972
0.102032
0.068775
0.029355
-0.014962
-0.060188
-0.073801
-0.090485
-0.099485
-0.077159
-0.041235
-0.003898
0.003828
0.047128
0.093203
0.119732
0.144242
0.211761
0.216365
0.198259
0.169056
0.146274
0.099909
0.048462
0.015435
-0.021350
-0.049722
-0.086744
-0.099729
-0.106728
-0.066671
-0.037843
-0.007583
0.054682
0.089355
0.129493
0.185297
0.196955
0.205691
0.203706
0.175724
0.121528
0.066399
0.007796
-0.006220
-0.058882
-0.086345
-0.129198
-0.165458
-0.172383
-0.135903
-0.075931
-0.050969
-0.018239
0.040125
0.121765
0.135380
0.143254
0.140634
0.159024
0.131732
0.103387
0.058987
-0.031793
-0.063775
-0.047961
-0.130070
-0.142189
-0.173571
-0.173019
-0.164151
-0.137558
-0.100941
-0.058224
0.022108
0.073584
0.110268
0.108537
0.136665
0.107795
0.087836
0.072524
0.044044
-0.027535
-0.091758
-0.139912
-0.211016
-0.190774
-0.185544
-0.183058
-0.167018
-0.101468
-0.087661
-0.034827
-0.005572
0.048751
0.079691
0.102814
0.089703
0.054023
0.030666
0.009934
-0.023755
-0.075850
-0.105111
-0.134736
-0.169291
-0.224258
-0.237176
-0.224746
-0.199373
-0.165063
-0.128145
-0.067326
-0.044285
0.012814
0.023944
0.040827
0.035763
0.065564
0.019101
-0.043433
-0.081289
-0.135430
-0.173729
-0.226242
-0.203952
-0.196804
-0.201376
-0.210903
-0.267562
-0.210795
-0.126538
-0.095005
-0.075645
-0.011346
0.032430
0.033470
0.022900
0.006785
-0.025972
-0.010370
-0.031005
-0.094155
-0.142517
-0.195558
-0.230549
-0.249903
-0.263452
-0.247816
-0.222502
-0.182328
-0.157094
-0.109483
-0.071420
-0.036752
0.031504
0.080256
0.076663
0.060172
0.037593
-0.032682
-0.080308
-0.090457
-0.144867
-0.212327
-0.255786
-0.277864
-0.274850
-0.262746
-0.258962
-0.218276
-0.174426
-0.121294
-0.067056
-0.034910
0.039090
0.090264
0.076061
0.034516
0.002370
0.007797
-0.038075
-0.091109
-0.115925
-0.150514
-0.192257
-0.228816
-0.290449
-0.240645
-0.170885
-0.133846
-0.126149
-0.056333
0.006406
0.005040
0.031810
0.040301
0.066852
0.065475
0.060835
-0.026662
-0.027369
-0.058293
-0.108546
-0.162792
-0.202340
-0.261682
-0.252773
-0.250416
-0.223772
-0.157289
-0.137359
-0.106466
-0.045315
-0.000343
0.053855
0.060531
0.051200
0.026294
0.038465
-0.007078
-0.085941
-0.124634
-0.155642
-0.209880
-0.217868
-0.239322
-0.244111
-0.269462
-0.268695
-0.177755
-0.148306
-0.094583
-0.063239
-0.047349
0.009816
0.047152
0.073818
0.048933
0.000015
-0.051291
-0.081594
-0.119444
-0.107748
-0.151944
-0.211540
-0.252413
-0.250526
-0.231102
-0.216778
-0.189430
-0.168840
-0.144613
-0.094399
-0.022370
0.018539
0.045812
0.046474
0.028776
0.021155
-0.023594
-0.064201
-0.129228
-0.214925
-0.280544
-0.280919
-0.313277
-0.324320
-0.314754
-0.272370
-0.234233
-0.217627
-0.181688
-0.101680
-0.021315
-0.010432
-0.008044
0.011039
0.020011
-0.000471
-0.044352
-0.063819
-0.100826
-0.129108
-0.172570
-0.215131
-0.245600
-0.254271
-0.269210
-0.256908
-0.223130
-0.170316
-0.127965
-0.073444
-0.001750
0.002486
0.030891
0.003241
-0.023349
-0.008249
-0.029068
-0.093441
-0.188304
-0.214115
-0.222087
-0.269965
-0.275142
-0.268939
-0.241897
-0.185092
-0.193549
-0.191822
-0.139354
-0.123200
-0.085821
-0.015175
0.010317
0.001679
-0.028441
-0.008185
-0.019956
-0.065334
-0.138198
-0.193209
-0.231401
-0.286604
-0.305159
-0.302916
-0.291586
-0.286712
-0.243729
-0.178779
-0.145232
-0.070969
-0.047937
-0.024384
0.001587
0.014766
0.012611
-0.025504
-0.057722
-0.105579
-0.162127
-0.217179
-0.247527
-0.291919
-0.312079
-0.316100
-0.308119
-0.265134
-0.219102
-0.195139
-0.159454
-0.096953
-0.072195
-0.010630
0.010834
-0.005825
-0.034637
-0.038865
-0.075865
-0.126178
-0.172593
-0.217672
-0.251127
-0.291157
-0.303071
-0.279513
-0.256897
-0.277163
-0.296408
-0.211457
-0.137109
-0.078014
-0.025511
-0.012690
0.032505
0.047674
0.020200
-0.022007
-0.053814
-0.084333
-0.140723
-0.196267
-0.245954
-0.288952
-0.290822
-0.280755
-0.251353
-0.215203
-0.232544
-0.191822
-0.115621
-0.066304
-0.035951
0.019242
0.020714
0.029936
0.040321
-0.009478
-0.059471
-0.106404
-0.155389
-0.216307
-0.200295
-0.216120
-0.273921
-0.294841
-0.288250
-0.284864
-0.234694
-0.116814
-0.065280
-0.052818
-0.036402
0.015125
0.040858
0.077147
0.020259
-0.009049
-0.049514
-0.112640
-0.146179
-0.177559
-0.229971
-0.241140
-0.251595
-0.250452
-0.194450
-0.205461
-0.175191
-0.186473
-0.171171
-0.137349
-0.036856
0.023584
0.050644
