0.123159
0.168696
0.198283
0.218379
0.255585
0.251866
0.238787
0.207628
0.214715
0.148855
0.080404
0.033541
0.004699
-0.025400
-0.042095
-0.064261
-0.081534
-0.071216
-0.006607
0.081489
0.124335
0.135028
0.150564
0.185108
0.215240
0.203949
0.206079
0.177727
0.132929
0.071769
0.033540
0.001309
-0.034037
-0.069036
-0.097140
-0.103318
-0.101738
-0.086564
-0.056384
-0.022912
0.022423
0.064273
0.096685
0.134504
0.163198
0.169840
0.157551
0.140532
0.099642
0.048933
0.000197
-0.051527
-0.104173
-0.124407
-0.143590
-0.147119
-0.131461
-0.115666
-0.084649
-0.041062
-0.000222
0.044657
0.067028
0.097929
0.117769
0.138970
0.128815
0.119893
0.062522
0.027870
-0.009645
-0.058809
-0.084460
-0.127094
-0.171385
-0.174571
-0.153308
-0.141077
-0.109569
-0.052009
-0.007110
0.027090
0.075355
0.108621
0.095816
0.131922
0.142598
0.113845
0.064766
0.014564
-0.018556
-0.060793
-0.123201
-0.153831
-0.171563
-0.201498
-0.146909
-0.119271
-0.088952
-0.049842
-0.013632
0.029786
0.062344
0.103886
0.119369
0.130327
0.115067
0.084898
0.075881
0.026943
-0.024717
-0.075610
-0.113134
-0.154197
-0.167712
-0.178572
-0.166080
-0.130233
-0.104049
-0.061937
-0.025252
0.052486
0.093835
0.130032
0.136292
0.123486
0.116136
0.087659
0.048337
0.006635
-0.021688
-0.060448
-0.104615
-0.132291
-0.138694
-0.154040
-0.168118
-0.134358
-0.100481
-0.051874
0.012764
0.057817
0.089712
0.131586
0.151207
0.149766
0.131705
0.100408
0.079046
0.024400
-0.006986
-0.052652
-0.090404
-0.133692
-0.147269
-0.173150
-0.143559
-0.124835
-0.110859
-0.067378
-0.007120
0.048722
0.080093
0.124993
0.129514
0.176066
0.158250
0.134415
0.071022
0.011482
-0.013068
-0.036306
-0.079313
-0.142236
-0.164761
-0.165042
-0.143258
-0.117948
-0.088131
-0.047691
-0.000142
0.050318
0.101523
0.109933
0.106393
0.137088
0.130694
0.100929
0.069221
0.029042
-0.027686
-0.072419
-0.101945
-0.132379
-0.149440
-0.149776
-0.153198
-0.129371
-0.092652
-0.059084
-0.018642
0.018884
0.069476
0.101957
0.114054
0.096629
0.119919
0.123837
0.101074
0.026243
-0.025024
-0.061984
-0.114813
-0.149314
-0.150846
-0.145871
-0.152210
-0.138884
-0.097316
-0.053539
-0.017868
0.030461
0.061197
0.096410
0.120940
0.139987
0.127502
0.093116
0.051132
0.011947
-0.033337
-0.081768
-0.134459
-0.159037
-0.165503
-0.177577
-0.159581
-0.142123
-0.115928
-0.068641
-0.016259
0.027149
0.071799
0.085817
0.095802
0.111076
0.111573
0.094741
0.064176
0.010474
-0.035632
-0.071138
-0.115833
-0.153545
-0.175637
-0.176010
-0.163103
-0.147501
-0.125563
-0.080555
-0.035928
0.016005
0.064774
0.096647
0.108761
0.097541
0.091597
0.068795
0.048234
-0.007397
0.002859
-0.056454
-0.111320
-0.174152
-0.186980
-0.169189
-0.160634
-0.156003
-0.120814
-0.067916
-0.030735
0.009063
0.054288
0.089386
0.100689
0.105629
0.096692
0.076981
0.033971
-0.001735
-0.049942
-0.101674
-0.149485
-0.166537
-0.161164
-0.171888
-0.165852
-0.150075
-0.114447
-0.071804
-0.025559
0.021000
0.064212
0.093669
0.105110
0.111681
0.112989
0.073595
0.049874
0.001643
-0.053381
-0.093656
-0.138309
-0.184709
-0.177448
-0.182790
-0.174975
-0.159933
-0.146583
-0.108233
-0.043238
0.011745
0.067561
0.110864
0.122679
0.126494
0.107170
0.083677
0.050916
0.000236
-0.038314
-0.085109
-0.136027
-0.181022
-0.201944
-0.191236
-0.172809
-0.134603
-0.107918
-0.069162
-0.019381
0.028850
0.084066
0.129949
0.148597
0.146922
0.126735
0.122936
0.094889
0.049621
0.002949
-0.050644
-0.112178
-0.149688
-0.165627
-0.164606
-0.161864
-0.126228
-0.094484
-0.064659
-0.007364
0.070425
0.119999
0.149651
0.142224
0.122314
0.130544
0.095656
0.064915
0.037256
0.001903
-0.048367
-0.090493
-0.126506
-0.138138
-0.131094
-0.134661
-0.115197
-0.075294
-0.027420
0.015540
0.063182
0.108514
0.148155
0.158697
0.174111
0.161668
0.123569
0.094706
0.051690
-0.000263
-0.031509
-0.091817
-0.122999
-0.131365
-0.138930
-0.130347
-0.110322
-0.096951
-0.053834
-0.010341
0.023789
0.060201
0.105122
0.119506
0.102249
0.091051
0.129356
0.091285
0.045144
-0.017320
-0.079238
-0.129580
-0.161608
-0.183321
-0.183884
-0.172726
-0.146447
-0.128510
-0.096651
-0.039331
0.020618
0.053266
0.071837
0.084401
0.098202
0.093222
0.062983
0.018687
-0.003594
-0.039804
-0.097538
-0.139054
-0.174895
-0.208060
-0.232966
-0.211508
-0.188982
-0.152196
-0.093192
-0.054850
-0.020190
0.029621
0.063829
0.093438
0.092885
0.075414
0.024987
0.004679
-0.015270
-0.065848
-0.111229
-0.140257
-0.178150
-0.202764
-0.207816
-0.195764
-0.157728
-0.130712
-0.095424
-0.061564
-0.030886
0.004341
0.044742
0.074141
0.078239
0.066346
0.049533
0.016193
-0.013969
-0.061091
-0.104171
-0.145683
-0.190788
-0.219686
-0.216816
-0.205019
-0.179667
-0.150217
-0.107659
-0.055770
-0.002328
0.029318
0.053162
0.075908
0.082321
0.067364
0.033225
0.006010
-0.014738
-0.048425
-0.110210
-0.153161
-0.176450
-0.199787
-0.221756
-0.211294
-0.165082
-0.128148
-0.078140
-0.015500
0.048129
0.096708
0.132243
0.167999
0.195897
0.201001
0.175316
0.144085
0.111214
0.084604
0.065666
0.065992
0.094199
0.086001
0.095650
0.132760
0.198805
0.268598
0.334239
0.395470
0.489412
0.555131
0.614314
0.662544
0.700710
0.738019
0.756221
0.775436
0.751010
0.717860
0.689088
0.641869
0.613190
0.578726
0.547697
0.559271
0.541513
0.557088
0.532221
0.487714
0.470679
0.464896
0.437218
0.394889
0.355923
0.291441
0.220447
0.175967
0.158619
0.070848
0.005243
-0.035081
-0.063742
-0.085539
-0.094707
-0.098608
-0.091349
-0.068634
-0.027788
0.012981
0.063357
0.119533
0.148350
0.168710
0.151452
0.127481
0.108633
0.083347
0.042645
-0.004758
-0.062803
-0.110597
-0.145099
-0.166288
-0.162016
-0.153043
-0.144426
-0.115919
-0.072483
-0.022315
0.020328
0.056125
0.080095
0.092816
0.109467
0.103651
0.099563
0.061035
0.012027
-0.041024
-0.085794
-0.115229
-0.148136
-0.165516
-0.173540
-0.169497
-0.146737
-0.091613
-0.042797
-0.017399
0.015637
0.086779
0.121500
0.128362
0.118561
0.111125
0.077133
0.045562
0.006687
-0.034755
-0.075511
-0.128162
-0.166838
-0.188103
-0.196968
-0.200816
-0.129006
-0.070591
-0.017950
0.004501
0.039517
0.081000
0.098042
0.114831
0.125248
0.130465
0.106132
0.082165
0.034240
-0.018223
-0.053984
-0.100870
-0.109511
-0.152661
-0.159819
-0.135022
-0.111577
-0.081722
-0.032471
0.021518
0.061057
0.093887
0.124650
0.157034
0.159338
0.149211
0.125027
0.083939
0.052034
0.002631
-0.042452
-0.086568
-0.115658
-0.123400
-0.106938
-0.101323
-0.065865
-0.045346
-0.008709
0.044255
0.088370
0.130369
0.167814
0.192130
0.197027
0.188832
0.161876
0.132259
0.088133
0.036430
-0.011930
-0.044030
-0.049216
-0.063248
-0.077386
-0.065439
-0.045695
-0.009922
0.033322
0.076962
0.126856
0.170267
0.207251
0.244057
0.248047
0.239694
0.206925
0.173562
0.128369
0.088877
0.046546
0.005743
-0.032856
-0.044526
-0.038884
-0.030492
0.002123
0.035732
0.069256
0.103432
0.142764
0.188459
0.236979
0.258635
0.265281
0.262475
0.241824
0.199861
0.144811
0.088862
0.065929
0.014319
-0.033885
-0.057080
-0.020125
-0.043184
0.002792
0.025764
0.048516
0.101767
0.158023
0.188638
0.232103
0.250624
0.244858
0.206763
0.184005
0.157733
0.156742
0.110086
0.057103
0.018675
-0.039396
-0.088748
-0.070003
-0.024006
-0.013390
0.002325
0.032974
0.080193
0.130238
0.167282
0.197667
0.208429
0.212376
0.193145
0.175087
0.139228
0.083472
0.042465
0.010513
-0.045626
-0.086893
-0.121399
-0.124146
-0.129255
-0.111973
-0.071269
-0.032537
0.016644
0.055955
0.110151
0.139102
0.156374
0.164517
0.143116
0.119963
0.084698
0.036067
-0.013257
-0.064540
-0.110535
-0.140274
-0.146305
-0.141557
-0.146306
-0.136371
-0.091218
-0.055192
-0.016584
0.024366
0.066208
0.099515
0.112915
0.104963
0.098655
0.084752
0.042890
0.007031
-0.030786
-0.092312
-0.140400
-0.172509
-0.175347
-0.192900
-0.194235
-0.173162
-0.104518
-0.062745
-0.008525
0.033011
0.080084
0.094865
0.108553
0.112964
0.109391
0.078054
0.041129
-0.012783
-0.061597
-0.094381
-0.107409
-0.135755
-0.180511
-0.205926
-0.199447
-0.173053
-0.141090
-0.089821
-0.054648
0.005244
0.050161
0.078611
0.100850
0.119289
0.114120
0.076180
0.041047
-0.024856
-0.082879
-0.106755
-0.127747
-0.178543
-0.198587
-0.201413
-0.177248
-0.146118
-0.109256
-0.073717
-0.034786
0.002094
0.063836
0.101576
0.121976
0.113578
0.086035
0.078856
0.056637
0.024715
-0.017780
-0.075490
-0.112314
-0.149145
-0.173902
-0.195276
-0.176048
-0.152827
-0.118159
-0.078111
-0.034137
0.002944
0.059195
0.098036
0.104190
0.103488
0.097315
0.081188
0.057158
0.023698
-0.036701
-0.061220
-0.118438
-0.157413
-0.183330
-0.182451
-0.188741
-0.160654
-0.119435
-0.085017
-0.042490
0.009303
0.064818
0.124362
0.144799
0.125407
0.112299
0.088591
0.055174
0.015449
-0.024696
-0.067988
-0.107183
-0.155929
-0.176966
-0.179447
-0.169378
-0.143400
-0.111178
-0.072566
-0.024873
0.011707
0.055788
0.093291
0.106897
0.115935
0.111944
0.084153
0.056177
0.001126
-0.038136
-0.084198
-0.128032
-0.158386
-0.175852
-0.178948
-0.169938
-0.146927
-0.120420
-0.076080
-0.034027
0.007231
0.048291
0.071751
0.083270
0.094686
0.099462
0.075490
0.048463
0.019276
-0.040045
-0.093586
-0.142284
-0.177133
-0.198323
-0.199210
-0.188077
-0.160792
-0.135691
-0.077191
-0.017522
0.012497
0.056026
0.092650
0.115814
0.122515
0.111184
0.063005
0.019854
-0.025215
-0.046790
-0.085112
-0.125979
-0.204468
-0.213064
-0.185016
-0.170288
-0.141793
-0.117172
-0.086921
-0.051172
-0.012471
0.034514
0.069423
0.092873
0.096759
0.104716
0.050622
-0.016305
-0.034425
-0.012431
-0.061054
-0.135296
-0.188190
-0.204779
-0.207461
-0.197869
-0.182149
-0.135830
-0.078586
-0.036115
-0.017108
0.034141
0.074092
0.089060
0.104531
0.103881
0.067954
0.022470
-0.021335
-0.075507
-0.111804
-0.141315
-0.165008
-0.177610
-0.193268
-0.199303
-0.179709
-0.150267
-0.109054
-0.059167
-0.025435
0.013131
0.062814
0.085644
0.082618
0.095432
0.070800
0.026866
-0.028058
-0.073520
-0.111393
-0.148169
-0.184065
-0.208754
-0.227863
-0.212908
-0.166010
-0.133583
-0.108781
-0.067183
-0.020220
0.026981
0.072715
0.093527
0.083534
0.072823
0.056274
0.035165
-0.004455
-0.031557
-0.079781
-0.138579
-0.194226
-0.214598
-0.202000
-0.179788
-0.138097
-0.109730
-0.096385
-0.049908
0.008231
0.049927
0.092147
0.111401
0.107790
0.103115
0.081006
0.058146
0.009755
-0.025053
-0.074735
-0.114653
-0.152878
-0.173243
-0.181039
-0.160196
-0.114638
-0.090648
-0.058574
-0.024844
0.018120
0.054064
0.089105
0.103360
0.124622
0.118877
0.089029
0.063719
0.015883
-0.036914
-0.069459
-0.111109
-0.148165
-0.160333
-0.167911
-0.176495
-0.138619
-0.081075
-0.049928
-0.005966
0.037535
0.078023
0.110641
0.144793
0.147369
0.125016
0.107172
0.082644
0.029559
-0.005129
-0.058187
-0.109348
-0.166613
-0.189774
-0.189180
-0.181715
-0.173073
-0.120324
-0.071559
-0.046481
0.012528
0.045215
0.070693
0.092024
0.106182
0.087973
0.062429
0.031744
0.004124
-0.061616
-0.097159
-0.143121
-0.184681
-0.204880
-0.210291
-0.212563
-0.195025
-0.156259
-0.119677
-0.082561
-0.028829
0.014459
0.048552
0.088797
0.108201
0.077713
0.046536
0.006114
-0.037465
-0.087383
-0.141805
-0.192926
-0.230224
-0.226984
-0.225544
-0.212710
-0.208805
-0.180332
-0.130575
-0.081976
-0.048655
0.002613
0.040381
0.065603
0.070508
0.060670
0.037456
-0.001683
-0.051925
-0.096415
-0.137055
-0.180744
-0.228695
-0.233939
-0.226314
-0.212407
-0.203274
-0.198136
-0.158599
-0.106668
-0.055906
0.011599
0.058597
0.061123
0.067465
0.062449
0.040936
0.013633
-0.028160
-0.094448
-0.137035
-0.183003
-0.213286
-0.234124
-0.258403
-0.240671
-0.209374
-0.164783
-0.111554
-0.071870
-0.039804
-0.000645
0.027429
0.039588
0.043353
0.043620
0.022633
-0.018522
-0.071532
-0.107880
-0.138975
-0.185738
-0.222080
-0.226926
-0.232516
-0.206842
-0.176766
-0.150542
-0.096086
-0.029282
0.061146
0.089179
0.126659
0.158643
0.195376
0.207833
0.204964
0.199436
0.163295
0.132249
0.108870
0.104567
0.102806
0.110535
0.134386
0.190485
0.235178
0.287228
0.366197
0.439883
0.509905
0.585084
0.662981
0.736298
0.770179
0.802628
0.814032
0.798934
0.765013
0.716528
0.667660
0.620335
0.567951
0.524611
0.486519
0.458957
0.418008
0.384808
0.347395
0.324032
0.358276
0.349945
0.331101
0.286653
0.257440
0.215526
0.179452
0.137945
0.088329
0.026638
-0.031181
-0.073774
-0.106750
-0.125078
-0.127646
-0.124905
-0.108857
-0.084348
-0.039039
0.003793
0.045440
0.081720
0.104010
0.120563
0.127422
0.106366
0.087682
0.056950
0.009067
-0.045575
-0.084801
-0.114007
-0.137665
-0.164716
-0.186283
-0.192856
-0.175276
-0.128536
-0.072803
-0.023961
0.004410
0.039849
0.069818
0.091281
0.086635
0.083860
0.064783
0.037008
-0.000504
-0.059497
-0.115902
-0.147403
-0.174111
-0.199274
-0.208237
-0.189285
-0.173639
-0.124603
-0.081492
-0.038195
-0.004838
0.026344
0.055523
0.070669
0.088476
0.093815
0.079014
0.039260
-0.007979
-0.054257
-0.122704
-0.121435
-0.161344
-0.177149
-0.184483
-0.172370
-0.141470
-0.122333
-0.085631
-0.039024
0.007618
0.052559
0.085802
0.105737
0.110270
0.100678
0.085632
0.041836
0.014289
-0.036054
-0.075954
-0.105866
-0.144353
-0.173198
-0.185657
-0.197688
-0.165619
-0.116886
-0.069219
-0.008787
0.060145
0.108659
0.133002
0.130464
0.129358
0.132133
0.113119
0.080884
0.048618
-0.010067
-0.044774
-0.082030
-0.118921
-0.139771
-0.135119
-0.130601
-0.118434
-0.089178
-0.010440
0.031677
0.070904
0.103730
0.140945
0.168827
0.186171
0.179949
0.157298
0.121619
0.076223
0.030404
-0.009016
-0.045456
-0.085563
-0.097409
-0.096058
-0.082096
-0.046343
-0.029699
0.004487
0.062524
0.125181
0.175779
0.200572
0.197648
0.205811
0.192946
0.173898
0.155974
0.125513
0.101378
0.059516
0.002728
-0.054481
-0.067674
-0.063840
-0.055527
-0.046693
-0.006038
0.052497
0.096905
0.139947
0.160791
0.239800
0.244397
0.239419
0.233419
0.212208
0.175835
0.137375
0.085657
0.032245
-0.011939
-0.051034
-0.076178
-0.088417
-0.046720
-0.030292
-0.014478
0.022926
0.083170
0.105946
0.147102
0.196109
0.226276
0.236936
0.222647
0.197312
0.139758
0.101703
0.064198
0.015931
-0.017706
-0.056343
-0.071006
-0.088730
-0.091233
-0.069366
-0.032629
0.003533
0.045961
0.081018
0.124538
0.160367
0.180390
0.192030
0.185984
0.143922
0.098971
0.049004
0.009849
-0.040417
-0.095967
-0.139202
-0.134116
-0.152443
-0.141008
-0.109456
-0.078492
-0.035824
0.007629
0.050325
0.100069
0.139853
0.147531
0.132863
0.113787
0.094929
0.067008
0.012956
-0.041181
-0.083117
-0.121459
-0.151345
-0.177645
-0.166435
-0.186704
-0.171987
-0.145077
-0.118897
-0.069348
0.004880
0.058303
0.123014
0.130137
0.132195
0.104124
0.078845
0.024862
-0.023656
-0.033220
-0.090719
-0.135590
-0.163523
-0.188492
-0.195024
-0.196915
-0.171719
-0.137805
-0.110874
-0.044866
0.015299
0.045573
0.076748
0.099762
0.103051
0.087371
0.057692
0.028656
-0.022552
-0.074566
-0.115096
-0.151686
-0.168561
-0.190248
-0.182324
-0.183933
-0.171208
-0.133494
-0.085417
-0.035350
0.000155
0.043499
0.071158
0.076959
0.090876
0.078574
0.064711
0.040609
0.004259
-0.054511
-0.115854
-0.155037
-0.164349
-0.177350
-0.202297
-0.216026
-0.190637
-0.125830
-0.037860
-0.008291
0.005959
0.028405
0.098632
0.111069
0.110785
0.100332
0.066615
0.038223
0.002794
-0.044139
-0.089529
-0.142593
-0.178825
-0.193473
-0.189095
-0.181045
-0.157093
-0.118169
-0.080059
-0.037302
0.010797
0.051026
0.084601
0.109808
0.125595
0.106689
0.080445
0.050223
-0.002821
-0.056569
-0.106323
-0.144334
-0.167038
-0.201586
-0.169104
-0.157059
-0.145080
-0.123317
-0.087488
-0.032779
0.016393
0.064138
0.094866
0.106720
0.104310
0.106480
0.085429
0.054763
0.010144
-0.032818
-0.081166
-0.134758
-0.169159
-0.183403
-0.189622
-0.178329
-0.167830
-0.123255
-0.080094
-0.034011
0.015611
0.057654
0.083165
0.080268
0.102873
0.118809
0.077419
0.048480
0.034948
0.006904
-0.073473
-0.136581
-0.190681
-0.199270
-0.179970
-0.174339
-0.155225
-0.131019
-0.088851
-0.035389
-0.005155
0.065841
0.101849
0.120142
0.099799
0.070912
0.064401
0.043977
0.015512
-0.051628
-0.081943
-0.135980
-0.178783
-0.203567
-0.209022
-0.204839
-0.177604
-0.106333
-0.070609
-0.031064
-0.005286
0.045973
0.079734
0.093751
0.093487
0.086758
0.069545
0.029152
-0.013496
-0.052136
-0.102187
-0.149772
-0.176776
-0.209190
-0.214486
-0.192002
-0.185604
-0.117021
-0.084263
-0.040950
-0.009868
0.027870
0.046178
0.101953
0.113399
0.108191
0.069134
0.010579
-0.035180
-0.053795
-0.103237
-0.129616
-0.160429
-0.195725
-0.212888
-0.186478
-0.153004
-0.133470
-0.112807
-0.070795
-0.012716
0.026933
0.062824
0.077172
0.077987
0.062153
0.061439
0.048537
-0.003143
-0.065796
-0.106464
-0.133482
-0.173897
-0.195838
-0.199003
-0.181571
-0.162423
-0.132247
-0.106107
-0.072014
-0.035056
0.053041
0.095376
0.102237
0.081579
0.080295
0.056423
0.023223
-0.023190
-0.071353
-0.120991
-0.162476
-0.194157
-0.215440
-0.239924
-0.200880
-0.183817
-0.133194
-0.103580
-0.052415
-0.005538
0.026036
0.060504
0.079536
0.077558
0.077501
0.058921
0.025898
-0.019800
-0.071168
-0.110084
-0.145255
-0.186765
-0.208120
-0.193070
-0.193206
-0.181745
-0.143259
-0.097609
-0.050619
-0.003620
0.025162
0.051824
0.062092
0.067516
0.087485
0.083390
0.035092
-0.017863
-0.049064
-0.092880
-0.143540
-0.182154
-0.211041
-0.205132
-0.185090
-0.155580
-0.124379
-0.099860
-0.057686
-0.009907
0.045407
0.083250
0.126152
0.138832
0.105769
0.069858
0.054685
0.030055
-0.018333
-0.058764
-0.094667
-0.140170
-0.173111
-0.172599
-0.145368
-0.129513
-0.105735
-0.070797
-0.016352
0.028456
0.074167
0.091539
0.094259
0.097473
0.135880
0.107783
0.061072
0.023883
-0.031441
-0.071198
-0.112549
-0.151783
-0.149378
-0.150728
-0.129258
-0.117238
-0.097616
-0.079949
-0.011291
0.056529
0.105453
0.155462
0.171180
0.132918
0.129038
0.088880
0.062589
0.027468
-0.018387
-0.082558
-0.120555
-0.139037
-0.166736
-0.182633
-0.177832
-0.168899
-0.122306
-0.086501
-0.041452
-0.010675
0.040566
0.086525
0.085628
0.099905
0.117901
0.090717
0.048092
-0.012488
-0.052316
-0.103704
-0.158408
-0.196492
-0.205447
-0.204449
-0.196578
-0.174855
-0.139345
-0.098259
-0.074657
-0.029254
0.010885
0.052915
0.079630
0.076212
0.077327
0.040607
0.004313
-0.038413
-0.091566
-0.143316
-0.190554
-0.202691
-0.227384
-0.242161
-0.245468
-0.223907
-0.150123
-0.098078
-0.049030
-0.021293
0.004441
0.038658
0.068177
0.066406
0.062139
0.034433
0.003100
-0.040217
-0.078715
-0.120828
-0.180382
-0.207622
-0.227141
-0.230213
-0.224049
-0.213278
-0.165061
-0.127489
-0.085882
-0.031632
0.011761
0.037329
0.061545
0.082517
0.065257
0.030205
-0.007782
-0.039193
-0.096235
-0.145278
-0.209070
-0.197229
-0.197847
-0.202297
-0.216306
-0.226400
-0.186772
-0.107989
-0.059045
-0.023704
0.000549
0.034320
0.066818
0.077529
0.062912
0.031229
-0.009128
-0.043952
-0.094557
-0.151020
-0.190843
-0.239775
-0.217780
-0.201734
-0.184308
-0.145516
-0.103420
-0.086065
-0.034164
0.030891
0.088901
0.148906
0.172910
0.204305
0.205914
0.203355
0.180136
0.134661
0.118618
0.108003
0.093399
0.085008
0.098664
0.119653
0.169474
0.224675
0.304459
0.385995
0.473222
0.534924
0.625757
0.691271
0.750296
0.789475
0.817438
0.833054
0.829761
0.814137
0.752985
0.708998
0.682048
0.611869
0.560373
0.531891
0.519277
0.502808
0.480181
0.450061
0.415253
0.408492
0.408088
0.386437
0.339904
0.282160
0.254628
0.235141
0.198634
0.134316
0.086585
0.045337
-0.016547
-0.045703
-0.075757
-0.100713
-0.109644
-0.091864
-0.056381
-0.013523
0.016056
0.058935
0.101430
0.138951
0.139544
0.159584
0.122300
0.092661
0.047478
0.034525
-0.003034
-0.064536
-0.089341
-0.125357
-0.180293
-0.188004
-0.167256
-0.148976
-0.127844
-0.085617
-0.049438
-0.015148
0.057759
0.084044
0.106426
0.109865
0.091901
0.085459
0.043691
-0.008981
-0.053774
-0.082539
-0.128116
-0.162564
-0.190612
-0.194550
-0.191977
-0.174080
-0.135655
-0.071236
-0.031003
0.016574
0.041628
0.072249
0.095873
0.130889
0.105685
0.080598
0.056984
0.011449
-0.041970
-0.092892
-0.133670
-0.164695
-0.164400
-0.180863
-0.188634
-0.173948
-0.114194
-0.072050
-0.026054
0.020795
0.072366
0.105066
0.120941
0.129492
0.115790
0.082227
0.062011
0.017531
-0.035115
-0.085377
-0.119176
-0.147601
-0.154045
-0.148456
-0.149096
-0.124554
-0.094594
-0.044675
0.004448
0.059597
0.090240
0.115729
0.134463
0.150707
0.144171
0.111902
0.079977
0.034194
0.000232
-0.039732
-0.081440
-0.117386
-0.141878
-0.144108
-0.114429
-0.097485
-0.063065
-0.033931
0.028551
0.076564
0.121692
0.147568
0.169584
0.196079
0.191973
0.155594
0.103709
0.077227
0.034780
0.008828
-0.025325
-0.057326
-0.072157
-0.084757
-0.093720
-0.076284
-0.036339
0.010228
0.058100
0.092640
0.129043
0.203966
0.219589
0.234276
0.228077
0.213116
0.186872
0.130556
0.074273
0.031713
-0.010003
-0.042472
-0.063139
-0.063600
-0.046884
-0.012575
0.027086
0.067881
0.103810
0.146916
0.181216
0.225400
0.251688
0.252013
0.225646
0.207860
0.162628
0.107638
0.071377
0.039456
0.011639
-0.011824
-0.025294
-0.046759
-0.048299
-0.018065
0.011339
0.065515
0.105097
0.155516
0.192516
0.202178
0.218092
0.231234
0.218254
0.193548
0.157208
0.123388
0.074571
0.025925
-0.013953
-0.051377
-0.063197
-0.077338
-0.082943
-0.062724
-0.030071
0.014532
0.058119
0.104755
0.145105
0.169001
0.184190
0.192175
0.172943
0.144007
0.112848
0.072194
0.024839
-0.007825
-0.039177
-0.075610
-0.115422
-0.141531
-0.124068
-0.109703
-0.092671
-0.051293
-0.009915
0.069198
0.112253
0.139189
0.151759
0.145981
0.136261
0.105761
0.066865
0.011145
-0.006514
-0.052032
-0.099592
-0.164391
-0.187123
-0.178554
-0.165965
-0.131652
-0.115333
-0.079055
-0.045090
0.012091
0.080250
0.136716
0.143814
0.126417
0.125575
0.109243
0.060654
0.018564
-0.026776
-0.075983
-0.118992
-0.153643
-0.179210
-0.189922
-0.180204
-0.167506
-0.132087
-0.085394
-0.039226
0.002316
0.042831
0.067821
0.100777
0.101297
0.091752
0.068129
0.026256
-0.008850
-0.049397
-0.094746
-0.130430
-0.166506
-0.187503
-0.198921
-0.191011
-0.147812
-0.104891
-0.072534
-0.050757
0.008450
0.058756
0.082586
0.091705
0.092996
0.086499
0.094437
0.071136
0.024359
-0.042412
-0.109709
-0.137712
-0.151484
-0.185832
-0.192444
-0.183296
-0.154900
-0.123083
-0.077283
-0.032137
0.011748
0.051142
0.066756
0.083638
0.085581
0.106641
0.111318
0.066318
0.024311
-0.023329
-0.049870
-0.117910
-0.154670
-0.164389
-0.184777
-0.151567
-0.130894
-0.110099
-0.077236
-0.041395
0.002037
0.052978
0.119171
0.134031
0.127038
0.116491
0.101121
0.055958
0.032354
-0.011559
-0.077711
-0.128487
-0.149672
-0.165803
-0.170486
-0.171120
-0.153366
-0.120485
-0.080594
-0.035451
0.022905
0.072989
0.106697
0.118739
0.123618
0.116197
0.093478
0.055772
-0.000452
-0.044538
-0.075704
-0.135077
-0.164191
-0.169597
-0.157322
-0.145664
-0.120837
-0.107862
-0.074174
-0.016964
0.021252
0.054241
0.079492
0.109806
0.117862
0.106022
0.075537
0.046501
0.023823
-0.027568
-0.062491
-0.106607
-0.141464
-0.183312
-0.187795
-0.174644
-0.157580
-0.107442
-0.060759
-0.020383
0.012460
0.049469
0.077458
0.102536
0.076350
0.093144
0.060254
0.020716
-0.008947
-0.029721
-0.057811
-0.099569
-0.112700
-0.128545
-0.156947
-0.172061
-0.160904
-0.124576
-0.075236
-0.030682
0.014110
0.049034
0.076001
0.100277
0.111244
0.104558
0.080262
0.039156
0.006801
-0.020571
-0.088074
-0.137587
-0.180258
-0.180891
-0.194712
-0.215029
-0.179622
-0.102127
-0.061106
-0.027350
0.025844
0.048053
0.085201
0.099257
0.099296
0.088550
0.075782
0.045358
-0.003826
-0.055476
-0.109047
-0.118309
-0.119296
-0.163136
-0.206076
-0.195992
-0.157773
-0.115148
-0.073302
-0.029677
0.008730
0.042128
0.064552
0.094274
0.115636
0.087324
0.075255
0.031336
-0.000003
-0.060002
-0.106521
-0.159413
-0.190574
-0.192908
-0.211860
-0.181334
-0.176181
-0.148669
-0.112249
-0.028008
0.033274
0.072251
0.095405
0.105409
0.111725
0.090440
0.055878
0.019800
-0.018592
-0.055404
-0.086770
-0.125614
-0.165349
-0.192776
-0.198887
-0.179314
-0.160798
-0.135657
-0.101032
-0.035590
0.015097
0.053774
0.070978
0.083791
0.095082
0.091862
0.075916
0.037049
-0.014382
-0.059289
-0.093907
-0.137762
-0.170325
-0.196022
-0.209881
-0.192111
-0.168399
-0.136593
-0.076626
-0.044565
0.003450
0.022454
0.082284
0.111799
0.110439
0.092929
0.074059
0.037230
-0.004862
-0.058214
-0.085406
-0.125911
-0.168108
-0.194053
-0.195993
-0.177155
-0.149738
-0.111467
-0.085808
-0.031013
0.023116
0.072941
0.092741
0.092274
0.101512
0.113591
0.084055
0.053170
0.020223
-0.015918
-0.068380
-0.100661
-0.135607
-0.161197
-0.163848
-0.152680
-0.128397
-0.089931
-0.065536
-0.029541
0.022151
0.071265
0.084350
0.133125
0.157470
0.154865
0.124019
0.084656
0.027330
-0.029054
-0.059822
-0.085096
-0.126602
-0.152737
-0.156243
-0.136165
-0.113389
-0.076928
-0.024499
0.027576
0.074620
0.095082
0.126422
0.161943
0.170502
0.166632
0.134662
0.066375
0.039980
0.008365
-0.021072
-0.077336
-0.113071
-0.125725
-0.141873
-0.162991
-0.139299
-0.096567
-0.051632
-0.013672
0.033769
0.065760
0.090713
0.131954
0.128413
0.115252
0.093447
0.052637
0.001025
-0.056547
-0.107349
-0.130287
-0.181132
-0.186752
-0.198755
-0.163143
-0.155810
-0.122573
-0.087222
-0.050133
0.010662
0.055106
0.077608
0.099512
0.098306
0.094398
0.069924
0.035290
-0.006766
-0.055687
-0.107942
-0.157746
-0.183693
-0.191017
-0.203026
-0.197008
-0.178468
-0.149462
-0.113634
-0.070853
-0.021733
0.016340
0.031506
0.076683
0.074080
0.056419
0.025608
0.013817
-0.031839
-0.070639
-0.111411
-0.143134
-0.163930
-0.186718
-0.212031
-0.201454
-0.178437
-0.147565
-0.106506
-0.051104
0.007475
0.036633
0.051214
0.072246
0.082939
0.071203
0.038812
0.003663
-0.025811
-0.078338
-0.119576
-0.152526
-0.162989
-0.192346
-0.212150
-0.216183
-0.192983
-0.159996
-0.119652
-0.064981
0.000399
0.032903
0.064359
0.088573
0.081537
0.053015
0.011045
-0.016706
-0.036270
-0.064753
-0.094961
-0.157779
-0.199964
-0.223173
-0.225082
-0.208900
-0.179540
-0.157344
-0.108879
-0.036541
0.007505
0.050746
0.083356
0.136284
0.146826
0.148289
0.145040
0.118665
0.088249
0.057546
0.031720
-0.007691
-0.023638
-0.017959
0.004301
0.040080
0.083434
0.147101
0.213789
0.296990
0.401430
0.473428
0.534128
0.573901
0.634408
0.641280
0.640900
0.651538
0.662669
0.682007
0.668464
0.637616
0.635466
0.668545
0.639753
0.624711
0.650334
0.657869
0.675649
0.695690
0.712639
0.719620
0.695754
0.643703
0.574931
0.495870
0.429633
0.337770
0.231643
0.142079
0.082820
0.054681
0.012165
-0.021801
-0.030755
-0.042535
-0.034870
0.004037
0.023582
0.052071
0.098693
0.123501
0.148619
0.170222
0.188693
0.190870
0.153093
0.100943
0.045283
0.006598
-0.046079
-0.100703
-0.126560
-0.136948
-0.142077
-0.139781
-0.137575
-0.100274
-0.056545
-0.014611
0.015793
0.058356
0.093691
0.126885
0.135905
0.118056
0.089842
0.047012
0.013025
-0.021339
-0.069222
-0.096950
-0.138070
-0.160217
-0.174477
-0.170933
-0.168068
-0.126206
-0.075366
-0.015736
0.029070
0.064913
0.095991
0.120618
0.143896
0.127260
0.079406
0.039057
0.013084
-0.003538
-0.063872
-0.119720
-0.143443
-0.183585
-0.171167
-0.128853
-0.117870
-0.096810
-0.068324
-0.030830
0.028526
0.070893
0.098656
0.122512
0.128846
0.112638
0.085977
0.062481
0.024044
-0.011426
-0.034451
-0.088079
-0.118931
-0.143904
-0.145801
-0.136553
-0.114050
-0.093289
-0.045081
-0.004428
0.038775
0.083835
0.120385
0.138435
0.144053
0.148856
0.130907
0.087036
0.056574
0.022005
-0.015688
-0.070309
-0.094573
-0.117582
-0.126359
-0.125118
-0.091186
-0.045524
-0.009091
0.023928
0.078273
0.116705
0.175349
0.217140
0.221273
0.187978
0.151060
0.115987
0.065125
0.043951
0.016591
-0.019232
-0.059998
-0.078518
-0.073264
-0.068235
-0.051416
-0.017407
0.031369
0.080974
0.114213
0.165111
0.190664
0.216360
0.231689
0.218939
0.210765
0.171218
0.122261
0.091235
0.058645
0.019489
-0.018997
-0.052993
-0.062768
-0.043338
-0.010119
0.036940
0.073329
0.112600
0.152033
0.195619
0.224888
0.253901
0.252489
0.246927
0.220853
0.192148
0.163696
0.112995
0.059133
0.007366
-0.016789
-0.022253
-0.035027
-0.036014
-0.019070
0.037972
0.067173
0.111430
0.160848
0.193162
0.215294
0.224942
0.261677
0.270465
0.232139
0.188564
0.135524
0.081888
0.040173
0.013669
-0.025162
-0.048339
-0.052711
-0.058085
-0.011271
0.017707
0.051230
0.088779
0.124367
0.169227
0.193017
0.223236
0.228892
0.212224
0.178867
0.144095
0.098079
0.034008
-0.016497
-0.046056
-0.066159
-0.072150
-0.084133
-0.072397
-0.038283
-0.024713
-0.011624
0.032547
0.072088
0.120621
0.143142
0.179016
0.172270
0.155363
0.158580
0.120823
0.067771
0.000269
-0.048425
-0.095232
-0.120222
-0.142953
-0.148147
-0.138001
-0.116794
-0.082040
-0.045028
-0.001082
0.037430
0.083156
0.115321
0.144448
0.138542
0.124030
0.092734
0.049357
0.026593
-0.021567
-0.070565
-0.097749
-0.129880
-0.173735
-0.181164
-0.170975
-0.135928
-0.113545
-0.094968
-0.028079
0.017946
0.053933
0.101640
0.117130
0.131812
0.110117
0.092014
0.056196
0.016549
-0.035439
-0.090657
-0.121563
-0.152702
-0.174851
-0.182590
-0.177648
-0.162843
-0.122725
-0.078406
-0.028558
0.019794
0.074563
0.092224
0.120561
0.124816
0.107720
0.078084
0.045522
0.024410
-0.026357
-0.086994
-0.138616
-0.169752
-0.175485
-0.141400
-0.164735
-0.145015
-0.086274
-0.041888
-0.014789
0.029307
0.074598
0.097262
0.130745
0.124521
0.105437
0.096236
0.064235
0.026481
-0.020376
-0.061101
-0.105489
-0.138454
-0.170820
-0.179593
-0.160718
-0.141393
-0.105216
-0.052254
-0.005527
0.035715
0.078501
0.107288
0.126208
0.129795
0.121093
0.107333
0.065021
0.030668
-0.017324
-0.075266
-0.132980
-0.157049
-0.171182
-0.178066
-0.164433
-0.108394
-0.093666
-0.088155
-0.012530
0.038614
0.090355
0.134990
0.136981
0.131517
0.125627
0.111926
0.079866
0.034577
-0.025179
-0.072224
-0.123817
-0.129223
-0.169592
-0.173306
-0.143329
-0.139271
-0.110349
-0.051710
-0.008173
0.026263
0.073056
0.114805
0.125875
0.131719
0.133615
0.120369
0.077927
0.031247
-0.009948
-0.057914
-0.116658
-0.149938
-0.172425
-0.174796
-0.146065
-0.117515
-0.091464
-0.077436
-0.035454
0.032459
0.086793
0.117932
0.118736
0.124166
0.113488
0.085716
0.051444
0.008816
-0.024117
-0.079829
-0.103410
-0.139192
-0.160986
-0.170739
-0.156822
-0.133852
-0.098034
-0.064512
-0.021034
0.022711
0.063862
0.088483
0.113739
0.126962
0.108407
0.083740
0.051030
0.015518
-0.032388
-0.078861
-0.116753
-0.152820
-0.179897
-0.186914
-0.160800
-0.145716
-0.110298
-0.070766
-0.032158
0.015794
0.049745
0.080008
0.115898
0.133610
0.109055
0.096546
0.059389
0.021392
-0.033079
-0.096006
-0.142685
-0.158436
-0.167801
-0.185997
-0.175756
-0.168035
-0.108633
-0.086604
-0.035301
0.015412
0.039174
0.084242
0.117783
0.119080
0.085171
0.076311
0.036224
0.006213
-0.035272
-0.092157
-0.140180
-0.168753
-0.188962
-0.186111
-0.163088
-0.131627
-0.107151
-0.085159
-0.013634
0.031677
0.066355
0.087862
0.084079
0.097148
0.088367
0.088556
0.035572
-0.014158
-0.052599
-0.082174
-0.123125
-0.160312
-0.171654
-0.170686
-0.177543
-0.162172
-0.122008
-0.072184
-0.030847
0.015411
0.060904
0.065081
0.097018
0.100249
0.089103
0.078741
0.033173
-0.010883
-0.044795
-0.092560
-0.136271
-0.169086
-0.172019
-0.185617
-0.193521
-0.150999
-0.111864
-0.071897
-0.035445
0.006230
0.046800
0.084132
0.106737
0.110995
0.094932
0.067608
0.037399
-0.000656
-0.052680
-0.104426
-0.143151
-0.158231
-0.169357
-0.175594
-0.174855
-0.162758
-0.139774
-0.093841
-0.039590
0.009435
0.033611
0.078121
0.104171
0.115445
0.111639
0.084935
0.053070
0.010851
-0.033205
-0.081302
-0.122758
-0.150063
-0.175448
-0.176980
-0.163979
-0.131627
-0.085696
-0.043813
-0.002070
0.045352
0.081219
0.108759
0.147505
0.161235
0.140256
0.127050
0.098783
0.037336
-0.021786
-0.063786
-0.098517
-0.126798
-0.125804
-0.137827
-0.155740
-0.143054
-0.085137
-0.046067
-0.003385
0.049563
0.101158
0.116148
0.121734
0.152794
0.159706
0.146193
0.114998
0.063142
0.012892
-0.032159
-0.072876
-0.094495
-0.123493
-0.125371
-0.110810
-0.098573
-0.083162
-0.035772
0.010955
0.049805
0.094726
0.117937
0.114467
0.117213
0.104666
0.094927
0.063563
0.029498
-0.006927
-0.065966
-0.110329
-0.145556
-0.164374
-0.180861
-0.169858
-0.158451
-0.125011
-0.082431
-0.026297
0.034828
0.072262
0.110685
0.109759
0.084987
0.097391
0.082122
0.048988
0.004902
-0.045541
-0.113534
-0.148226
-0.170512
-0.198178
-0.200021
-0.184998
-0.163223
-0.123664
-0.087344
-0.044823
-0.002957
0.023224
0.051656
0.052071
0.079687
0.078350
0.051660
0.012222
-0.033601
-0.066810
-0.123002
-0.151186
-0.192677
-0.195059
-0.198448
-0.197456
-0.179221
-0.138053
-0.095709
-0.061566
-0.018609
0.019794
0.062142
0.078878
0.078673
0.064265
0.053130
0.021026
-0.029742
-0.065403
-0.109913
-0.160530
-0.186090
-0.201903
-0.216489
-0.197580
-0.174535
-0.146552
-0.103691
-0.064477
-0.019552
0.019348
0.050508
0.071118
0.091982
0.073613
0.052274
0.021884
-0.029086
-0.063551
-0.104660
-0.151866
-0.176972
-0.216820
-0.237592
-0.221790
-0.195252
-0.171413
-0.129701
-0.064426
0.019588
0.043019
0.045460
0.057283
0.075426
0.064801
0.039083
0.022876
-0.014166
-0.042485
-0.083518
-0.109125
-0.128212
-0.115919
-0.103323
-0.082158
-0.053276
-0.022767
0.018093
0.082342
0.144134
0.214991
0.263375
0.315707
0.345964
0.357651
0.372876
0.380147
0.389308
0.368423
0.358274
0.341787
0.336555
0.344986
0.369989
0.406495
0.480809
0.596281
0.687081
0.727215
0.798075
0.852772
0.879946
0.888301
0.882517
0.855947
0.814327
0.775918
0.700563
0.603411
0.470902
0.405322
0.303618
0.202101
0.141905
0.111708
0.074644
0.062873
0.090458
0.120728
0.161742
0.191810
0.215322
0.219234
0.218776
0.209741
0.175941
0.132747
0.083694
0.024556
-0.024084
-0.068956
-0.101754
-0.116725
-0.126650
-0.116063
-0.106974
-0.079970
-0.038870
0.001527
0.043037
0.079050
0.114012
0.142008
0.137197
0.121399
0.119168
0.091651
0.028700
-0.029544
-0.073022
-0.118801
-0.161334
-0.177083
-0.154666
-0.151952
-0.160979
-0.130058
-0.067681
-0.025882
0.010030
0.053427
0.100982
0.126335
0.119447
0.108198
0.078667
0.047660
0.005440
-0.035857
-0.084968
-0.124783
-0.152480
-0.162699
-0.168532
-0.160827
-0.142419
-0.124865
-0.077517
-0.027242
0.026357
0.061048
0.097100
0.136340
0.128495
0.122264
0.092303
0.050553
0.020255
-0.005902
-0.041808
-0.097242
-0.122531
-0.145134
-0.155350
-0.158780
-0.146695
-0.132900
-0.071191
-0.027131
0.050101
0.120233
0.130173
0.133332
0.164838
0.148189
0.122210
0.088016
0.030654
-0.007059
-0.041160
-0.073256
-0.114839
-0.123073
-0.123950
-0.118083
-0.112058
-0.080004
-0.036378
0.016598
0.071365
0.119335
0.174389
0.186615
0.168898
0.139447
0.133403
0.110189
0.062374
0.030761
-0.019909
-0.060430
-0.090034
-0.101142
-0.099666
-0.097777
-0.061120
-0.028283
0.019713
0.064053
0.106595
0.145246
0.174249
0.202153
0.208598
0.189858
0.165575
0.134747
0.102666
0.067525
0.031695
-0.016151
-0.051084
-0.057003
-0.055153
-0.062452
-0.035692
-0.012822
0.050095
0.098372
0.148807
0.185500
0.216762
0.235108
0.232147
0.217216
0.199335
0.174343
0.141732
0.103642
0.061797
0.029428
-0.013750
-0.038546
-0.026635
-0.017146
0.005236
0.030637
0.074981
0.119391
0.171544
0.203358
0.227818
0.237890
0.228026
0.227396
0.208339
0.195244
0.154552
0.092145
0.046055
-0.018578
-0.015672
-0.022869
-0.031361
-0.020628
-0.019749
0.021387
0.065533
0.101556
0.121437
0.163534
0.230801
0.241273
0.243258
0.225581
0.202525
0.164582
0.134468
0.067811
0.021656
-0.024677
-0.064053
-0.071647
-0.081353
-0.076615
-0.059948
-0.028799
0.010317
0.048287
0.090342
0.132155
0.163501
0.174313
0.167868
0.142804
0.102920
0.128764
0.070996
0.011709
-0.035544
-0.062736
-0.091481
-0.120096
-0.140191
-0.122994
-0.089795
-0.069020
-0.038006
0.008525
0.048935
0.087497
0.118169
0.140384
0.146136
0.124491
0.093900
0.071526
0.032802
-0.023136
-0.066610
-0.113988
-0.145884
-0.164337
-0.164186
-0.146960
-0.124848
-0.115484
-0.074920
-0.038004
0.009934
0.063446
0.091186
0.145804
0.145015
0.110423
0.078109
0.047320
0.017383
-0.026344
-0.079953
-0.135636
-0.156297
-0.185209
-0.199478
-0.149773
-0.126736
-0.105653
-0.066179
-0.028467
0.012394
0.061458
0.075503
0.084884
0.123518
0.108477
0.084054
0.057239
0.014441
-0.033346
-0.084485
-0.126819
-0.158301
-0.182296
-0.191908
-0.156108
-0.142207
-0.117251
-0.073764
-0.033599
0.001427
0.059853
0.093286
0.103386
0.098562
0.099775
0.086134
0.057595
0.011257
-0.022061
-0.076578
-0.115386
-0.150469
-0.177357
-0.169149
-0.152501
-0.152743
-0.121618
-0.070590
-0.020833
0.017169
0.056826
0.082241
0.088804
0.116281
0.120800
0.097835
0.059867
0.008177
-0.025821
-0.071420
-0.119462
-0.167678
-0.199217
-0.172158
-0.167151
-0.156743
-0.091583
-0.024057
0.021081
0.023640
0.058966
0.102690
0.137044
0.144159
0.115782
0.116922
0.068615
0.027280
-0.028153
-0.083632
-0.119653
-0.143879
-0.151031
-0.170290
-0.161336
-0.140615
-0.110736
-0.058328
-0.006854
0.032469
0.077797
0.106779
0.116313
0.124067
0.101293
0.086482
0.044072
-0.000874
-0.044001
-0.065479
-0.094385
-0.128739
-0.153687
-0.159930
-0.133099
-0.117472
-0.104036
-0.082777
-0.040679
0.023973
0.060640
0.092855
0.118569
0.147815
0.123100
0.089558
0.046853
0.015282
-0.019622
-0.078387
-0.128608
-0.152783
-0.182706
-0.175027
-0.173625
-0.174334
-0.140965
-0.074565
-0.002102
0.030657
0.065981
0.095474
0.127066
0.123308
0.089488
0.081512
0.047397
0.018232
-0.029480
-0.072407
-0.130210
-0.162944
-0.189263
-0.182300
-0.187601
-0.165652
-0.122215
-0.078306
-0.030210
0.021721
0.077078
0.082405
0.064282
0.123390
0.115477
0.075362
0.044066
0.017348
-0.041748
-0.094678
-0.129024
-0.160713
-0.179940
-0.169575
-0.155881
-0.142806
-0.119642
-0.078843
-0.034097
0.004232
0.047890
0.085267
0.101230
0.122288
0.110228
0.080167
0.032182
-0.005064
-0.050716
-0.096105
-0.132124
-0.163371
-0.183283
-0.184551
-0.178829
-0.164695
-0.140987
-0.095230
-0.048715
-0.002737
0.045515
0.078829
0.094537
0.089526
0.099965
0.093219
0.033634
-0.024433
-0.051383
-0.085472
-0.120687
-0.129048
-0.173737
-0.222400
-0.187089
-0.170262
-0.119056
-0.062697
-0.026969
0.003101
0.053400
0.081846
0.085530
0.100889
0.092323
0.082254
0.039402
-0.002950
-0.044426
-0.084140
-0.133478
-0.159880
-0.183505
-0.192236
-0.189618
-0.168032
-0.139593
-0.099138
-0.042087
0.019535
0.056144
0.066019
0.084149
0.097862
0.109678
0.088290
0.036433
0.001312
-0.057840
-0.099551
-0.149781
-0.171891
-0.191652
-0.189759
-0.158510
-0.123317
-0.101379
-0.079404
-0.040467
0.007898
0.039446
0.059746
0.098275
0.116274
0.137948
0.131451
0.089705
0.039274
-0.023156
-0.049695
-0.098164
-0.129864
-0.148871
-0.151826
-0.140145
-0.111805
-0.091488
-0.048194
-0.009067
0.026051
0.083220
0.118909
0.141845
0.164208
0.135996
0.096332
0.066517
0.009027
-0.042916
-0.059050
-0.072569
-0.095296
-0.141334
-0.151676
-0.136613
-0.123591
-0.086699
-0.047604
0.007195
0.074101
0.120919
0.144607
0.151203
0.157548
0.146530
0.134610
0.097701
0.042143
0.006031
-0.045676
-0.095022
-0.132483
-0.142766
-0.172084
-0.127443
-0.105633
-0.078925
-0.064907
-0.027031
0.015639
0.052200
0.098274
0.116763
0.123709
0.097918
0.072388
0.056629
0.007497
-0.035479
-0.084177
-0.129258
-0.168111
-0.192662
-0.194757
-0.176383
-0.151535
-0.119560
-0.093952
-0.049861
-0.002896
0.036014
0.059371
0.067812
0.081461
0.070876
0.057885
0.026436
-0.029032
-0.058033
-0.105696
-0.162591
-0.200426
-0.201427
-0.192118
-0.186559
-0.185081
-0.161751
-0.106947
-0.068931
-0.008386
0.034680
0.032226
0.046654
0.107425
0.093980
0.050536
0.011717
-0.025975
-0.089831
-0.108677
-0.159652
-0.203645
-0.220920
-0.223001
-0.207435
-0.183779
-0.145124
-0.102243
-0.069493
-0.044378
0.008548
0.057439
0.054318
0.054509
0.040035
0.037795
0.022390
-0.016029
-0.065725
-0.122155
-0.155182
-0.178967
-0.200820
-0.219020
-0.220348
-0.192925
-0.157891
-0.121169
-0.087793
-0.027821
0.005892
0.031052
0.044891
0.091395
0.096071
0.052761
0.000407
-0.021393
-0.073160
-0.126977
-0.177897
-0.215605
-0.237267
-0.228652
-0.200544
-0.190666
-0.165870
-0.080651
-0.034623
0.003540
0.072334
0.118551
0.133775
0.139970
0.134916
0.159137
0.124999
0.086837
0.057265
0.038564
0.005763
0.001348
0.012839
0.036847
0.077330
0.112341
0.169930
0.250869
0.335729
0.435726
0.517234
0.561248
0.600314
0.638051
0.663700
0.686979
0.705946
0.699260
0.689103
0.684771
0.650714
0.626861
0.604967
0.589819
0.574717
0.564808
0.580965
0.592686
0.617194
0.612762
0.585541
0.552647
0.516593
0.485529
0.406306
0.319073
0.248528
0.169386
0.110931
0.054098
-0.007674
-0.048386
-0.075511
-0.083593
-0.062519
-0.047662
-0.022834
0.014489
0.030886
0.068360
0.109716
0.137937
0.167637
0.170509
0.134818
0.125537
0.084098
0.045727
-0.018791
-0.064724
-0.098023
-0.129681
-0.166409
-0.167437
-0.149956
-0.144527
-0.121589
-0.080766
-0.026780
0.018386
0.079940
0.108207
0.109485
0.104988
0.088586
0.072543
0.049904
0.008641
-0.026064
-0.093508
-0.138122
-0.158490
-0.195121
-0.206841
-0.182111
-0.152927
-0.125969
-0.087078
-0.028953
0.018876
0.067308
0.085136
0.091308
0.109760
0.095551
0.073911
0.047986
0.012930
-0.018129
-0.078596
-0.133983
-0.165584
-0.183119
-0.182454
-0.179389
-0.153698
-0.121977
-0.100999
-0.007045
0.051182
0.073522
0.090980
0.114040
0.113819
0.106928
0.086967
0.045125
0.028539
-0.032812
-0.071120
-0.109008
-0.132320
-0.138330
-0.135759
-0.135739
-0.122195
-0.094942
-0.059400
-0.013769
0.040543
0.092993
0.126707
0.143783
0.145679
0.131967
0.112280
0.085473
0.034014
-0.016412
-0.047274
-0.073393
-0.100024
-0.125970
-0.137203
-0.132592
-0.106393
-0.084305
-0.038665
0.021197
0.078414
0.122768
0.160272
0.171415
0.179620
0.172766
0.150304
0.126606
0.085513
0.045664
0.008926
-0.044272
-0.079514
-0.099686
-0.115783
-0.097915
-0.064774
-0.014507
0.032446
0.085208
0.102971
0.148199
0.186338
0.223250
0.225944
0.206512
0.189953
0.163704
0.101225
0.060928
0.035922
-0.013236
-0.035470
-0.053289
-0.058736
-0.044317
-0.013587
0.021828
0.062538
0.088155
0.148612
0.197929
0.227842
0.235576
0.252995
0.238677
0.207728
0.181754
0.136293
0.088587
0.041092
0.007259
-0.054696
-0.043043
-0.047401
-0.043281
-0.012152
0.018055
0.055412
0.098368
0.140337
0.183688
0.208584
0.228184
0.235144
0.229293
0.207504
0.179384
0.129063
0.067931
0.022080
-0.010742
-0.041268
-0.060584
-0.058021
-0.057586
-0.055988
-0.037804
0.047160
0.069650
0.104978
0.147309
0.172823
0.199613
0.207981
0.191660
0.166276
0.123979
0.081091
0.037654
-0.011862
-0.054834
-0.091803
-0.108081
-0.123674
-0.116246
-0.090374
-0.043880
-0.020062
0.002206
0.049475
0.115292
0.149025
0.153639
0.159856
0.155918
0.128922
0.073230
0.033970
0.003862
-0.048176
-0.095375
-0.121012
-0.149320
-0.161277
-0.142787
-0.119532
-0.096051
-0.069616
-0.024597
0.027114
0.060158
0.101683
0.119355
0.125609
0.107411
0.076886
0.048888
0.008346
-0.035411
-0.083315
-0.128172
-0.154768
-0.175977
-0.181622
-0.162943
-0.138153
-0.123833
-0.088821
-0.048311
0.007396
0.055916
0.075591
0.106532
0.125478
0.092892
0.070473
0.035213
0.030004
-0.034684
-0.082937
-0.130963
-0.162584
-0.188162
-0.199852
-0.193181
-0.146649
-0.117174
-0.079699
-0.026749
0.011419
0.053877
0.065187
0.084578
0.137771
0.122976
0.078713
0.014356
-0.022112
-0.052320
-0.107979
-0.134734
-0.136793
-0.156780
-0.186703
-0.163918
-0.155960
-0.112024
-0.078778
-0.037460
0.008150
0.073429
0.099834
0.089925
0.107530
0.121856
0.101550
0.061013
0.019799
-0.020070
-0.078526
-0.130729
-0.156453
-0.168291
-0.170755
-0.161603
-0.144961
-0.110835
-0.076441
-0.033269
0.006127
0.043097
0.073682
0.109999
0.128877
0.133025
0.103337
0.060937
0.013424
-0.027256
-0.067170
-0.111438
-0.150613
-0.166378
-0.184664
-0.168877
-0.147691
-0.112357
-0.065047
-0.014241
0.023474
0.059270
0.086230
0.106521
0.121834
0.111056
0.104174
0.067123
0.003342
-0.068456
-0.075384
-0.116945
-0.138309
-0.149055
-0.161106
-0.171546
-0.155711
-0.108536
-0.051845
-0.009880
0.037286
0.073031
0.089625
0.100151
0.118543
0.105076
0.085024
0.069296
0.048005
-0.006175
-0.066644
-0.120935
-0.165667
-0.179914
-0.186743
-0.185723
-0.162683
-0.119468
-0.086276
-0.038809
0.030540
0.070733
0.089756
0.113812
0.136284
0.114453
0.078529
0.042621
-0.009699
-0.037560
-0.072328
-0.108701
-0.134130
-0.174110
-0.186654
-0.172431
-0.140300
-0.114997
-0.073962
-0.033715
-0.014395
0.043817
0.106781
0.118154
0.114771
0.094511
0.071744
0.022891
-0.027325
-0.052539
-0.097586
-0.140419
-0.164412
-0.171661
-0.164079
-0.172425
-0.154995
-0.113589
-0.076841
-0.041284
0.003380
0.042855
0.092476
0.109188
0.109547
0.084031
0.070179
0.025009
0.000134
-0.042823
-0.086378
-0.129287
-0.156187
-0.175209
-0.190159
-0.178373
-0.160206
-0.122248
-0.072789
-0.026912
0.003965
0.049639
0.076898
0.094646
0.095524
0.082724
0.059368
0.028273
-0.022754
-0.061216
-0.068044
-0.133887
-0.175053
-0.206477
-0.211060
-0.189782
-0.136840
-0.106134
-0.088601
-0.042428
0.007856
0.031939
0.087179
0.130507
0.137480
0.107468
0.077557
0.039741
-0.002239
-0.046479
-0.105381
-0.149748
-0.173528
-0.176319
-0.194736
-0.174646
-0.155310
-0.126727
-0.092155
-0.048479
-0.007848
0.024497
0.075143
0.108643
0.108808
0.080040
0.033950
0.003409
0.018064
-0.038039
-0.083250
-0.160088
-0.149369
-0.170817
-0.195328
-0.186264
-0.155726
-0.117046
-0.081255
-0.042326
0.000972
0.042818
0.077082
0.092892
0.113043
0.103754
0.080837
0.058202
0.014227
-0.029841
-0.064680
-0.103223
-0.145629
-0.178091
-0.182924
-0.165098
-0.132682
-0.097546
-0.060621
-0.006101
0.038592
0.083637
0.120382
0.138391
0.140335
0.127070
0.101780
0.070784
0.029733
-0.026302
-0.042211
-0.084883
-0.118860
-0.155825
-0.168775
-0.143589
-0.120377
-0.093252
-0.060808
-0.006296
0.033410
0.071588
0.113241
0.147905
0.153177
0.149242
0.121098
0.086958
0.059239
0.003630
-0.040695
-0.062435
-0.094265
-0.126275
-0.140846
-0.132112
-0.097581
-0.074152
-0.033606
0.006723
0.056817
0.098636
0.122189
0.141622
0.145988
0.129020
0.096054
0.071019
0.039670
-0.009693
-0.073729
-0.131272
-0.155705
-0.166781
-0.178185
-0.177125
-0.157804
-0.134029
-0.084800
-0.038320
0.014683
0.043525
0.074434
0.088807
0.090989
0.082372
0.079106
0.063257
-0.002454
-0.034116
-0.071646
-0.129544
-0.176151
-0.195096
-0.203307
-0.202714
-0.180896
-0.147750
-0.108482
-0.056619
-0.038073
0.004085
0.060746
0.069212
0.079300
0.066652
0.042729
0.026629
0.009164
-0.048785
-0.104898
-0.156762
-0.200974
-0.231975
-0.228328
-0.202692
-0.166913
-0.138626
-0.109588
-0.067876
-0.017145
0.023877
0.055578
0.084865
0.092995
0.072773
0.046115
0.012105
-0.022927
-0.077683
-0.111154
-0.154113
-0.183232
-0.209840
-0.219757
-0.203998
-0.179671
-0.143482
-0.119642
-0.080178
-0.036044
0.020966
0.065058
0.076214
0.065191
0.069812
0.049559
0.008412
-0.032249
-0.078725
-0.122728
-0.162304
-0.195844
-0.215181
-0.214729
-0.204120
-0.186636
-0.165634
-0.116420
-0.072177
-0.031604
0.005829
0.036391
0.073717
0.098194
0.090322
0.056811
0.024442
-0.001283
-0.028649
-0.070682
-0.092529
-0.105224
-0.112728
-0.109780
-0.073939
-0.042452
0.014697
0.067068
0.125347
0.178797
0.249917
0.298047
0.343773
0.415125
0.428574
0.434855
0.435771
0.418054
0.410491
0.403668
0.404191
0.407098
0.422555
0.452183
0.505214
0.570614
0.617670
0.699583
0.777008
0.805240
0.836779
0.852433
0.855442
0.860626
0.831705
0.769600
0.677876
0.558392
0.456555
0.339937
0.258325
0.188907
0.127110
0.060319
0.019496
0.002842
0.022485
0.052200
0.085973
0.128330
0.169605
0.174829
0.210523
0.214676
0.195914
0.178329
0.143497
0.082254
0.014644
-0.009359
-0.069129
-0.113658
-0.120549
-0.130544
-0.143743
-0.137424
-0.091946
-0.034591
0.022958
0.059912
0.073485
0.112692
0.134258
0.125990
0.121573
0.097222
0.070009
0.029961
-0.018243
-0.071511
-0.133147
-0.159543
-0.180665
-0.190368
-0.175349
-0.145508
-0.113398
-0.080780
-0.023779
0.034993
0.065981
0.090653
0.105193
0.132496
0.106965
0.071176
0.040606
0.027309
-0.016406
-0.065942
-0.103751
-0.142383
-0.164593
-0.179363
-0.175978
-0.154993
-0.107268
-0.058120
-0.020688
0.020548
0.063305
0.101010
0.129717
0.132635
0.117496
0.096282
0.065490
0.023222
-0.017249
-0.065180
-0.105252
-0.135446
-0.157869
-0.164908
-0.145001
-0.122236
-0.077144
-0.043339
-0.004220
0.033570
0.082153
0.112843
0.130454
0.130639
0.114264
0.118455
0.090011
0.047786
0.006822
-0.045720
-0.085999
-0.103719
-0.106754
-0.125425
-0.124182
-0.111266
-0.074648
-0.033423
0.017241
0.056522
0.094679
0.144890
0.153632
0.176791
0.179965
0.151664
0.124999
0.094076
0.046928
-0.005640
-0.051165
-0.079675
-0.094685
-0.103000
-0.085397
-0.057184
-0.022750
0.002121
0.057226
0.106251
0.145453
0.162120
0.190972
0.233852
0.209650
0.153066
0.123774
0.109142
0.098208
0.038813
-0.003568
-0.033946
-0.033078
-0.049613
-0.042662
-0.030450
0.014594
0.058037
0.092497
0.133691
0.181198
0.227727
0.251370
0.255156
0.258327
0.228506
0.199104
0.148222
0.104553
0.067587
0.023061
-0.011959
-0.035762
-0.043171
-0.042453
-0.015958
0.012231
0.053956
0.106778
0.164810
0.205829
0.225026
0.250617
0.254725
0.235330
0.210092
0.173657
0.141583
0.099214
0.063780
0.019894
-0.022441
-0.049399
-0.051953
-0.043643
-0.026983
0.011969
0.039889
0.091571
0.138073
0.173084
0.204051
0.222142
0.240105
0.222870
0.193894
0.152912
0.131343
0.082943
0.021074
-0.026368
-0.047355
-0.076482
-0.098238
-0.097905
-0.081203
-0.039642
0.001293
0.036313
0.080599
0.115665
0.143232
0.161929
0.173830
0.181893
0.146593
0.113802
0.072898
0.024110
-0.037454
-0.067656
-0.109628
-0.139963
-0.140137
-0.141644
-0.097309
-0.058645
-0.028933
-0.012173
0.028022
0.082200
0.113911
0.139433
0.154940
0.137705
0.120567
0.073833
0.030262
-0.014031
-0.072797
-0.122035
-0.123684
-0.135239
-0.153742
-0.158730
-0.137982
-0.092922
-0.060011
-0.017148
0.027339
0.066988
0.095770
0.125450
0.126187
0.105110
0.084261
0.054915
0.012547
-0.052862
-0.102607
-0.126178
-0.156086
-0.153811
-0.162820
-0.164117
-0.147083
-0.125962
-0.089112
-0.040079
0.033736
0.076986
0.099433
0.113328
0.119569
0.112811
0.086568
0.046330
0.006823
-0.048829
-0.085383
-0.123420
-0.151859
-0.177802
-0.183897
-0.182301
-0.142185
-0.092777
-0.064408
-0.036635
-0.000724
0.053806
0.089958
0.099885
0.111277
0.101776
0.100178
0.069672
0.021091
-0.032461
-0.074707
-0.117731
-0.156246
-0.181821
-0.180388
-0.168583
-0.148666
-0.108790
-0.054552
-0.011939
0.014927
0.072499
0.108167
0.136951
0.143796
0.122050
0.098925
0.060299
0.013454
-0.027047
-0.069541
-0.116838
-0.142818
-0.163468
-0.163321
-0.163507
-0.141797
-0.107679
-0.066085
-0.021043
0.021996
0.071807
0.104053
0.120368
0.140288
0.134153
0.107256
0.055881
-0.001469
-0.057860
-0.071613
-0.118440
-0.138275
-0.156989
-0.167774
-0.147260
-0.128496
-0.100264
-0.063592
-0.013862
0.030269
0.068767
0.088996
0.115660
0.131297
0.118136
0.096020
0.061672
0.019478
-0.022445
-0.068874
-0.113911
-0.139399
-0.165819
-0.174911
-0.158321
-0.133688
-0.107482
-0.064810
-0.020708
0.028184
0.076808
0.103716
0.113098
0.116167
0.114894
0.086089
0.054923
0.015291
-0.041603
-0.094797
-0.126066
-0.139250
-0.157699
-0.179431
-0.177691
-0.149486
-0.106082
-0.060108
-0.032864
0.009924
0.058121
0.090209
0.102461
0.112866
0.108415
0.088238
0.059658
0.017216
-0.035323
-0.077668
-0.137504
-0.151171
-0.182945
-0.210018
-0.158631
-0.152815
-0.142004
-0.098050
-0.020889
0.011611
0.051546
0.090710
0.110182
0.114651
0.100209
0.087132
0.052137
0.007388
-0.042574
-0.086841
-0.121246
-0.153399
-0.184095
-0.200817
-0.188641
-0.169018
-0.125743
-0.092001
-0.033160
0.012723
0.050407
0.084074
0.097884
0.109960
0.087690
0.068845
0.038206
0.002407
-0.045348
-0.094258
-0.135982
-0.163008
-0.192209
-0.203170
-0.195140
-0.176088
-0.126342
-0.081196
-0.024919
0.002932
0.053145
0.085775
0.107143
0.099795
0.096526
0.070430
0.031321
-0.009183
-0.061054
-0.105294
-0.149935
-0.158710
-0.186227
-0.198142
-0.177930
-0.149873
-0.130787
-0.097317
-0.054341
0.001589
0.034372
0.064387
0.102322
0.097377
0.082835
0.071889
0.041976
0.002077
-0.057769
-0.102090
-0.138467
-0.171439
-0.191066
-0.202145
-0.197254
-0.168853
-0.121971
-0.063990
-0.028363
0.006916
0.046766
0.077610
0.102632
0.121426
0.112548
0.078063
0.047553
-0.002687
-0.029956
-0.079174
-0.114611
-0.126530
-0.142829
-0.168694
-0.156534
-0.128229
-0.114341
-0.052905
-0.006242
0.045208
0.095453
0.120648
0.133838
0.146240
0.133338
0.118320
0.085145
0.031097
-0.032988
-0.080950
-0.125596
-0.145980
-0.172363
-0.155956
-0.125643
-0.114664
-0.093579
-0.038254
0.006201
0.034513
0.079820
0.119031
0.148520
0.162187
0.162021
0.131694
0.085009
0.064619
0.021587
-0.037454
-0.085573
-0.120495
-0.140623
-0.155358
-0.134618
-0.109994
-0.078588
-0.047791
0.000500
0.046097
0.087190
0.109769
0.124297
0.131895
0.116021
0.091064
0.060301
-0.001752
-0.038341
-0.093476
-0.140642
-0.155256
-0.158930
-0.175773
-0.178176
-0.172277
-0.116758
-0.065367
-0.030967
0.009580
0.045963
0.066094
0.089647
0.096071
0.088124
0.061372
0.031114
-0.011545
-0.065273
-0.115490
-0.166340
-0.217521
-0.214373
-0.216478
-0.212410
-0.187328
-0.148767
-0.099652
-0.057484
-0.020966
0.022559
0.048571
0.063162
0.078609
0.068749
0.040414
0.008727
-0.034116
-0.072322
-0.129771
-0.184893
-0.217491
-0.220766
-0.205943
-0.186667
-0.183491
-0.162457
-0.123978
-0.080040
-0.009842
0.043177
0.069025
0.060948
0.064278
0.080410
0.058380
0.002134
-0.020715
-0.067229
-0.131304
-0.183310
-0.195340
-0.189651
-0.214782
-0.209985
-0.185145
-0.165933
-0.117427
-0.081564
-0.040314
0.011011
0.048046
0.069287
0.085950
0.068729
0.038203
-0.003008
-0.047282
-0.090466
-0.126780
-0.167102
-0.188168
-0.195680
-0.198172
-0.198755
-0.195186
-0.167919
-0.126379
-0.097552
-0.045370
0.012324
0.045724
0.064441
0.083422
0.100794
0.084523
0.083787
0.049184
0.008747
-0.022859
-0.046481
-0.064768
-0.080425
-0.064292
-0.043587
-0.013034
0.063919
0.121206
0.174343
0.258001
0.331552
0.397703
0.460247
0.489901
0.509543
0.551214
0.543781
0.519642
0.510034
0.513597
0.512860
0.514775
0.534151
0.553766
0.591005
0.618146
0.648280
0.688850
0.730596
0.749960
0.774243
0.783337
0.770281
0.734503
0.649578
0.557304
0.453267
0.388134
0.293122
0.190872
0.086402
0.014535
-0.024850
-0.042600
-0.031723
-0.001563
0.018946
0.056570
0.069033
0.106598
0.147697
0.159538
0.168502
0.168781
0.157932
0.127372
0.087289
0.054971
0.001339
-0.053662
-0.089244
-0.103972
-0.126927
-0.154429
-0.166585
-0.147975
-0.110179
-0.065076
-0.024283
0.016290
0.059416
0.107970
0.124249
0.122487
0.110883
0.087584
0.054120
0.016798
-0.036318
-0.094931
-0.139551
-0.167548
-0.155094
-0.145817
-0.154122
-0.152831
-0.117678
-0.063682
-0.024242
0.004918
0.041936
0.079718
0.092469
0.100555
0.093775
0.084127
0.044898
0.001938
-0.045114
-0.082075
-0.122620
-0.152307
-0.188293
-0.195211
-0.191845
-0.138554
-0.113898
-0.066491
-0.019727
0.014166
0.064343
0.095343
0.120948
0.128722
0.128066
0.100489
0.054601
-0.004680
-0.032800
-0.075762
-0.111428
-0.134791
-0.154974
-0.154896
-0.147928
-0.129628
-0.099695
-0.059233
-0.013739
0.034204
0.075068
0.113821
0.131140
0.135944
0.124332
0.129194
0.097880
0.041820
-0.009303
-0.039416
-0.081874
-0.118627
-0.139163
-0.131074
-0.107311
-0.112202
-0.075301
-0.022949
0.002954
0.049694
0.114342
0.172853
0.196812
0.176950
0.138414
0.120007
0.091251
0.051228
0.025726
-0.006887
-0.020198
-0.051111
-0.079383
-0.095601
-0.083202
-0.068258
-0.034712
0.019604
0.061938
0.099868
0.132688
0.173560
0.208927
0.217913
0.203440
0.193189
0.161064
0.115185
0.050026
0.012780
0.004473
-0.027019
-0.054373
-0.067697
-0.060561
-0.034337
0.000622
0.048465
0.099630
0.135454
0.191712
0.209419
0.236491
0.239339
0.229286
0.216894
0.182703
0.145855
0.097134
0.060179
0.019963
-0.023348
-0.037471
-0.046880
-0.051996
-0.013819
0.014414
0.053741
0.101757
0.144197
0.181607
0.222613
0.252276
0.250417
0.245530
0.201463
0.167464
0.127021
0.082848
0.030450
-0.020700
-0.038022
-0.062770
-0.083130
-0.079341
-0.048955
0.004009
0.032494
0.074333
0.145503
0.196604
0.202749
0.225458
0.224500
0.182930
0.167965
0.134262
0.099553
0.064216
0.014489
-0.049786
-0.090248
-0.111180
-0.104292
-0.088180
-0.081781
-0.055553
-0.029410
0.034076
0.079651
0.123773
0.135091
0.167569
0.162348
0.137760
0.126368
0.106495
0.074248
0.021943
-0.040634
-0.086891
-0.117454
-0.146396
-0.144597
-0.142832
-0.128227
-0.096683
-0.065846
-0.023303
0.032589
0.074003
0.097926
0.092841
0.131961
0.135206
0.112640
0.065235
0.019425
-0.031623
-0.069369
-0.113220
-0.138539
-0.144317
-0.147051
-0.167498
-0.153679
-0.108956
-0.068259
-0.034621
0.013120
0.058491
0.097754
0.116461
0.120593
0.092391
0.062521
0.030939
-0.015861
-0.025017
-0.047240
-0.103470
-0.141735
-0.180940
-0.193888
-0.194561
-0.164200
-0.109048
-0.069677
-0.050339
-0.002070
0.049571
0.062701
0.119420
0.117120
0.130586
0.086303
0.051921
0.004962
-0.044172
-0.082987
-0.137401
-0.159033
-0.175831
-0.182931
-0.171706
-0.154404
-0.107082
-0.075725
-0.028400
0.028348
0.051621
0.084190
0.117563
0.123758
0.126421
0.095465
0.044060
0.018179
-0.013383
-0.058328
-0.126542
-0.139008
-0.179979
-0.183864
-0.174468
-0.140697
-0.096269
-0.050660
-0.019613
0.028850
0.059919
0.094557
0.106810
0.113940
0.109814
0.103853
0.063708
0.024817
-0.024139
-0.071515
-0.109923
-0.141838
-0.166826
-0.173016
-0.152868
-0.131193
-0.103502
-0.063619
-0.021147
0.016881
0.055086
0.108510
0.122879
0.111934
0.105426
0.105115
0.076257
0.020200
-0.023796
-0.068853
-0.114773
-0.136246
-0.159951
-0.176259
-0.162748
-0.141103
-0.116532
-0.089078
-0.004252
0.043796
0.081193
0.107559
0.117569
0.102994
0.107119
0.087798
0.075867
0.038199
-0.002326
-0.065027
-0.115107
-0.130667
-0.146910
-0.162625
-0.172259
-0.131669
-0.105609
-0.078921
-0.025655
0.023712
0.069294
0.094535
0.093414
0.082051
0.080421
0.062337
0.037026
0.000938
-0.024894
-0.085965
-0.108975
-0.131287
-0.148011
-0.163460
-0.149519
-0.119922
-0.104327
-0.066762
-0.029968
0.013016
0.064920
0.085447
0.104008
0.090003
0.092612
0.080500
0.046347
0.017164
-0.024645
-0.064434
-0.109737
-0.150614
-0.174260
-0.182912
-0.179607
-0.165893
-0.127380
-0.073714
-0.033587
0.007349
0.052890
0.080404
0.101587
0.107151
0.091119
0.075802
0.048876
0.008922
-0.050168
-0.080768
-0.121851
-0.160250
-0.187280
-0.186233
-0.172920
-0.163389
-0.126133
-0.097069
-0.032936
0.020846
0.051742
0.077730
0.094023
0.101596
0.092394
0.072486
0.044579
0.012686
-0.044944
-0.088875
-0.132177
-0.157580
-0.164303
-0.182750
-0.190745
-0.160754
-0.122302
-0.079734
-0.043161
-0.009279
0.043760
0.072733
0.098432
0.095510
0.117473
0.107181
0.056256
0.001950
-0.051326
-0.094966
-0.133216
-0.172896
-0.193468
-0.183885
-0.161954
-0.136671
-0.121151
-0.087979
-0.049906
-0.013068
0.028158
0.068250
0.086770
0.128096
0.086549
0.087459
0.064922
0.020738
-0.026956
-0.060975
-0.112127
-0.157478
-0.182047
-0.181814
-0.177028
-0.156727
-0.117273
-0.077488
-0.035372
0.020060
0.063195
0.095817
0.105008
0.117801
0.128695
0.117162
0.064171
0.024058
-0.013789
-0.057569
-0.091389
-0.128913
-0.153136
-0.146113
-0.132549
-0.100776
-0.074289
-0.055196
-0.017656
0.045553
0.066974
0.105019
0.145431
0.172652
0.153784
0.119057
0.084121
0.050622
-0.004674
-0.031416
-0.082452
-0.120630
-0.142298
-0.152367
-0.146430
-0.123153
-0.082213
-0.042683
-0.008989
0.058367
0.115111
0.143594
0.154045
0.159933
0.151450
0.117776
0.097505
0.071814
0.018502
-0.035519
-0.071066
-0.099109
-0.135158
-0.144520
-0.130468
-0.119888
-0.100622
-0.030817
0.007482
0.068914
0.115187
0.136382
0.134952
0.143769
0.135277
0.077102
0.054651
0.009863
-0.034906
-0.067231
-0.098713
-0.149122
-0.158979
-0.169661
-0.163771
-0.159927
-0.113165
-0.089512
-0.024448
0.018510
0.061457
0.098470
0.113718
0.107399
0.090448
0.047566
0.027123
-0.007025
-0.037888
-0.082222
-0.136215
-0.165474
-0.184768
-0.193900
-0.195707
-0.173476
-0.148223
-0.092469
-0.035479
0.005199
0.028572
0.055314
0.067686
0.070273
0.076332
0.047032
0.019301
-0.020465
-0.053594
-0.101231
-0.144370
-0.169795
-0.177739
-0.187388
-0.194124
-0.177465
-0.139571
-0.104277
-0.066166
-0.012853
0.036310
0.074636
0.088162
0.079229
0.070295
0.038357
-0.000285
-0.017717
-0.071894
-0.116454
-0.154903
-0.179671
-0.180980
-0.185146
-0.188807
-0.177328
-0.153562
-0.108046
-0.063772
-0.023962
0.014957
0.049153
0.085616
0.116659
0.095171
0.056030
0.019561
-0.021386
-0.082785
-0.103917
-0.143095
-0.179234
-0.210511
-0.214628
-0.203552
-0.187456
-0.159929
-0.117896
-0.056554
-0.020297
0.036812
0.082778
0.104120
0.104387
0.124945
0.129067
0.110699
0.072280
0.027721
0.030066
-0.014433
-0.039773
-0.026085
-0.004940
0.004181
0.051723
0.119204
0.183899
0.252245
0.321569
0.407428
0.482214
0.535157
0.564858
0.587275
0.587960
0.604407
0.604412
0.620616
0.610266
0.572166
0.559386
0.595178
0.622996
0.624559
0.634706
0.671283
0.715151
0.745386
0.752143
0.744563
0.746109
0.701053
0.634118
0.554097
0.472380
0.407828
0.324346
0.215565
0.112775
0.046287
-0.003153
-0.047483
-0.038648
-0.022800
-0.021702
0.003961
0.021525
0.071405
0.121739
0.152644
0.166252
0.180175
0.178159
0.168312
0.146791
0.126385
0.079304
0.027607
-0.025977
-0.083260
-0.117974
-0.122390
-0.126186
-0.122604
-0.101789
-0.083902
-0.054936
-0.009564
0.038580
0.084359
0.121471
0.142553
0.135739
0.132602
0.102242
0.066386
0.037600
-0.026225
-0.057000
-0.110228
-0.149345
-0.167762
-0.169472
-0.177170
-0.152812
-0.130373
-0.089607
-0.013963
0.058872
0.066266
0.082103
0.134410
0.142314
0.125449
0.117351
0.093511
0.047997
-0.015160
-0.065970
-0.097498
-0.124071
-0.152492
-0.162997
-0.154508
-0.133032
-0.103844
-0.055829
-0.002007
0.049463
0.084539
0.109679
0.131878
0.141868
0.119542
0.107903
0.084301
0.050568
-0.002638
-0.047875
-0.084315
-0.121564
-0.151051
-0.155351
-0.154927
-0.110005
-0.058481
-0.018442
0.027378
0.060360
0.079245
0.126757
0.166162
0.166752
0.157870
0.138625
0.122534
0.072781
0.016511
-0.027238
-0.042570
-0.071813
-0.085839
-0.098386
-0.099230
-0.086197
-0.046946
-0.007960
0.032308
0.084281
0.138427
0.169573
0.191030
0.200240
0.192323
0.174305
0.137297
0.097970
0.049144
0.010841
-0.030891
-0.066576
-0.074760
-0.079177
-0.066843
-0.043015
0.009169
0.055261
0.087055
0.091861
0.170025
0.225863
0.245457
0.244061
0.226648
0.211029
0.178279
0.165901
0.099537
0.035946
0.006094
-0.006513
-0.035430
-0.044909
-0.042045
-0.018835
0.028334
0.067156
0.090588
0.163682
0.217998
0.252472
0.274394
0.272433
0.265292
0.244482
0.210218
0.176835
0.123166
0.077919
0.036913
-0.002485
-0.034235
-0.044558
-0.029734
-0.017351
0.055428
0.095409
0.124109
0.154237
0.185013
0.225883
0.263764
0.268445
0.260613
0.230339
0.195434
0.161023
0.107255
0.057990
0.038969
0.002187
-0.032906
-0.039183
-0.039227
-0.020181
0.007314
0.045878
0.098638
0.143771
0.182255
0.208514
0.228996
0.242937
0.222242
0.205561
0.167789
0.136842
0.079722
0.014118
-0.029098
-0.060861
-0.074996
-0.085178
-0.078613
-0.057277
-0.020435
0.010880
0.042584
0.082213
0.153244
0.162886
0.161898
0.170764
0.187167
0.167899
0.123755
0.074304
0.032218
-0.017295
-0.058810
-0.089876
-0.117682
-0.131641
-0.124109
-0.107942
-0.080783
-0.039905
0.013458
0.082257
0.111123
0.138292
0.156492
0.175042
0.155256
0.107434
0.063601
0.028777
-0.019518
-0.068722
-0.114794
-0.146658
-0.150386
-0.142356
-0.127751
-0.128187
-0.111547
-0.037040
0.000634
0.021092
0.071086
0.119269
0.141782
0.136496
0.124088
0.088530
0.068210
0.028963
-0.014724
-0.060476
-0.093769
-0.120330
-0.145256
-0.165645
-0.157404
-0.130816
-0.098775
-0.049924
0.006987
0.038163
0.079361
0.108396
0.128557
0.133857
0.123680
0.103960
0.073175
0.028653
-0.017802
-0.062840
-0.112919
-0.133333
-0.149132
-0.166229
-0.159756
-0.132593
-0.067535
-0.019280
0.006320
0.040978
0.077218
0.110675
0.134774
0.134207
0.125068
0.093085
0.053865
0.015093
-0.015748
-0.059084
-0.093917
-0.120900
-0.141006
-0.134639
-0.137367
-0.107928
-0.077336
-0.045308
-0.006531
0.046272
0.076354
0.123217
0.140095
0.148246
0.135865
0.109206
0.074003
0.038284
-0.010873
-0.044580
-0.087889
-0.122381
-0.140882
-0.137161
-0.120187
-0.121432
-0.087508
-0.046072
-0.001717
0.026747
0.082765
0.119017
0.175941
0.173425
0.146365
0.125542
0.088818
0.049363
-0.010715
-0.067846
-0.104443
-0.105776
-0.116226
-0.137419
-0.151523
-0.124110
-0.085113
-0.046693
0.004390
0.061134
0.098197
0.118014
0.126534
0.118108
0.112712
0.096631
0.057609
0.038283
-0.011888
-0.033058
-0.082519
-0.126314
-0.145845
-0.142158
-0.139984
-0.105100
-0.071974
-0.035799
0.004910
0.048438
0.084737
0.109628
0.126910
0.122874
0.146050
0.101566
0.063477
0.028422
-0.003869
-0.063869
-0.106520
-0.134842
-0.153624
-0.146667
-0.138256
-0.110070
-0.079904
-0.047170
0.005921
0.042237
0.075905
0.115476
0.125028
0.121219
0.122815
0.107004
0.070765
0.034678
-0.013859
-0.066670
-0.109273
-0.134222
-0.155476
-0.155856
-0.152365
-0.127830
-0.107922
-0.061458
-0.026458
0.021324
0.065345
0.110824
0.130853
0.138222
0.139017
0.114457
0.061441
0.003875
-0.029468
-0.068849
-0.110152
-0.142857
-0.168006
-0.178925
-0.175481
-0.150529
-0.096620
-0.058950
-0.007779
0.052828
0.092514
0.112387
0.119734
0.115904
0.089492
0.098939
0.056943
0.029241
-0.009814
-0.058387
-0.119295
-0.153078
-0.174341
-0.186045
-0.166890
-0.122699
-0.092568
-0.064508
-0.023926
0.033690
0.076727
0.106112
0.123461
0.120451
0.107958
0.075219
0.050631
0.025070
-0.016095
-0.059876
-0.092125
-0.126101
-0.142512
-0.150107
-0.156609
-0.139788
-0.096550
-0.069118
-0.009662
0.026066
0.078569
0.115331
0.128496
0.154689
0.133263
0.098750
0.068097
0.029866
-0.019337
-0.055739
-0.088330
-0.117958
-0.136479
-0.144200
-0.137216
-0.104116
-0.084400
-0.043775
0.017266
0.066182
0.117386
0.125116
0.140096
0.148613
0.146092
0.124938
0.082592
0.043839
0.012515
-0.036969
-0.078852
-0.106426
-0.133821
-0.130292
-0.138533
-0.124527
-0.074644
-0.030278
0.013383
0.065116
0.120565
0.153878
0.173090
0.172511
0.172802
0.155030
0.111058
0.080357
0.037257
-0.015587
-0.051792
-0.084771
-0.101342
-0.109945
-0.113787
-0.083022
-0.060383
-0.019953
0.023220
0.060779
0.096980
0.134042
0.156962
0.149963
0.139749
0.115293
0.092151
0.043914
0.005328
-0.045109
-0.111118
-0.122083
-0.132841
-0.148232
-0.157967
-0.136459
-0.090309
-0.058615
-0.017008
0.028455
0.065189
0.091656
0.120358
0.117799
0.113187
0.090662
0.039363
-0.001116
-0.046988
-0.068901
-0.094726
-0.143402
-0.170211
-0.176624
-0.175046
-0.152284
-0.133428
-0.092067
-0.046470
-0.002221
0.039595
0.072957
0.095827
0.101411
0.104961
0.071469
0.036184
-0.010302
-0.054988
-0.105017
-0.135565
-0.156657
-0.176445
-0.199224
-0.188100
-0.174696
-0.148865
-0.125253
-0.060306
-0.012212
0.032713
0.070137
0.104766
0.110820
0.081620
0.062008
0.033952
-0.011599
-0.050577
-0.096044
-0.139322
-0.172417
-0.197616
-0.212108
-0.200492
-0.157973
-0.103915
-0.083510
-0.041541
-0.009168
0.024915
0.052653
0.077387
0.095970
0.102599
0.067621
0.025178
-0.001510
-0.052810
-0.106727
-0.147758
-0.176830
-0.205159
-0.206408
-0.193155
-0.173716
-0.129399
-0.103953
-0.075345
-0.020374
0.029881
0.071075
0.083919
0.085157
0.102792
0.093155
0.084859
0.071691
0.027796
-0.015481
-0.034637
-0.038845
-0.054275
-0.046484
-0.041284
0.015443
0.088698
0.133037
0.187825
0.258429
0.330324
0.387421
0.435253
0.478815
0.495285
0.500053
0.499342
0.490097
0.467593
0.454727
0.461313
0.461775
0.466575
0.514878
0.564598
0.621673
0.661318
0.692986
0.741648
0.773643
0.803987
0.824124
0.817174
0.776213
0.701895
0.615081
0.510614
0.413119
0.313409
0.223603
0.129899
0.053142
-0.012860
-0.033737
-0.032787
-0.028566
-0.003844
0.023316
0.051358
0.101048
0.132155
0.152570
0.179528
0.184216
0.172861
0.181272
0.142596
0.069562
-0.000601
-0.032035
-0.094745
-0.115204
-0.128675
-0.142975
-0.144463
-0.112179
-0.080508
-0.051067
-0.007633
0.058127
0.089609
0.101685
0.120951
0.137056
0.117317
0.085905
0.054011
0.026359
-0.021124
-0.075952
-0.116793
-0.154219
-0.140768
-0.150990
-0.157711
-0.144491
-0.107307
-0.055700
0.001173
0.044341
0.067240
0.078807
0.096953
0.132182
0.124280
0.109791
0.068707
0.033298
-0.009738
-0.065100
-0.108132
-0.141265
-0.162482
-0.169792
-0.180146
-0.125192
-0.097602
-0.052774
-0.003877
0.037389
0.070981
0.115763
0.141694
0.133149
0.128781
0.115902
0.092074
0.054630
-0.004098
-0.059241
-0.096593
-0.138415
-0.159995
-0.153972
-0.122446
-0.102389
-0.076381
-0.044896
0.011286
0.055054
0.097244
0.140009
0.158421
0.155650
0.149907
0.135580
0.098600
0.059607
0.008045
-0.023618
-0.071998
-0.099256
-0.111129
-0.116166
-0.113245
-0.085604
-0.052882
-0.017588
0.036330
0.085588
0.122475
0.155499
0.176944
0.166746
0.166788
0.156354
0.132461
0.091683
0.053296
0.010065
-0.034574
-0.057681
-0.086883
-0.081268
-0.077563
-0.058893
-0.017129
0.032368
0.113196
0.144908
0.171324
0.201234
0.224459
0.228410
0.219283
0.201477
0.161384
0.131545
0.072283
0.014960
-0.013864
-0.007416
-0.029170
-0.028337
0.002978
0.024395
0.031549
0.047131
0.069837
0.140234
0.179366
0.226486
0.255388
0.251795
0.245936
0.225877
0.195876
0.176162
0.120268
0.075147
0.041771
0.006378
-0.020954
-0.023747
-0.003487
0.015225
0.041648
0.075990
0.117939
0.159857
0.203814
0.238479
0.256101
0.259696
0.252859
0.236484
0.191624
0.150691
0.102046
0.049572
0.004402
-0.020012
-0.044725
-0.050987
-0.041320
-0.019185
0.007389
0.046503
0.084867
0.134348
0.171165
0.209075
0.221159
0.224710
0.215241
0.186767
0.152175
0.114902
0.066688
0.018588
-0.016038
-0.054204
-0.071913
-0.082684
-0.086560
-0.063973
-0.035688
0.000121
0.042599
0.089737
0.124117
0.157576
0.176288
0.170142
0.172022
0.146321
0.099839
0.061568
0.012503
-0.041429
-0.061875
-0.100918
-0.143835
-0.164786
-0.133680
-0.092277
-0.067067
-0.029864
0.000142
0.037692
0.085677
0.113039
0.138285
0.138690
0.132967
0.093946
0.058351
0.040569
-0.012169
-0.047930
-0.079191
-0.119666
-0.145374
-0.166139
-0.153086
-0.131508
-0.088386
-0.053695
-0.013747
0.031478
0.068762
0.094401
0.120669
0.110173
0.085363
0.075458
0.039626
-0.009771
-0.074930
-0.089448
-0.100091
-0.091981
-0.136637
-0.151071
-0.135699
-0.124472
-0.117315
-0.084256
-0.031621
0.018863
0.045984
0.099016
0.108963
0.109038
0.091849
0.090975
0.075844
0.050675
-0.012053
-0.093333
-0.105754
-0.147263
-0.167721
-0.164424
-0.156238
-0.138965
-0.111311
-0.064341
-0.021385
0.011755
0.054985
0.097717
0.118698
0.125348
0.105321
0.086367
0.056101
0.018280
-0.029073
-0.073118
-0.104399
-0.125592
-0.148439
-0.153887
-0.155375
-0.136415
-0.099193
-0.064260
-0.019099
0.012413
0.054362
0.100018
0.129073
0.131052
0.121662
0.104529
0.067895
0.039957
0.001717
-0.054172
-0.096298
-0.121404
-0.148688
-0.158267
-0.154291
-0.141819
-0.094919
-0.064191
-0.008744
0.039202
0.076580
0.110871
0.129910
0.136328
0.125172
0.076413
0.023153
0.050422
0.007610
-0.058961
-0.105307
-0.134916
-0.152071
-0.158295
-0.142402
-0.114084
-0.081276
-0.056409
-0.010871
0.035283
0.067720
0.091346
0.103501
0.118510
0.113704
0.125530
0.114513
0.054300
0.001912
-0.049004
-0.098088
-0.160953
-0.166557
-0.170049
-0.170287
-0.151402
-0.119147
-0.071762
-0.015514
0.042075
0.094606
0.113716
0.132313
0.126676
0.123234
0.103250
0.058515
0.011353
-0.030806
-0.070021
-0.113501
-0.149223
-0.164270
-0.161742
-0.162573
-0.114556
-0.099144
-0.062527
-0.015927
0.024704
0.069102
0.088404
0.108833
0.103934
0.110487
0.093973
0.056121
0.016306
-0.023345
-0.085955
-0.124552
-0.148718
-0.168137
-0.180712
-0.166747
-0.145763
-0.115553
-0.068289
-0.020295
0.024796
0.061961
0.089065
0.112037
0.122228
0.103351
0.083428
0.039115
0.013289
-0.034340
-0.084351
-0.132119
-0.159940
-0.167809
-0.172865
-0.173669
-0.146581
-0.105602
-0.063233
-0.031911
0.010624
0.044228
0.088300
0.112657
0.112104
0.101015
0.083313
0.055469
0.022997
-0.030821
-0.097998
-0.128774
-0.154878
-0.180363
-0.181438
-0.171278
-0.155641
-0.131108
-0.094572
-0.038198
0.015583
0.072734
0.099422
0.108860
0.097285
0.097909
0.068267
0.052431
0.016223
-0.033862
-0.089982
-0.107522
-0.142802
-0.170322
-0.189118
-0.179187
-0.147330
-0.117672
-0.076935
-0.039679
0.014259
0.063825
0.091055
0.106238
0.119952
0.106326
0.079441
0.071535
0.048892
0.001063
-0.045951
-0.079678
-0.121794
-0.150593
-0.171655
-0.132174
-0.109634
-0.082329
-0.042514
-0.006393
0.037728
0.081267
0.103061
0.140278
0.153043
0.146961
0.124237
0.099015
0.079321
0.003569
-0.047937
-0.108160
-0.141788
-0.162308
-0.152797
-0.142441
-0.121018
-0.091314
-0.049772
0.007571
0.054810
0.102892
0.131950
0.159927
0.170136
0.163463
0.138733
0.104798
0.060638
0.019300
-0.031374
-0.073606
-0.104735
-0.133153
-0.134969
-0.109142
-0.095251
-0.067810
-0.029757
0.024297
0.063698
0.082149
0.112693
0.137311
0.137065
0.124727
0.107279
0.057098
0.025493
-0.025446
-0.077321
-0.098372
-0.146859
-0.165547
-0.173638
-0.165457
-0.140132
-0.110753
-0.072446
-0.028208
0.016211
0.057748
0.061792
0.110802
0.109000
0.098849
0.088248
0.044152
0.000262
-0.047136
-0.091908
-0.132506
-0.164115
-0.193913
-0.199903
-0.183005
-0.147056
-0.127720
-0.112762
-0.067929
-0.014058
0.026591
0.062460
0.089746
0.076176
0.057129
0.061156
0.038191
-0.017438
-0.074703
-0.128641
-0.147204
-0.181936
-0.196759
-0.200231
-0.203738
-0.187033
-0.147057
-0.095494
-0.054323
-0.019055
0.018571
0.058966
0.078542
0.085835
0.081474
0.061864
0.037738
-0.034630
-0.042312
-0.105660
-0.153835
-0.191218
-0.202168
-0.206252
-0.205694
-0.179888
-0.140291
-0.106528
-0.049655
-0.006290
0.028000
0.058441
0.077665
0.069680
0.066863
0.039688
-0.000184
-0.029464
-0.056506
-0.110614
-0.155501
-0.193114
-0.211882
-0.208652
-0.211633
-0.182406
-0.150601
-0.119023
-0.082002
-0.017759
0.030467
0.079800
0.117446
0.114827
0.118236
0.100416
0.088445
0.075905
0.044645
0.011923
-0.007054
-0.040800
-0.052060
-0.041337
-0.005843
0.038130
0.097434
0.160893
0.240123
0.313064
0.380391
0.442329
0.508422
0.538873
0.548007
0.561473
0.544801
0.553223
0.556642
0.538319
0.536189
0.542295
0.549391
0.563943
0.605996
0.623793
0.643260
0.688393
0.721222
0.735810
0.747954
0.770001
0.744195
0.664029
0.606138
0.535670
0.438364
0.336792
0.235007
0.151781
0.054754
-0.003307
-0.020190
-0.026100
-0.049906
-0.054323
-0.010033
0.018286
0.049383
0.092180
0.128328
0.155912
0.180849
0.170195
0.156996
0.135348
0.092773
0.055360
0.025962
-0.008942
-0.062360
-0.108381
-0.140443
-0.134300
-0.136871
-0.124558
-0.095458
-0.060048
-0.009575
0.039040
0.072602
0.110344
0.134459
0.144329
0.130955
0.095694
0.059071
0.024871
-0.034454
-0.096401
-0.125624
-0.145937
-0.149603
-0.154078
-0.154367
-0.141324
-0.121564
-0.065035
-0.019763
0.024344
0.080318
0.102174
0.113368
0.112095
0.114509
0.102045
0.073088
0.032009
-0.014887
-0.061786
-0.113574
-0.162348
-0.190093
-0.175165
-0.150547
-0.122436
-0.103102
-0.049034
-0.006391
0.034035
0.110457
0.143429
0.144625
0.138359
0.136666
0.108487
0.088853
0.036008
-0.020271
-0.068132
-0.112372
-0.130257
-0.135174
-0.132062
-0.134131
-0.110866
-0.076772
-0.047114
0.005285
0.066371
0.126358
0.167875
0.172203
0.161742
0.153668
0.138136
0.110704
0.058905
0.000607
-0.024896
-0.071190
-0.082354
-0.108801
-0.120510
-0.124627
-0.096143
-0.056704
-0.016816
0.036211
0.080220
0.115065
0.148364
0.186554
0.216113
0.202671
0.159309
0.124411
0.083919
0.050341
0.013144
-0.023332
-0.048676
-0.071228
-0.068667
-0.064620
-0.041877
-0.004196
0.026090
0.070512
0.119250
0.161051
0.203467
0.218168
0.218608
0.214787
0.202001
0.169977
0.126764
0.094430
0.047989
0.012506
-0.021003
-0.046647
-0.051061
-0.040869
-0.014333
0.027434
0.063962
0.114282
0.163702
0.194437
0.226703
0.251785
0.253438
0.245014
0.235701
0.202271
0.162341
0.117713
0.070427
0.036777
0.011269
-0.020961
-0.023290
-0.012263
0.002279
0.033986
0.072758
0.119849
0.165049
0.206602
0.241383
0.261186
0.259659
0.243472
0.232110
0.203496
0.168598
0.114985
0.051371
0.005874
-0.035147
-0.054498
-0.055665
-0.076603
-0.025722
0.015274
0.066873
0.103185
0.147236
0.185990
0.209201
0.232324
0.213443
0.192584
0.166838
0.154631
0.137196
0.068955
-0.004096
-0.050676
-0.040313
-0.067469
-0.076611
-0.059661
-0.048570
-0.035275
-0.000763
0.041124
0.091708
0.128218
0.164447
0.194828
0.187932
0.177356
0.127978
0.105406
0.069935
0.018248
-0.032086
-0.070802
-0.107090
-0.133458
-0.139937
-0.141089
-0.103084
-0.066931
-0.023398
0.013783
0.050668
0.087847
0.126135
0.148168
0.149073
0.125055
0.117524
0.075114
0.055791
-0.008536
-0.063758
-0.099037
-0.118942
-0.137875
-0.150907
-0.146732
-0.116524
-0.093322
-0.056443
-0.005464
0.041636
0.076378
0.110158
0.122959
0.115325
0.110222
0.090125
0.058774
0.018827
-0.031356
-0.086754
-0.123040
-0.136778
-0.142107
-0.149773
-0.160837
-0.133109
-0.085103
-0.029223
-0.003352
0.018871
0.087417
0.103389
0.103659
0.102083
0.109201
0.101519
0.070449
0.024585
-0.027699
-0.075925
-0.102918
-0.135311
-0.140219
-0.149391
-0.147921
-0.123092
-0.096867
-0.063691
-0.023022
0.027272
0.067150
0.098908
0.131334
0.139944
0.120448
0.090549
0.066872
0.035351
-0.002973
-0.043654
-0.080362
-0.119475
-0.150226
-0.168958
-0.175999
-0.114194
-0.080556
-0.040543
0.010364
0.052334
0.079436
0.121593
0.144718
0.139709
0.133031
0.119267
0.077853
0.036777
-0.010413
-0.060000
-0.095438
-0.136554
-0.145912
-0.149095
-0.136175
-0.124790
-0.095707
-0.048679
0.011781
0.059076
0.100301
0.124418
0.138861
0.142065
0.134626
0.112272
0.079534
0.042209
-0.004760
-0.041116
-0.079133
-0.122155
-0.143397
-0.161993
-0.123575
-0.097352
-0.076502
-0.048264
-0.014340
0.024362
0.073082
0.123355
0.147103
0.138957
0.144431
0.123951
0.075908
0.020922
-0.013987
-0.033142
-0.065007
-0.107715
-0.157428
-0.156666
-0.143995
-0.128407
-0.094778
-0.058300
-0.008034
0.031069
0.075110
0.105236
0.160815
0.141401
0.117351
0.091983
0.076640
0.029428
-0.018080
-0.057258
-0.079663
-0.114228
-0.147977
-0.141468
-0.147000
-0.126101
-0.102069
-0.062398
-0.007667
0.039815
0.080890
0.098367
0.118117
0.132571
0.124971
0.106569
0.067452
0.038609
-0.005692
-0.071029
-0.118397
-0.147521
-0.160359
-0.128245
-0.137668
-0.132533
-0.102182
-0.048659
-0.014425
0.024559
0.068877
0.101612
0.125958
0.123475
0.116658
0.079962
0.062336
0.046370
-0.008218
-0.064888
-0.104956
-0.142893
-0.155524
-0.157416
-0.155906
-0.126695
-0.105733
-0.074709
-0.032354
0.012655
0.067147
0.105056
0.100490
0.126308
0.142317
0.093086
0.078527
0.024377
-0.043190
-0.083719
-0.115006
-0.120987
-0.147852
-0.159140
-0.157185
-0.138117
-0.116244
-0.083197
-0.025448
0.031358
0.076883
0.112495
0.129795
0.120571
0.115759
0.091073
0.053804
0.014691
-0.042508
-0.070274
-0.109440
-0.135596
-0.144186
-0.137802
-0.144928
-0.125576
-0.079238
-0.034326
0.007076
0.041041
0.087884
0.122417
0.140062
0.147496
0.140227
0.127545
0.111095
0.069396
0.035167
-0.013358
-0.066918
-0.119690
-0.121425
-0.121334
-0.118492
-0.099693
-0.052058
-0.003235
0.035005
0.056512
0.092309
0.121157
0.141224
0.158526
0.160905
0.149667
0.110244
0.070534
0.036493
-0.019529
-0.064533
-0.095630
-0.110526
-0.119913
-0.109459
-0.070801
-0.029285
-0.001905
0.048055
0.088731
0.129731
0.150840
0.166698
0.156960
0.143462
0.115632
0.104297
0.066505
0.020683
-0.017075
-0.061909
-0.114806
-0.146997
-0.147806
-0.138283
-0.120997
-0.095058
-0.054748
-0.011585
0.045477
0.073881
0.112683
0.134161
0.136671
0.128495
0.090764
0.043856
0.006570
-0.028053
-0.082652
-0.115799
-0.139563
-0.165505
-0.161657
-0.166852
-0.144258
-0.136105
-0.084345
-0.043526
0.012778
0.051800
0.070059
0.089795
0.103888
0.107046
0.077546
0.036457
-0.021376
-0.050937
-0.104185
-0.150305
-0.157431
-0.174310
-0.165787
-0.165214
-0.161555
-0.142194
-0.098481
-0.050507
0.003445
0.041534
0.069622
0.080191
0.073017
0.078028
0.096270
0.058605
0.011794
-0.033360
-0.095727
-0.115185
-0.168588
-0.196464
-0.194501
-0.185274
-0.165176
-0.133767
-0.103550
-0.051031
0.004878
0.045596
0.074771
0.098953
0.096154
0.081383
0.055868
0.031033
-0.016617
-0.053932
-0.106832
-0.153644
-0.186868
-0.182589
-0.185996
-0.193661
-0.183282
-0.139448
-0.098054
-0.053902
-0.010901
0.034923
0.085428
0.097019
0.088233
0.077005
0.049051
0.009060
-0.012165
-0.048869
-0.084828
-0.119817
-0.130065
-0.151891
-0.150634
-0.127872
-0.075765
-0.041302
-0.003529
0.057886
0.137251
0.193937
0.228986
0.263250
0.292589
0.313589
0.315116
0.310892
0.291133
0.282129
0.261253
0.263805
0.260713
0.270062
0.309275
0.354591
0.405383
0.467465
0.546769
0.649631
0.733419
0.798025
0.863395
0.913111
0.922256
0.911572
0.898227
0.856578
0.782214
0.717597
0.649997
0.586075
0.508399
0.405763
0.333922
0.276652
0.235012
0.207376
0.216830
0.198474
0.206197
0.229210
0.235137
0.257978
0.272176
0.264224
0.238349
0.208249
0.152892
0.098435
0.037881
-0.039087
-0.082604
-0.090795
-0.102099
-0.107157
-0.067343
-0.027636
-0.008334
0.021833
0.065960
0.101357
0.132734
0.162315
0.170883
0.149734
0.111920
0.077478
0.042147
-0.001289
-0.058754
-0.104257
-0.121276
-0.147477
-0.151146
-0.126467
-0.099434
-0.076360
-0.043940
-0.011559
0.035071
0.075863
0.111059
0.130668
0.132341
0.123954
0.097678
0.059830
0.019712
-0.021658
-0.052356
-0.092971
-0.134118
-0.170862
-0.172540
-0.150554
-0.102360
-0.063489
-0.044517
-0.004854
0.047940
0.085237
0.111104
0.135172
0.140249
0.133435
0.109946
0.078603
0.043558
-0.006373
-0.051590
-0.090462
-0.116055
-0.130507
-0.133326
-0.136831
-0.122023
-0.087885
-0.042696
0.008015
0.058396
0.103942
0.137060
0.140639
0.148873
0.137593
0.117307
0.098348
0.062997
0.010875
-0.032466
-0.074354
-0.100271
-0.118277
-0.104393
-0.097302
-0.099515
-0.046287
-0.015930
0.026751
0.080085
0.109963
0.128343
0.169654
0.166496
0.181719
0.160191
0.124785
0.081662
0.044607
0.001613
-0.039445
-0.074349
-0.074000
-0.077182
-0.070025
-0.059878
-0.033126
0.023223
0.063205
0.114058
0.148766
0.186744
0.194824
0.204144
0.247292
0.204806
0.161573
0.128905
0.086504
0.045491
0.001729
-0.029369
-0.039791
-0.045729
-0.024642
-0.024579
0.026712
0.072510
0.119910
0.167664
0.202532
0.226345
0.241941
0.249602
0.250887
0.222211
0.208314
0.162940
0.113118
0.073948
0.036517
-0.000075
-0.028908
-0.030553
-0.017501
0.013132
0.041469
0.074165
0.118906
0.175752
0.228780
0.256366
0.266592
0.267476
0.251051
0.218256
0.186061
0.159707
0.125436
0.066071
0.026997
-0.009909
-0.038824
-0.022937
-0.017783
-0.004565
0.024698
0.064517
0.124265
0.162357
0.190928
0.226340
0.238534
0.241244
0.232725
0.206382
0.170549
0.136293
0.086068
0.044992
0.004434
-0.037229
-0.055554
-0.061497
-0.055606
-0.042767
-0.016886
0.032069
0.072308
0.118688
0.151224
0.177950
0.189274
0.194655
0.188118
0.167433
0.132975
0.088767
0.041794
-0.002709
-0.038632
-0.080344
-0.114872
-0.116883
-0.121130
-0.096665
-0.049559
-0.012380
0.011584
0.066051
0.093098
0.106572
0.164560
0.145515
0.151598
0.155499
0.116294
0.064048
0.014858
-0.047073
-0.095739
-0.131380
-0.150794
-0.137396
-0.124289
-0.112955
-0.088043
-0.049591
-0.014463
0.019410
0.062334
0.121554
0.137677
0.132155
0.119118
0.099884
0.084479
0.042118
0.006095
-0.054932
-0.102215
-0.126172
-0.155238
-0.166112
-0.164669
-0.149941
-0.112973
-0.078922
-0.015343
0.024563
0.079601
0.101379
0.132659
0.141481
0.136185
0.111428
0.077443
0.027775
-0.015827
-0.065842
-0.112192
-0.139275
-0.159521
-0.168585
-0.144351
-0.123138
-0.099944
-0.058815
-0.017761
0.027702
0.064708
0.104092
0.117414
0.123163
0.124087
0.108146
0.069452
0.026675
-0.017015
-0.058590
-0.107885
-0.137097
-0.140063
-0.161720
-0.156895
-0.115316
-0.064355
-0.044846
-0.022305
0.023546
0.071121
0.082690
0.159287
0.185164
0.174842
0.123822
0.056756
0.022121
-0.005573
-0.039271
-0.095161
-0.116633
-0.127702
-0.138977
-0.115492
-0.118399
-0.087177
-0.047817
-0.001506
0.045960
0.089823
0.128847
0.135602
0.141396
0.133976
0.111563
0.056997
0.020562
-0.012631
-0.041774
-0.081662
-0.122176
-0.144394
-0.143458
-0.133939
-0.109408
-0.066903
-0.040649
-0.011328
0.066465
0.099762
0.111513
0.138343
0.154038
0.135702
0.099999
0.078807
0.047523
-0.006592
-0.036819
-0.077900
-0.112468
-0.138217
-0.145913
-0.146688
-0.123805
-0.087563
-0.054531
-0.009650
0.041263
0.080764
0.114644
0.126295
0.130925
0.139397
0.135793
0.096261
0.043390
-0.021101
-0.072300
-0.080889
-0.114841
-0.144772
-0.157157
-0.153038
-0.139313
-0.098339
-0.064004
-0.036824
0.061986
0.101235
0.124427
0.139829
0.141282
0.128755
0.096764
0.075803
0.040673
-0.012341
-0.078207
-0.099678
-0.115841
-0.150594
-0.168031
-0.163987
-0.132445
-0.093590
-0.052141
-0.008404
0.045807
0.084975
0.109582
0.126577
0.148554
0.129481
0.100642
0.062632
0.033145
-0.013010
-0.057175
-0.103052
-0.144384
-0.164103
-0.164549
-0.163155
-0.144625
-0.100695
-0.059545
-0.005542
0.033529
0.078984
0.112089
0.121059
0.120802
0.108506
0.077269
0.041764
0.004045
-0.051706
-0.095529
-0.105368
-0.073918
-0.131436
-0.176151
-0.176959
-0.151609
-0.113275
-0.073074
-0.042061
0.016326
0.062620
0.102426
0.114702
0.130800
0.132676
0.115625
0.067412
0.033441
-0.020300
-0.040448
-0.103794
-0.142116
-0.172824
-0.171325
-0.168752
-0.139047
-0.102595
-0.072410
-0.022588
0.043070
0.071523
0.104371
0.125599
0.128392
0.106081
0.091281
0.065337
0.030222
-0.033607
-0.061527
-0.089595
-0.107313
-0.132949
-0.146737
-0.147271
-0.129956
-0.095466
-0.062785
-0.012578
0.040460
0.089472
0.123986
0.147950
0.159066
0.151879
0.133557
0.091830
0.057123
0.012440
-0.039623
-0.067403
-0.109237
-0.122194
-0.113141
-0.115865
-0.120775
-0.079060
-0.038418
0.021187
0.060045
0.104290
0.134993
0.176610
0.184415
0.162872
0.130248
0.077791
0.035104
0.006577
-0.029789
-0.075401
-0.110243
-0.111663
-0.105016
-0.086004
-0.071163
-0.051627
-0.013561
0.006669
0.056520
0.101089
0.147367
0.201243
0.211579
0.183091
0.150000
0.097405
0.041666
0.036593
-0.000268
-0.059722
-0.120323
-0.142444
-0.143846
-0.145721
-0.133830
-0.096232
-0.030117
0.015494
0.059084
0.079906
0.088411
0.110789
0.141219
0.139603
0.120930
0.071651
0.036856
-0.010760
-0.060844
-0.105208
-0.153378
-0.156246
-0.162689
-0.153042
-0.134277
-0.108479
-0.065787
-0.029215
0.000187
0.041034
0.092597
0.098944
0.100265
0.088041
0.085078
0.058370
0.010587
-0.050201
-0.095989
-0.134387
-0.154425
-0.173170
-0.185726
-0.186040
-0.163407
-0.127213
-0.088194
-0.043857
0.002249
0.043217
0.063954
0.087916
0.102289
0.091191
0.057093
0.022045
0.005446
-0.014346
-0.068003
-0.124526
-0.153501
-0.199071
-0.203443
-0.193617
-0.177072
-0.141294
-0.102615
-0.064018
-0.009456
0.043069
0.079793
0.092728
0.106195
0.090944
0.063322
0.018989
0.022812
-0.040382
-0.076124
-0.142312
-0.155456
-0.185295
-0.192641
-0.193628
-0.177303
-0.145630
-0.086396
-0.047660
-0.007998
0.036375
0.085866
0.096131
0.094742
0.079758
0.053701
0.018223
-0.010039
-0.039613
-0.084093
-0.153007
-0.169069
-0.180747
-0.182790
-0.171271
-0.154474
-0.091866
-0.033932
0.015436
0.062750
0.105139
0.138474
0.176882
0.221320
0.223117
0.216372
0.224283
0.205992
0.161058
0.143297
0.130779
0.124111
0.135134
0.160323
0.197444
0.259642
0.345121
0.408034
0.482503
0.579111
0.650896
0.706537
0.773176
0.808874
0.852455
0.865736
0.866634
0.850393
0.808073
0.751280
0.702273
0.646296
0.610060
0.591714
0.563063
0.539376
0.491391
0.471101
0.453643
0.447452
0.423088
0.405091
0.397150
0.344840
0.311060
0.283747
0.239855
0.199911
0.144079
0.067261
0.004905
-0.020939
-0.052923
-0.068157
-0.079099
-0.067894
-0.059983
-0.027848
0.046275
0.107142
0.160644
0.186954
0.154194
0.178179
0.170304
0.155068
0.107816
0.063867
0.014168
-0.024633
-0.062750
-0.101125
-0.137644
-0.141863
-0.130834
-0.114902
-0.084376
-0.044555
0.004686
0.059006
0.091793
0.112835
0.129889
0.136268
0.132486
0.110663
0.072699
0.025765
-0.006705
-0.073380
-0.070220
-0.116074
-0.149445
-0.149474
-0.145030
-0.126028
-0.099851
-0.045209
-0.003604
0.054747
0.091656
0.105066
0.126392
0.152535
0.144710
0.116808
0.098766
0.059099
-0.000377
-0.047422
-0.089283
-0.123334
-0.144077
-0.150141
-0.132555
-0.113780
-0.077917
-0.037047
0.010661
0.061318
0.098541
0.122196
0.141488
0.146726
0.142193
0.140753
0.114977
0.073756
0.030992
-0.033022
-0.086151
-0.136730
-0.137696
-0.126971
-0.107574
-0.078418
-0.058872
-0.033608
0.038303
0.068958
0.108389
0.143439
0.169054
0.179538
0.175786
0.157430
0.115565
0.095699
0.067789
-0.000095
-0.053122
-0.074205
-0.071369
-0.076073
-0.086152
-0.054636
-0.009615
0.033984
0.079864
0.128346
0.151047
0.179660
0.200696
0.220560
0.207065
0.178448
0.149646
0.133033
0.086858
0.042855
0.004612
-0.020128
-0.055657
-0.071047
-0.041056
0.008871
0.035684
0.066736
0.109218
0.165937
0.196370
0.221541
0.255330
0.258447
0.249116
0.230364
0.188309
0.161299
0.124999
0.074222
0.031364
0.010145
-0.004404
-0.024954
-0.019510
0.005898
0.047000
0.111986
0.141822
0.181493
0.214858
0.257142
0.272277
0.265710
0.254283
0.230811
0.209235
0.177335
0.147678
0.109560
0.055730
0.001833
-0.012441
-0.018318
-0.013461
-0.005936
0.028115
0.077057
0.129545
0.177591
0.215005
0.240799
0.262835
0.265598
0.264907
0.233312
0.193015
0.154141
0.112964
0.047143
-0.006505
-0.039534
-0.010262
-0.025806
-0.029465
-0.028845
-0.013942
0.048887
0.092109
0.132555
0.177815
0.214532
0.238454
0.236749
0.227012
0.192241
0.148878
0.098971
0.048182
-0.001413
-0.019778
-0.048942
-0.086624
-0.082682
-0.070619
-0.053151
-0.025251
-0.005807
0.038809
0.101026
0.141493
0.164356
0.172047
0.184507
0.175179
0.147813
0.121232
0.081306
0.028352
-0.040448
-0.070435
-0.096970
-0.142692
-0.138523
-0.111380
-0.078380
-0.056359
-0.016443
0.016546
0.049920
0.094282
0.116117
0.129149
0.155581
0.169078
0.128196
0.082380
0.041162
0.014738
-0.034556
-0.080573
-0.119506
-0.148611
-0.160403
-0.152645
-0.111325
-0.075552
-0.047987
-0.014971
0.038733
0.107504
0.121178
0.130998
0.141444
0.117338
0.105303
0.088010
0.034041
-0.015903
-0.053041
-0.080430
-0.119593
-0.144289
-0.148927
-0.144939
-0.125829
-0.093028
-0.037532
-0.002624
0.033749
0.082906
0.121275
0.143884
0.146477
0.152537
0.127829
0.077565
0.021434
-0.005615
-0.046021
-0.087698
-0.122288
-0.146968
-0.141461
-0.134929
-0.123393
-0.093639
-0.062880
-0.007169
0.077663
0.109760
0.135000
0.140744
0.128854
0.122771
0.119950
0.097604
0.064104
0.011858
-0.034590
-0.073260
-0.106104
-0.136298
-0.144278
-0.133308
-0.104246
-0.069188
-0.032294
0.000135
0.039664
0.090863
0.132634
0.140740
0.149222
0.171127
0.134078
0.113677
0.069928
0.016484
-0.040018
-0.083104
-0.121137
-0.118199
-0.129606
-0.123674
-0.119229
-0.083611
-0.041962
0.022091
0.060540
0.093582
0.137339
0.143459
0.159186
0.142285
0.117011
0.099897
0.066651
0.029090
-0.042954
-0.074677
-0.110763
-0.133478
-0.131358
-0.128131
-0.099326
-0.057576
-0.017784
0.006785
0.048378
0.095021
0.133196
0.139395
0.150617
0.149103
0.132509
0.086372
0.036733
0.001290
-0.042485
-0.077973
-0.108664
-0.121532
-0.132308
-0.136924
-0.117069
-0.086095
-0.033860
0.005474
0.041357
0.086696
0.139498
0.147121
0.151647
0.141359
0.125250
0.109974
0.059698
0.000462
-0.068355
-0.104386
-0.120468
-0.139254
-0.132473
-0.139887
-0.125318
-0.072843
-0.020369
0.028186
0.056431
0.086434
0.118117
0.136981
0.138626
0.135270
0.106633
0.052457
0.024415
0.015758
-0.029865
-0.095120
-0.147224
-0.166614
-0.141229
-0.144795
-0.141084
-0.080754
-0.036917
0.004408
0.055986
0.098053
0.114958
0.139177
0.154760
0.133100
0.100264
0.064491
0.025998
-0.011754
-0.043695
-0.094410
-0.126788
-0.138206
-0.150959
-0.138494
-0.103794
-0.079857
-0.053181
-0.020064
0.033256
0.081357
0.106081
0.115596
0.124066
0.133331
0.112116
0.076169
0.023650
-0.008891
-0.052378
-0.096264
-0.138511
-0.149076
-0.151328
-0.145120
-0.127826
-0.098201
-0.042956
-0.002309
0.039410
0.080678
0.109353
0.143714
0.140872
0.132426
0.107124
0.080744
0.043557
0.000443
-0.054746
-0.090942
-0.122895
-0.133075
-0.119389
-0.131968
-0.080595
-0.054771
-0.027100
0.008621
0.059439
0.120406
0.166408
0.166670
0.153118
0.149966
0.114609
0.081305
0.058673
0.020784
-0.014443
-0.057132
-0.073481
-0.104165
-0.102659
-0.120848
-0.082374
-0.033769
-0.008872
0.028849
0.068671
0.101910
0.142774
0.175839
0.173319
0.170686
0.142159
0.105309
0.065271
0.034963
-0.014209
-0.053255
-0.068203
-0.089610
-0.096416
-0.073798
-0.063561
-0.031731
0.002001
0.054652
0.103002
0.127586
0.147148
0.169579
0.172575
0.179130
0.164579
0.104807
0.053510
0.010148
-0.034231
-0.077090
-0.118047
-0.128321
-0.134670
-0.135691
-0.118024
-0.089141
-0.044461
-0.001872
0.047631
0.084733
0.117178
0.136353
0.136140
0.125828
0.094044
0.054103
0.016218
-0.016971
-0.047712
-0.098600
-0.135277
-0.138100
-0.151714
-0.148852
-0.140022
-0.116019
-0.068914
-0.028138
0.013489
0.048591
0.094256
0.129019
0.122313
0.097487
0.068346
0.044630
0.003652
-0.039692
-0.088306
-0.121075
-0.158381
-0.190821
-0.173677
-0.171498
-0.158342
-0.137422
-0.064910
-0.037867
0.003824
0.056109
0.094536
0.108708
0.099155
0.093821
0.072616
0.040096
-0.003087
-0.058162
-0.126263
-0.114197
-0.149874
-0.177694
-0.193921
-0.195685
-0.175554
-0.141811
-0.077118
0.003539
0.040241
0.053786
0.088646
0.109466
0.102046
0.092184
0.070025
0.040528
-0.000831
-0.044183
-0.101947
-0.140983
-0.162914
-0.173517
-0.178640
-0.186461
-0.162826
-0.123466
-0.088957
-0.047666
0.003901
0.038240
0.069085
0.094726
0.096740
0.099294
0.065785
0.038964
-0.002396
-0.042545
-0.085477
-0.122306
-0.125416
-0.117364
-0.124946
-0.126191
-0.097765
-0.054003
0.021373
0.098728
0.156568
0.193853
0.231412
0.266000
0.298060
0.305345
0.339439
0.334087
0.296840
0.284456
0.291275
0.290083
0.278208
0.261247
0.333144
0.386360
0.440544
0.499516
0.576423
0.681106
0.751999
0.819822
0.886197
0.919416
0.929413
0.916670
0.904495
0.862590
0.792813
0.730678
0.661541
0.579057
0.482629
0.398157
0.321856
0.269904
0.237340
0.238781
0.223765
0.208013
0.210133
0.236052
0.267383
0.287285
0.292453
0.287349
0.231314
0.197491
0.133389
0.069536
0.002901
-0.040638
-0.061239
-0.069260
-0.075293
-0.072457
-0.057111
-0.032534
0.004309
0.063159
0.094871
0.118301
0.141317
0.163682
0.166625
0.160016
0.136524
0.099491
0.047542
0.003349
-0.047501
-0.091798
-0.131797
-0.148399
-0.163384
-0.133870
-0.121660
-0.095534
-0.046060
0.017837
0.058304
0.094537
0.118756
0.134762
0.138930
0.130598
0.100384
0.074777
0.032965
-0.018811
-0.071163
-0.083012
-0.094194
-0.131697
-0.155959
-0.149768
-0.114047
-0.082761
-0.050370
0.003295
0.041991
0.083356
0.115663
0.150904
0.163047
0.151775
0.130820
0.076854
0.040951
-0.002523
-0.062001
-0.091166
-0.122920
-0.149005
-0.145882
-0.134070
-0.103632
-0.068541
-0.038912
0.009998
0.047484
0.110629
0.148609
0.173228
0.160226
0.148093
0.134207
0.110668
0.075496
0.022453
-0.041998
-0.038485
-0.084376
-0.112112
-0.129352
-0.069353
-0.066342
-0.054693
-0.015489
0.029349
0.079441
0.133664
0.177026
0.185639
0.179224
0.175733
0.152977
0.111858
0.086131
0.049278
0.010908
-0.022350
-0.061065
-0.086393
-0.088932
-0.076851
-0.060059
-0.018709
0.022795
0.073149
0.117439
0.163771
0.192940
0.208913
0.220711
0.231602
0.226005
0.192122
0.135191
0.110097
0.049359
0.002269
-0.023664
-0.038800
-0.059973
-0.042527
-0.016238
0.013194
0.056052
0.104427
0.151428
0.202574
0.259162
0.288623
0.264055
0.259885
0.243154
0.195333
0.152875
0.130316
0.073573
0.016664
0.005605
0.000173
-0.005511
0.014285
0.011673
0.044688
0.073556
0.132291
0.170112
0.212842
0.247956
0.255511
0.264890
0.257136
0.243091
0.209341
0.172713
0.132506
0.090491
0.032741
-0.009476
-0.033195
-0.015361
-0.011339
0.000910
0.027232
0.072381
0.124383
0.155030
0.194182
0.222993
0.242210
0.254403
0.236614
0.207271
0.168351
0.154968
0.113807
0.058766
0.022705
-0.039474
-0.067535
-0.068127
-0.053570
-0.027059
0.000862
0.032999
0.064362
0.109408
0.143992
0.173713
0.199306
0.200167
0.187331
0.186984
0.169190
0.125878
0.064641
0.001110
-0.048933
-0.087996
-0.110123
-0.118680
-0.110839
-0.078508
-0.068049
-0.020957
0.033989
0.093988
0.124375
0.142802
0.147558
0.147371
0.143353
0.135519
0.098765
0.047076
-0.003027
-0.039867
-0.070483
-0.096327
-0.142617
-0.172191
-0.142033
-0.094233
-0.073648
-0.047937
-0.000381
0.066852
0.103235
0.143223
0.142617
0.143624
0.128844
0.090428
0.071153
0.046086
-0.009557
-0.050887
-0.062996
-0.107348
-0.150339
-0.165249
-0.160079
-0.132299
-0.087433
-0.055096
-0.016153
0.043823
0.094388
0.106497
0.114355
0.148134
0.107464
0.095233
0.055228
0.052195
-0.002812
-0.050701
-0.093220
-0.124409
-0.144391
-0.159977
-0.154462
-0.136411
-0.105407
-0.044628
-0.006183
0.030986
0.095522
0.127805
0.137137
0.139717
0.129743
0.118549
0.078960
0.028961
-0.012298
-0.055992
-0.091791
-0.115641
-0.140575
-0.169088
-0.109556
-0.096668
-0.079501
-0.044657
0.000721
0.048749
0.082420
0.130927
0.144997
0.144553
0.136486
0.114836
0.089183
0.042682
0.003913
-0.049303
-0.084538
-0.124524
-0.149160
-0.150624
-0.148470
-0.126410
-0.087251
-0.052036
-0.014780
0.035108
0.095807
0.142276
0.181415
0.155972
0.142798
0.112993
0.098613
0.062391
0.004869
-0.052277
-0.100708
-0.111771
-0.140989
-0.148479
-0.122115
-0.101208
-0.069389
-0.044483
0.006571
0.047615
0.089872
0.125054
0.169521
0.165558
0.150218
0.128023
0.093524
0.041556
0.001748
-0.035643
-0.081373
-0.123972
-0.152736
-0.164690
-0.144754
-0.118202
-0.078091
-0.038154
0.002790
0.042786
0.085094
0.123128
0.147339
0.155040
0.132325
0.105730
0.074099
0.015210
-0.000283
-0.033170
-0.063671
-0.104750
-0.143332
-0.159606
-0.160020
-0.113779
-0.074438
-0.044215
-0.003672
0.048882
0.090341
0.125860
0.141786
0.139426
0.128519
0.111697
0.071799
0.020422
-0.016551
-0.056556
-0.107937
-0.149011
-0.166402
-0.157941
-0.147723
-0.120853
-0.110664
-0.065160
-0.007979
0.067394
0.080243
0.109072
0.134677
0.139973
0.125528
0.110716
0.078669
0.040416
-0.023912
-0.073075
-0.100438
-0.140767
-0.167921
-0.158473
-0.142036
-0.123765
-0.099768
-0.050735
-0.005926
0.046187
0.079318
0.096450
0.123184
0.120801
0.099013
0.093799
0.076260
0.007891
-0.036606
-0.058292
-0.087148
-0.128000
-0.150050
-0.157813
-0.151542
-0.127651
-0.101656
-0.058432
-0.008775
0.053331
0.089688
0.088693
0.104389
0.121903
0.120655
0.102503
0.067598
0.020330
-0.022351
-0.060936
-0.112705
-0.151613
-0.178735
-0.172182
-0.144427
-0.124551
-0.087255
-0.055946
-0.039083
0.010757
0.064214
0.095723
0.095517
0.121441
0.078586
0.074577
0.079626
0.045552
0.011323
-0.036674
-0.094783
-0.144902
-0.165732
-0.164937
-0.150692
-0.135184
-0.081838
-0.012582
0.024777
0.036455
0.057091
0.094229
0.131950
0.163013
0.176639
0.147519
0.113211
0.079632
0.021803
-0.023893
-0.064526
-0.101122
-0.130910
-0.123217
-0.103844
-0.091242
-0.075156
-0.029846
0.008979
0.066985
0.124300
0.135514
0.145838
0.147337
0.142919
0.126661
0.080322
0.040691
0.010376
-0.025614
-0.069939
-0.088509
-0.115450
-0.120002
-0.094761
-0.072482
-0.046633
-0.017068
0.029446
0.076626
0.118159
0.163614
0.191248
0.192569
0.176314
0.162397
0.121765
0.057883
0.003323
-0.013911
-0.061967
-0.104671
-0.134873
-0.146240
-0.137932
-0.126163
-0.098491
-0.037567
0.002868
0.039516
0.073248
0.103803
0.120254
0.135127
0.136622
0.108390
0.057592
0.042035
-0.019929
-0.079852
-0.113802
-0.145783
-0.152852
-0.167857
-0.179513
-0.163860
-0.096930
-0.072768
-0.044223
0.011938
0.063579
0.090376
0.085702
0.092796
0.098275
0.067176
0.020434
0.004931
-0.031005
-0.058351
-0.125180
-0.166502
-0.180785
-0.198299
-0.182484
-0.161640
-0.127247
-0.092621
-0.062113
-0.008485
0.057010
0.093570
0.093236
0.099788
0.092489
0.064247
0.033925
-0.008541
-0.060529
-0.105713
-0.141823
-0.183081
-0.191339
-0.189480
-0.180975
-0.159790
-0.130271
-0.094273
-0.031890
-0.002161
0.024733
0.048185
0.075499
0.099015
0.088316
0.067482
0.027181
0.010013
-0.050902
-0.116507
-0.164122
-0.173622
-0.181539
-0.190376
-0.190609
-0.170566
-0.130045
-0.081799
-0.034907
-0.000099
0.037738
0.066025
0.082760
0.078752
0.087456
0.072899
0.016458
-0.010432
-0.047106
-0.104058
-0.164061
-0.201232
-0.204445
-0.199787
-0.193550
-0.140692
-0.084356
-0.040223
-0.001826
0.055577
0.112751
0.150013
0.183102
0.210420
0.215024
0.210433
0.189577
0.168276
0.150446
0.117670
0.113099
0.105360
0.102688
0.116722
0.177470
0.238785
0.316695
0.417522
0.493048
0.555667
0.631018
0.698246
0.763113
0.811442
0.835722
0.842224
0.831283
0.810117
0.764496
0.703238
0.679797
0.638578
0.607422
0.557785
0.545482
0.531252
0.503094
0.466369
0.462872
0.460372
0.439456
0.396250
0.368696
0.325313
0.293331
0.246226
0.218393
0.190445
0.144445
0.072675
0.007440
-0.028531
-0.054808
-0.064762
-0.064458
-0.056269
-0.033768
-0.007742
0.038375
0.098968
0.138863
0.151425
0.157988
0.176012
0.166513
0.134534
0.079416
0.053379
0.000960
-0.044082
-0.092360
-0.119418
-0.133720
-0.135147
-0.131294
-0.117855
-0.093721
-0.059983
-0.014521
0.035304
0.082038
0.119399
0.131906
0.126763
0.113585
0.110459
0.077922
0.033909
-0.019517
-0.068241
-0.116607
-0.143839
-0.153489
-0.159154
-0.157145
-0.133016
-0.102684
-0.046683
-0.000023
0.044299
0.068187
0.105589
0.121470
0.125737
0.127853
0.095590
0.059136
0.027365
-0.009880
-0.043035
-0.094022
-0.147244
-0.150411
-0.156091
-0.134303
-0.138132
-0.090166
-0.049034
-0.006218
0.045672
0.100200
0.124926
0.143911
0.150289
0.133823
0.120348
0.096311
0.053639
0.015546
-0.034889
-0.080548
-0.105090
-0.127754
-0.138185
-0.126892
-0.105071
-0.078554
-0.030468
0.024364
0.069439
0.109008
0.137952
0.160957
0.161668
0.146104
0.091231
0.097852
0.096771
0.077866
-0.012492
-0.041409
-0.085368
-0.102316
-0.110693
-0.102414
-0.061518
-0.026631
0.026227
0.090448
0.117320
0.130737
0.162008
0.205681
0.215926
0.205852
0.173999
0.136788
0.096045
0.048131
0.000942
-0.026492
-0.059737
-0.056199
-0.055797
-0.047930
-0.028845
0.015643
0.063169
0.095312
0.137457
0.180092
0.213499
0.241025
0.252107
0.235644
0.226621
0.193568
0.144187
0.101438
0.063530
0.017842
-0.015027
-0.040288
-0.024406
-0.017966
-0.006559
0.016393
0.095198
0.121168
0.158144
0.197695
0.228207
0.246017
0.253050
0.244562
0.222364
0.187619
0.161495
0.125282
0.069797
0.029881
-0.001781
-0.025761
-0.032763
-0.023541
-0.002518
0.018749
0.060755
0.109651
0.138684
0.176672
0.242566
0.263218
0.247309
0.225236
0.203488
0.173413
0.131946
0.087213
0.037464
-0.008813
-0.045135
-0.064972
-0.033467
-0.026601
-0.027044
0.006881
0.034420
0.070729
0.118498
0.150115
0.191287
0.215215
0.218211
0.196836
0.159034
0.126522
0.094604
0.042300
-0.015283
-0.047360
-0.091789
-0.099135
-0.080974
-0.105389
-0.096133
-0.048264
-0.027359
0.013056
0.063021
0.119150
0.161804
0.171988
0.199447
0.160805
0.121912
0.090444
0.056592
0.007759
-0.049918
-0.094330
-0.115279
-0.138977
-0.142253
-0.137830
-0.117063
-0.091082
-0.053050
-0.000675
0.045585
0.076966
0.101253
0.137318
0.133516
0.109839
0.093667
0.077534
0.041489
-0.010176
-0.068687
-0.100903
-0.137169
-0.156428
-0.166945
-0.164539
-0.130241
-0.096308
-0.051705
-0.022332
0.027227
0.071994
0.090171
0.112335
0.125868
0.122911
0.112822
0.068763
0.008672
-0.033307
-0.079129
-0.121256
-0.128558
-0.133253
-0.161963
-0.163035
-0.135934
-0.107175
-0.052080
-0.009380
0.017874
0.054270
0.089370
0.104757
0.109528
0.109790
0.107119
0.084360
0.034338
-0.018771
-0.064893
-0.111605
-0.140952
-0.170555
-0.160979
-0.127639
-0.112415
-0.095535
-0.058735
-0.019319
0.027059
0.074501
0.111887
0.151778
0.123063
0.108374
0.085102
0.056455
0.029885
-0.010277
-0.073799
-0.111536
-0.130711
-0.157023
-0.146613
-0.118980
-0.119736
-0.088800
-0.051585
-0.012719
0.039015
0.087819
0.111511
0.123306
0.135266
0.130306
0.114758
0.095689
0.060573
-0.010328
-0.055638
-0.100570
-0.143587
-0.152326
-0.145489
-0.136243
-0.127319
-0.102387
-0.059118
-0.006013
0.042364
0.075241
0.108057
0.129239
0.140561
0.122398
0.101449
0.064705
0.034974
-0.002759
-0.046852
-0.104686
-0.137318
-0.159292
-0.158130
-0.157087
-0.113065
-0.069913
-0.046678
-0.018672
0.023393
0.077552
0.104539
0.115045
0.108779
0.091296
0.106159
0.083909
0.044822
-0.009965
-0.042822
-0.088367
-0.121652
-0.145340
-0.163567
-0.166522
-0.135560
-0.091985
-0.065925
-0.017934
0.024851
0.078155
0.098270
0.108190
0.098912
0.089811
0.073416
0.062525
0.041727
-0.007833
-0.072297
-0.128770
-0.156716
-0.154312
-0.157651
-0.158493
-0.137118
-0.114018
-0.059487
-0.022288
0.015549
0.061613
0.092078
0.117364
0.123826
0.100035
0.085722
0.065411
0.033433
-0.022836
-0.074187
-0.122659
-0.156709
-0.175366
-0.179039
-0.158571
-0.123381
-0.085186
-0.061059
-0.018931
0.019592
0.060648
0.075252
0.089168
0.099510
0.106081
0.090870
0.058866
0.016188
-0.032233
-0.063769
-0.099840
-0.139547
-0.176031
-0.189201
-0.168423
-0.150642
-0.121654
-0.077646
-0.025227
0.014077
0.048267
0.081096
0.109039
0.105573
0.094117
0.080548
0.039462
0.000080
-0.032977
-0.086299
-0.114780
-0.145246
-0.176777
-0.186699
-0.163511
-0.138622
-0.125162
-0.089622
-0.027650
0.006683
0.019655
0.037012
0.091755
0.136461
0.116202
0.081870
0.034240
-0.007039
-0.042484
-0.080851
-0.122415
-0.147700
-0.174043
-0.180968
-0.160693
-0.123357
-0.089429
-0.056727
-0.011108
0.026024
0.061381
0.090494
0.125034
0.130857
0.123024
0.116205
0.084953
0.063481
0.003454
-0.053169
-0.090623
-0.124775
-0.151941
-0.156715
-0.141717
-0.123791
-0.106590
-0.059176
0.002822
0.079951
0.107450
0.130156
0.151398
0.146561
0.127145
0.112798
0.090290
0.044351
-0.007090
-0.051980
-0.087658
-0.114352
-0.123719
-0.141537
-0.132640
-0.115724
-0.082223
-0.040536
0.027772
0.067025
0.096920
0.139056
0.190842
0.172893
0.146906
0.121446
0.087087
0.040189
-0.003021
-0.057796
-0.066496
-0.118523
-0.142108
-0.157409
-0.140390
-0.121434
-0.097600
-0.050467
-0.016172
0.020258
0.063709
0.095545
0.112209
0.114058
0.101563
0.077216
0.047593
0.007149
-0.028804
-0.085583
-0.128853
-0.162293
-0.163855
-0.182132
-0.178277
-0.163159
-0.135054
-0.100872
-0.064257
-0.015020
0.026682
0.053845
0.073237
0.117944
0.099221
0.056780
0.011873
-0.030130
-0.043884
-0.086484
-0.136232
-0.180422
-0.222213
-0.211797
-0.203576
-0.182339
-0.146665
-0.110902
-0.066720
-0.009685
0.030627
0.046844
0.058210
0.063891
0.047444
0.030047
0.019224
-0.004643
-0.048669
-0.096510
-0.157312
-0.198488
-0.215914
-0.215435
-0.204827
-0.155660
-0.136354
-0.117213
-0.081247
-0.023560
0.023798
0.057177
0.056432
0.047495
0.070425
0.055407
0.024477
0.010156
-0.057497
-0.107407
-0.141635
-0.180846
-0.207711
-0.228731
-0.221874
-0.186017
-0.140367
-0.116821
-0.066112
-0.022657
0.012376
0.033067
0.050088
0.076429
0.070674
0.032118
0.010046
-0.031693
-0.087340
-0.133606
-0.174170
-0.179975
-0.213008
-0.233418
-0.229673
-0.206805
-0.172217
-0.104273
-0.049989
0.007714
0.045196
0.113097
0.170380
0.196348
0.178430
0.158515
0.140499
0.110736
0.073929
0.039592
0.024769
0.033522
0.029753
0.042740
0.082371
0.158092
0.204381
0.281556
0.353424
0.462151
0.543816
0.598994
0.641518
0.683254
0.717895
0.735151
0.738110
0.738476
0.722021
0.699340
0.659165
0.629946
0.604600
0.582338
0.556535
0.554974
0.585710
0.589320
0.590731
0.562257
0.522535
0.468364
0.450219
0.397253
0.349123
0.281785
0.213801
0.162311
0.118721
0.076386
0.046116
-0.005348
-0.050937
-0.083042
-0.083820
-0.058472
-0.016307
0.005750
0.027643
0.073612
0.099261
0.118150
0.129277
0.148135
0.141506
0.129592
0.081685
0.031796
-0.015914
-0.059696
-0.084660
-0.126927
-0.150181
-0.164382
-0.157628
-0.134424
-0.111708
-0.073993
-0.027066
0.030361
0.052369
0.064276
0.095973
0.127537
0.116118
0.084995
0.060993
0.013205
-0.040583
-0.092525
-0.136300
-0.153175
-0.160190
-0.188932
-0.197173
-0.173533
-0.118239
-0.064622
-0.035081
0.004097
0.046222
0.092963
0.112969
0.116186
0.106328
0.084934
0.055458
0.017249
-0.035008
-0.084931
-0.117912
-0.149480
-0.164076
-0.178793
-0.168782
-0.137227
-0.105582
-0.073481
-0.027404
0.020787
0.061948
0.089776
0.120634
0.121629
0.108603
0.090232
0.060248
0.018153
-0.017246
-0.062450
-0.101651
-0.137837
-0.154470
-0.169878
-0.157754
-0.141222
-0.070011
-0.017794
0.001068
0.031377
0.087898
0.130123
0.123720
0.144923
0.152166
0.129254
0.086030
0.043705
-0.000403
-0.042939
-0.087084
-0.109302
-0.121379
-0.129817
-0.125552
-0.094302
-0.054176
-0.016541
0.013819
0.073796
0.117202
0.158214
0.177445
0.190323
0.177720
0.148328
0.111879
0.077285
0.035868
-0.020632
-0.028445
-0.078126
-0.087601
-0.095007
-0.089570
-0.074277
-0.036509
0.013515
0.055618
0.108526
0.152662
0.207189
0.219545
0.226620
0.217201
0.190736
0.155359
0.105562
0.096290
0.037196
-0.009176
-0.056046
-0.074177
-0.069792
-0.038491
-0.005793
0.006216
0.033305
0.089872
0.151337
0.206790
0.229073
0.228787
0.231383
0.226490
0.199161
0.166659
0.126576
0.110965
0.063413
0.012526
-0.029793
-0.054719
-0.063660
-0.051325
-0.032049
-0.001601
0.034180
0.078991
0.132215
0.167571
0.209423
0.221484
0.222104
0.216779
0.182088
0.153005
0.110144
0.062025
0.025650
-0.018640
-0.048137
-0.072009
-0.096417
-0.076044
-0.057263
-0.041981
-0.004991
0.054733
0.095972
0.128717
0.154212
0.173661
0.182820
0.195650
0.154411
0.113448
0.070545
0.020698
-0.026672
-0.064397
-0.104648
-0.129947
-0.125074
-0.122375
-0.101606
-0.048792
-0.016350
-0.010262
0.028341
0.074435
0.109307
0.117458
0.120881
0.138774
0.107469
0.067534
0.028499
-0.007606
-0.060830
-0.099592
-0.130216
-0.151954
-0.169454
-0.161651
-0.137657
-0.112280
-0.084178
-0.043789
0.028846
0.086832
0.100426
0.098830
0.100367
0.111154
0.089198
0.047250
-0.000730
-0.039907
-0.095033
-0.156603
-0.178736
-0.169617
-0.171031
-0.179052
-0.180651
-0.110114
-0.061154
-0.027520
0.015222
0.029278
0.079851
0.095036
0.098400
0.093220
0.069217
0.038932
0.005048
-0.053292
-0.094170
-0.126122
-0.161655
-0.199442
-0.203854
-0.187100
-0.148418
-0.128811
-0.084631
-0.050072
-0.004062
0.031002
0.074663
0.086395
0.108529
0.096637
0.075136
0.043276
-0.006496
-0.053346
-0.095375
-0.132788
-0.163632
-0.178563
-0.179441
-0.187293
-0.164730
-0.129108
-0.078645
-0.044036
-0.011100
0.047600
0.099134
0.107414
0.109909
0.104903
0.083890
0.050177
-0.002536
-0.046666
-0.091502
-0.128245
-0.154696
-0.162499
-0.178615
-0.167680
-0.149382
-0.133030
-0.095555
-0.035187
0.028487
0.072510
0.108787
0.109095
0.108489
0.103813
0.067182
0.031189
-0.003739
-0.045241
-0.074978
-0.105292
-0.149287
-0.167221
-0.145573
-0.149750
-0.149946
-0.128170
-0.088723
-0.035040
0.004385
0.049590
0.096598
0.108194
0.107895
0.094136
0.064749
0.052529
0.014216
-0.031369
-0.081028
-0.125440
-0.149956
-0.163050
-0.176558
-0.182994
-0.128538
-0.107574
-0.070017
-0.029807
0.005876
0.047414
0.083095
0.101648
0.100798
0.074333
0.075945
0.049558
0.004843
-0.039204
-0.051599
-0.099919
-0.145605
-0.170966
-0.180739
-0.181435
-0.159500
-0.125410
-0.076263
-0.041552
-0.007431
0.044449
0.092613
0.091718
0.098797
0.102167
0.069851
0.031103
-0.004205
-0.028959
-0.080145
-0.131698
-0.182902
-0.179664
-0.189505
-0.186590
-0.162688
-0.135617
-0.074488
-0.020017
0.004380
0.030875
0.068487
0.098915
0.102130
0.087802
0.056589
0.029758
-0.010396
-0.059478
-0.099643
-0.122305
-0.158583
-0.180275
-0.199270
-0.194700
-0.184950
-0.148269
-0.105335
-0.059895
-0.008815
0.039034
0.079267
0.089925
0.088289
0.076144
0.053965
0.025202
-0.016069
-0.071592
-0.112748
-0.137962
-0.166308
-0.194823
-0.194343
-0.186800
-0.172995
-0.149420
-0.110604
-0.066002
-0.009640
0.032323
0.058925
0.076856
0.082492
0.072175
0.043073
0.013442
-0.016677
-0.063323
-0.090294
-0.117850
-0.166951
-0.197137
-0.209091
-0.195392
-0.165302
-0.144163
-0.101094
-0.047350
-0.000416
0.036388
0.049444
0.069326
0.085151
0.093313
0.063695
0.035875
-0.022835
-0.080113
-0.120576
-0.140953
-0.168431
-0.187275
-0.208340
-0.208189
-0.173105
-0.139812
-0.121143
-0.087595
-0.011750
0.073184
0.097097
0.120513
0.107020
0.085042
0.068495
0.043388
-0.006811
-0.054607
-0.098094
-0.123153
-0.150340
-0.171827
-0.182323
-0.178893
-0.150199
-0.115469
-0.067857
-0.020473
0.020216
0.050662
0.093560
0.107459
0.112861
0.099921
0.085303
0.051407
0.032859
-0.003341
-0.059526
-0.114613
-0.153618
-0.173269
-0.181840
-0.187785
-0.137996
-0.112637
-0.081008
-0.028385
0.021889
0.070985
0.091642
0.120584
0.129726
0.120576
0.105670
0.080089
0.045527
-0.000312
-0.044368
-0.069305
-0.110796
-0.137320
-0.147179
-0.140335
-0.118929
-0.090683
-0.050195
-0.009614
0.022742
0.058244
0.084954
0.097947
0.084443
0.111073
0.090278
0.044188
0.001946
-0.044889
-0.090271
-0.123867
-0.163713
-0.188084
-0.201395
-0.192432
-0.166809
-0.131169
-0.093433
-0.051423
0.000714
0.036693
0.050481
0.070390
0.078076
0.073222
0.052897
0.016614
-0.022503
-0.071595
-0.126099
-0.152095
-0.181022
-0.212519
-0.241225
-0.226341
-0.209406
-0.182636
-0.129809
-0.060409
-0.019343
0.011957
0.034146
0.048844
0.059504
0.047684
0.027471
-0.011085
-0.042238
-0.084858
-0.128873
-0.167975
-0.198237
-0.215062
-0.231747
-0.243361
-0.211988
-0.187095
-0.167955
-0.100883
-0.038707
0.017381
0.030240
0.054585
0.076322
0.060456
0.021184
-0.016379
-0.073869
-0.104425
-0.132899
-0.155777
-0.172861
-0.212716
-0.234563
-0.233391
-0.217661
-0.167235
-0.114719
-0.075023
-0.037368
-0.007000
0.017143
0.024922
0.033635
0.056552
0.021248
-0.025101
-0.059307
-0.095742
-0.144783
-0.182716
-0.212733
-0.233595
-0.248784
-0.226615
-0.201657
-0.184170
-0.128231
-0.087214
-0.036051
-0.004237
0.018226
0.041100
0.058099
0.065005
0.050259
0.018743
-0.019773
-0.056707
-0.088998
-0.120147
-0.141601
-0.145246
-0.130531
-0.113352
-0.053346
-0.024788
0.019405
0.082363
0.151833
0.206574
0.265957
0.309018
0.341094
0.361930
0.362987
0.373663
0.363715
0.334693
0.324666
0.300282
0.300563
0.323471
0.364413
0.407970
0.473216
0.538557
0.609335
0.683513
0.727379
0.760111
0.790006
0.811596
0.802436
0.775576
0.712597
0.639708
0.566539
0.453062
0.325288
0.204791
0.134286
0.081685
0.030298
-0.016070
-0.024719
-0.032371
-0.010831
0.027768
0.055737
0.124459
0.184583
0.198567
0.164228
0.151819
0.121675
0.074443
0.028318
-0.029568
-0.071296
-0.103504
-0.111875
-0.133685
-0.157608
-0.135126
-0.112196
-0.099495
-0.059501
-0.036026
0.008198
0.052672
0.098221
0.105549
0.111171
0.095913
0.059246
0.023281
-0.001095
-0.047440
-0.104506
-0.151393
-0.183670
-0.201273
-0.203165
-0.210694
-0.171344
-0.132521
-0.104171
-0.061010
-0.001830
0.033625
0.067166
0.075649
0.062608
0.075581
0.049011
0.010651
-0.018364
-0.060980
-0.105460
-0.116479
-0.156501
-0.193341
-0.203808
-0.196461
-0.165264
-0.136640
-0.100766
-0.051125
-0.001581
0.034001
0.066854
0.087096
0.099966
0.086720
0.058036
0.021855
-0.017841
-0.042962
-0.077242
-0.112560
-0.150633
-0.162950
-0.174279
-0.176587
-0.171094
-0.139907
-0.076836
-0.025282
0.011639
0.047462
0.087126
0.113647
0.122589
0.110126
0.083657
0.039175
-0.001916
-0.025285
-0.054418
-0.108046
-0.135749
-0.162364
-0.165699
-0.147106
-0.121163
-0.084196
-0.045951
-0.007280
0.044594
0.070974
0.110766
0.128485
0.132974
0.122265
0.112917
0.097056
0.053182
0.006285
-0.035297
-0.064774
-0.116362
-0.147039
-0.135574
-0.106577
-0.084919
-0.060956
-0.004969
0.038104
0.064117
0.101985
0.144913
0.146442
0.144316
0.174040
0.178868
0.158500
0.124135
0.052433
-0.002973
-0.038516
-0.066494
-0.080675
-0.088057
-0.079862
-0.058016
-0.020553
0.028141
0.072702
0.113353
0.152291
0.179315
0.190162
0.210653
0.201766
0.186829
0.153536
0.114907
0.074024
0.021146
-0.013965
-0.053169
-0.062494
-0.067701
-0.058244
-0.041314
-0.015840
0.036037
0.077337
0.116890
0.153064
0.185481
0.198487
0.210617
0.204090
0.170006
0.140568
0.106195
0.053532
0.022242
-0.015238
-0.055915
-0.083868
-0.090455
-0.078368
-0.047296
-0.023162
0.018367
0.067216
0.106511
0.127652
0.174944
0.184479
0.199769
0.191538
0.162690
0.113827
0.077929
0.040275
-0.004948
-0.059916
-0.093106
-0.113058
-0.131496
-0.119760
-0.093724
-0.072950
-0.035934
0.015149
0.056415
0.092980
0.110374
0.127199
0.132291
0.122674
0.100579
0.086201
0.055485
0.003981
-0.057470
-0.098733
-0.129516
-0.146728
-0.174507
-0.163612
-0.145805
-0.110596
-0.054723
-0.023623
0.017065
0.034607
0.062951
0.089405
0.100295
0.083151
0.082098
0.069562
0.022898
-0.055211
-0.114020
-0.136372
-0.159977
-0.171812
-0.204165
-0.194621
-0.163920
-0.139935
-0.107254
-0.064965
-0.003917
0.052345
0.067373
0.076005
0.075728
0.054246
0.031984
0.005210
-0.039480
-0.070270
-0.125737
-0.145167
-0.163516
-0.187745
-0.208923
-0.215018
-0.176150
-0.141640
-0.108880
-0.060850
-0.026403
0.014380
0.058020
0.074694
0.078252
0.069810
0.043485
0.024446
-0.016898
-0.064166
-0.113665
-0.151245
-0.188776
-0.213422
-0.218872
-0.202553
-0.187213
-0.156527
-0.111821
-0.062954
-0.020015
0.013208
0.038291
0.061688
0.084802
0.081133
0.071027
0.032501
-0.012861
-0.065496
-0.124734
-0.135042
-0.175000
-0.181207
-0.199323
-0.198919
-0.170271
-0.132792
-0.097470
-0.052828
-0.016538
0.022961
0.061569
0.093466
0.112808
0.098431
0.067389
0.019122
-0.026128
-0.063373
-0.108845
-0.149556
-0.175713
-0.185582
-0.203420
-0.202625
-0.165493
-0.135124
-0.103607
-0.055837
-0.014595
0.015716
0.058115
0.078593
0.087945
0.077480
0.063662
0.039778
0.001946
-0.047521
-0.101100
-0.149864
-0.193760
-0.205074
-0.211253
-0.199099
-0.183805
-0.139531
-0.088784
-0.039799
-0.006668
0.015610
0.060657
0.079124
0.099675
0.100564
0.072677
0.036710
-0.014997
-0.061482
-0.106437
-0.128260
-0.176253
-0.195671
-0.200163
-0.198496
-0.187973
-0.152736
-0.116845
-0.060808
-0.010929
0.023600
0.055068
0.074286
0.078982
0.082112
0.055544
0.023461
-0.049309
-0.063153
-0.094191
-0.134670
-0.170568
-0.200372
-0.209255
-0.215341
-0.200396
-0.146496
-0.098717
-0.060292
-0.030101
0.012643
0.034141
0.077851
0.090853
0.075109
0.039976
-0.007098
-0.040356
-0.076619
-0.117493
-0.162267
-0.198854
-0.221065
-0.222634
-0.216214
-0.197659
-0.168737
-0.115319
-0.065075
-0.015696
0.010524
0.049602
0.061980
0.067995
0.065328
0.051228
0.005305
-0.034849
-0.078636
-0.130387
-0.160299
-0.198092
-0.217582
-0.232356
-0.226540
-0.193642
-0.154811
-0.118076
-0.075800
-0.030239
0.009894
0.042863
0.067622
0.074625
0.058615
0.043198
-0.003704
-0.053923
-0.089600
-0.141440
-0.183550
-0.226331
-0.211319
-0.232684
-0.223836
-0.201445
-0.183533
-0.129455
-0.050913
-0.024621
0.018237
0.051353
0.053130
0.066948
0.047455
0.007743
-0.025164
-0.049568
-0.062901
-0.104065
-0.143396
-0.192497
-0.209781
-0.216778
-0.199541
-0.163501
-0.147536
-0.110648
-0.058055
-0.011501
0.024953
0.061091
0.076113
0.088500
0.106273
0.092544
0.037187
-0.023711
-0.066751
-0.093396
-0.130869
-0.172516
-0.196773
-0.199620
-0.184413
-0.170973
-0.134122
-0.095827
-0.054230
-0.026761
0.046627
0.084097
0.075323
0.086152
0.080438
0.060535
0.024816
-0.010233
-0.042776
-0.085430
-0.125259
-0.166545
-0.175708
-0.172049
-0.157791
-0.130903
-0.108521
-0.051774
-0.003860
0.023678
0.043261
0.083501
0.103978
0.104900
0.098625
0.081856
0.043925
0.004104
-0.045414
-0.093847
-0.142675
-0.171717
-0.186430
-0.200596
-0.188715
-0.182838
-0.158119
-0.128162
-0.067915
-0.028630
0.005512
0.042062
0.052338
0.059142
0.068998
0.036160
0.011049
-0.044765
-0.079381
-0.125987
-0.174915
-0.221723
-0.238509
-0.245443
-0.226205
-0.207987
-0.183964
-0.143436
-0.094475
-0.056005
-0.015344
0.013588
0.026710
0.052924
0.029459
-0.007978
-0.045040
-0.079780
-0.125120
-0.159250
-0.188789
-0.221842
-0.244705
-0.249756
-0.247949
-0.229633
-0.196703
-0.157947
-0.116693
-0.073224
-0.026515
0.000908
0.018938
0.023843
0.014456
0.002829
-0.029081
-0.076702
-0.111992
-0.163921
-0.205696
-0.240763
-0.264351
-0.249566
-0.240526
-0.219811
-0.208549
-0.172656
-0.118312
-0.056119
-0.020133
0.002495
0.024517
0.035831
0.012669
-0.010476
-0.042703
-0.077749
-0.106747
-0.138249
-0.188490
-0.229130
-0.252231
-0.258463
-0.262867
-0.238858
-0.217413
-0.178210
-0.102806
-0.073667
-0.044503
-0.016693
0.003110
0.029616
0.035435
0.007579
-0.034697
-0.076859
-0.128901
-0.176767
-0.208889
-0.225658
-0.246134
-0.240097
-0.225150
-0.174679
-0.137568
-0.102670
-0.036280
0.022914
0.091292
0.144371
0.171526
0.182389
0.190591
0.176056
0.168022
0.138212
0.131672
0.121167
0.087884
0.110667
0.117528
0.136562
0.175155
0.216579
0.271982
0.345963
0.411511
0.496692
0.580463
0.643626
0.701482
0.764540
0.773624
0.768409
0.759808
0.714145
0.658443
0.601663
0.540773
0.499289
0.451615
0.402805
0.332581
0.295070
0.251250
0.231997
0.230710
0.221675
0.222327
0.201036
0.182480
0.189244
0.167684
0.123038
0.070398
0.024816
-0.038885
-0.091409
-0.117904
-0.134154
-0.149757
-0.165938
-0.155231
-0.128829
-0.115665
-0.081881
-0.027027
0.002773
0.040293
0.064167
0.066459
0.092131
0.073160
0.064271
0.028909
-0.021806
-0.072047
-0.123273
-0.165315
-0.200322
-0.228786
-0.215181
-0.184537
-0.174895
-0.159882
-0.105768
-0.063291
-0.038358
-0.008585
0.025662
0.038387
0.055871
0.041493
0.017659
0.000436
-0.055460
-0.105554
-0.136630
-0.183585
-0.210308
-0.243341
-0.259039
-0.253626
-0.202228
-0.164523
-0.120435
-0.061348
-0.033848
0.010516
0.048329
0.054257
0.048943
0.041767
0.027782
0.006147
-0.034677
-0.083410
-0.109496
-0.151494
-0.192377
-0.211060
-0.209492
-0.204307
-0.187697
-0.164264
-0.127393
-0.076595
-0.024035
0.012895
0.043405
0.062703
0.084459
0.106410
0.079954
0.033952
-0.033886
-0.073565
-0.105556
-0.146212
-0.168397
-0.181353
-0.188107
-0.180374
-0.162924
-0.132239
-0.091205
-0.057358
-0.015373
0.038629
0.064423
0.083558
0.103511
0.109518
0.082973
0.043147
0.003000
-0.043191
-0.083501
-0.115983
-0.141279
-0.165327
-0.172962
-0.168465
-0.151416
-0.117680
-0.071981
-0.013634
0.029312
0.063435
0.102407
0.137809
0.182635
0.154747
0.105452
0.086675
0.054018
0.000108
-0.046190
-0.094418
-0.121437
-0.133644
-0.137853
-0.136253
-0.091780
-0.059766
-0.017129
0.037141
0.089837
0.136950
0.156787
0.172213
0.174082
0.173811
0.150754
0.123289
0.077840
0.036107
-0.001848
-0.049943
-0.057986
-0.101950
-0.117180
-0.109312
-0.083106
-0.042971
-0.007370
0.036218
0.113107
0.171459
0.199481
0.204519
0.188178
0.173767
0.141872
0.151562
0.101327
0.051804
-0.014665
-0.064615
-0.096365
-0.109088
-0.124157
-0.084129
-0.066051
-0.041191
-0.007955
0.033537
0.088150
0.135320
0.151797
0.162924
0.171631
0.165120
0.147373
0.115982
0.065551
0.016476
-0.028313
-0.065082
-0.097505
-0.121092
-0.135804
-0.129190
-0.109606
-0.085871
-0.044021
-0.000833
0.047043
0.083204
0.107709
0.122758
0.126864
0.125553
0.090901
0.052573
0.004054
-0.041891
-0.088575
-0.131785
-0.164875
-0.179645
-0.184517
-0.170269
-0.147372
-0.115211
-0.085970
-0.038544
0.003761
0.038623
0.066694
0.081831
0.079732
0.075870
0.037366
0.012591
-0.019720
-0.073509
-0.124663
-0.157722
-0.183576
-0.202519
-0.217700
-0.218988
-0.197063
-0.171538
-0.134231
-0.069975
-0.031600
0.020495
0.032667
0.022854
0.024485
0.052666
0.050693
0.032728
-0.025319
-0.079031
-0.127990
-0.185779
-0.214968
-0.223449
-0.239600
-0.227812
-0.189798
-0.155618
-0.127957
-0.095162
-0.045373
0.003333
0.011413
0.053562
0.064917
0.040049
0.023506
-0.014198
-0.044148
-0.101273
-0.137455
-0.187315
-0.220616
-0.231063
-0.236716
-0.228417
-0.211073
-0.176589
-0.138822
-0.090054
-0.045626
-0.014213
0.017815
0.038136
0.049308
0.042254
0.037831
0.006217
-0.028595
-0.077420
-0.142716
-0.179322
-0.204390
-0.223337
-0.222886
-0.212276
-0.196615
-0.174836
-0.132869
-0.089953
-0.043546
0.002087
0.029424
