-0.209205
-0.159755
-0.113700
-0.038324
-0.010608
-0.028438
-0.063129
-0.088449
-0.105497
-0.132593
-0.192195
-0.232840
-0.279151
-0.327429
-0.354844
-0.358043
-0.361091
-0.342825
-0.305992
-0.258648
-0.206173
-0.171832
-0.123279
-0.092647
-0.056736
-0.051401
-0.060530
-0.089218
-0.111490
-0.158759
-0.202108
-0.250641
-0.295237
-0.334165
-0.349766
-0.357252
-0.357697
-0.345944
-0.311438
-0.285015
-0.255520
-0.190398
-0.111921
-0.082970
-0.073061
-0.066090
-0.072160
-0.080454
-0.116554
-0.170485
-0.221630
-0.274406
-0.325210
-0.341539
-0.370750
-0.376533
-0.371638
-0.355217
-0.317092
-0.282508
-0.232794
-0.186579
-0.138162
-0.107714
-0.084199
-0.066541
-0.081936
-0.108955
-0.140300
-0.190442
-0.239838
-0.272532
-0.319017
-0.364401
-0.391421
-0.403876
-0.410613
-0.405588
-0.338197
-0.290403
-0.237824
-0.173702
-0.132745
-0.104236
-0.095904
-0.087141
-0.088913
-0.103502
-0.129535
-0.181163
-0.236493
-0.285287
-0.332134
-0.362939
-0.382185
-0.390826
-0.381216
-0.381712
-0.342746
-0.294482
-0.258601
-0.197794
-0.147813
-0.117646
-0.106500
-0.094059
-0.092150
-0.117665
-0.150740
-0.190545
-0.237959
-0.292602
-0.340602
-0.370085
-0.402204
-0.407767
-0.401677
-0.373669
-0.326263
-0.287993
-0.236029
-0.190870
-0.150381
-0.108930
-0.076872
-0.075864
-0.078597
-0.103093
-0.132787
-0.173823
-0.215972
-0.282272
-0.302963
-0.326501
-0.353068
-0.364406
-0.365031
-0.343727
-0.307120
-0.258162
-0.209545
-0.165328
-0.115781
-0.091146
-0.081297
-0.064514
-0.067869
-0.101237
-0.149769
-0.204510
-0.235833
-0.271483
-0.322138
-0.341796
-0.339605
-0.359048
-0.367378
-0.343614
-0.292139
-0.256039
-0.212840
-0.169214
-0.124616
-0.090773
-0.055215
-0.035601
-0.048097
-0.074069
-0.123728
-0.155523
-0.210346
-0.252871
-0.306083
-0.343024
-0.357255
-0.373811
-0.376541
-0.330553
-0.303576
-0.279766
-0.238587
-0.189401
-0.152667
-0.122907
-0.111676
-0.104990
-0.105267
-0.117167
-0.167151
-0.206136
-0.248038
-0.298481
-0.343585
-0.373813
-0.395434
-0.433398
-0.432438
-0.398063
-0.359299
-0.303135
-0.253690
-0.218602
-0.186615
-0.153493
-0.129665
-0.137888
-0.142826
-0.156030
-0.188656
-0.230906
-0.269758
-0.322616
-0.371172
-0.410162
-0.441920
-0.440488
-0.442882
-0.424355
-0.395226
-0.353076
-0.303359
-0.244008
-0.202202
-0.169402
-0.150369
-0.149208
-0.143420
-0.160611
-0.190728
-0.244555
-0.300236
-0.364972
-0.400009
-0.416133
-0.428099
-0.437639
-0.440220
-0.411462
-0.390591
-0.356138
-0.301870
-0.262473
-0.213540
-0.180508
-0.150798
-0.149059
-0.160437
-0.179163
-0.200228
-0.243843
-0.298951
-0.362241
-0.391856
-0.426556
-0.448072
-0.441632
-0.444780
-0.417215
-0.387488
-0.348660
-0.311689
-0.265951
-0.216301
-0.174036
-0.147052
-0.154696
-0.157083
-0.183331
-0.217805
-0.261512
-0.310992
-0.350698
-0.387504
-0.429805
-0.462052
-0.475547
-0.468990
-0.440724
-0.409822
-0.379921
-0.322683
-0.263156
-0.201375
-0.164791
-0.135203
-0.099215
-0.112911
-0.124440
-0.130622
-0.160502
-0.203052
-0.224007
-0.253919
-0.293757
-0.314530
-0.313187
-0.273674
-0.218761
-0.157661
-0.071887
0.011769
0.102401
0.182489
0.242077
0.289784
0.321046
0.352907
0.369027
0.364450
0.371483
0.359675
0.347159
0.336457
0.339267
0.354646
0.363897
0.377911
0.385152
0.405320
0.456843
0.481611
0.506797
0.535123
0.552603
0.537710
0.479930
0.408856
0.319417
0.216570
0.119645
0.015489
-0.075925
-0.160276
-0.226744
-0.275143
-0.291311
-0.295552
-0.262995
-0.237437
-0.197612
-0.168293
-0.130489
-0.102997
-0.069302
-0.054592
-0.039524
-0.046978
-0.082446
-0.111839
-0.141218
-0.204291
-0.265652
-0.321090
-0.351683
-0.366460
-0.388577
-0.397130
-0.384922
-0.341053
-0.305663
-0.244200
-0.201338
-0.155460
-0.127651
-0.105128
-0.084887
-0.092954
-0.121677
-0.169255
-0.200570
-0.253313
-0.302883
-0.350863
-0.386711
-0.396424
-0.409429
-0.425567
-0.402621
-0.370924
-0.350074
-0.280655
-0.209160
-0.161217
-0.126940
-0.103813
-0.103873
-0.107040
-0.133491
-0.174554
-0.212366
-0.252989
-0.305662
-0.355975
-0.388966
-0.423049
-0.426735
-0.412627
-0.393368
-0.345028
-0.318697
-0.271159
-0.225467
-0.168229
-0.127371
-0.090670
-0.080704
-0.093814
-0.121803
-0.157775
-0.188047
-0.238991
-0.275235
-0.319050
-0.369524
-0.395167
-0.405777
-0.399072
-0.375317
-0.344944
-0.296011
-0.232178
-0.184252
-0.148755
-0.114717
-0.086929
-0.068537
-0.080545
-0.105955
-0.127213
-0.176840
-0.220436
-0.254828
-0.302669
-0.345238
-0.376450
-0.380289
-0.350700
-0.336576
-0.308353
-0.269689
-0.213996
-0.152817
-0.118537
-0.083752
-0.054736
-0.045235
-0.048886
-0.067185
-0.097538
-0.143962
-0.179707
-0.238983
-0.284340
-0.313229
-0.332126
-0.342602
-0.339062
-0.324418
-0.287659
-0.273187
-0.245156
-0.173788
-0.103650
-0.064984
-0.009215
0.002122
0.004408
-0.019730
-0.061115
-0.099628
-0.138617
-0.190402
-0.243732
-0.274315
-0.285307
-0.299639
-0.318733
-0.284182
-0.243387
-0.185522
-0.145213
-0.098439
-0.052379
-0.019149
0.001656
0.000930
0.003011
-0.016529
-0.050403
-0.100994
-0.153229
-0.200263
-0.245466
-0.277270
-0.295263
-0.303432
-0.294452
-0.285160
-0.260665
-0.218463
-0.154400
-0.103298
-0.055279
-0.025469
-0.007256
0.000838
0.004911
-0.019978
-0.063852
-0.113769
-0.182916
-0.198289
-0.247609
-0.295779
-0.313071
-0.311579
-0.324185
-0.289796
-0.261677
-0.226551
-0.178325
-0.135757
-0.088467
-0.050091
-0.032656
-0.044157
-0.043816
-0.089084
-0.112377
-0.148035
-0.191275
-0.227273
-0.260545
-0.311655
-0.335669
-0.338494
-0.347371
-0.335451
-0.313460
-0.259596
-0.213929
-0.166432
-0.123758
-0.092585
-0.067656
-0.062261
-0.068742
-0.093966
-0.134227
-0.170883
-0.227499
-0.284447
-0.319930
-0.352113
-0.393141
-0.414871
-0.415037
-0.373031
-0.335608
-0.290139
-0.261673
-0.201929
-0.150155
-0.116998
-0.100765
-0.097889
-0.092746
-0.132703
-0.162206
-0.209607
-0.265883
-0.317149
-0.363993
-0.391411
-0.438003
-0.420580
-0.413190
-0.406027
-0.373267
-0.324684
-0.273368
-0.222385
-0.179416
-0.119711
-0.109637
-0.118729
-0.152092
-0.158762
-0.179721
-0.222435
-0.265478
-0.312579
-0.360566
-0.397666
-0.418372
-0.437172
-0.441597
-0.408098
-0.360842
-0.307047
-0.272940
-0.222871
-0.183948
-0.161748
-0.146730
-0.139911
-0.126741
-0.134102
-0.167545
-0.215636
-0.265586
-0.320391
-0.365161
-0.410131
-0.423288
-0.411974
-0.413430
-0.389524
-0.349805
-0.307198
-0.279419
-0.200156
-0.159217
-0.130074
-0.106356
-0.112805
-0.119729
-0.153181
-0.185879
-0.228689
-0.269972
-0.319240
-0.364414
-0.390419
-0.409550
-0.405705
-0.405285
-0.392444
-0.377930
-0.305285
-0.260677
-0.211509
-0.172571
-0.131998
-0.107371
-0.100129
-0.100715
-0.137144
-0.163867
-0.215189
-0.263102
-0.308983
-0.353123
-0.387390
-0.399281
-0.404775
-0.399506
-0.379137
-0.347464
-0.301508
-0.264285
-0.212817
-0.167150
-0.123319
-0.100682
-0.092824
-0.095866
-0.116957
-0.159252
-0.208594
-0.256699
-0.296887
-0.340580
-0.371924
-0.386249
-0.393937
-0.391607
-0.374852
-0.337983
-0.295596
-0.253562
-0.195310
-0.161938
-0.126989
-0.101693
-0.096692
-0.094910
-0.122782
-0.153097
-0.198172
-0.233588
-0.288486
-0.341413
-0.381835
-0.418987
-0.419169
-0.402029
-0.389502
-0.347173
-0.280596
-0.236337
-0.185796
-0.146438
-0.116723
-0.098687
-0.088899
-0.108902
-0.139749
-0.150527
-0.202397
-0.253849
-0.299449
-0.328128
-0.363401
-0.395671
-0.410056
-0.417452
-0.388198
-0.341303
-0.294546
-0.244176
-0.194177
-0.147364
-0.112647
-0.093115
-0.094246
-0.113855
-0.141078
-0.165613
-0.222982
-0.235293
-0.276014
-0.325611
-0.372469
-0.389062
-0.395282
-0.385802
-0.378477
-0.345792
-0.302241
-0.255512
-0.208486
-0.161265
-0.130463
-0.109822
-0.101592
-0.099586
-0.130873
-0.171769
-0.215996
-0.265419
-0.296285
-0.349535
-0.378902
-0.387902
-0.396531
-0.389007
-0.379081
-0.340389
-0.293090
-0.245530
-0.207929
-0.163741
-0.131153
-0.124642
-0.123961
-0.118142
-0.124059
-0.161255
-0.220685
-0.245582
-0.295752
-0.319486
-0.356734
-0.383978
-0.399044
-0.390685
-0.371650
-0.348274
-0.303889
-0.260017
-0.224235
-0.199126
-0.163266
-0.125172
-0.071678
-0.091914
-0.115273
-0.144215
-0.189641
-0.237739
-0.285844
-0.341937
-0.376942
-0.391948
-0.397450
-0.408726
-0.386840
-0.369549
-0.305038
-0.243795
-0.188917
-0.159409
-0.129319
-0.109234
-0.098861
-0.101069
-0.119861
-0.156138
-0.195231
-0.233270
-0.290462
-0.331652
-0.370259
-0.395432
-0.403399
-0.391798
-0.383006
-0.367785
-0.305112
-0.245177
-0.203921
-0.168739
-0.133120
-0.100192
-0.087041
-0.092005
-0.126529
-0.143775
-0.188225
-0.243799
-0.279648
-0.327490
-0.357225
-0.368666
-0.378825
-0.380974
-0.354517
-0.319609
-0.273267
-0.225937
-0.181174
-0.145600
-0.105838
-0.049977
-0.045207
-0.065394
-0.086011
-0.102362
-0.146084
-0.201222
-0.243945
-0.294961
-0.322303
-0.344184
-0.362546
-0.354354
-0.337894
-0.330994
-0.256873
-0.209029
-0.163432
-0.113544
-0.084293
-0.059248
-0.061198
-0.082445
-0.105914
-0.096364
-0.146407
-0.186463
-0.235936
-0.279463
-0.314785
-0.321147
-0.328753
-0.320787
-0.301495
-0.281219
-0.254610
-0.198538
-0.131690
-0.072124
-0.043520
-0.025139
-0.000225
-0.014562
-0.055562
-0.104188
-0.152831
-0.191656
-0.241586
-0.289902
-0.329073
-0.359730
-0.372370
-0.350578
-0.339201
-0.296387
-0.262112
-0.214633
-0.171474
-0.126236
-0.091377
-0.078923
-0.067086
-0.070370
-0.088680
-0.124613
-0.166120
-0.191359
-0.252100
-0.306756
-0.354192
-0.384218
-0.397893
-0.377420
-0.361752
-0.329614
-0.292178
-0.244033
-0.191846
-0.150922
-0.117472
-0.091357
-0.079714
-0.096969
-0.106331
-0.143114
-0.191684
-0.245887
-0.284822
-0.331511
-0.363210
-0.390129
-0.408120
-0.397887
-0.383451
-0.355973
-0.312979
-0.264873
-0.224633
-0.189514
-0.108382
-0.083089
-0.074453
-0.082990
-0.114818
-0.155417
-0.194111
-0.232097
-0.282362
-0.335513
-0.392695
-0.414609
-0.411013
-0.379927
-0.350842
-0.329018
-0.287069
-0.236594
-0.191666
-0.155923
-0.114896
-0.093402
-0.077277
-0.076746
-0.113944
-0.137163
-0.176535
-0.232199
-0.282058
-0.325405
-0.359144
-0.375276
-0.395887
-0.379530
-0.365628
-0.338125
-0.299593
-0.253448
-0.200114
-0.146681
-0.115047
-0.097321
-0.082704
-0.093940
-0.107359
-0.119110
-0.176905
-0.245087
-0.278047
-0.315165
-0.360058
-0.396810
-0.400330
-0.385381
-0.356590
-0.315389
-0.257107
-0.213564
-0.169029
-0.111711
-0.067803
-0.023180
0.014735
0.010447
0.005950
-0.020500
-0.043874
-0.091674
-0.145347
-0.143479
-0.143025
-0.148607
-0.146072
-0.105953
-0.060105
0.015312
0.094968
0.203200
0.294583
0.362677
0.435280
0.480217
0.516330
0.551061
0.570262
0.586709
0.576110
0.563040
0.537521
0.524733
0.500877
0.468961
0.447433
0.431867
0.429669
0.489295
0.519103
0.538976
0.532401
0.500516
0.469496
0.440426
0.397536
0.320278
0.236272
0.144315
0.055368
-0.004482
-0.049775
-0.095753
-0.137991
-0.183015
-0.210391
-0.200377
-0.180221
-0.158319
-0.148272
-0.110648
-0.054463
-0.016396
0.016041
0.023075
0.037446
0.044100
0.006099
-0.022907
-0.069833
-0.120388
-0.183857
-0.226939
-0.272521
-0.302577
-0.306620
-0.293633
-0.263388
-0.231595
-0.191572
-0.144602
-0.111314
-0.068063
-0.035527
-0.011124
0.022261
0.011076
-0.028257
-0.077258
-0.118724
-0.180269
-0.214929
-0.251594
-0.284759
-0.311636
-0.319518
-0.311494
-0.287171
-0.260047
-0.212897
-0.166329
-0.128077
-0.093517
-0.053759
-0.038299
-0.044022
-0.025162
-0.021982
-0.053418
-0.101084
-0.159905
-0.204708
-0.244009
-0.282116
-0.302619
-0.313622
-0.300139
-0.272428
-0.239954
-0.202333
-0.144671
-0.094748
-0.034946
-0.007961
0.001385
0.004119
0.004753
-0.010050
-0.051270
-0.085861
-0.146310
-0.182299
-0.228981
-0.266352
-0.279059
-0.292767
-0.283643
-0.260277
-0.229740
-0.178934
-0.119940
-0.068670
-0.016136
0.011389
0.026381
0.040114
0.038426
0.010539
-0.023730
-0.056615
-0.102913
-0.147391
-0.195170
-0.234136
-0.247535
-0.266284
-0.247589
-0.225134
-0.177140
-0.131680
-0.081125
-0.033731
-0.002344
0.035165
0.067025
0.077031
0.070394
0.060183
0.020997
-0.022665
-0.066952
-0.111605
-0.151281
-0.192497
-0.232880
-0.225457
-0.205299
-0.177628
-0.145688
-0.113785
-0.062291
-0.000077
0.047674
0.090235
0.099361
0.112184
0.109356
0.063201
0.042145
0.007350
-0.036821
-0.076761
-0.110603
-0.136935
-0.166183
-0.188706
-0.184701
-0.150672
-0.115409
-0.078403
-0.030265
0.018273
0.074809
0.106608
0.131823
0.143815
0.144823
0.124101
0.071900
0.026656
-0.023369
-0.063617
-0.103241
-0.148711
-0.165348
-0.174005
-0.162053
-0.138582
-0.111385
-0.068245
-0.029053
0.023622
0.054296
0.093584
0.115671
0.120566
0.109396
0.092744
0.064478
0.032348
-0.015476
-0.077089
-0.118709
-0.156452
-0.183422
-0.193635
-0.183829
-0.170266
-0.139923
-0.088443
-0.038237
-0.001515
0.036230
0.064212
0.091905
0.102279
0.092335
0.071034
0.021549
-0.017114
-0.062166
-0.105243
-0.136857
-0.189624
-0.226378
-0.228805
-0.222551
-0.211698
-0.174959
-0.131732
-0.083961
-0.061292
-0.022417
0.028595
0.056749
0.068160
0.055818
0.033201
-0.001548
-0.047860
-0.106192
-0.150161
-0.179796
-0.213670
-0.243963
-0.266940
-0.269214
-0.227223
-0.200414
-0.171102
-0.123815
-0.069531
-0.032417
0.000482
0.030600
0.027860
0.025327
-0.003806
-0.033471
-0.071332
-0.118748
-0.169897
-0.221337
-0.255173
-0.282679
-0.288565
-0.283824
-0.255416
-0.222609
-0.188758
-0.128201
-0.077639
-0.040805
-0.014696
0.002359
0.020935
0.013739
-0.009883
-0.044029
-0.090571
-0.127331
-0.168245
-0.214518
-0.252217
-0.279368
-0.290950
-0.295939
-0.270918
-0.226781
-0.187214
-0.132478
-0.088693
-0.047844
-0.017974
0.007089
0.016985
0.017637
-0.007923
-0.012741
-0.057311
-0.110027
-0.167931
-0.209419
-0.256359
-0.278306
-0.277592
-0.284272
-0.259912
-0.222369
-0.176158
-0.123733
-0.071625
-0.023546
0.005157
0.020032
0.026906
0.006702
-0.033435
-0.048506
-0.078898
-0.108782
-0.153090
-0.206423
-0.244803
-0.257062
-0.265841
-0.263025
-0.237874
-0.201012
-0.164402
-0.122469
-0.068016
-0.025032
0.006457
0.042320
0.050961
0.046136
0.025718
-0.013788
-0.065223
-0.105537
-0.150289
-0.202292
-0.234242
-0.248658
-0.259316
-0.255515
-0.233887
-0.195213
-0.156147
-0.095782
-0.049755
-0.033365
0.016963
0.056902
0.063270
0.040054
0.027091
-0.012440
-0.048544
-0.103771
-0.148315
-0.198608
-0.234104
-0.253000
-0.257165
-0.256639
-0.229750
-0.193049
-0.153607
-0.080620
-0.032669
-0.004735
0.015040
0.042333
0.055433
0.055878
0.036497
0.008498
-0.043235
-0.092194
-0.157417
-0.205287
-0.232647
-0.253003
-0.251461
-0.243488
-0.208204
-0.177046
-0.142001
-0.096780
-0.041869
-0.005038
0.018097
0.049899
0.044124
0.013284
-0.015566
-0.002978
-0.039584
-0.083135
-0.136285
-0.186798
-0.223635
-0.233110
-0.241694
-0.245805
-0.235987
-0.198296
-0.151881
-0.110843
-0.057156
-0.014853
0.041886
0.068524
0.065255
0.064882
0.036208
0.003687
-0.048843
-0.107774
-0.157521
-0.197143
-0.232331
-0.247272
-0.247472
-0.250269
-0.226926
-0.186255
-0.147388
-0.101593
-0.055329
-0.007686
0.026898
0.050710
0.050530
0.045257
0.020510
-0.008632
-0.055295
-0.101619
-0.150504
-0.195711
-0.224792
-0.268170
-0.269085
-0.250557
-0.249484
-0.207316
-0.150543
-0.099400
-0.044439
-0.008012
0.015131
0.048617
0.038661
0.066851
0.035140
-0.021432
-0.051070
-0.077046
-0.134712
-0.185367
-0.231910
-0.266095
-0.256274
-0.252869
-0.229691
-0.192026
-0.149385
-0.099090
-0.049959
-0.008899
0.025350
0.057916
0.057392
0.046374
0.010912
-0.020331
-0.048388
-0.096879
-0.137138
-0.181021
-0.213006
-0.246560
-0.265247
-0.245381
-0.222897
-0.189723
-0.149847
-0.079154
-0.046999
-0.007434
0.027349
0.059014
0.058318
0.050756
0.029753
-0.012549
-0.061436
-0.103025
-0.148586
-0.204747
-0.227672
-0.253217
-0.258457
-0.251097
-0.244449
-0.203967
-0.159592
-0.111586
-0.048934
0.018431
0.049189
0.073057
0.070406
0.071512
0.043832
0.003205
-0.049302
-0.103074
-0.149764
-0.183183
-0.209940
-0.243083
-0.266243
-0.245587
-0.215199
-0.178532
-0.136093
-0.097636
-0.043372
0.008333
0.040044
0.062114
0.065774
0.058123
0.035849
-0.000238
-0.056205
-0.089031
-0.128788
-0.187740
-0.226422
-0.220242
-0.209747
-0.199835
-0.186839
-0.156252
-0.115979
-0.074655
-0.021882
0.031500
0.082118
0.111964
0.094383
0.082464
0.067322
0.041590
-0.008380
-0.059098
-0.101642
-0.151460
-0.181479
-0.212318
-0.208048
-0.202236
-0.185710
-0.146888
-0.094898
-0.056228
-0.005335
0.036015
0.061277
0.083984
0.110898
0.103188
0.084878
0.055695
0.022973
-0.026372
-0.079917
-0.120770
-0.148597
-0.189105
-0.190318
-0.176455
-0.176124
-0.124882
-0.076361
-0.038790
0.015507
0.044926
0.090312
0.102856
0.106246
0.098597
0.062112
0.025010
-0.010203
-0.052494
-0.095046
-0.141745
-0.170698
-0.200298
-0.212227
-0.203921
-0.193182
-0.166244
-0.120302
-0.064210
-0.003391
0.032343
0.059764
0.066224
0.075120
0.061105
0.049247
-0.002032
-0.038927
-0.074836
-0.128442
-0.157680
-0.193705
-0.228234
-0.236806
-0.248301
-0.220434
-0.180742
-0.136087
-0.081692
-0.036585
-0.000290
0.035386
0.062293
0.061468
0.052176
0.030140
-0.005316
-0.066666
-0.101280
-0.144133
-0.168719
-0.205481
-0.251953
-0.262242
-0.247508
-0.212931
-0.189920
-0.149880
-0.102815
-0.063180
-0.017765
0.030078
0.052232
0.067693
0.040993
0.014398
-0.030220
-0.057414
-0.114980
-0.157656
-0.182324
-0.210481
-0.235179
-0.240146
-0.242251
-0.225379
-0.173333
-0.144440
-0.101855
-0.055110
-0.009302
0.021825
0.046567
0.057492
0.051069
0.027290
0.001120
-0.037201
-0.088451
-0.151513
-0.193363
-0.224228
-0.257295
-0.270037
-0.255190
-0.222933
-0.175180
-0.129040
-0.094912
-0.046835
-0.005574
0.023055
0.046543
0.056400
0.063295
0.030486
0.002111
-0.053894
-0.092329
-0.145941
-0.186615
-0.230174
-0.248621
-0.252632
-0.244686
-0.197723
-0.131909
-0.092939
-0.035470
0.013883
0.071503
0.131421
0.175886
0.187429
0.194995
0.183813
0.169517
0.148230
0.121095
0.105216
0.106298
0.097695
0.093705
0.135991
0.177050
0.228068
0.299710
0.380176
0.469422
0.551093
0.641802
0.716786
0.770400
0.793650
0.823276
0.841973
0.827188
0.782308
0.739648
0.680760
0.619955
0.584633
0.561855
0.524779
0.501935
0.480060
0.454520
0.430956
0.412134
0.391890
0.385617
0.367016
0.346609
0.301771
0.270864
0.247784
0.208771
0.143789
0.085014
0.020112
-0.015256
-0.048444
-0.074926
-0.099418
-0.123163
-0.107802
-0.083633
-0.035474
0.011068
0.049483
0.099789
0.134935
0.154828
0.154539
0.147349
0.125682
0.101076
0.044497
-0.001681
-0.057730
-0.100099
-0.137213
-0.171124
-0.170937
-0.168667
-0.153867
-0.117183
-0.076483
-0.020141
0.015442
0.049779
0.086060
0.113306
0.128648
0.107187
0.083778
0.056343
0.012413
-0.032930
-0.076779
-0.124803
-0.150937
-0.175543
-0.170333
-0.180717
-0.162878
-0.136951
-0.088913
-0.053289
0.001552
0.051564
0.088140
0.116837
0.114751
0.101980
0.073049
0.020593
-0.000326
-0.029403
-0.064325
-0.111000
-0.152146
-0.163794
-0.156020
-0.155644
-0.139125
-0.116400
-0.081738
-0.024005
0.027371
0.090318
0.116249
0.136454
0.148345
0.152263
0.122064
0.081628
0.030476
-0.003409
-0.040730
-0.083806
-0.135095
-0.151566
-0.155712
-0.146580
-0.119436
-0.087645
-0.039824
0.005448
0.035711
0.087020
0.135146
0.157605
0.168549
0.163144
0.140351
0.114124
0.076045
0.027285
-0.030135
-0.069121
-0.099028
-0.123368
-0.134276
-0.124241
-0.089706
-0.054463
-0.004849
0.045586
0.089476
0.134886
0.169275
0.193957
0.204334
0.206365
0.177691
0.142056
0.104800
0.064646
0.018071
-0.022925
-0.055523
-0.086386
-0.111909
-0.088917
-0.059762
-0.030347
0.027150
0.081944
0.127588
0.169647
0.208120
0.231723
0.224197
0.223000
0.199558
0.177963
0.134369
0.079301
0.039097
-0.013930
-0.064207
-0.087883
-0.088211
-0.057567
-0.030755
0.004520
0.048550
0.093165
0.140955
0.189196
0.221794
0.218873
0.242508
0.244310
0.226160
0.194697
0.138186
0.091786
0.045055
0.001658
-0.044606
-0.070120
-0.091866
-0.054860
-0.035844
-0.011229
0.022096
0.085167
0.144762
0.180252
0.197322
0.216132
0.231594
0.234234
0.215785
0.166441
0.114537
0.090286
0.041092
-0.013859
-0.061018
-0.070382
-0.080107
-0.081859
-0.056614
-0.027907
0.003037
0.048413
0.086329
0.144876
0.186291
0.208589
0.209355
0.202196
0.174633
0.132843
0.086952
0.043502
-0.015098
-0.054580
-0.093640
-0.117780
-0.124191
-0.129818
-0.115369
-0.072099
-0.025527
0.020546
0.056029
0.098964
0.143424
0.165386
0.167780
0.160991
0.138938
0.088871
0.038074
-0.011682
-0.053577
-0.104109
-0.141268
-0.164431
-0.178634
-0.174966
-0.139567
-0.096318
-0.060061
-0.008491
0.034384
0.073516
0.106906
0.123721
0.129877
0.132296
0.098100
0.063058
0.011854
-0.039268
-0.096970
-0.114056
-0.155472
-0.180567
-0.186395
-0.185337
-0.156864
-0.133731
-0.080326
-0.061441
0.003958
0.055167
0.108922
0.123808
0.125167
0.113116
0.098382
0.059796
0.022896
-0.036830
-0.096241
-0.134538
-0.157651
-0.175200
-0.197316
-0.185977
-0.153772
-0.132095
-0.094236
-0.031230
0.025763
0.067799
0.103380
0.121543
0.110336
0.108418
0.109578
0.087738
0.034715
-0.022691
-0.075888
-0.128911
-0.169513
-0.183836
-0.177611
-0.169229
-0.159304
-0.123281
-0.078286
-0.036499
0.015233
0.075799
0.110582
0.122278
0.136615
0.134390
0.103608
0.074260
0.025891
-0.034887
-0.075718
-0.118951
-0.158301
-0.173425
-0.181857
-0.188991
-0.156999
-0.103066
-0.054673
-0.017461
0.023713
0.065320
0.108828
0.132348
0.144542
0.131959
0.116036
0.076484
0.024858
-0.039874
-0.083004
-0.121578
-0.175304
-0.173104
-0.172815
-0.156358
-0.135802
-0.095220
-0.061746
-0.021278
0.016768
0.098091
0.136313
0.144513
0.149989
0.141733
0.101992
0.071903
0.042548
-0.015746
-0.065064
-0.108114
-0.154536
-0.172966
-0.173007
-0.169071
-0.142016
-0.102106
-0.057859
-0.008418
0.036312
0.074378
0.105000
0.124890
0.138852
0.131440
0.107391
0.070037
0.029302
-0.007844
-0.067447
-0.113594
-0.164462
-0.188673
-0.188152
-0.177490
-0.143828
-0.117932
-0.093286
-0.040694
0.033283
0.092743
0.129631
0.132956
0.140069
0.125612
0.105544
0.067855
0.027635
-0.020328
-0.070020
-0.113707
-0.163653
-0.177792
-0.181981
-0.172393
-0.174226
-0.121634
-0.065978
-0.013666
0.040803
0.079696
0.118108
0.127184
0.131325
0.124316
0.100284
0.061338
0.023645
-0.021143
-0.064101
-0.108349
-0.156105
-0.176981
-0.199863
-0.182396
-0.156436
-0.112362
-0.069252
-0.023290
0.027921
0.072479
0.111139
0.126555
0.143393
0.119321
0.096713
0.063779
0.021294
-0.018834
-0.072397
-0.128410
-0.163212
-0.192095
-0.194065
-0.190716
-0.158600
-0.119763
-0.071825
-0.029184
0.015934
0.047400
0.095914
0.116576
0.131703
0.132834
0.099182
0.064726
0.013363
-0.038481
-0.090072
-0.132277
-0.176091
-0.184001
-0.181242
-0.175906
-0.155970
-0.131765
-0.090065
-0.034468
0.000625
0.074494
0.118642
0.126695
0.123691
0.109288
0.094356
0.063682
0.015872
-0.025262
-0.075147
-0.125964
-0.165611
-0.186533
-0.194800
-0.184424
-0.144439
-0.104323
-0.074471
-0.029792
0.018240
0.051800
0.091330
0.095442
0.114716
0.115675
0.108261
0.068078
0.018918
-0.028133
-0.078161
-0.120512
-0.158009
-0.182358
-0.192719
-0.189562
-0.192093
-0.140545
-0.078568
-0.034689
0.008698
0.056142
0.106778
0.128754
0.124499
0.098486
0.087849
0.050960
0.011711
-0.038093
-0.089709
-0.136256
-0.166697
-0.175689
-0.188071
-0.176158
-0.154694
-0.131523
-0.080839
-0.032249
0.009639
0.038125
0.099857
0.136421
0.138283
0.132891
0.109059
0.074314
0.027173
-0.023922
-0.077861
-0.118964
-0.142385
-0.158885
-0.155234
-0.151343
-0.121206
-0.081262
-0.037945
0.020126
0.066889
0.089483
0.138718
0.166110
0.166940
0.146529
0.140401
0.103968
0.050242
0.007808
-0.047301
-0.093786
-0.132396
-0.146385
-0.162439
-0.164623
-0.132381
-0.076763
-0.023295
0.018025
0.061071
0.104559
0.144130
0.158091
0.158816
0.160145
0.154163
0.119162
0.084487
0.029444
-0.021637
-0.067533
-0.101955
-0.139266
-0.131202
-0.102430
-0.076861
-0.052283
-0.028972
-0.003301
0.060483
0.090237
0.125540
0.154261
0.151977
0.146143
0.122304
0.082124
0.037220
-0.000655
-0.052183
-0.112071
-0.138668
-0.158288
-0.165173
-0.144749
-0.135508
-0.094303
-0.062895
-0.012324
0.017962
0.068819
0.111326
0.138884
0.137908
0.116485
0.088093
0.050229
0.009334
-0.041662
-0.096094
-0.130552
-0.150344
-0.161301
-0.187611
-0.192316
-0.168969
-0.131378
-0.085885
-0.041942
0.000034
0.029970
0.071616
0.103115
0.110920
0.099042
0.080235
0.045097
-0.004628
-0.056999
-0.105901
-0.148405
-0.178526
-0.203075
-0.211211
-0.197139
-0.182929
-0.140143
-0.109369
-0.080560
-0.003265
0.057166
0.097275
0.111854
0.110644
0.097862
0.070530
0.040636
-0.009512
-0.056227
-0.101627
-0.146426
-0.191641
-0.211651
-0.216280
-0.200418
-0.174987
-0.135632
-0.094597
-0.040052
0.007792
0.046332
0.070713
0.085644
0.087476
0.083063
0.072486
0.032700
-0.015048
-0.057355
-0.105640
-0.153814
-0.188112
-0.195783
-0.206308
-0.192020
-0.152905
-0.125706
-0.099002
-0.050439
0.011252
0.047325
0.079291
0.106274
0.104656
0.077281
0.053152
0.003439
-0.007618
-0.059333
-0.104966
-0.150532
-0.182808
-0.184563
-0.175729
-0.158611
-0.133560
-0.082087
-0.021000
0.040550
0.093451
0.148837
0.202442
0.237500
0.258512
0.270889
0.271976
0.252722
0.238651
0.221899
0.202092
0.191359
0.201864
0.217338
0.249094
0.294166
0.351360
0.408290
0.472979
0.562925
0.660011
0.738719
0.785659
0.838727
0.883295
0.889815
0.872899
0.841455
0.809671
0.756682
0.689520
0.622872
0.572341
0.523939
0.468097
0.406374
0.355862
0.336224
0.323930
0.330986
0.314151
0.320009
0.315240
0.316790
0.311618
0.294681
0.261056
0.216958
0.163581
0.097647
0.035988
-0.008625
-0.050101
-0.086310
-0.110891
-0.090000
-0.069375
-0.040287
0.003729
0.045083
0.087691
0.134794
0.170515
0.170752
0.187037
0.185981
0.158125
0.120843
0.078101
0.025219
-0.025894
-0.076353
-0.109198
-0.142382
-0.144333
-0.133443
-0.112711
-0.086964
-0.042111
0.001973
0.042876
0.079454
0.113966
0.144928
0.151300
0.150299
0.115989
0.085303
0.042661
0.001276
-0.044914
-0.091880
-0.127714
-0.140767
-0.162073
-0.157488
-0.127212
-0.084289
-0.043554
0.000513
0.057968
0.101815
0.125338
0.149753
0.157925
0.144470
0.118920
0.102716
0.059835
0.002840
-0.039251
-0.096939
-0.126617
-0.141435
-0.148208
-0.136686
-0.119843
-0.092987
-0.046434
0.012716
0.064109
0.109627
0.132639
0.155013
0.168169
0.179065
0.148008
0.098442
0.071073
0.028411
-0.022835
-0.055412
-0.090493
-0.109348
-0.117234
-0.116530
-0.089456
-0.053911
-0.009121
0.044640
0.088217
0.142188
0.173812
0.199993
0.214127
0.200240
0.181729
0.145745
0.096359
0.034955
-0.013655
-0.053184
-0.072821
-0.084639
-0.085628
-0.077187
-0.052473
-0.019390
0.022394
0.077508
0.114133
0.166201
0.200566
0.221523
0.234171
0.218753
0.198401
0.168859
0.134392
0.082713
0.037604
-0.008846
-0.027318
-0.049146
-0.066286
-0.056077
-0.027493
0.007356
0.053662
0.106081
0.151701
0.200317
0.238686
0.250711
0.267635
0.261489
0.230564
0.200902
0.154039
0.108618
0.060027
0.011318
-0.014281
-0.034908
-0.042974
-0.033152
-0.000443
0.027656
0.070142
0.126273
0.162420
0.203078
0.236613
0.269912
0.274941
0.271281
0.235591
0.200016
0.147222
0.078854
0.032543
-0.009556
-0.014004
-0.040519
-0.028180
-0.013541
-0.000266
0.030174
0.072123
0.134323
0.170542
0.213177
0.238990
0.258446
0.264533
0.233103
0.208626
0.188483
0.155636
0.104661
0.060508
-0.018809
-0.054038
-0.061349
-0.057230
-0.059474
-0.035645
-0.010364
0.037100
0.075047
0.126225
0.173560
0.206026
0.225566
0.231800
0.217993
0.190037
0.149724
0.102711
0.057904
0.008243
-0.047338
-0.078800
-0.090582
-0.099585
-0.096198
-0.078358
-0.059251
-0.034210
0.026386
0.077865
0.127941
0.156217
0.175785
0.177676
0.170724
0.141297
0.104925
0.064490
0.014964
-0.041902
-0.087855
-0.116981
-0.149693
-0.160791
-0.147025
-0.116919
-0.085967
-0.041392
0.002762
0.058895
0.110228
0.124489
0.139556
0.152649
0.144704
0.107395
0.084718
0.036243
-0.014464
-0.064449
-0.128847
-0.162212
-0.168746
-0.168224
-0.186528
-0.140166
-0.092618
-0.059853
-0.017437
0.039379
0.094919
0.127464
0.149466
0.152249
0.143510
0.106758
0.062444
0.018206
-0.032306
-0.073348
-0.113427
-0.144541
-0.160820
-0.176396
-0.167115
-0.132063
-0.102246
-0.061048
-0.011631
0.040138
0.079873
0.106491
0.124233
0.140392
0.134328
0.112300
0.073079
0.027251
-0.024439
-0.064344
-0.109772
-0.130262
-0.144021
-0.159327
-0.172137
-0.141445
-0.107847
-0.061550
-0.009539
0.028665
0.079718
0.103959
0.144036
0.161776
0.175644
0.133049
0.079156
0.042993
0.002404
-0.049351
-0.103150
-0.130072
-0.137275
-0.143175
-0.159626
-0.128142
-0.102192
-0.034785
0.006493
0.047809
0.091926
0.109211
0.116104
0.140897
0.156219
0.140840
0.095903
0.048463
-0.000444
-0.044521
-0.082161
-0.117655
-0.146130
-0.155882
-0.156727
-0.131133
-0.086914
-0.034147
0.010526
0.065528
0.104701
0.128165
0.143782
0.147514
0.145227
0.125193
0.097792
0.054682
0.000494
-0.059526
-0.087211
-0.118219
-0.154532
-0.176319
-0.160495
-0.109411
-0.082631
-0.040541
0.004131
0.065588
0.101219
0.132930
0.151423
0.157927
0.142070
0.124402
0.083167
0.046866
-0.007754
-0.052096
-0.110466
-0.141792
-0.154563
-0.165108
-0.161326
-0.131630
-0.093576
-0.057299
0.001302
0.044103
0.089051
0.131942
0.137862
0.139045
0.141910
0.121430
0.082148
0.036173
-0.021034
-0.078497
-0.125917
-0.170786
-0.174283
-0.173006
-0.157983
-0.132681
-0.095039
-0.061761
-0.013111
0.049331
0.068472
0.081558
0.124602
0.152959
0.160352
0.129642
0.080411
0.031703
-0.017120
-0.064635
-0.106544
-0.134872
-0.156163
-0.168816
-0.157268
-0.137777
-0.107664
-0.070906
-0.019653
0.042657
0.101092
0.131207
0.141849
0.136530
0.124052
0.100382
0.076370
0.028229
-0.018637
-0.076439
-0.120688
-0.132632
-0.159916
-0.173700
-0.168508
-0.141341
-0.110848
-0.073641
-0.019325
0.030594
0.074282
0.112623
0.125588
0.139118
0.140816
0.102365
0.064553
0.021290
-0.023615
-0.066574
-0.102054
-0.135837
-0.175101
-0.173342
-0.169914
-0.150646
-0.123902
-0.074572
-0.028114
0.010140
0.064007
0.107092
0.133870
0.138985
0.129627
0.103358
0.063136
0.018959
-0.025096
-0.082893
-0.120762
-0.158355
-0.188279
-0.189094
-0.183626
-0.155789
-0.107082
-0.063082
-0.022731
0.035754
0.075998
0.098353
0.119138
0.129255
0.119169
0.067513
0.053378
0.019858
-0.037445
-0.078466
-0.109783
-0.139129
-0.166229
-0.175336
-0.167015
-0.137947
-0.118263
-0.074472
-0.021105
0.033938
0.081912
0.109703
0.132306
0.113893
0.103267
0.069203
0.052353
0.012804
-0.034174
-0.083658
-0.121889
-0.155685
-0.177579
-0.197387
-0.162588
-0.153878
-0.113412
-0.070224
-0.009816
0.033985
0.073107
0.108361
0.124456
0.120080
0.115664
0.095928
0.066081
0.018911
-0.026843
-0.076223
-0.105008
-0.150143
-0.174933
-0.159564
-0.158285
-0.128368
-0.097746
-0.052771
-0.008078
0.041853
0.089279
0.118966
0.138345
0.141405
0.141729
0.115873
0.083739
0.032818
-0.023245
-0.071775
-0.105364
-0.130480
-0.127874
-0.122499
-0.108221
-0.094248
-0.068978
-0.032615
0.017297
0.068121
0.107984
0.133347
0.163310
0.157879
0.159639
0.145762
0.112800
0.043411
-0.001545
-0.045548
-0.083230
-0.109826
-0.130753
-0.135563
-0.121230
-0.089580
-0.057350
-0.008205
0.044697
0.088610
0.127549
0.151832
0.149927
0.182861
0.185625
0.153280
0.110690
0.061998
0.009147
-0.056858
-0.102229
-0.122933
-0.153597
-0.151725
-0.138560
-0.127788
-0.083028
-0.049118
0.001554
0.049089
0.075316
0.118399
0.148197
0.139110
0.116940
0.100061
0.069116
0.020380
-0.020844
-0.070805
-0.112341
-0.147166
-0.176045
-0.185246
-0.173399
-0.157101
-0.118799
-0.071180
-0.034075
0.020553
0.059884
0.092347
0.114697
0.113254
0.096021
0.073984
0.041144
-0.008689
-0.058398
-0.115330
-0.153568
-0.185997
-0.209057
-0.206332
-0.182366
-0.163518
-0.123174
-0.094661
-0.045146
0.010611
0.058299
0.071660
0.096005
0.113191
0.102434
0.083524
0.045763
-0.009184
-0.061126
-0.126517
-0.157223
-0.161288
-0.178959
-0.192419
-0.204059
-0.176969
-0.142989
-0.098134
-0.050744
-0.000633
0.041834
0.060805
0.083057
0.088098
0.105530
0.092054
0.033027
-0.012078
-0.051015
-0.102297
-0.149298
-0.173599
-0.204390
-0.217911
-0.194993
-0.175761
-0.141375
-0.099655
-0.053364
0.008618
0.051263
0.098850
0.116629
0.112073
0.098202
0.063628
0.037560
-0.005053
-0.059115
-0.115109
-0.151170
-0.186616
-0.222679
-0.232147
-0.228629
-0.194448
-0.144141
-0.093656
-0.049041
0.002291
0.057042
0.126123
0.135794
0.135773
0.171937
0.188092
0.176554
0.127282
0.077548
0.022724
-0.007849
-0.020632
0.007752
0.016299
0.045570
0.102628
0.165345
0.243145
0.329343
0.421474
0.488217
0.552169
0.615979
0.634971
0.662995
0.686809
0.709560
0.697249
0.691327
0.663653
0.650050
0.634112
0.605297
0.597366
0.610861
0.605892
0.629996
0.664022
0.677356
0.714193
0.703371
0.667583
0.623676
0.576538
0.519974
0.447464
0.342414
0.250374
0.159181
0.096992
0.037866
-0.014495
-0.025440
-0.034124
-0.021001
-0.019241
0.009204
0.037452
0.076494
0.129353
0.165212
0.199967
0.216270
0.206696
0.196813
0.176555
0.144596
0.102550
0.041517
-0.022483
-0.063597
-0.093852
-0.130168
-0.133860
-0.128553
-0.106086
-0.073879
-0.032473
0.015643
0.068043
0.111085
0.144816
0.154445
0.155725
0.146354
0.118223
0.078761
0.033976
-0.002922
-0.063113
-0.096595
-0.136294
-0.150779
-0.142474
-0.132743
-0.114326
-0.084250
-0.044828
0.000495
0.046164
0.086448
0.098517
0.133417
0.150596
0.141185
0.144555
0.112478
0.057259
-0.019024
-0.079481
-0.103214
-0.112731
-0.143354
-0.127937
-0.126287
-0.108914
-0.071331
-0.025546
0.019930
0.078342
0.118113
0.151457
0.163147
0.164138
0.148946
0.131074
0.095066
0.045461
0.002318
-0.043419
-0.085808
-0.116666
-0.123379
-0.136802
-0.121638
-0.090377
-0.059453
-0.012061
0.042033
0.087798
0.131679
0.164410
0.178485
0.189679
0.180937
0.162233
0.126463
0.079415
0.042775
0.009223
-0.042990
-0.081517
-0.104935
-0.107498
-0.093110
-0.059345
-0.029405
0.032319
0.073209
0.123140
0.165397
0.197302
0.221842
0.230979
0.221990
0.202428
0.161020
0.111195
0.069329
0.017078
-0.016911
-0.053867
-0.066387
-0.074434
-0.056130
-0.041116
-0.008470
0.038716
0.095966
0.144430
0.203141
0.248917
0.263547
0.257758
0.248600
0.214916
0.174330
0.123054
0.091065
0.027137
-0.011349
-0.029738
-0.028682
-0.039014
-0.040120
-0.005276
0.036621
0.071418
0.131157
0.176551
0.210785
0.238825
0.271353
0.278618
0.267471
0.241355
0.207160
0.163450
0.110740
0.058926
0.014508
-0.015948
-0.025849
-0.045237
-0.031162
-0.002362
0.037530
0.078734
0.125289
0.172957
0.210239
0.237298
0.263521
0.257409
0.249555
0.232952
0.201233
0.159346
0.109708
0.061794
0.016057
-0.027020
-0.037338
-0.050502
-0.048328
-0.022202
0.011608
0.050395
0.096665
0.151701
0.183393
0.217006
0.235808
0.238942
0.222087
0.193455
0.156755
0.114540
0.069607
0.016869
-0.029968
-0.057824
-0.084234
-0.092088
-0.073218
-0.048258
-0.017519
0.020948
0.049728
0.104610
0.145317
0.171658
0.192047
0.185468
0.173750
0.154183
0.108551
0.068848
0.023957
-0.029269
-0.077037
-0.104117
-0.120645
-0.125026
-0.099180
-0.093614
-0.083053
-0.050540
0.009620
0.067372
0.084110
0.133872
0.158004
0.169638
0.147190
0.120551
0.072320
0.022946
-0.030758
-0.040173
-0.084732
-0.115233
-0.144706
-0.160893
-0.158755
-0.132557
-0.103186
-0.056126
0.001108
0.039604
0.082980
0.135895
0.149266
0.139617
0.119213
0.103180
0.071494
0.036655
-0.029244
-0.080544
-0.119529
-0.145446
-0.156113
-0.164386
-0.151737
-0.124450
-0.087587
-0.061351
-0.028189
0.039664
0.089306
0.115642
0.125649
0.125732
0.115389
0.089955
0.049065
0.011243
-0.030344
-0.057117
-0.117985
-0.142678
-0.162386
-0.174123
-0.161683
-0.130272
-0.096720
-0.058677
-0.005493
0.050351
0.083721
0.118127
0.130278
0.147379
0.131866
0.110226
0.076030
0.027670
-0.015345
-0.065159
-0.108293
-0.140455
-0.144456
-0.162422
-0.150449
-0.131176
-0.090940
-0.059543
-0.025923
0.046833
0.094517
0.131030
0.144100
0.162817
0.139554
0.114629
0.080128
0.034818
-0.019613
-0.070964
-0.105020
-0.147719
-0.162229
-0.147893
-0.121558
-0.115567
-0.091468
-0.046853
-0.004880
0.042684
0.082276
0.116933
0.145555
0.149979
0.147291
0.108740
0.077678
0.031491
-0.017460
-0.064679
-0.099753
-0.132855
-0.151884
-0.165242
-0.148119
-0.122877
-0.086529
-0.044076
0.019929
0.062849
0.098918
0.130630
0.137054
0.142821
0.143518
0.130555
0.083429
0.034529
-0.019905
-0.060657
-0.101000
-0.136526
-0.162414
-0.173422
-0.162647
-0.140820
-0.094352
-0.038285
0.004935
0.050258
0.089039
0.113790
0.120435
0.110271
0.130527
0.102199
0.056945
0.017302
-0.036165
-0.083309
-0.114359
-0.138346
-0.157070
-0.169354
-0.173891
-0.118732
-0.094861
-0.065596
-0.016908
0.032497
0.047882
0.104835
0.136162
0.150474
0.128013
0.100763
0.065866
0.021148
-0.025762
-0.069980
-0.120092
-0.156388
-0.165954
-0.176222
-0.172071
-0.143955
-0.105483
-0.067627
-0.009672
0.041737
0.074389
0.100622
0.126631
0.126731
0.113823
0.088523
0.054075
0.007716
-0.043409
-0.083130
-0.123897
-0.151685
-0.175894
-0.175888
-0.168659
-0.142360
-0.105844
-0.073616
-0.020486
0.023468
0.058966
0.099436
0.112744
0.110245
0.109210
0.073529
0.030934
-0.006564
-0.058445
-0.092349
-0.129443
-0.155606
-0.178730
-0.182569
-0.177294
-0.151890
-0.120873
-0.082566
-0.021814
0.017527
0.064980
0.102149
0.107543
0.114529
0.111662
0.078788
0.045559
0.003636
-0.052083
-0.101176
-0.135745
-0.160921
-0.174271
-0.187087
-0.181187
-0.161827
-0.120792
-0.078422
-0.027222
0.026761
0.051250
0.078336
0.103519
0.118803
0.121451
0.106968
0.067835
0.017249
-0.039248
-0.081612
-0.138037
-0.170310
-0.174737
-0.183051
-0.176833
-0.151764
-0.134171
-0.067231
-0.013475
0.022460
0.065793
0.090773
0.105673
0.117883
0.114840
0.089890
0.053437
0.023821
-0.031310
-0.077923
-0.103220
-0.132402
-0.158157
-0.171698
-0.148597
-0.124240
-0.101055
-0.054250
0.010828
0.056241
0.089878
0.119487
0.141018
0.147078
0.132595
0.118864
0.072184
0.036704
-0.011793
-0.059282
-0.108614
-0.139537
-0.155714
-0.154448
-0.151175
-0.123420
-0.084704
-0.040982
0.009977
0.040344
0.086529
0.128557
0.160001
0.168176
0.153419
0.133900
0.108142
0.057980
0.010871
-0.033446
-0.079613
-0.109670
-0.135834
-0.135738
-0.136664
-0.124568
-0.086293
-0.022718
0.042254
0.081255
0.117768
0.152338
0.159740
0.156046
0.143179
0.108089
0.073420
0.046263
-0.022117
-0.063482
-0.105381
-0.137641
-0.163517
-0.177057
-0.164015
-0.146412
-0.106809
-0.066087
-0.011879
0.024924
0.060391
0.094384
0.116728
0.124165
0.119835
0.085343
0.045522
0.005367
-0.064530
-0.121829
-0.147878
-0.182209
-0.197377
-0.202715
-0.199381
-0.166779
-0.119478
-0.087982
-0.048726
-0.007131
0.039775
0.070201
0.078750
0.088888
0.085945
0.055162
0.026444
-0.022447
-0.076550
-0.117196
-0.159555
-0.183382
-0.215452
-0.211769
-0.207433
-0.170961
-0.144803
-0.099462
-0.049807
-0.007386
0.032079
0.062972
0.079773
0.087014
0.081327
0.054467
0.017770
-0.018779
-0.072421
-0.116197
-0.161588
-0.187934
-0.214144
-0.217893
-0.190535
-0.169408
-0.138512
-0.103464
-0.061929
-0.030235
0.008180
0.042349
0.060392
0.073992
0.084996
0.065905
0.034710
-0.020017
-0.079178
-0.150830
-0.164905
-0.197951
-0.209116
-0.210844
-0.198080
-0.168697
-0.136803
-0.101335
-0.055429
-0.009017
0.043442
0.060932
0.078117
0.079126
0.064145
0.040873
0.013931
-0.016293
-0.053974
-0.099545
-0.129488
-0.152366
-0.158462
-0.155013
-0.135808
-0.092282
-0.048639
0.020600
0.084993
0.133489
0.168926
0.217257
0.259187
0.284102
0.303646
0.302482
0.311508
0.293940
0.278163
0.249160
0.233967
0.232813
0.248952
0.254454
0.275863
0.337040
0.417514
0.510807
0.583015
0.646639
0.740310
0.798274
0.827936
0.842614
0.833455
0.816185
0.775946
0.717785
0.643655
0.587734
0.505740
0.412749
0.321816
0.253517
0.198853
0.173733
0.170026
0.159693
0.163480
0.188124
0.201333
0.204405
0.202651
0.199478
0.173064
0.143995
0.113709
0.074021
0.019595
-0.039682
-0.073265
-0.090604
-0.112381
-0.121991
-0.119022
-0.095888
-0.076630
-0.068415
0.011488
0.065363
0.104164
0.121791
0.148652
0.150232
0.121995
0.102028
0.073769
0.025447
-0.018557
-0.051679
-0.089482
-0.122013
-0.146838
-0.154149
-0.150579
-0.133650
-0.103905
-0.045269
-0.002057
0.037763
0.077643
0.111004
0.127396
0.117161
0.117972
0.102063
0.065602
0.018643
-0.034994
-0.076248
-0.115506
-0.136019
-0.156508
-0.158874
-0.154214
-0.141697
-0.100985
-0.060181
-0.014415
0.026809
0.062164
0.106143
0.120174
0.132128
0.129709
0.099879
0.071709
0.031168
-0.019995
-0.055095
-0.101457
-0.123007
-0.144125
-0.160226
-0.156886
-0.130020
-0.079073
-0.043005
-0.009688
0.046936
0.091554
0.125243
0.147074
0.146290
0.150218
0.121238
0.079594
0.026889
-0.013803
-0.069350
-0.095349
-0.100302
-0.127055
-0.142580
-0.124575
-0.089689
-0.049169
-0.016238
0.025158
0.082163
0.118734
0.156161
0.171103
0.180711
0.175771
0.153494
0.112327
0.071313
0.026391
-0.018872
-0.056433
-0.080116
-0.097969
-0.098042
-0.095514
-0.073145
-0.037051
0.019002
0.056124
0.088878
0.127280
0.168715
0.213350
0.222513
0.204907
0.185939
0.151835
0.106345
0.060794
0.018408
-0.018922
-0.036111
-0.056952
-0.074373
-0.064542
-0.030147
0.002185
0.043454
0.084901
0.133506
0.180750
0.200599
0.220513
0.242085
0.232463
0.213925
0.174090
0.129987
0.073438
0.034539
-0.009273
-0.036060
-0.052077
-0.054961
-0.055149
-0.022565
0.014434
0.056793
0.109054
0.148252
0.185598
0.213043
0.233482
0.234542
0.225731
0.198630
0.163710
0.114403
0.071604
0.027624
-0.008799
-0.049615
-0.059101
-0.046038
-0.045421
-0.021387
0.007332
0.046197
0.085078
0.126700
0.154008
0.174904
0.223639
0.226830
0.225011
0.194168
0.147815
0.094032
0.053143
0.011143
-0.033060
-0.074952
-0.091327
-0.072896
-0.072287
-0.053433
-0.021327
0.009896
0.062929
0.102053
0.140124
0.158700
0.166172
0.175586
0.164424
0.147956
0.101341
0.064534
0.013829
-0.041894
-0.084053
-0.104259
-0.128071
-0.132790
-0.134749
-0.113176
-0.079107
-0.033717
0.017649
0.067772
0.099289
0.110092
0.132857
0.139197
0.122736
0.106885
0.070552
0.027800
-0.010569
-0.067278
-0.112864
-0.140114
-0.156871
-0.171370
-0.150946
-0.122134
-0.088856
-0.061721
-0.033879
0.020292
0.069408
0.091292
0.104709
0.119807
0.107955
0.074930
0.039804
-0.009561
-0.056913
-0.100962
-0.137129
-0.157588
-0.188512
-0.203739
-0.188824
-0.161426
-0.125400
-0.075892
-0.027215
0.022444
0.057223
0.075684
0.106790
0.125624
0.108536
0.070207
0.034863
-0.019778
-0.049685
-0.101587
-0.150324
-0.161452
-0.176808
-0.184153
-0.183796
-0.158894
-0.137332
-0.094389
-0.047944
0.007848
0.063735
0.088685
0.099571
0.099498
0.091937
0.079358
0.044156
-0.004510
-0.043947
-0.094575
-0.125211
-0.160365
-0.176701
-0.184570
-0.169631
-0.156506
-0.116571
-0.074709
-0.039812
0.011239
0.044784
0.078840
0.107743
0.109278
0.103019
0.081878
0.060050
0.019634
-0.039829
-0.095222
-0.122581
-0.155279
-0.170297
-0.180301
-0.178731
-0.160140
-0.135512
-0.075478
-0.028156
0.015786
0.049002
0.077910
0.091505
0.079709
0.091829
0.092774
0.070103
0.027417
-0.012218
-0.058565
-0.140186
-0.173753
-0.175205
-0.182242
-0.157222
-0.131745
-0.107401
-0.067219
-0.028404
0.008377
0.050640
0.082488
0.087373
0.118303
0.123603
0.089582
0.047095
-0.000126
-0.041990
-0.084451
-0.124961
-0.147002
-0.177433
-0.178862
-0.179187
-0.159726
-0.136334
-0.096760
-0.033713
0.022315
0.058643
0.090921
0.114934
0.117670
0.115170
0.076883
0.052269
0.000754
-0.036417
-0.077769
-0.126918
-0.152547
-0.179249
-0.191164
-0.184007
-0.156897
-0.125477
-0.077684
-0.031725
0.011083
0.046259
0.084069
0.098125
0.098607
0.090382
0.073105
0.044468
-0.010211
-0.056099
-0.091123
-0.131082
-0.158615
-0.177073
-0.181138
-0.178389
-0.154804
-0.117665
-0.074189
-0.042873
0.007273
0.043967
0.067498
0.078387
0.088314
0.090614
0.069202
0.029410
-0.019033
-0.062990
-0.101944
-0.144538
-0.172699
-0.196400
-0.198529
-0.195248
-0.178811
-0.149223
-0.104379
-0.066531
0.002832
0.054512
0.075546
0.087841
0.092810
0.081458
0.059793
0.035015
-0.021393
-0.063307
-0.101186
-0.142597
-0.179636
-0.200007
-0.206598
-0.190715
-0.156942
-0.126229
-0.080404
-0.043817
-0.008057
0.019009
0.060771
0.090362
0.105893
0.086911
0.041272
0.024218
-0.009324
-0.057074
-0.097960
-0.148029
-0.170418
-0.185268
-0.192386
-0.182525
-0.172371
-0.113680
-0.077348
-0.055781
-0.004657
0.038090
0.062807
0.093439
0.108674
0.102070
0.084043
0.038875
0.001311
-0.032207
-0.074852
-0.117261
-0.156288
-0.166575
-0.168091
-0.170348
-0.154689
-0.108787
-0.068584
-0.034912
0.011500
0.076408
0.114660
0.130134
0.127155
0.112668
0.086251
0.054207
0.004751
-0.042923
-0.098946
-0.124836
-0.127520
-0.144225
-0.166983
-0.164182
-0.146635
-0.106711
-0.056696
0.006803
0.043904
0.082676
0.112692
0.137738
0.139248
0.137740
0.125033
0.081931
0.048403
-0.008057
-0.060621
-0.108359
-0.134656
-0.157387
-0.165765
-0.157438
-0.124900
-0.101918
-0.053294
-0.022757
0.018306
0.054236
0.096401
0.118279
0.129383
0.112672
0.085967
0.043028
0.001040
-0.052935
-0.095104
-0.137860
-0.164721
-0.185411
-0.195055
-0.188961
-0.167349
-0.135643
-0.101730
-0.056692
-0.015448
0.016223
0.052882
0.080607
0.083405
0.070020
0.041891
0.003184
-0.027421
-0.061549
-0.107915
-0.150012
-0.193257
-0.214927
-0.221078
-0.216846
-0.201311
-0.173468
-0.123158
-0.082304
-0.049107
-0.025130
0.012073
0.038566
0.048112
0.066165
0.051519
0.014060
-0.028806
-0.075935
-0.124184
-0.174320
-0.200550
-0.218015
-0.228338
-0.229088
-0.205603
-0.182398
-0.143835
-0.081310
-0.028838
0.024464
0.053070
0.058575
0.060264
0.053325
0.039547
-0.004123
-0.042337
-0.082189
-0.129719
-0.171089
-0.202373
-0.224905
-0.235672
-0.240934
-0.215301
-0.169103
-0.120364
-0.074549
-0.030821
0.003762
0.051552
0.054796
0.053410
0.052539
0.036319
0.011251
-0.030715
-0.089816
-0.133659
-0.182822
-0.221249
-0.239477
-0.250980
-0.239817
-0.220519
-0.182643
-0.136156
-0.088756
-0.038970
0.009200
0.039991
0.042978
0.086342
0.083923
0.075770
0.050460
-0.011284
-0.033491
-0.046051
-0.056209
-0.076417
-0.082094
-0.094756
-0.077540
-0.041443
0.016195
0.078760
0.149429
0.222782
0.284093
0.335928
0.381310
0.445438
0.459430
0.467074
0.463596
0.447280
0.426354
0.406962
0.399782
0.401591
0.437564
0.462598
0.503352
0.549745
0.622046
0.664396
0.703848
0.764115
0.789344
0.798004
0.807787
0.785906
0.740214
0.666299
0.564480
0.448637
0.328571
0.223053
0.152905
0.082425
0.017866
-0.030169
-0.041249
-0.044574
-0.025671
0.004278
0.033087
0.076226
0.110759
0.147770
0.156282
0.154035
0.153835
0.137448
0.095156
0.051252
0.001762
-0.043739
-0.083430
-0.120992
-0.136372
-0.165943
-0.157649
-0.118059
-0.099083
-0.062600
-0.011771
0.043622
0.070420
0.079443
0.115057
0.124748
0.123354
0.096082
0.062037
0.024370
-0.024345
-0.079605
-0.127461
-0.159077
-0.182753
-0.188166
-0.181654
-0.154808
-0.129568
-0.085416
-0.032265
0.019895
0.055560
0.085889
0.112127
0.122938
0.116385
0.083169
0.050254
0.001237
-0.037120
-0.091416
-0.123810
-0.155405
-0.175902
-0.189731
-0.177795
-0.169814
-0.135190
-0.076857
-0.025777
0.032128
0.078322
0.107846
0.118992
0.136237
0.133836
0.100048
0.051584
0.014642
-0.027295
-0.070164
-0.120580
-0.153800
-0.162072
-0.170551
-0.159438
-0.138006
-0.101232
-0.054578
0.005950
0.045662
0.083872
0.120835
0.134197
0.139761
0.137455
0.119200
0.073825
0.044257
0.000206
-0.050570
-0.097517
-0.125882
-0.145031
-0.150947
-0.138458
-0.112587
-0.065269
-0.015716
0.020739
0.069941
0.104043
0.142398
0.159952
0.170237
0.153496
0.135120
0.105793
0.059380
-0.005231
-0.041939
-0.061480
-0.083147
-0.103717
-0.102233
-0.090529
-0.080236
-0.045271
0.008902
0.059328
0.120015
0.152093
0.200419
0.209331
0.209808
0.189895
0.180404
0.141208
0.096994
0.049856
0.011390
-0.025903
-0.065719
-0.089434
-0.082758
-0.060833
-0.033619
0.007295
0.029423
0.069984
0.133562
0.164068
0.195006
0.220013
0.225519
0.222821
0.193160
0.165647
0.118622
0.080407
0.024230
-0.009905
-0.034194
-0.059546
-0.056777
-0.054018
-0.039968
-0.009286
0.015558
0.068046
0.105377
0.157400
0.177109
0.216308
0.218928
0.212034
0.198598
0.162357
0.100497
0.051838
0.021862
-0.026907
-0.056118
-0.081212
-0.082097
-0.076352
-0.052916
-0.017301
0.026065
0.063109
0.114216
0.150972
0.177520
0.197251
0.194273
0.177150
0.151407
0.091359
0.045554
0.022362
-0.016439
-0.045951
-0.085288
-0.107061
-0.120485
-0.107538
-0.087077
-0.047267
-0.005474
0.028677
0.063714
0.103520
0.129048
0.147523
0.161661
0.151263
0.120362
0.076574
0.038282
-0.009981
-0.069122
-0.100495
-0.122590
-0.150052
-0.162592
-0.155795
-0.128011
-0.095763
-0.051822
-0.014872
0.025629
0.075852
0.099117
0.112702
0.116982
0.104427
0.086608
0.051845
0.015869
-0.030222
-0.081228
-0.136986
-0.167021
-0.189555
-0.191374
-0.179537
-0.160397
-0.115249
-0.075115
-0.019999
0.019594
0.049466
0.064266
0.088753
0.101037
0.096415
0.068300
0.020703
-0.026893
-0.066297
-0.111801
-0.159806
-0.176165
-0.196859
-0.188700
-0.178444
-0.152056
-0.108653
-0.083816
-0.051633
-0.000054
0.038689
0.075384
0.093512
0.105257
0.085636
0.080067
0.055021
-0.009198
-0.067284
-0.105552
-0.155606
-0.189133
-0.211563
-0.204746
-0.168802
-0.137713
-0.117588
-0.081170
-0.036033
0.000610
0.045303
0.081603
0.096350
0.100733
0.091093
0.079011
0.043384
-0.009912
-0.048999
-0.097304
-0.145062
-0.179946
-0.210143
-0.203907
-0.173572
-0.142334
-0.107117
-0.069219
-0.028807
0.014766
0.047478
0.080021
0.097375
0.098779
0.105026
0.078845
0.053129
0.003347
-0.036797
-0.076205
-0.113643
-0.150870
-0.174003
-0.177785
-0.171889
-0.156197
-0.124952
-0.079217
-0.020884
0.025201
0.060694
0.088682
0.115370
0.120554
0.113288
0.088105
0.050046
0.003475
-0.052419
-0.089991
-0.125998
-0.146327
-0.170007
-0.179303
-0.171296
-0.148295
-0.119107
-0.072024
-0.032503
0.019519
0.056886
0.088313
0.109832
0.116827
0.100147
0.074077
0.036730
0.003741
-0.035359
-0.079784
-0.119109
-0.157022
-0.175306
-0.184091
-0.175871
-0.152799
-0.112625
-0.073712
-0.018726
0.006219
0.039796
0.088193
0.110027
0.118494
0.107014
0.080942
0.044228
-0.010170
-0.047982
-0.079544
-0.111027
-0.146125
-0.181981
-0.187023
-0.190513
-0.167414
-0.130472
-0.084222
-0.028593
0.012079
0.050277
0.078179
0.109276
0.115094
0.101843
0.082801
0.044796
0.003533
-0.044001
-0.083860
-0.125392
-0.152261
-0.186676
-0.193867
-0.182106
-0.149732
-0.118958
-0.094827
-0.065550
0.009452
0.057177
0.066227
0.099299
0.101793
0.099113
0.075833
0.044233
0.003454
-0.057998
-0.107961
-0.142955
-0.166151
-0.175432
-0.186337
-0.182397
-0.164640
-0.130240
-0.087802
-0.048320
-0.002304
0.047595
0.074686
0.099175
0.102091
0.095491
0.071267
0.032714
-0.006223
-0.057880
-0.086812
-0.131124
-0.164122
-0.190005
-0.203533
-0.168883
-0.140936
-0.112075
-0.075710
-0.031503
0.011085
0.053354
0.081267
0.104388
0.122765
0.109578
0.089468
0.061063
0.027356
-0.022409
-0.080113
-0.107620
-0.132620
-0.148400
-0.164176
-0.156282
-0.134176
-0.094246
-0.052361
-0.001693
0.039827
0.067185
0.101510
0.127607
0.131454
0.127866
0.125191
0.094091
0.051114
-0.009506
-0.058904
-0.109038
-0.144051
-0.166165
-0.151216
-0.153714
-0.128691
-0.104716
-0.053519
0.001367
0.050590
0.101050
0.132797
0.158920
0.159630
0.145516
0.124847
0.096530
0.050920
0.006646
-0.042340
-0.086802
-0.111053
-0.135200
-0.128047
-0.123944
-0.105150
-0.081524
-0.040155
0.002737
0.045081
0.097876
0.126104
0.142973
0.143593
0.129649
0.097975
0.039218
0.010667
-0.032352
-0.076079
-0.118288
-0.143783
-0.161740
-0.185232
-0.183325
-0.153800
-0.122961
-0.072902
-0.031204
0.013049
0.039429
0.059563
0.098494
0.101748
0.098706
0.066686
0.033485
-0.010281
-0.071495
-0.113039
-0.159824
-0.195341
-0.205234
-0.213303
-0.188967
-0.177498
-0.127580
-0.090798
-0.044406
-0.013859
0.021770
0.061018
0.073492
0.085512
0.062865
0.048847
0.024923
-0.021365
-0.073658
-0.103511
-0.168715
-0.209171
-0.223339
-0.217946
-0.206482
-0.179022
-0.146884
-0.111030
-0.059606
-0.023271
0.013073
0.047418
0.075983
0.077487
0.069936
0.039201
0.015075
-0.015499
-0.054206
-0.104062
-0.157038
-0.198311
-0.207975
-0.214939
-0.207325
-0.181646
-0.144340
-0.117595
-0.068856
-0.017286
0.016843
0.057024
0.081526
0.082388
0.081039
0.046698
0.016256
-0.028828
-0.073222
-0.118025
-0.182667
-0.188233
-0.201213
-0.199231
-0.189931
-0.174384
-0.143265
-0.107366
-0.058048
-0.016493
0.019625
0.045872
0.071703
0.093380
0.096844
0.076776
0.047576
0.016296
-0.013345
-0.033964
-0.060961
-0.088966
-0.083648
-0.074005
-0.057256
-0.018903
0.031592
0.094200
0.166015
0.230995
0.290191
0.352727
0.404807
0.433583
0.469418
0.472176
0.466829
0.459321
0.425542
0.414059
0.406374
0.415454
0.429833
0.464424
0.508239
0.570123
0.632202
0.684881
0.738094
0.764299
0.822160
0.835160
0.850069
0.824630
0.787520
0.722097
0.622523
0.513171
0.408440
0.301206
0.187099
0.124498
0.069851
0.024045
-0.004482
0.005166
0.025821
0.052315
0.097826
0.130942
0.175297
0.190199
0.196399
0.195596
0.177553
0.155130
0.126714
0.079108
0.020044
-0.017486
-0.054431
-0.089340
-0.108992
-0.121450
-0.126385
-0.098631
-0.075102
-0.029208
0.017951
0.058478
0.101613
0.123132
0.136765
0.136363
0.131352
0.093812
0.057109
0.030661
-0.013665
-0.046009
-0.086415
-0.125940
-0.145593
-0.153844
-0.152226
-0.125037
-0.099671
-0.057128
-0.001491
0.037924
0.075996
0.108099
0.128266
0.138280
0.121350
0.090990
0.057566
0.023891
-0.031920
-0.061973
-0.093860
-0.123349
-0.148265
-0.149859
-0.143945
-0.106191
-0.075399
-0.032812
-0.004139
0.045411
0.079363
0.110026
0.116345
0.129024
0.109347
0.082863
0.072379
0.051262
0.009355
-0.037528
-0.096492
-0.151965
-0.117947
-0.112273
-0.109301
-0.089505
-0.060857
-0.023518
0.017706
0.053677
0.104982
0.131616
0.153509
0.157918
0.157601
0.117580
0.091098
0.059706
0.025843
-0.019024
-0.058252
-0.086391
-0.104218
-0.099661
-0.094251
-0.068198
-0.041515
-0.008943
0.044113
0.082737
0.118728
0.161121
0.179217
0.187594
0.187955
0.169900
0.146559
0.099732
0.057115
0.007829
-0.025500
-0.058730
-0.073437
-0.073915
-0.062953
-0.032563
-0.001865
0.031393
0.075585
0.133633
0.173198
0.203431
0.236319
0.230286
0.220130
0.203133
0.163748
0.124544
0.089314
0.043212
0.007646
-0.020606
-0.043635
-0.044359
-0.030275
-0.001478
0.027603
0.063002
0.110897
0.161667
0.186661
0.216542
0.235718
0.238622
0.214098
0.192295
0.194647
0.163267
0.120961
0.079976
0.031107
-0.000029
-0.030084
-0.037110
-0.028653
0.002070
0.031215
0.071080
0.114134
0.151849
0.188045
0.226907
0.250273
0.243132
0.250675
0.215361
0.181135
0.141665
0.103199
0.053471
0.013923
-0.025636
-0.033743
-0.045197
-0.042362
-0.026268
0.016260
0.047899
0.085249
0.137677
0.183780
0.209433
0.228432
0.228437
0.206823
0.163526
0.126361
0.120664
0.072094
0.014957
-0.013662
-0.043335
-0.061606
-0.075025
-0.072405
-0.050975
-0.018187
0.017269
0.057760
0.094205
0.127247
0.151710
0.203034
0.194930
0.175313
0.148642
0.111741
0.069532
0.026808
-0.008482
-0.054107
-0.089182
-0.103280
-0.108644
-0.109290
-0.094122
-0.067125
-0.031545
0.008874
0.050706
0.083934
0.109976
0.135798
0.156674
0.140377
0.121871
0.094290
0.043583
-0.013636
-0.067672
-0.118150
-0.142367
-0.139890
-0.140149
-0.131551
-0.111048
-0.087326
-0.045992
-0.007906
0.035321
0.072870
0.106325
0.129897
0.125706
0.120984
0.097975
0.062636
0.026167
-0.015934
-0.057524
-0.099401
-0.135273
-0.148393
-0.156431
-0.145057
-0.130236
-0.096926
-0.049453
-0.004389
0.031256
0.071007
0.104574
0.107359
0.111121
0.105932
0.093635
0.069845
0.036571
-0.009084
-0.070171
-0.110213
-0.140736
-0.154664
-0.152340
-0.154973
-0.135947
-0.105277
-0.055520
-0.009910
0.038378
0.074139
0.109582
0.126676
0.129235
0.125326
0.119173
0.077416
0.038690
-0.000276
-0.048271
-0.104082
-0.139664
-0.165957
-0.160458
-0.142925
-0.128243
-0.095931
-0.058053
-0.005172
0.029207
0.072058
0.109739
0.122099
0.113506
0.113277
0.117626
0.083469
0.056919
0.005564
-0.050966
-0.086748
-0.118956
-0.146949
-0.148434
-0.147748
-0.133039
-0.099026
-0.045213
0.002105
0.049833
0.086179
0.118091
0.143491
0.135642
0.136270
0.133027
0.101814
0.042629
-0.007075
-0.054114
-0.081288
-0.114768
-0.142006
-0.142250
-0.134727
-0.106588
-0.079721
-0.039466
-0.003900
0.038036
0.083310
0.119246
0.129375
0.139317
0.137460
0.119799
0.091258
0.046481
-0.002340
-0.056054
-0.091243
-0.109357
-0.133811
-0.153650
-0.152516
-0.119008
-0.089514
-0.053940
-0.013503
0.034250
0.078981
0.133281
0.160285
0.147953
0.132464
0.110754
0.073623
0.039259
0.005498
-0.039923
-0.089744
-0.127787
-0.142962
-0.150204
-0.145586
-0.127883
-0.093021
-0.039570
-0.008087
0.036553
0.076476
0.114436
0.139839
0.142380
0.124783
0.096552
0.073634
0.037021
-0.009482
-0.058034
-0.099306
-0.128780
-0.152487
-0.165425
-0.157374
-0.130095
-0.101637
-0.080087
-0.026085
0.038963
0.086157
0.117902
0.138789
0.155537
0.150043
0.093838
0.068237
0.034964
-0.017347
-0.079905
-0.118335
-0.152844
-0.165570
-0.152371
-0.142371
-0.115733
-0.087272
-0.054107
-0.017834
0.027735
0.070936
0.101467
0.116564
0.140783
0.134099
0.110362
0.070474
0.019246
-0.035621
-0.067270
-0.107860
-0.136840
-0.157449
-0.169208
-0.158293
-0.146984
-0.118829
-0.065160
-0.021927
0.024633
0.068699
0.136495
0.153959
0.143712
0.130305
0.101448
0.075525
0.020982
-0.013397
-0.057924
-0.098405
-0.136608
-0.151567
-0.162816
-0.146594
-0.130001
-0.098249
-0.062784
-0.033049
0.019114
0.069070
0.105306
0.137788
0.139845
0.119944
0.096609
0.059750
0.024107
-0.018633
-0.064658
-0.106665
-0.137770
-0.148400
-0.147418
-0.139164
-0.132262
-0.094039
-0.033916
0.013942
0.046377
0.081431
0.129825
0.153679
0.156218
0.166682
0.138673
0.094191
0.060984
0.013702
-0.036089
-0.091867
-0.126042
-0.132734
-0.112249
-0.092284
-0.078913
-0.056320
-0.016489
0.020993
0.048947
0.100420
0.144051
0.166471
0.154572
0.129978
0.137470
0.112330
0.061924
0.005243
-0.015082
-0.060180
-0.088026
-0.116252
-0.120260
-0.099616
-0.083784
-0.052803
-0.003637
0.042147
0.093182
0.126317
0.159049
0.176074
0.183340
0.167316
0.136039
0.093010
0.057493
0.008350
-0.037401
-0.080247
-0.111392
-0.131349
-0.133841
-0.125163
-0.112695
-0.084147
-0.035173
0.003191
0.044073
0.084980
0.109078
0.129083
0.135389
0.108167
0.101304
0.065068
0.035592
0.005489
-0.052510
-0.105349
-0.135968
-0.157438
-0.170566
-0.163655
-0.152193
-0.112444
-0.072995
-0.061359
0.008430
0.075782
0.101902
0.121285
0.126017
0.104139
0.080020
0.038526
-0.005814
-0.042336
-0.088893
-0.132511
-0.165725
-0.186235
-0.191239
-0.178501
-0.149947
-0.124422
-0.092704
-0.035542
0.008064
0.045407
0.077530
0.096768
0.104792
0.094645
0.064658
0.018304
-0.018493
-0.044557
-0.091481
-0.145924
-0.172261
-0.179660
-0.186012
-0.167401
-0.151399
-0.117976
-0.075720
-0.034657
0.006019
0.053414
0.074081
0.091537
0.099549
0.073762
0.066443
0.032296
-0.001969
-0.052995
-0.093140
-0.141357
-0.154896
-0.167490
-0.183329
-0.182297
-0.162899
-0.146753
-0.086082
-0.024323
0.009959
0.042212
0.071008
0.091787
0.091371
0.074409
0.058681
0.021163
-0.024534
-0.076287
-0.112057
-0.142843
-0.163327
-0.171577
-0.171331
-0.167660
-0.140849
-0.095502
-0.045339
0.009388
0.068319
0.117799
0.158374
0.195791
0.200448
0.213161
0.219558
0.213938
0.196940
0.170206
0.149845
0.121661
0.124303
0.139698
0.168563
0.224178
0.259135
0.346956
0.430563
0.504389
0.571372
0.650043
0.721511
0.798714
0.837898
0.853440
0.858928
0.859825
0.845377
0.795314
0.745121
0.719024
0.670945
0.622251
0.596572
0.581280
0.568314
0.550615
0.515097
0.494101
0.454922
0.438550
0.441299
0.395282
0.359261
0.313130
0.271272
0.213304
0.181572
0.141199
0.084141
0.037878
0.007959
-0.009512
-0.037583
-0.045096
-0.040967
-0.017111
0.023569
0.068902
0.118701
0.156696
0.182194
0.189200
0.193783
0.178868
0.150385
0.118960
0.076653
0.033510
-0.013451
-0.067697
-0.095156
-0.112937
-0.128076
-0.115452
-0.098240
-0.067740
-0.033003
0.004978
0.057447
0.093429
0.117802
0.144746
0.153718
0.122438
0.114134
0.097584
0.060299
-0.000723
-0.059609
-0.086115
-0.108076
-0.126239
-0.143095
-0.127654
-0.112640
-0.078323
-0.037838
-0.000535
0.039603
0.088390
0.125263
0.153939
0.159625
0.153495
0.118479
0.078766
0.048803
0.011457
-0.023863
-0.062675
-0.088185
-0.107863
-0.119355
-0.116614
-0.111755
-0.079944
-0.041485
0.027280
0.074158
0.115131
0.132154
0.155895
0.162587
0.153339
0.139497
0.108044
0.060075
0.024817
-0.005054
-0.050980
-0.085468
-0.096811
-0.105334
-0.101939
-0.078040
-0.037631
-0.011564
0.038192
0.085894
0.134338
0.154012
0.178204
0.190888
0.180242
0.156533
0.130669
0.109080
0.053219
0.015730
-0.024450
-0.054745
-0.072969
-0.080435
-0.069331
-0.054737
-0.016130
0.026909
0.082296
0.121852
0.160280
0.197826
0.216742
0.224946
0.217679
0.172578
0.145192
0.124552
0.099297
0.054327
0.016159
-0.006124
-0.024608
-0.034202
-0.029560
-0.015650
0.016591
0.060719
0.102732
0.152873
0.191402
0.220438
0.247743
0.247753
0.244176
0.214517
0.204036
0.191244
0.116907
0.068781
0.023761
0.007489
-0.013537
-0.033489
-0.035467
-0.010338
0.038140
0.087373
0.137117
0.183753
0.210954
0.235918
0.248860
0.265590
0.277659
0.238995
0.219320
0.176338
0.142143
0.098378
0.056521
0.010852
-0.022686
-0.028393
-0.022622
0.003998
0.043553
0.079574
0.119439
0.160694
0.201255
0.239656
0.256004
0.256201
0.249454
0.228705
0.190643
0.169228
0.118175
0.063776
0.018349
-0.011699
-0.033838
-0.035402
-0.040027
-0.017023
0.007480
0.046529
0.094294
0.135454
0.170986
0.206177
0.227256
0.230137
0.209731
0.199883
0.157819
0.131341
0.079610
0.017584
-0.027221
-0.062446
-0.088668
-0.110805
-0.089642
-0.055732
-0.020840
0.011866
0.055001
0.094065
0.129588
0.166754
0.183750
0.194571
0.181647
0.165868
0.114656
0.072208
0.014011
-0.032661
-0.063550
-0.099975
-0.121462
-0.131933
-0.121014
-0.111727
-0.099804
-0.053747
0.012893
0.076404
0.107177
0.124043
0.117480
0.123251
0.140837
0.126240
0.094186
0.038012
-0.007182
-0.051921
-0.075950
-0.093846
-0.125165
-0.141092
-0.144632
-0.122349
-0.074902
-0.039519
0.000461
0.046326
0.075908
0.118469
0.131674
0.128570
0.132574
0.119575
0.082499
0.041806
-0.011953
-0.041618
-0.078958
-0.121420
-0.146359
-0.156683
-0.151054
-0.121387
-0.087574
-0.055519
-0.002941
0.041412
0.073647
0.106308
0.135816
0.138319
0.130488
0.107547
0.066505
0.033916
-0.017276
-0.080747
-0.109421
-0.116720
-0.137721
-0.136620
-0.131907
-0.123560
-0.085667
-0.047860
-0.006132
0.047403
0.097589
0.121073
0.143533
0.146921
0.138264
0.110793
0.065514
0.030208
-0.009938
-0.041573
-0.083550
-0.122449
-0.143220
-0.150743
-0.142280
-0.116126
-0.075511
-0.038183
0.007076
0.051215
0.084562
0.115371
0.141193
0.130517
0.121614
0.105976
0.086552
0.048541
0.001722
-0.037161
-0.064019
-0.101428
-0.132104
-0.143422
-0.129421
-0.103408
-0.073736
-0.051230
0.022658
0.070146
0.103305
0.140783
0.159889
0.149453
0.151978
0.126483
0.090281
0.043476
-0.001881
-0.048966
-0.089380
-0.116365
-0.133843
-0.130707
-0.106871
-0.088433
-0.062963
-0.032171
0.008610
0.049406
0.100846
0.130632
0.149600
0.148786
0.142941
0.115999
0.077958
0.046511
0.000841
-0.043604
-0.093884
-0.121443
-0.156769
-0.170958
-0.143332
-0.096341
-0.049459
-0.015883
0.012165
0.059985
0.085646
0.108574
0.138025
0.151298
0.137395
0.093469
0.080435
0.044461
0.003715
-0.040361
-0.077747
-0.116509
-0.130267
-0.124127
-0.126214
-0.111940
-0.073602
-0.041592
0.006569
0.048551
0.083943
0.114601
0.130045
0.127347
0.126709
0.104502
0.074679
0.038024
-0.006105
-0.049000
-0.085615
-0.109056
-0.144083
-0.160960
-0.146592
-0.137817
-0.098642
-0.052129
-0.010212
0.034656
0.082730
0.121664
0.140361
0.133373
0.123554
0.094497
0.072297
0.042159
-0.002040
-0.052480
-0.093866
-0.118664
-0.144526
-0.146281
-0.138723
-0.121804
-0.102154
-0.052495
-0.008337
0.038408
0.073662
0.106561
0.119667
0.118705
0.115306
0.094145
0.066612
0.005553
-0.028330
-0.064149
-0.100231
-0.115837
-0.137328
-0.144042
-0.139314
-0.122519
-0.086455
-0.048049
-0.019785
0.026460
0.081811
0.109768
0.126650
0.134298
0.125802
0.104768
0.068385
0.022129
-0.001502
-0.047876
-0.092442
-0.122883
-0.137866
-0.131666
-0.134456
-0.118817
-0.077283
-0.043179
0.008809
0.055886
0.100228
0.134047
0.162826
0.164441
0.149607
0.133249
0.099579
0.074269
0.022325
-0.027859
-0.057953
-0.083761
-0.110029
-0.123943
-0.113907
-0.088508
-0.065013
-0.033980
0.010367
0.064949
0.111490
0.139598
0.152347
0.161964
0.160627
0.135465
0.099709
0.075273
0.032973
-0.013522
-0.048625
-0.081579
-0.102524
-0.107112
-0.096072
-0.070702
-0.045822
-0.011644
0.030898
0.072881
0.112903
0.131668
0.154503
0.154550
0.174374
0.155985
0.116219
0.074196
0.031037
-0.023939
-0.064132
-0.088054
-0.121255
-0.130373
-0.129252
-0.104774
-0.081758
-0.045424
-0.003237
0.046576
0.082056
0.113092
0.134823
0.134850
0.131911
0.094733
0.073317
0.040831
-0.013241
-0.085968
-0.115349
-0.132726
-0.157607
-0.169179
-0.152194
-0.122775
-0.121714
-0.085969
-0.038303
0.006721
0.056703
0.079797
0.087447
0.095318
0.093636
0.092586
0.059191
0.017871
-0.035106
-0.082483
-0.130047
-0.154983
-0.184396
-0.201526
-0.186872
-0.162585
-0.127240
-0.095415
-0.051292
-0.002738
0.045406
0.088669
0.105838
0.110234
0.102422
0.067145
0.034769
0.006458
-0.032244
-0.089668
-0.143712
-0.168851
-0.172704
-0.192987
-0.192460
-0.170750
-0.154463
-0.110949
-0.054564
0.002998
0.050111
0.059869
0.081612
0.102719
0.103968
0.074272
0.049613
0.013936
-0.036315
-0.086743
-0.128442
-0.170718
-0.184417
-0.186282
-0.182441
-0.164940
-0.128852
-0.081713
-0.036088
0.010817
0.049072
0.074181
0.086584
0.083511
0.083565
0.075794
0.047710
0.001006
-0.051971
-0.099011
-0.161244
-0.196593
-0.198762
-0.195162
-0.194863
-0.162500
-0.133251
-0.075109
-0.003580
0.054683
0.109784
0.145097
0.181091
0.201311
0.213382
0.202229
0.178571
0.148069
0.126468
0.094929
0.075920
0.091551
0.094659
0.113722
0.159103
0.223837
0.296092
0.371253
0.454279
0.537414
0.600790
0.663073
0.718661
0.780423
0.824481
0.821291
0.807433
0.782431
0.756165
0.735510
0.691624
0.659137
0.621862
0.589048
0.575386
0.588476
0.597828
0.587921
0.563369
0.534272
0.533403
0.518085
0.470961
0.409495
0.377074
0.317556
0.265026
0.197348
0.152102
0.102984
0.043918
0.003932
-0.012710
-0.037770
-0.036807
-0.025672
-0.012915
0.017620
0.065596
0.099980
0.129022
0.169625
0.193068
0.197124
0.185052
0.153010
0.121622
0.081635
0.038549
-0.008032
-0.050703
-0.081877
-0.102489
-0.119009
-0.121302
-0.102802
-0.078208
-0.046351
-0.001989
0.069970
0.077800
0.109434
0.154544
0.170189
0.152667
0.122854
0.084554
0.052672
0.014621
-0.037901
-0.078322
-0.108429
-0.115676
-0.117028
-0.120526
-0.110672
-0.065293
-0.037527
0.006002
0.050587
0.090803
0.123249
0.141192
0.137623
0.122871
0.093304
0.087292
0.058139
0.009928
-0.027345
-0.067303
-0.089774
-0.113702
-0.124522
-0.112693
-0.088880
-0.061114
-0.023206
0.023793
0.060521
0.099662
0.110624
0.140912
0.166014
0.169664
0.144925
0.125692
0.071945
0.033836
-0.015442
-0.056005
-0.080070
-0.094908
-0.107085
-0.108430
-0.076689
-0.032564
0.013017
0.056882
0.099107
0.127228
0.169978
0.178659
0.198510
0.189817
0.163240
0.134997
0.096787
0.046688
0.011200
-0.018057
-0.035790
-0.053258
-0.070702
-0.055673
-0.024572
-0.014329
0.022352
0.065698
0.099676
0.134471
0.176920
0.192128
0.209907
0.212602
0.205582
0.187913
0.133534
0.097304
0.054949
0.011167
-0.022902
-0.029551
-0.040969
-0.041159
-0.003492
0.021262
0.064131
0.107630
0.151185
0.198344
0.230987
0.252249
0.262333
0.259575
0.229275
0.206816
0.168378
0.118671
0.078689
0.039574
-0.003408
-0.010738
-0.001737
-0.008609
0.004148
0.029962
0.070418
0.110992
0.153228
0.210202
0.249424
0.271390
0.275769
0.266350
0.245228
0.207824
0.165862
0.124862
0.085116
0.062014
0.024950
0.003589
-0.012118
-0.017101
0.011045
0.039041
0.081918
0.117564
0.163559
0.196236
0.225461
0.243120
0.254187
0.242832
0.227817
0.195342
0.162639
0.121713
0.074953
0.029022
-0.013311
-0.034873
-0.045502
-0.046164
-0.013734
0.020829
0.049181
0.086760
0.128052
0.169152
0.198667
0.211600
0.224065
0.228926
0.207642
0.165674
0.116029
0.056772
0.012594
-0.020345
-0.055871
-0.072036
-0.096573
-0.109425
-0.068306
-0.024234
0.010764
0.050299
0.087932
0.128243
0.161074
0.172793
0.177566
0.173164
0.143431
0.106773
0.062360
0.003310
-0.035999
-0.050302
-0.081017
-0.096735
-0.114504
-0.112580
-0.101050
-0.078803
-0.038714
0.007814
0.052396
0.085503
0.120982
0.140803
0.146460
0.130148
0.123880
0.107322
0.061823
0.003488
-0.042757
-0.090333
-0.115695
-0.144089
-0.151357
-0.140583
-0.121390
-0.089292
-0.054676
-0.012116
0.028350
0.068561
0.095213
0.116717
0.135821
0.134486
0.116037
0.097916
0.052732
-0.003110
-0.047332
-0.090098
-0.133873
-0.145609
-0.159520
-0.155504
-0.137328
-0.103098
-0.054897
-0.002820
0.029481
0.087853
0.133253
0.137579
0.130491
0.113315
0.096978
0.070359
0.026565
-0.014502
-0.069607
-0.103233
-0.130813
-0.147191
-0.148495
-0.143184
-0.131441
-0.096895
-0.051589
-0.000909
0.045261
0.083288
0.101751
0.120644
0.143403
0.133891
0.116951
0.086603
0.042508
-0.001540
-0.044331
-0.084548
-0.114205
-0.131397
-0.143484
-0.152391
-0.126158
-0.092674
-0.047708
-0.003166
0.047030
0.082830
0.108215
0.119918
0.142727
0.140653
0.119584
0.084808
0.043431
-0.000297
-0.049201
-0.086371
-0.109572
-0.141769
-0.160162
-0.159366
-0.101632
-0.069375
-0.034670
0.008256
0.057423
0.103788
0.124609
0.134184
0.134411
0.130247
0.123955
0.091096
0.046742
0.000117
-0.057824
-0.078203
-0.111127
-0.130554
-0.133590
-0.135575
-0.120586
-0.081326
-0.031415
0.006840
0.031714
0.070090
0.098494
0.116374
0.125828
0.141694
0.132514
0.080107
0.036903
-0.016351
-0.072390
-0.095725
-0.111698
-0.133471
-0.136312
-0.130979
-0.115565
-0.099156
-0.048969
0.005838
0.058175
0.088888
0.117471
0.134254
0.139062
0.129373
0.113721
0.084332
0.043407
-0.004511
-0.049781
-0.097918
-0.114576
-0.132786
-0.146096
-0.140675
-0.122731
-0.081660
-0.046906
-0.013170
0.032246
0.067652
0.075952
0.119631
0.145499
0.138139
0.130868
0.086934
0.040698
-0.014994
-0.063348
-0.088416
-0.116338
-0.149344
-0.156078
-0.137915
-0.128257
-0.095439
-0.060666
-0.003797
0.043174
0.088188
0.099152
0.119459
0.122601
0.111879
0.092879
0.058151
0.025538
-0.029322
-0.046699
-0.086570
-0.122097
-0.134411
-0.151341
-0.140589
-0.126759
-0.102202
-0.065128
-0.018405
0.027647
0.055894
0.087986
0.111345
0.122684
0.110513
0.095903
0.064312
0.025765
-0.016512
-0.058753
-0.086945
-0.118449
-0.149636
-0.168048
-0.175523
-0.165692
-0.121018
-0.063625
-0.027655
0.015462
0.070048
0.095955
0.124020
0.126524
0.120555
0.104862
0.073208
0.034175
-0.010718
-0.047760
-0.083129
-0.114771
-0.131301
-0.130254
-0.130216
-0.111500
-0.078596
-0.036551
0.005986
0.046780
0.087964
0.124350
0.170139
0.165578
0.127293
0.104551
0.088353
0.045580
-0.013934
-0.034803
-0.063277
-0.073746
-0.108842
-0.129235
-0.109519
-0.099078
-0.075052
-0.032751
0.011460
0.057382
0.101863
0.104526
0.146200
0.198400
0.169366
0.132221
0.093945
0.053821
0.023913
-0.009377
-0.054445
-0.091937
-0.106546
-0.115249
-0.098548
-0.089406
-0.050912
-0.009771
0.032727
0.077365
0.104722
0.145087
0.167818
0.174019
0.159723
0.160468
0.129258
0.079127
0.039064
-0.018803
-0.062743
-0.093216
-0.105795
-0.127374
-0.139060
-0.121569
-0.073950
-0.043012
-0.011894
0.037720
0.075857
0.107419
0.127485
0.136915
0.122679
0.113664
0.069504
0.032747
-0.010512
-0.049712
-0.095285
-0.139235
-0.152702
-0.156794
-0.154832
-0.146250
-0.114354
-0.077178
-0.032356
0.008786
0.042360
0.089670
0.120921
0.118321
0.102449
0.100153
0.060932
0.018661
-0.032968
-0.071065
-0.123883
-0.163387
-0.188504
-0.183459
-0.177193
-0.195950
-0.158489
-0.088736
-0.031451
0.000717
0.039542
0.065383
0.099092
0.104870
0.089643
0.077895
0.048057
0.004567
-0.038908
-0.083991
-0.119592
-0.153878
-0.174167
-0.169418
-0.167675
-0.162783
-0.134379
-0.093017
-0.048695
-0.004034
0.044926
0.069515
0.081485
0.090314
0.085239
0.070685
0.034796
-0.002065
-0.037750
-0.089151
-0.132945
-0.156852
-0.176212
-0.192764
-0.173960
-0.171208
-0.132588
-0.090740
-0.048406
-0.007991
0.036985
0.066639
0.092238
0.098618
0.091867
0.075502
0.042216
0.003016
-0.051013
-0.102108
-0.146398
-0.181487
-0.213901
-0.208151
-0.183613
-0.161748
-0.129052
-0.088535
-0.028149
0.034950
0.080028
0.117910
0.151642
0.176781
0.184992
0.177119
0.159453
0.128750
0.078163
0.045137
0.037101
0.030830
0.017349
0.049903
0.086355
0.146957
0.215153
0.288498
0.366466
0.445771
0.519151
0.576881
0.627223
0.663910
0.703219
0.737363
0.743103
0.724924
0.711654
0.700093
0.685591
0.643387
0.615188
0.614907
0.602924
0.602933
0.600010
0.626826
0.651871
0.650791
0.624169
0.595922
0.543865
0.499480
0.457005
0.383967
0.296176
0.220437
0.167204
0.116527
0.046919
0.016211
-0.019407
-0.040372
-0.033070
-0.006875
0.008011
0.029702
0.063843
0.119502
0.148926
0.172198
0.196467
0.205428
0.184899
0.159065
0.127829
0.085836
0.035858
-0.009671
-0.050546
-0.072226
-0.106357
-0.121720
-0.117490
-0.104602
-0.076067
-0.042004
0.010821
0.064901
0.101465
0.119751
0.133169
0.137448
0.135494
0.119551
0.085541
0.042783
0.002962
-0.032404
-0.074536
-0.113093
-0.133064
-0.141384
-0.142190
-0.115816
-0.089494
-0.046729
-0.002368
0.055308
0.095164
0.125638
0.151312
0.155515
0.144012
0.122905
0.091912
0.055350
0.013949
-0.032113
-0.074937
-0.113227
-0.143548
-0.145996
-0.148432
-0.141907
-0.083399
-0.028096
0.020846
0.069049
0.110741
0.132095
0.156564
0.155740
0.160579
0.136886
0.111539
0.074443
0.025566
-0.020955
-0.055483
-0.081918
-0.091534
-0.101729
-0.100065
-0.086634
-0.058116
-0.009597
0.035256
0.082820
0.123571
0.147585
0.178026
0.189202
0.179662
0.169472
0.122836
0.084024
0.023029
-0.024494
-0.056308
-0.061392
-0.090444
-0.088706
-0.073341
-0.039106
-0.007258
0.024003
0.059778
0.106301
0.150845
0.174481
0.216132
0.226051
0.214556
0.181576
0.153976
0.126405
0.082160
0.037275
-0.001450
-0.031158
-0.043521
-0.045603
-0.037327
-0.018469
0.010425
0.052444
0.089597
0.129186
0.172997
0.202950
0.235428
0.237280
0.246959
0.202415
0.194427
0.155238
0.113283
0.070834
0.024666
-0.013726
-0.027782
-0.041423
-0.018466
0.023060
0.056667
0.083396
0.120769
0.154639
0.193324
0.223017
0.259556
0.268193
0.252069
0.233959
0.204092
0.163703
0.120677
0.078413
0.043288
0.008919
-0.015523
-0.025272
-0.019309
-0.004058
0.025194
0.078079
0.113752
0.149226
0.195210
0.220869
0.252402
0.256695
0.255851
0.224999
0.192432
0.153112
0.098647
0.062593
0.026785
-0.005476
-0.038164
-0.033907
-0.036847
-0.016981
-0.000795
0.031092
0.076655
0.113798
0.172108
0.213423
0.221912
0.214473
0.213552
0.193863
0.160568
0.117433
0.075221
0.029491
-0.008253
-0.048501
-0.077508
-0.080216
-0.075518
-0.059913
-0.035758
-0.008424
0.045538
0.084226
0.118558
0.158537
0.169964
0.177098
0.172605
0.149134
0.112157
0.070499
0.022275
-0.019983
-0.067285
-0.096371
-0.109412
-0.119248
-0.124055
-0.101716
-0.075601
-0.061415
-0.011605
0.052056
0.090403
0.112591
0.121070
0.141531
0.141301
0.112823
0.090218
0.045984
-0.003740
-0.056081
-0.093222
-0.121400
-0.139552
-0.142344
-0.139993
-0.125784
-0.099303
-0.052320
-0.017025
0.022716
0.061648
0.098767
0.119809
0.134537
0.123979
0.100101
0.074265
0.035533
-0.016051
-0.056012
-0.088819
-0.131236
-0.146839
-0.151445
-0.154508
-0.123658
-0.112693
-0.067934
-0.010380
0.038237
0.067784
0.097751
0.115844
0.121805
0.115605
0.088572
0.067390
0.023463
-0.028359
-0.043409
-0.081783
-0.133304
-0.152816
-0.143472
-0.148986
-0.125599
-0.097501
-0.050076
-0.017919
0.031565
0.069975
0.103256
0.126689
0.133033
0.125113
0.098788
0.076281
0.040637
-0.006378
-0.048189
-0.095629
-0.117837
-0.138835
-0.141916
-0.140135
-0.128350
-0.081492
-0.039999
-0.011256
0.027107
0.084281
0.123016
0.126524
0.154657
0.154493
0.129162
0.085718
0.045565
-0.010254
-0.048794
-0.081398
-0.107740
-0.124743
-0.122258
-0.119565
-0.113909
-0.099034
-0.069706
-0.020498
0.034797
0.080355
0.118118
0.135271
0.134415
0.129373
0.106386
0.072013
0.047235
0.002753
-0.026316
-0.055782
-0.113007
-0.146155
-0.144665
-0.132054
-0.116922
-0.083728
-0.047367
-0.001704
0.026090
0.075712
0.111986
0.124999
0.141990
0.151665
0.119957
0.092607
0.057339
0.007564
-0.040335
-0.080905
-0.118160
-0.138937
-0.143144
-0.142775
-0.133754
-0.095581
-0.044009
-0.000157
0.045821
0.072028
0.111950
0.131650
0.137054
0.132898
0.119270
0.083973
0.039226
-0.000659
-0.043425
-0.089909
-0.133286
-0.152051
-0.158790
-0.168364
-0.141057
-0.105911
-0.069662
-0.026858
0.028999
0.064552
0.101080
0.126632
0.126567
0.131019
0.119531
0.083384
0.032427
-0.025320
-0.088154
-0.103028
-0.131365
-0.136824
-0.152499
-0.156198
-0.143451
-0.110518
-0.070877
-0.027523
0.010251
0.051354
0.093562
0.125159
0.146239
0.142593
0.117180
0.069931
0.029043
-0.018550
-0.067157
-0.097517
-0.125441
-0.153009
-0.167422
-0.162945
-0.146984
-0.112906
-0.076703
-0.037757
0.007017
0.048691
0.094395
0.107758
0.116821
0.110724
0.095696
0.064802
0.023673
-0.025247
-0.081662
-0.127008
-0.130724
-0.145228
-0.191434
-0.176037
-0.146690
-0.101607
-0.062904
-0.021025
0.014042
0.053650
0.091733
0.110088
0.115948
0.113200
0.092204
0.057210
0.014553
-0.022572
-0.065475
-0.109395
-0.146786
-0.165316
-0.173730
-0.176418
-0.151253
-0.115718
-0.075798
-0.030458
0.017926
0.050092
0.087065
0.121685
0.114636
0.108881
0.096951
0.065996
0.020620
-0.038863
-0.083117
-0.108636
-0.159722
-0.182523
-0.180263
-0.161143
-0.138821
-0.105102
-0.062321
-0.024662
0.019998
0.047267
0.088631
0.118004
0.136123
0.135835
0.114917
0.083491
0.045049
0.000067
-0.042136
-0.078305
-0.107772
-0.134633
-0.140733
-0.133837
-0.119599
-0.083932
-0.041489
-0.001005
0.049624
0.088446
0.129060
0.140726
0.150654
0.129919
0.111020
0.080836
0.047191
-0.002086
-0.059022
-0.079218
-0.097319
-0.119034
-0.126360
-0.122068
-0.111773
-0.085246
-0.029242
0.025891
0.072131
0.110203
0.139525
0.161356
0.167271
0.152779
0.137081
0.116202
0.091512
0.034204
-0.012084
-0.062347
-0.103190
-0.133461
-0.151098
-0.117673
-0.106427
-0.086906
-0.053165
-0.009464
0.026978
0.057577
0.095908
0.112021
0.120049
0.121315
0.091256
0.056213
0.007204
-0.007709
-0.065893
-0.098595
-0.129011
-0.153201
-0.170344
-0.175272
-0.150387
-0.114387
-0.081376
-0.034794
0.003696
0.048877
0.077043
0.099937
0.099992
0.091624
0.075266
0.032971
-0.001879
-0.055791
-0.096066
-0.131991
-0.165924
-0.192688
-0.210043
-0.204628
-0.185756
-0.149017
-0.099524
-0.055888
-0.019359
0.018146
0.054837
0.066193
0.074497
0.075388
0.067670
0.037772
-0.002367
-0.043032
-0.092613
-0.128940
-0.174868
-0.181716
-0.199465
-0.205496
-0.178318
-0.139415
-0.118246
-0.068231
-0.038442
0.012136
0.056857
0.075914
0.085670
0.075895
0.054384
0.029736
-0.015865
-0.067350
-0.099464
-0.139468
-0.172694
-0.201083
-0.230694
-0.199908
-0.160254
-0.139355
-0.105314
-0.081687
-0.034626
0.011778
0.054239
0.076223
0.088291
0.074456
0.056698
0.023626
-0.025870
-0.090084
-0.116919
-0.134067
-0.161997
-0.196220
-0.207752
-0.198785
-0.185728
-0.153726
-0.126527
-0.073223
-0.026581
0.017039
0.037441
0.063813
0.091760
0.084811
0.073969
0.055916
0.021358
-0.010301
-0.033806
-0.060341
-0.082446
-0.084992
-0.092458
-0.080653
-0.036299
0.013497
0.075143
0.132182
0.202522
0.282223
0.340712
0.390543
0.439651
0.471769
0.484047
0.478481
0.488159
0.457806
0.429707
0.441264
0.466393
0.491629
0.509649
0.549733
0.592582
0.648301
0.689919
0.725976
0.774318
0.801613
0.811439
0.807852
0.812046
0.770187
0.699900
0.598179
0.501724
0.398186
0.304560
0.215569
0.139278
0.049422
0.005998
0.004405
-0.005970
-0.001789
0.048269
0.096155
0.134781
0.154951
0.190123
0.196573
0.197191
0.183784
0.155805
0.119185
0.074112
0.021688
-0.014201
-0.081284
-0.094090
-0.111873
-0.125171
-0.108270
-0.108407
-0.076904
-0.044780
0.000442
0.040856
0.069366
0.099101
0.132563
0.151499
0.128549
0.120403
0.084616
0.034716
-0.011111
-0.054353
-0.106107
-0.144004
-0.166475
-0.162969
-0.149099
-0.136692
-0.123865
-0.077669
-0.030435
0.008236
0.057926
0.094030
0.101786
0.118036
0.116920
0.116657
0.084429
0.044156
-0.017028
-0.060288
-0.103421
-0.150276
-0.145905
-0.165520
-0.163314
-0.144284
-0.113580
-0.068243
-0.027209
0.019492
0.056332
0.105620
0.134588
0.140677
0.127497
0.103127
0.081022
0.047284
0.002441
-0.049516
-0.088329
-0.121266
-0.139428
-0.136146
-0.131550
-0.125052
-0.100292
-0.055541
0.007164
0.040810
0.081962
0.114105
0.146976
0.159538
0.150918
0.130155
0.100849
0.067653
0.007434
-0.038576
-0.069137
-0.097507
-0.118513
-0.137064
-0.148102
-0.101677
-0.069473
-0.022540
0.029163
0.073285
0.113269
0.143352
0.172791
0.176614
0.171705
0.170008
0.137154
0.093091
0.048735
-0.002864
-0.051096
-0.105485
-0.117292
-0.104282
-0.086895
-0.059060
-0.024929
0.007625
0.055273
0.107713
0.147623
0.192484
0.216320
0.223165
0.215108
0.191079
0.168473
0.137922
0.088136
0.034786
-0.001757
-0.039848
-0.053199
-0.055624
-0.049871
-0.035057
-0.007053
0.024477
0.083464
0.125420
0.167840
0.211780
0.229873
0.241728
0.235272
0.215898
0.186288
0.145018
0.098650
0.060082
0.006477
-0.023463
-0.044711
-0.058815
-0.057237
-0.025632
0.006889
0.047104
0.081485
0.140143
0.179441
0.213857
0.223063
0.223392
0.234090
0.216944
0.181372
0.136203
0.086071
0.045506
0.001325
-0.028142
-0.053196
-0.066655
-0.067613
-0.061310
-0.030912
0.006848
0.069078
0.128123
0.170549
0.195447
0.212435
0.219110
0.206466
0.180376
0.145949
0.102129
0.039929
0.007138
-0.031598
-0.060938
-0.087008
-0.093255
-0.097197
-0.076628
-0.036659
0.007677
0.039787
0.079311
0.115212
0.138308
0.145204
0.187252
0.171001
0.139286
0.094467
0.063718
0.016098
-0.023196
-0.084393
-0.111009
-0.117341
-0.129857
-0.138478
-0.109536
-0.082564
-0.051381
-0.003550
0.028618
0.073863
0.113311
0.136387
0.136772
0.123069
0.108454
0.072646
0.029089
-0.015560
-0.062965
-0.112678
-0.150554
-0.164035
-0.175569
-0.173989
-0.140657
-0.110873
-0.076503
-0.035067
-0.005317
0.035140
0.067717
0.101738
0.107024
0.098058
0.077313
0.047546
-0.004280
-0.052360
-0.074068
-0.128317
-0.160934
-0.168683
-0.177046
-0.180092
-0.147274
-0.116070
-0.077430
-0.041314
-0.000201
0.046543
0.075197
0.096705
0.090734
0.099885
0.077667
0.054068
0.013232
-0.038549
-0.075385
-0.123551
-0.150513
-0.174303
-0.185170
-0.174422
-0.156463
-0.123782
-0.081560
-0.046150
-0.008960
0.037778
0.074791
0.099999
0.104571
0.105053
0.085332
0.062832
0.022837
-0.032946
-0.072935
-0.123707
-0.157394
-0.175197
-0.184353
-0.178870
-0.137813
-0.109947
-0.073561
-0.033715
0.019891
0.058771
0.081675
0.099610
0.113600
0.110950
0.094772
0.061011
0.019726
-0.016906
-0.068128
-0.114619
-0.158092
-0.167327
-0.179213
-0.177984
-0.148638
-0.110205
-0.078160
-0.030950
0.018628
0.059512
0.094883
0.117188
0.118205
0.112126
0.075471
0.042676
0.029135
-0.014391
-0.072427
-0.122186
-0.137569
-0.143552
-0.147565
-0.148932
-0.156076
-0.105375
-0.062716
-0.033097
0.013376
0.064050
0.102489
0.120903
0.139767
0.138583
0.098319
0.070997
0.025075
-0.015701
-0.061777
-0.113839
-0.160882
-0.179050
-0.167774
-0.164630
-0.155181
-0.130708
-0.101626
-0.053707
0.001046
0.047559
0.085241
0.115565
0.128513
0.118591
0.091439
0.063866
0.027529
-0.017729
-0.049477
-0.096202
-0.147382
-0.168059
-0.180977
-0.180227
-0.157027
-0.128947
-0.082521
-0.046986
0.008243
0.047057
0.083510
0.108947
0.107850
0.104614
0.089556
0.056458
0.015619
-0.028623
-0.071345
-0.119598
-0.151045
-0.181665
-0.185817
-0.185328
-0.165204
-0.129974
-0.084928
-0.040474
0.000940
0.051102
0.078038
0.107019
0.116339
0.112951
0.088764
0.052865
0.008211
-0.033020
-0.080919
-0.126602
-0.163194
-0.178876
-0.191933
-0.199754
-0.164008
-0.126908
-0.089159
-0.047603
-0.017778
0.037586
0.055872
0.080566
0.103175
0.081145
0.078757
0.049561
0.011064
-0.032593
-0.077172
-0.119502
-0.153761
-0.181209
-0.191293
-0.195060
-0.178860
-0.126175
-0.096267
-0.053325
-0.011889
0.028300
0.059681
0.102971
0.110573
0.094642
0.086811
0.030337
-0.009709
-0.038483
-0.086372
-0.126412
-0.170491
-0.181915
-0.198041
-0.186577
-0.158450
-0.128102
-0.093088
-0.045696
0.008960
0.043933
0.075637
0.091182
0.101569
0.107200
0.081071
0.033487
0.006099
-0.031259
-0.072140
-0.116126
-0.152703
-0.175553
-0.189767
-0.177237
-0.164257
-0.124594
-0.083849
-0.042552
0.013703
0.064516
0.085458
0.109718
0.129060
0.122666
0.100993
0.062617
0.033635
-0.002778
-0.048175
-0.101248
-0.139127
-0.170342
-0.167222
-0.162189
-0.132392
-0.090174
-0.036182
-0.002319
0.031447
0.062747
0.093904
0.121347
0.122434
0.113507
0.096064
0.069199
0.024893
-0.010477
-0.054824
-0.114814
-0.137331
-0.135457
-0.129616
-0.133226
-0.107198
-0.077209
-0.040596
0.009632
0.055578
0.085720
0.109331
0.139644
0.153086
0.138232
0.125121
0.089681
0.052220
0.015139
-0.041661
-0.082932
-0.130936
-0.161522
-0.159888
-0.149442
-0.127347
-0.097223
-0.071921
-0.032054
0.010167
0.050571
0.084880
0.105126
0.111769
0.100254
0.078207
0.044043
-0.004968
-0.054355
-0.113811
-0.126773
-0.142547
-0.165243
-0.190393
-0.178841
-0.177299
-0.159282
-0.125780
-0.067821
-0.014835
0.015180
0.045310
0.076163
0.089842
0.073276
0.064475
0.046407
-0.001788
-0.055854
-0.101827
-0.153043
-0.186630
-0.207991
-0.214973
-0.206735
-0.181843
-0.167475
-0.113518
-0.073209
-0.034088
0.001806
0.034480
0.064895
0.073957
0.066673
0.043527
0.012242
-0.032939
-0.069173
-0.127904
-0.163045
-0.184372
-0.207616
-0.214569
-0.225006
-0.193954
-0.162016
-0.128040
-0.105565
-0.051224
0.009390
0.040813
0.056400
0.066067
0.063122
0.025967
0.003835
-0.011287
-0.048276
-0.098786
-0.152175
-0.187747
-0.214004
-0.215874
-0.213009
-0.193194
-0.165258
-0.123898
-0.091456
-0.048016
-0.006852
0.042887
0.078310
0.088853
0.063974
0.047504
0.015224
-0.026813
-0.069876
-0.121465
-0.170325
-0.216795
-0.223137
-0.231229
-0.221778
-0.202144
-0.169883
-0.116347
-0.073376
-0.020735
0.031754
0.072924
0.115059
0.131959
0.128785
0.134973
0.120041
0.090192
0.069349
0.021754
-0.010213
-0.033187
-0.035312
-0.018512
0.031670
0.062582
0.104988
0.173201
0.242995
0.329760
0.395376
0.457887
0.510890
0.549452
0.568817
0.584885
0.593444
0.595256
0.594768
0.580388
0.563806
0.560153
0.542027
0.524065
0.529096
0.548979
0.563571
0.589972
0.616861
0.627806
0.630830
0.588106
0.558532
0.497497
0.441163
0.381628
0.326531
0.248301
0.157318
0.066007
-0.007687
-0.064826
-0.100372
-0.101302
-0.099895
-0.088176
-0.068015
-0.026437
0.013610
0.066437
0.100444
0.133846
0.144548
0.164317
0.152956
0.128821
0.106496
0.074894
0.028627
-0.020630
-0.073130
-0.119910
-0.154678
-0.151740
-0.147229
-0.129061
-0.099393
-0.062660
-0.025688
0.018583
0.058862
0.085140
0.107921
0.121605
0.120676
0.102011
0.063765
0.028227
-0.015726
-0.070518
-0.106334
-0.142507
-0.173143
-0.199824
-0.187843
-0.158582
-0.145176
-0.108518
-0.056747
0.016448
0.050573
0.079429
0.107366
0.128741
0.125417
0.097780
0.074277
0.033177
-0.025074
-0.064303
-0.104966
-0.141720
-0.160519
-0.171659
-0.164487
-0.144713
-0.114270
-0.063219
-0.015920
0.024797
0.061377
0.090540
0.107383
0.123663
0.121686
0.110190
0.076141
0.046120
0.007565
-0.044414
-0.091412
-0.127410
-0.141196
-0.169703
-0.169215
-0.149000
-0.096230
-0.061010
-0.013933
0.032733
0.082966
0.124206
0.140502
0.168420
0.167028
0.150909
0.113402
0.071515
0.024713
-0.026828
-0.068117
-0.097042
-0.115166
-0.119386
-0.118965
-0.107156
-0.075951
-0.025258
0.004655
0.061763
0.116682
0.159100
0.184889
0.196884
0.200320
0.179130
0.146682
0.100277
0.054779
0.009085
-0.033538
-0.068594
-0.077674
-0.098796
-0.084243
-0.063863
-0.038136
0.006411
0.060870
0.108591
0.148661
0.192534
0.218764
0.225924
0.218817
0.204356
0.162511
0.137126
0.084148
0.034051
-0.006598
-0.043372
-0.061703
-0.063919
-0.058107
-0.034724
-0.007745
0.038557
0.081931
0.125645
0.159040
0.207964
0.237511
0.238506
0.225301
0.189752
0.176063
0.144882
0.102780
0.046971
0.002556
-0.039336
-0.060499
-0.063074
-0.054147
-0.037516
-0.024370
0.030676
0.088476
0.131619
0.169900
0.213898
0.239412
0.226569
0.215326
0.181597
0.146865
0.114769
0.070499
0.037785
0.001657
-0.037097
-0.063759
-0.077047
-0.079571
-0.059380
-0.019701
0.018974
0.055029
0.109372
0.148020
0.178891
0.192245
0.202164
0.198007
0.178454
0.138814
0.097166
0.057871
-0.005549
-0.042316
-0.088487
-0.108398
-0.122594
-0.100144
-0.086402
-0.056697
-0.036140
0.010619
0.058516
0.103410
0.132335
0.151123
0.159266
0.149343
0.126940
0.088070
0.056970
0.007391
-0.051743
-0.092602
-0.128305
-0.150963
-0.153253
-0.150485
-0.137429
-0.100999
-0.072048
-0.024452
0.029455
0.060617
0.088636
0.115726
0.126533
0.119802
0.092282
0.051956
0.016717
-0.030803
-0.091243
-0.109487
-0.138331
-0.156857
-0.175526
-0.174634
-0.161634
-0.130665
-0.097451
-0.050602
-0.011420
0.038794
0.069635
0.099651
0.103425
0.092762
0.067608
0.044492
0.009308
-0.032773
-0.080910
-0.113416
-0.155539
-0.183125
-0.198237
-0.192794
-0.164431
-0.132601
-0.098424
-0.058152
-0.011338
0.030592
0.058789
0.096036
0.114297
0.104702
0.069635
0.041059
0.003539
-0.045070
-0.087917
-0.119142
-0.162242
-0.189099
-0.191047
-0.184610
-0.163708
-0.119603
-0.097308
-0.058468
-0.013293
0.032200
0.083546
0.095823
0.103221
0.089531
0.080500
0.059653
0.019663
-0.020997
-0.071961
-0.113325
-0.149252
-0.180636
-0.185752
-0.177396
-0.161889
-0.135638
-0.109349
-0.070146
-0.009417
0.037878
0.085997
0.108133
0.133731
0.110803
0.086739
0.048158
0.013497
-0.044273
-0.070583
-0.111372
-0.178591
-0.188060
-0.187316
-0.170177
-0.162456
-0.120616
-0.078435
-0.042285
0.004006
0.039370
0.095557
0.118282
0.111849
0.106915
0.095944
0.057887
0.018692
-0.024428
-0.076181
-0.111515
-0.152576
-0.179098
-0.178986
-0.168094
-0.149517
-0.127969
-0.082172
-0.035323
0.006827
0.042540
0.084256
0.111020
0.121378
0.099864
0.081844
0.058405
0.018380
-0.028258
-0.078474
-0.119639
-0.156890
-0.166713
-0.176313
-0.177751
-0.162323
-0.133105
-0.111771
-0.048039
-0.007960
0.031420
0.061862
0.099374
0.122513
0.115238
0.084681
0.043583
0.009880
-0.029623
-0.071814
-0.108813
-0.150626
-0.188215
-0.192299
-0.190701
-0.172319
-0.141293
-0.107220
-0.058962
-0.010803
0.028653
0.067003
0.091176
0.090828
0.090491
0.074202
0.040368
-0.004691
-0.046980
-0.085412
-0.129925
-0.174340
-0.184581
-0.191478
-0.190970
-0.170088
-0.142154
-0.111812
-0.063893
-0.017342
0.019692
0.052851
0.084708
0.099195
0.101379
0.089636
0.059325
0.006266
-0.053431
-0.106577
-0.157801
-0.180556
-0.193167
-0.194203
-0.187573
-0.177673
-0.147715
-0.114099
-0.061971
-0.024969
0.023205
0.061941
0.078553
0.079959
0.066956
0.048472
0.033150
-0.001989
-0.033174
-0.072447
-0.126040
-0.161851
-0.189901
-0.193542
-0.194594
-0.183183
-0.156073
-0.117400
-0.062195
-0.020019
0.021449
0.055164
0.091824
0.102962
0.097831
0.087007
0.052581
0.011552
-0.033499
-0.090858
-0.130214
-0.173942
-0.209554
-0.205782
-0.182578
-0.161820
-0.125377
-0.087686
-0.038029
0.006933
0.044365
0.074751
0.111341
0.123479
0.119634
0.099779
0.068196
0.030117
-0.009466
-0.068536
-0.104527
-0.134650
-0.167111
-0.162275
-0.160093
-0.137367
-0.113989
-0.078124
-0.030404
0.005525
0.063019
0.099899
0.115475
0.121426
0.118304
0.099269
0.076377
0.030561
-0.018658
-0.067217
-0.094695
-0.119337
-0.150544
-0.167847
-0.153971
-0.123026
-0.107192
-0.067719
-0.007830
0.043677
0.092311
0.120692
0.139789
0.146319
0.139659
0.116529
0.070163
0.032184
0.001501
-0.043976
-0.103147
-0.140099
-0.167474
-0.184791
-0.196015
-0.137550
-0.111997
-0.114080
-0.058932
-0.001308
0.055073
0.083913
0.108476
0.118150
0.102117
0.080821
0.045751
0.006731
-0.054287
-0.106151
-0.147380
-0.187190
-0.193431
-0.208158
-0.201948
-0.177983
-0.149676
-0.104999
-0.068989
-0.019759
0.023782
0.048262
0.077011
0.092704
0.082731
0.043648
0.020303
-0.018762
-0.068143
-0.116578
-0.168233
-0.203815
-0.246730
-0.221128
-0.213085
-0.214087
-0.186604
-0.131185
-0.073198
-0.038563
0.016295
0.054974
0.074907
0.075045
0.064105
0.045083
0.013698
-0.031030
-0.076818
-0.127531
-0.174234
-0.203180
-0.232951
-0.241718
-0.230446
-0.210797
-0.168720
-0.129608
-0.073746
-0.030769
-0.001478
0.041427
0.058719
0.072215
0.065633
0.048713
0.008298
-0.014709
-0.063790
-0.113424
-0.167204
-0.204532
-0.234181
-0.232719
-0.225477
-0.201794
-0.180453
-0.143220
-0.097845
-0.044567
-0.010367
0.043772
0.070365
0.063628
0.058085
0.037231
0.016309
-0.029235
-0.067427
-0.112051
-0.171143
-0.216962
-0.243727
-0.242337
-0.213580
-0.171591
-0.143892
-0.101121
-0.061122
0.001648
0.076028
0.144836
0.189990
0.212192
0.206319
0.195601
0.162696
0.136884
0.102077
0.085173
0.076419
0.061139
0.062546
0.076631
0.117583
0.169679
0.229009
0.311424
0.393348
0.459110
0.526860
0.596727
0.657739
0.697083
0.730398
0.736542
0.747276
0.740846
0.690774
0.645936
0.601880
0.568562
0.531665
0.516269
0.491325
0.489897
0.469385
0.441777
0.428903
0.412751
0.402908
0.395896
0.369031
0.331047
0.286864
0.230135
0.174051
0.114579
0.051402
-0.003924
-0.060730
-0.105927
-0.152824
-0.133911
-0.114228
-0.099355
-0.079026
-0.029336
0.009626
0.053597
0.106078
0.121729
0.152287
0.146508
0.129477
0.112452
0.089385
0.050896
-0.003361
-0.050987
-0.090303
-0.123100
-0.154384
-0.172315
-0.173531
-0.150220
-0.113484
-0.065802
-0.027904
0.013454
0.045554
0.071237
0.106300
0.117933
0.117526
0.102591
0.066838
0.027638
-0.016909
-0.064049
-0.121294
-0.163738
-0.174432
-0.181383
-0.177757
-0.153577
-0.129480
-0.084737
-0.036875
0.021143
0.063961
0.093045
0.109374
0.121000
0.103884
0.088319
0.067016
0.024379
-0.022223
-0.066501
-0.111805
-0.152856
-0.173111
-0.185300
-0.169890
-0.136995
-0.100601
-0.069031
-0.027686
0.029184
0.073376
0.113261
0.120052
0.143764
0.145583
0.124820
0.084394
0.037167
-0.019741
-0.062295
-0.092629
-0.117093
-0.132445
-0.163560
-0.135239
-0.121248
-0.098097
-0.056428
-0.018253
0.035897
0.094871
0.135068
0.159515
0.159438
0.157204
0.143565
0.105071
0.065250
0.027521
-0.034111
-0.075900
-0.102824
-0.102552
-0.108546
-0.116912
-0.094137
-0.053800
-0.018234
0.030164
0.076864
0.132266
0.155134
0.176257
0.196144
0.182766
0.161642
0.141956
0.101313
0.058108
0.010892
-0.033523
-0.072750
-0.095916
-0.093334
-0.090212
-0.084741
-0.043776
0.015455
0.073830
0.123577
0.163221
0.202764
0.215385
0.212623
0.209220
0.186821
0.173739
0.125619
0.079603
0.044599
0.015707
-0.020995
-0.035322
-0.051637
-0.059892
-0.054260
-0.022421
0.031582
0.079932
0.119118
0.168786
0.204853
0.225482
0.232535
0.221429
0.202775
0.181670
0.140321
0.087364
0.032177
-0.002499
-0.030429
-0.059710
-0.067746
-0.071175
-0.037076
-0.000709
0.025005
0.067090
0.111978
0.141296
0.170431
0.190149
0.195236
0.216560
0.211042
0.188377
0.122160
0.086846
0.035984
-0.013239
-0.058926
-0.076172
-0.082184
-0.078502
-0.063514
-0.031212
0.000310
0.055053
0.091631
0.110265
0.171741
0.187144
0.198660
0.194713
0.172452
0.136234
0.079186
0.027674
-0.015899
-0.063053
-0.114150
-0.128366
-0.127121
-0.114615
-0.098070
-0.081599
-0.041755
0.014758
0.055764
0.088731
0.127029
0.135111
0.154382
0.150727
0.127166
0.099040
0.044909
-0.002967
-0.049230
-0.091992
-0.133706
-0.156343
-0.162276
-0.158525
-0.152571
-0.130385
-0.081229
-0.032019
0.006898
0.050116
0.092848
0.097126
0.123372
0.120851
0.094586
0.073665
0.032299
-0.022496
-0.071820
-0.108653
-0.152965
-0.170089
-0.192557
-0.192208
-0.162023
-0.137639
-0.093625
-0.061401
-0.008842
0.036012
0.080237
0.100512
0.108688
0.100349
0.090542
0.060643
0.010197
-0.059375
-0.102914
-0.143721
-0.153673
-0.161481
-0.176415
-0.180846
-0.160585
-0.127672
-0.082174
-0.039393
0.000129
0.036705
0.078240
0.100117
0.103852
0.099061
0.085888
0.067307
0.020760
-0.029641
-0.086922
-0.128628
-0.170819
-0.193736
-0.196686
-0.177598
-0.173621
-0.144399
-0.092910
-0.055072
0.001899
0.058191
0.090292
0.115069
0.130322
0.125859
0.102887
0.067053
0.033264
-0.020850
-0.066114
-0.115860
-0.136740
-0.166261
-0.182439
-0.177122
-0.156067
-0.133143
-0.099503
-0.034713
0.022189
0.068127
0.090363
0.107270
0.125240
0.116968
0.094554
0.075528
0.027909
-0.021924
-0.075968
-0.120700
-0.157302
-0.182070
-0.179495
-0.178222
-0.155734
-0.129332
-0.087510
-0.038493
0.011243
0.055745
0.090269
0.118939
0.131286
0.127373
0.102257
0.063633
0.034544
-0.022832
-0.066474
-0.116232
-0.149509
-0.178646
-0.184229
-0.173565
-0.161374
-0.133552
-0.072918
-0.022236
0.018598
0.054902
0.087131
0.102776
0.099254
0.127419
0.106760
0.057077
0.004605
-0.019967
-0.065326
-0.116569
-0.141574
-0.167013
-0.178508
-0.174476
-0.156668
-0.127581
-0.082716
-0.042678
0.003906
0.044098
0.088496
0.107580
0.109333
0.100103
0.087196
0.050464
0.021316
-0.023550
-0.071702
-0.118344
-0.150821
-0.167134
-0.190920
-0.181314
-0.171670
-0.144888
-0.107808
-0.047033
0.025027
0.063049
0.089808
0.102992
0.106842
0.104208
0.096843
0.058067
0.007933
-0.026958
-0.079361
-0.134481
-0.180013
-0.207979
-0.203186
-0.214379
-0.180185
-0.140841
-0.071090
-0.037707
0.008377
0.037013
0.072642
0.099534
0.111403
0.111010
0.087678
0.051480
0.012690
-0.032366
-0.089160
-0.138634
-0.162238
-0.183344
-0.192087
-0.186418
-0.175892
-0.144550
-0.110464
-0.070072
-0.007989
0.044927
0.073805
0.099353
0.105274
0.097418
0.083078
0.048570
-0.006778
-0.076027
-0.102592
-0.134423
-0.166233
-0.194765
-0.204995
-0.196654
-0.175640
-0.130864
-0.099857
-0.077671
0.005036
0.062193
0.080195
0.099900
0.114753
0.103309
0.089330
0.054240
0.017550
-0.041062
-0.095970
-0.125365
-0.157085
-0.177564
-0.194256
-0.172687
-0.161315
-0.122063
-0.085153
-0.054956
0.004287
0.056144
0.092336
0.124791
0.144011
0.133410
0.133983
0.094274
0.040509
0.000515
-0.050590
-0.103022
-0.136888
-0.147143
-0.157001
-0.151945
-0.136736
-0.109092
-0.059593
-0.024151
0.027754
0.065878
0.101927
0.125631
0.138066
0.125896
0.112131
0.079558
0.043258
-0.005236
-0.054463
-0.086025
-0.124085
-0.152513
-0.149487
-0.135897
-0.136489
-0.108126
-0.056242
0.003348
0.057384
0.115265
0.138915
0.157735
0.157280
0.138879
0.125223
0.090821
0.038958
-0.006161
-0.066967
-0.131852
-0.138242
-0.155288
-0.160128
-0.168557
-0.150317
-0.116573
-0.084017
-0.040067
0.012162
0.041794
0.075691
0.108580
0.123120
0.111750
0.096184
0.063464
0.012549
-0.034688
-0.093281
-0.141440
-0.165214
-0.194793
-0.205661
-0.204183
-0.184339
-0.152574
-0.123037
-0.080909
-0.038284
-0.001881
0.046523
0.081297
0.097773
0.077831
0.068674
0.033903
-0.013783
-0.060375
-0.111426
-0.161502
-0.202439
-0.224600
-0.231353
-0.204343
-0.185190
-0.167193
-0.126474
-0.075458
-0.021688
0.014591
0.050998
0.070267
0.073835
0.065565
0.048628
0.022349
-0.011700
-0.061256
-0.120024
-0.162531
-0.198885
-0.223181
-0.232729
-0.230916
-0.206334
-0.171988
-0.118160
-0.076655
-0.023883
0.020025
0.047070
0.071421
0.085583
0.073682
0.055939
0.020652
-0.021575
-0.073468
-0.119936
-0.191962
-0.233285
-0.238923
-0.237553
-0.208682
-0.185668
-0.152767
-0.120563
-0.081429
-0.030353
0.019011
0.053035
0.077408
0.085040
0.069902
0.048190
0.008964
-0.027964
-0.088943
-0.133134
-0.175743
-0.209391
-0.227736
-0.230961
-0.213202
-0.198319
-0.149612
-0.104805
-0.027253
0.037303
0.093244
0.135170
0.168176
0.189253
0.196133
0.190068
0.173272
0.152098
0.117370
0.088887
0.074348
0.066826
0.066452
0.098749
0.149795
0.201812
0.269229
0.342521
0.424143
0.509638
0.580505
0.634875
0.692607
0.747040
0.778396
0.797763
0.784470
0.771952
0.741199
0.690669
0.631693
0.605895
0.547210
0.555112
0.537184
0.518657
0.500416
0.482512
0.474181
0.477763
0.444354
0.432802
0.399714
0.338755
0.290619
0.255264
0.201323
0.127069
0.105699
0.064598
0.013761
-0.038335
-0.077084
-0.091042
-0.102327
-0.086570
-0.045960
-0.011570
0.047826
0.097142
0.123560
0.146169
0.166158
0.170283
0.157418
0.122891
0.081416
0.065362
0.011086
-0.047262
-0.103355
-0.126411
-0.144272
-0.157698
-0.151955
-0.138338
-0.112082
-0.079733
-0.029363
0.015561
0.064677
0.100686
0.118860
0.126074
0.123603
0.111785
0.074686
0.018930
-0.024801
-0.078760
-0.111533
-0.141514
-0.171118
-0.171304
-0.168440
-0.158712
-0.126889
-0.081108
-0.035463
0.006981
0.056667
0.086929
0.112764
0.138177
0.128933
0.106138
0.083481
0.036543
-0.011558
-0.064625
-0.108090
-0.136771
-0.154764
-0.165223
-0.164592
-0.150395
-0.109964
-0.072309
-0.020950
0.031524
0.079727
0.120197
0.133797
0.139915
0.125055
0.108345
0.090189
0.045835
-0.020557
-0.059199
-0.097414
-0.114593
-0.129704
-0.136377
-0.142856
-0.124814
-0.086443
-0.078061
-0.025256
0.044434
0.092968
0.129082
0.160800
0.163327
0.172625
0.151959
0.102039
0.064138
0.044947
0.007664
-0.051252
-0.079684
-0.108703
-0.120046
-0.113033
-0.086278
-0.047124
0.000607
0.034954
0.083403
0.132167
0.161269
0.186947
0.189830
0.179298
0.155631
0.162105
0.123404
0.063448
0.022754
-0.022975
-0.056791
-0.067984
-0.092710
-0.081673
-0.046243
-0.006688
0.020213
0.073360
0.121539
0.169103
0.206391
0.226542
0.239015
0.234455
0.219236
0.188047
0.146076
0.094924
0.049707
0.005485
-0.023546
-0.056755
-0.073128
-0.074534
-0.046084
-0.007477
0.039090
0.081877
0.133801
0.183076
0.215906
0.248075
0.249739
0.232476
0.207673
0.169111
0.144850
0.082611
0.045508
-0.000359
-0.020637
-0.040546
-0.048359
-0.048726
-0.032682
0.003583
0.022871
0.064303
0.119852
0.184224
0.221870
0.231991
0.235155
0.235352
0.215904
0.184089
0.142053
0.070835
0.028117
-0.021294
-0.053791
-0.073488
-0.073284
-0.073089
-0.051379
-0.023288
0.018989
0.056509
0.102383
0.144716
0.171418
0.195023
0.207873
0.196715
0.172229
0.123067
0.088125
0.046306
-0.011865
-0.067664
-0.110803
-0.108852
-0.112601
-0.116852
-0.108386
-0.067275
-0.031009
0.021076
0.053664
0.095292
0.113315
0.170004
0.181037
0.164667
0.136899
0.102604
0.061684
-0.005027
-0.053783
-0.092348
-0.124303
-0.158399
-0.172679
-0.167927
-0.144733
-0.117918
-0.066803
-0.029450
0.029863
0.069151
0.106721
0.126462
0.132377
0.125939
0.096309
0.053347
0.013998
-0.019874
-0.049758
-0.100527
-0.148875
-0.179014
-0.184754
-0.181311
-0.166785
-0.118180
-0.077346
-0.026414
0.022668
0.066200
0.098680
0.115945
0.121005
0.125801
0.099846
0.065861
0.029715
-0.021551
-0.078200
-0.126308
-0.161919
-0.178257
-0.183983
-0.182545
-0.170012
-0.131325
-0.092024
-0.023944
0.007659
0.049069
0.087337
0.114543
0.114372
0.113664
0.105210
0.072000
0.017640
-0.034986
-0.062259
-0.099829
-0.139758
-0.181594
-0.188667
-0.188665
-0.169688
-0.115801
-0.075192
-0.025651
0.020896
0.066285
0.087379
0.112639
0.140521
0.143696
0.111382
0.071268
0.034634
-0.013538
-0.056256
-0.091937
-0.150771
-0.180251
-0.170494
-0.156171
-0.149210
-0.107492
-0.070894
-0.018186
0.031739
0.064958
0.101192
0.125603
0.127840
0.128577
0.090958
0.084202
0.043802
-0.010329
-0.050058
-0.091205
-0.136498
-0.156267
-0.151816
-0.171201
-0.156872
-0.131308
-0.072813
-0.015693
0.041762
0.090556
0.119932
0.129864
0.140064
0.146746
0.124188
0.086297
0.045400
-0.010762
-0.053399
-0.103508
-0.139538
-0.158841
-0.165442
-0.160303
-0.141483
-0.106460
-0.098892
-0.027090
0.030276
0.072858
0.102100
0.132038
0.143843
0.143154
0.107122
0.072622
0.035296
-0.005458
-0.047312
-0.097601
-0.130352
-0.171203
-0.171010
-0.171456
-0.136155
-0.111605
-0.075202
-0.021938
0.032797
0.080940
0.114441
0.128675
0.143597
0.161629
0.127617
0.084392
0.037749
-0.015335
-0.070148
-0.116789
-0.150979
-0.171154
-0.183968
-0.197901
-0.130205
-0.101813
-0.068543
-0.028526
0.024205
0.074000
0.106002
0.131276
0.129229
0.122907
0.105942
0.066346
0.027218
-0.022831
-0.074573
-0.128610
-0.169375
-0.204760
-0.211934
-0.197647
-0.145107
-0.106999
-0.063073
-0.018947
0.030068
0.064377
0.095362
0.117787
0.125298
0.124354
0.102378
0.066059
0.020103
-0.035175
-0.086375
-0.122186
-0.165395
-0.177284
-0.180447
-0.179233
-0.160396
-0.115806
-0.073482
-0.031931
0.014243
0.055976
0.096577
0.120319
0.136647
0.119832
0.095847
0.057299
0.019042
-0.034576
-0.086236
-0.123523
-0.168468
-0.193462
-0.195999
-0.183479
-0.152552
-0.120190
-0.078890
-0.036717
0.016720
0.062015
0.090019
0.121817
0.132132
0.111617
0.064588
0.060661
0.016772
-0.024021
-0.074471
-0.107360
-0.138657
-0.148326
-0.158289
-0.151309
-0.141703
-0.123066
-0.083852
-0.031748
0.002640
0.044647
0.129383
0.164371
0.161592
0.148811
0.127048
0.102917
0.072499
0.011256
-0.043124
-0.090589
-0.124068
-0.144116
-0.142646
-0.146199
-0.105448
-0.078949
-0.038680
0.005317
0.049230
0.090918
0.106858
0.157981
0.157354
0.153185
0.133396
0.100360
0.057235
-0.003868
-0.044273
-0.076305
-0.104386
-0.115793
-0.126802
-0.121103
-0.100870
-0.074222
-0.027280
0.014292
0.068075
0.108118
0.153995
0.187074
0.193844
0.173395
0.157953
0.112086
0.065865
0.003575
-0.046529
-0.089475
-0.124664
-0.149154
-0.153254
-0.148946
-0.135108
-0.113604
-0.056651
-0.015994
0.032737
0.077917
0.104566
0.122129
0.138431
0.131662
0.104886
0.063456
0.013956
-0.046117
-0.092705
-0.137213
-0.159374
-0.159426
-0.169098
-0.163475
-0.147051
-0.118289
-0.081699
-0.036584
-0.003736
0.038627
0.075130
0.089632
0.103192
0.088958
0.063911
0.023133
-0.047417
-0.060585
-0.076748
-0.118356
-0.159305
-0.195501
-0.208379
-0.214584
-0.190116
-0.149165
-0.096953
-0.049433
-0.000372
0.034448
0.074480
0.088297
0.095799
0.087658
0.072110
0.049845
-0.006934
-0.052599
-0.102710
-0.144355
-0.177778
-0.199816
-0.215897
-0.207741
-0.180152
-0.150613
-0.101498
-0.056548
-0.008428
0.026593
0.054912
0.093482
0.102594
0.098992
0.060204
0.025495
-0.010119
-0.055070
-0.099619
-0.141707
-0.179353
-0.193502
-0.211253
-0.195182
-0.179176
-0.158113
-0.120423
-0.081346
-0.016542
0.040904
0.075006
0.093634
0.098551
0.096717
0.068981
0.032635
-0.018443
-0.061950
-0.120881
-0.189699
-0.220312
-0.207534
-0.202428
-0.203908
-0.187781
-0.152853
-0.102558
-0.051246
0.001062
0.057811
0.099551
0.129945
0.170409
0.165357
0.156539
0.122854
0.094312
0.073148
0.043612
0.016034
0.013337
0.016919
0.034659
0.068304
0.120098
0.175832
0.253272
0.341832
0.430170
0.496596
0.575957
0.617216
0.652330
0.681169
0.705014
0.720388
0.700635
0.684983
0.674205
0.669714
0.644653
0.613324
0.592282
0.613522
0.614649
0.613787
0.657740
0.675259
0.678049
0.663845
0.621593
0.585713
0.549226
0.496286
0.417529
0.340307
0.247474
0.164414
0.095412
0.042883
-0.001740
-0.047455
-0.041022
-0.033148
-0.029388
-0.013339
0.019960
0.060319
0.109270
0.141985
0.166995
0.182795
0.206806
0.198845
0.163781
0.130634
0.082172
0.029969
-0.018631
-0.062139
-0.115118
-0.139856
-0.153766
-0.134996
-0.110293
-0.084854
-0.046018
0.008391
0.047697
0.086703
0.116522
0.141740
0.158277
0.153798
0.108960
0.073718
0.033086
-0.006677
-0.060004
-0.102014
-0.145921
-0.161407
-0.191528
-0.141458
-0.112772
-0.084532
-0.038798
0.001132
0.049200
0.094459
0.109483
0.129392
0.155380
0.135587
0.111205
0.091692
0.049857
-0.007829
-0.054989
-0.087445
-0.114956
-0.139810
-0.156082
-0.153442
-0.126778
-0.090145
-0.047683
-0.008997
0.033900
0.087576
0.123729
0.146364
0.151161
0.145460
0.127932
0.109098
0.069472
0.037723
-0.016640
-0.062748
-0.103865
-0.134894
-0.136654
-0.117516
-0.102538
-0.071127
-0.028067
0.018498
0.072589
0.113826
0.150064
0.179907
0.190107
0.174151
0.152127
0.130328
0.080022
0.024400
-0.016318
-0.043138
-0.080620
-0.109677
-0.117889
-0.094476
-0.068400
-0.038592
-0.001612
0.045460
0.090427
0.129430
0.157772
0.215718
0.220654
0.197106
0.174988
0.152244
0.122589
0.077924
-0.002386
-0.020044
-0.042210
-0.044609
-0.068203
-0.059700
-0.040317
-0.007512
0.028929
0.083471
0.142531
0.185174
0.216657
0.235775
0.243890
0.242496
0.219043
0.190811
0.157555
0.110574
0.076128
0.026314
-0.017778
-0.051448
-0.069461
-0.048132
-0.020664
0.008079
0.053813
0.100900
0.150310
0.193034
0.224739
0.252855
0.270896
0.252322
0.233981
0.200430
0.177034
0.152500
0.090620
0.047928
-0.015829
-0.062533
-0.052312
-0.036191
-0.009119
0.000495
0.045172
0.080711
0.130537
0.188061
0.216767
0.227728
0.246044
0.226085
0.215816
0.185054
0.139061
0.081635
0.063616
0.008360
-0.028187
-0.046394
-0.058893
-0.060324
-0.039461
-0.010852
0.029502
0.079595
0.139892
0.183493
0.201229
0.227891
0.231395
0.218547
0.198826
0.154347
0.114755
0.064678
0.007817
-0.051117
-0.062493
-0.083482
-0.097900
-0.097501
-0.083420
-0.054753
-0.022886
0.047739
0.093517
0.124746
0.158226
0.193046
0.189758
0.175075
0.145338
0.110219
0.072657
0.014609
-0.025915
-0.072621
-0.106707
-0.133604
-0.145442
-0.138770
-0.130974
-0.098598
-0.056631
0.000865
0.052953
0.088326
0.120664
0.149518
0.152610
0.150743
0.132114
0.097478
0.044017
-0.008003
-0.057038
-0.097863
-0.151532
-0.187764
-0.212162
-0.196253
-0.184461
-0.157052
-0.095165
-0.033745
0.045291
0.091631
0.108848
0.123264
0.142956
0.141424
0.110607
0.068592
0.031813
-0.019475
-0.065293
-0.105903
-0.145877
-0.171869
-0.158456
-0.172146
-0.142027
-0.114428
-0.075894
-0.022540
0.025823
0.075676
0.099867
0.116387
0.133000
0.124694
0.101837
0.055086
0.017205
-0.034091
-0.076627
-0.102986
-0.143622
-0.160465
-0.171173
-0.172317
-0.140095
-0.104920
-0.068675
-0.012875
0.042013
0.090012
0.117070
0.136985
0.144590
0.146212
0.108910
0.066879
0.032261
-0.024720
-0.067461
-0.119669
-0.166941
-0.162664
-0.172153
-0.168072
-0.145878
-0.099130
-0.054769
-0.010907
0.034404
0.079390
0.109946
0.136881
0.143434
0.142653
0.121252
0.082551
0.037321
-0.014359
-0.062661
-0.097972
-0.137465
-0.156113
-0.160745
-0.156488
-0.136023
-0.098127
-0.051495
-0.016687
0.020500
0.068753
0.105462
0.132506
0.154743
0.147145
0.126862
0.089238
0.047676
-0.000566
-0.055879
-0.096617
-0.133470
-0.158868
-0.167892
-0.156657
-0.135210
-0.097714
-0.055471
-0.009267
0.038408
0.080923
0.118695
0.146715
0.156247
0.148003
0.128920
0.080888
0.034651
-0.019530
-0.058193
-0.114461
-0.137469
-0.150648
-0.171790
-0.163157
-0.146950
-0.105725
-0.056726
-0.013170
0.030112
0.064546
0.111781
0.143309
0.156073
0.147754
0.127546
0.086161
0.046383
-0.008405
-0.063819
-0.105857
-0.137374
-0.165510
-0.169473
-0.163886
-0.145967
-0.113032
-0.067072
-0.025766
0.019962
0.075155
0.116633
0.149059
0.142282
0.132314
0.116821
0.074807
0.040566
-0.005959
-0.065510
-0.112917
-0.140903
-0.170364
-0.183568
-0.173092
-0.143692
-0.105436
-0.063839
-0.021809
0.025409
0.063098
0.098582
0.128093
0.128432
0.107609
0.104220
0.065067
0.011294
-0.031752
-0.067273
-0.109573
-0.146644
-0.172441
-0.181191
-0.175425
-0.162788
-0.117305
-0.069413
-0.016220
0.030338
0.074929
0.111130
0.132750
0.134254
0.124496
0.100009
0.063435
0.015592
-0.023301
-0.076421
-0.120879
-0.151504
-0.181923
-0.182355
-0.179187
-0.161220
-0.114428
-0.072996
-0.022154
0.031884
0.074596
0.100563
0.135377
0.138489
0.113433
0.090094
0.054487
0.002824
-0.048614
-0.102022
-0.130074
-0.155492
-0.170533
-0.181406
-0.168019
-0.146733
-0.108498
-0.074368
-0.027981
0.019356
0.057277
0.098473
0.142459
0.140589
0.144686
0.106436
0.080927
0.023822
-0.023957
-0.071791
-0.118495
-0.137404
-0.167725
-0.170440
-0.152966
-0.126635
-0.093360
-0.065966
-0.023950
0.034398
0.082451
0.130756
0.171369
0.177513
0.154070
0.116039
0.110671
0.082261
0.017230
-0.026558
-0.070229
-0.110399
-0.145893
-0.160179
-0.142816
-0.105190
-0.067731
-0.020419
0.015081
0.051038
0.095285
0.113137
0.153593
0.178514
0.198817
0.179449
0.091664
0.062278
-0.021885
-0.046016
-0.087761
-0.102734
-0.130634
-0.148019
-0.115070
-0.105642
-0.063291
0.015209
0.073981
0.069169
0.105642
0.150869
0.170683
0.164759
0.161204
0.147635
0.100697
0.052143
0.012415
-0.020035
-0.056257
-0.113397
-0.158137
-0.201141
-0.163957
-0.129760
-0.093008
-0.058487
0.005937
0.048972
0.067638
0.086595
0.124779
0.136465
0.132880
0.105383
0.073852
0.042781
-0.015749
-0.055660
-0.094650
-0.139231
-0.176160
-0.182165
-0.182062
-0.161329
-0.113650
-0.078791
-0.038342
0.013360
0.049410
0.081517
0.110618
0.114971
0.105145
0.080818
0.046109
0.007882
-0.043466
-0.092880
-0.139153
-0.171712
-0.192688
-0.203414
-0.195295
-0.171470
-0.128922
-0.089508
-0.051289
-0.003143
0.039133
0.070438
0.107240
0.106152
0.100682
0.071104
0.051860
0.014916
-0.033756
-0.094015
-0.137069
-0.177273
-0.202540
-0.205354
-0.200901
-0.181662
-0.137084
-0.086254
-0.050558
-0.007631
0.054717
0.073328
0.091911
0.107620
0.103081
0.072061
0.024033
-0.020312
-0.067125
-0.122531
-0.157106
-0.188289
-0.185897
-0.177543
-0.173159
-0.160143
-0.123723
-0.081954
-0.048427
-0.006787
0.028268
0.047608
0.098503
0.102074
0.088953
0.070495
0.056111
0.017380
-0.029432
-0.092959
-0.151128
-0.186274
-0.202092
-0.195489
-0.189009
-0.163864
-0.119612
-0.062816
-0.013427
0.048653
0.112329
0.149611
0.195837
0.208459
0.218162
0.203044
0.175367
0.169488
0.136770
0.102968
0.085694
0.088447
0.089118
0.121559
0.178073
0.247691
0.289584
0.361408
0.444763
0.521122
0.595049
0.665839
0.733933
0.790078
0.827424
0.839378
0.824508
0.807204
0.768555
0.713295
0.662168
0.629695
0.591139
0.555126
0.557276
0.548566
0.546623
0.522105
0.494720
0.476451
0.459669
0.458213
0.448218
0.410736
0.345096
0.279970
0.236619
0.204061
0.145294
0.096198
0.040491
-0.025054
-0.043857
-0.061764
-0.081862
-0.068606
-0.027775
0.017995
0.050652
0.082090
0.127069
0.163897
0.174129
0.181441
0.186952
0.159244
0.127688
0.082109
0.011672
-0.012234
-0.046823
-0.082208
-0.103491
-0.122251
-0.126300
-0.107887
-0.075976
-0.042145
0.005876
0.039555
0.089214
0.140415
0.166393
0.178620
0.167501
0.133756
0.105991
0.058504
0.006297
-0.042853
-0.090925
-0.129826
-0.148218
-0.151118
-0.150249
-0.129604
-0.104088
-0.050875
-0.001546
0.043652
0.095161
0.134905
0.158778
0.172178
0.166210
0.132566
0.095237
0.045907
-0.002096
-0.030445
-0.074354
-0.108327
-0.136154
-0.142216
-0.125801
-0.104242
-0.076481
-0.031780
0.021360
0.072797
0.103105
0.156380
0.165102
0.153644
0.175825
0.154859
0.124431
0.070462
0.028801
-0.013293
-0.061691
-0.094686
-0.122331
-0.133495
-0.117872
-0.089178
-0.056899
-0.009983
0.032063
0.085114
0.136528
0.179497
0.200910
0.208690
0.206428
0.164126
0.137484
0.097290
0.052579
0.003259
-0.045764
-0.082321
-0.096587
-0.112388
-0.110729
-0.090717
-0.022940
0.032752
0.074756
0.132714
0.195397
0.223961
0.233788
0.246245
0.239671
0.213640
0.185373
0.137524
0.080526
0.025604
-0.010006
-0.034094
-0.049552
-0.055895
-0.056936
-0.035194
0.008576
0.043986
0.111857
0.164987
0.204291
0.234424
0.266726
0.276669
0.268619
0.241809
0.208023
0.161356
0.111624
0.063181
0.021307
-0.024597
-0.037641
-0.036224
-0.032898
-0.011655
0.029046
0.075481
0.127456
0.163035
0.203088
0.247975
0.275728
0.287218
0.278841
0.244706
0.215711
0.164177
0.110034
0.063578
0.017727
-0.025245
-0.042361
-0.047501
-0.041376
-0.012225
0.021206
0.054690
0.112416
0.174066
0.212054
0.247905
0.267935
0.271141
0.259279
0.230941
0.183002
0.147686
0.096102
0.050742
0.004774
-0.046028
-0.082244
-0.069298
-0.071838
-0.026172
0.010599
0.044039
0.092081
0.142738
0.185800
0.216414
0.240345
0.234584
0.228035
0.196363
0.164123
0.108300
0.057242
0.012824
-0.027396
-0.065479
-0.085915
-0.098839
-0.088571
-0.070410
-0.035010
0.006819
0.056846
0.094854
0.128307
0.166354
0.193332
0.198102
0.174429
0.152258
0.125843
0.083171
0.026489
-0.030080
-0.051425
-0.109155
-0.132580
-0.143110
-0.134759
-0.106767
-0.079243
-0.035401
0.014612
0.065263
0.106384
0.135590
0.148261
0.152520
0.143126
0.115398
0.065361
0.048045
-0.003328
-0.049359
-0.085757
-0.116455
-0.129095
-0.153417
-0.157452
-0.123128
-0.086463
-0.049775
-0.005162
0.040422
0.077017
0.111033
0.128687
0.143268
0.151805
0.129422
0.080613
0.035070
-0.010150
-0.054302
-0.112905
-0.143678
-0.149589
-0.154559
-0.159261
-0.146323
-0.110360
-0.059299
-0.009533
0.035083
0.074354
0.112586
0.140364
0.152610
0.141393
0.116187
0.073831
0.030288
-0.015897
-0.072371
-0.102446
-0.139496
-0.188780
-0.161419
-0.135784
-0.110568
-0.082649
-0.026217
0.019153
0.050597
0.084842
0.129937
0.146045
0.147911
0.146133
0.109845
0.095733
0.047378
-0.022149
-0.058883
-0.084609
-0.114919
-0.139143
-0.128064
-0.135603
-0.119001
-0.093192
-0.048275
0.000126
0.041339
0.097070
0.135420
0.159224
0.171352
0.158284
0.131597
0.092941
0.044809
0.003603
-0.045524
-0.079213
-0.119214
-0.145572
-0.154091
-0.135739
-0.107451
-0.068176
-0.030977
0.003429
0.045116
0.084335
0.134267
0.164933
0.157170
0.152605
0.135058
0.088496
0.055334
0.007090
-0.043651
-0.079919
-0.110235
-0.139633
-0.142104
-0.141024
-0.113941
-0.086507
-0.049679
0.007916
0.052493
0.097078
0.125977
0.152089
0.158027
0.146318
0.122125
0.086895
0.044535
0.005723
-0.039759
-0.081637
-0.130065
-0.146234
-0.154433
-0.134546
-0.124740
-0.096007
-0.057442
-0.025038
0.019279
0.090269
0.124035
0.153770
0.155635
0.149175
0.129891
0.089079
0.045632
-0.003949
-0.049068
-0.091259
-0.128399
-0.149847
-0.143227
-0.137170
-0.125382
-0.096948
-0.048178
0.002631
0.039071
0.071581
0.114154
0.140939
0.148235
0.138815
0.107670
0.063513
0.011164
-0.022215
-0.088807
-0.095560
-0.123535
-0.143587
-0.151625
-0.142939
-0.138840
-0.115682
-0.080387
-0.025443
0.023731
0.071248
0.098332
0.125460
0.159765
0.148354
0.116182
0.083137
0.035639
-0.017544
-0.064001
-0.102398
-0.132942
-0.161501
-0.163901
-0.152613
-0.138081
-0.120228
-0.079596
-0.001084
0.042988
0.086680
0.110773
0.141397
0.139871
0.122075
0.106448
0.073971
0.036448
-0.013561
-0.064508
-0.104101
-0.146882
-0.156524
-0.169396
-0.175936
-0.148782
-0.098087
-0.064797
-0.010096
0.024631
0.078007
0.114179
0.137655
0.145653
0.126302
0.109948
0.067742
0.026477
-0.016297
-0.060531
-0.108672
-0.163953
-0.165046
-0.164987
-0.150657
-0.125722
-0.097801
-0.060077
-0.016351
0.026952
0.068184
0.100807
0.122241
0.125513
0.118160
0.115094
0.080782
0.040814
-0.010148
-0.052924
-0.112128
-0.129054
-0.154461
-0.177485
-0.170098
-0.147020
-0.116326
-0.075634
-0.022773
0.034254
0.069480
0.077854
0.101105
0.149427
0.139643
0.116078
0.082692
0.044052
-0.003687
-0.048165
-0.101125
-0.144989
-0.161810
-0.157990
-0.143345
-0.120695
-0.094143
-0.049629
0.007971
0.057325
0.103018
0.136289
0.159363
0.173323
0.172471
0.149772
0.110501
0.071916
0.019576
-0.025183
-0.078066
-0.115406
-0.132023
-0.143100
-0.123689
-0.106948
-0.080354
-0.031230
0.005417
0.045077
0.096912
0.136346
0.169419
0.185805
0.181662
0.170786
0.115806
0.074370
0.022482
-0.024553
-0.072831
-0.102341
-0.122784
-0.124151
-0.127295
-0.097973
-0.061869
-0.026716
0.016992
0.082255
0.137168
0.160345
0.177197
0.184285
0.170691
0.142091
0.108359
0.054362
0.005424
-0.046109
-0.097221
-0.127728
-0.153963
-0.172605
-0.153431
-0.118584
-0.100339
-0.065443
-0.005910
0.049617
0.079646
0.110784
0.126538
0.141930
0.131309
0.111571
0.070411
0.027182
-0.023097
-0.070749
-0.133250
-0.166729
-0.195660
-0.192241
-0.170243
-0.151383
-0.118026
-0.073625
-0.030448
0.009936
0.046863
0.074270
0.120586
0.126129
0.101988
0.085667
0.039684
-0.007884
-0.052799
-0.091362
-0.141772
-0.174868
-0.192732
-0.197314
-0.184554
-0.172922
-0.141476
-0.108271
-0.050803
0.004365
0.054584
0.080856
0.108637
0.109699
0.095973
0.073732
0.047020
-0.006977
-0.061029
-0.100299
-0.154252
-0.180021
-0.198698
-0.200576
-0.186261
-0.167999
-0.135629
-0.080955
-0.033484
0.004132
0.056784
0.079994
0.102574
0.107066
0.091348
0.076938
0.053905
0.000714
-0.056009
-0.111459
-0.168784
-0.215110
-0.207739
-0.199719
-0.188024
-0.158842
-0.129662
-0.100700
-0.062145
-0.010669
0.046577
0.084195
0.108219
0.113287
0.099544
0.069941
0.021323
-0.027200
-0.068885
-0.121359
-0.173084
-0.191170
-0.200947
-0.198122
-0.175954
-0.152832
-0.112247
-0.056354
-0.003219
0.062011
0.128414
0.177641
0.221315
0.234703
0.216968
0.211324
0.189774
0.171961
0.137965
0.121595
0.102663
0.102041
0.104931
0.135699
0.191129
0.248038
0.313641
0.398260
0.483002
0.562703
0.643370
0.713476
0.776690
0.806130
0.838936
0.838447
0.830145
0.794926
0.742333
0.686725
0.647661
0.605648
0.561460
0.534398
0.524421
0.513921
0.487518
0.467516
0.446676
0.421675
0.437880
0.411717
0.385380
0.345982
0.303139
0.270427
0.224527
0.167219
0.106024
0.056442
-0.005083
-0.042507
-0.078184
-0.082298
-0.071378
-0.054568
-0.031903
0.010321
0.051223
0.078481
0.147274
0.175555
0.190812
0.189922
0.171835
0.152496
0.113882
0.051271
0.004207
-0.036991
-0.083784
-0.111652
-0.119478
-0.133875
-0.131221
-0.101640
-0.068521
-0.030603
0.010966
0.058193
0.097974
0.126457
0.148856
0.150722
0.148355
0.122271
0.087372
0.041637
-0.004899
-0.045928
-0.095051
-0.136397
-0.154718
-0.158961
-0.145867
-0.120501
-0.095705
-0.054044
-0.005936
0.022269
0.082729
0.125317
0.159162
0.165781
0.150031
0.126154
0.084757
0.043151
-0.003582
-0.055618
-0.100403
-0.124596
-0.153689
-0.161076
-0.143945
-0.109062
-0.078884
-0.023298
0.022160
0.063130
0.108966
0.137881
0.159311
0.169723
0.158509
0.131138
0.088135
0.051761
0.016487
-0.034719
-0.070682
-0.106049
-0.115726
-0.123254
-0.111081
-0.094074
-0.064688
-0.023468
0.014795
0.079704
0.128198
0.163869
0.184411
0.188589
0.174177
0.157586
0.128053
0.063711
0.046478
0.005370
-0.037415
-0.068346
-0.082607
-0.090738
-0.093826
-0.060240
-0.028585
0.027061
0.067080
0.114445
0.159846
0.197773
0.222612
0.225578
0.207674
0.188403
0.154433
0.111480
0.061706
0.024158
-0.012001
-0.035588
-0.053055
-0.075025
-0.059047
-0.028593
0.005054
0.038667
0.095939
0.145573
0.191118
0.223635
0.248016
0.244267
0.237353
0.218486
0.191181
0.150194
0.098337
0.049110
0.013591
0.005349
-0.025518
-0.046343
-0.046264
-0.021937
0.017236
0.055515
0.104235
0.151969
0.195700
0.232051
0.251329
0.263306
0.252019
0.231880
0.189678
0.146761
0.092933
0.039311
-0.003017
-0.031847
-0.059403
-0.062528
-0.036858
-0.012031
0.025635
0.071829
0.101519
0.145097
0.191767
0.228764
0.242654
0.234617
0.238847
0.225841
0.194407
0.145858
0.093060
0.039604
-0.007685
-0.042939
-0.075399
-0.079956
-0.068087
-0.051387
-0.034141
0.018572
0.093587
0.141711
0.165623
0.198818
0.212018
0.222958
0.218614
0.195026
0.153380
0.104745
0.049736
-0.008919
-0.063415
-0.099854
-0.105120
-0.111548
-0.105284
-0.082405
-0.047414
-0.005499
0.041551
0.090902
0.136499
0.167345
0.181934
0.180816
0.175062
0.136020
0.109167
0.063489
0.006533
-0.035408
-0.081843
-0.121811
-0.149461
-0.155575
-0.154100
-0.126015
-0.098540
-0.061266
-0.020279
0.047283
0.087910
0.120958
0.135414
0.138394
0.140494
0.127124
0.075067
0.017736
-0.022277
-0.084951
-0.122041
-0.138273
-0.168023
-0.173917
-0.177008
-0.151925
-0.108832
-0.065569
-0.007965
0.036840
0.072357
0.108248
0.128739
0.129093
0.119687
0.093906
0.068485
0.022821
-0.021589
-0.082429
-0.126275
-0.156706
-0.178749
-0.173135
-0.170129
-0.142134
-0.113563
-0.061576
-0.012137
0.029908
0.079210
0.097767
0.121974
0.128397
0.129299
0.107408
0.063415
0.009708
-0.041310
-0.079109
-0.125329
-0.159789
-0.172593
-0.168756
-0.152677
-0.125764
-0.096770
-0.065884
-0.016390
0.038962
0.077637
0.124473
0.155678
0.151339
0.146889
0.120486
0.077678
0.027261
-0.020962
-0.077945
-0.110765
-0.143222
-0.162108
-0.150675
-0.152088
-0.132588
-0.091696
-0.050819
0.000599
0.040821
0.082165
0.109321
0.121168
0.122006
0.141534
0.124587
0.093191
0.040404
-0.007064
-0.066476
-0.106312
-0.125257
-0.153545
-0.160387
-0.143599
-0.125845
-0.088484
-0.042303
0.005508
0.059562
0.097742
0.125620
0.146416
0.148532
0.128347
0.117961
0.086367
0.043209
-0.007564
-0.068476
-0.109856
-0.146497
-0.164828
-0.166945
-0.153414
-0.123732
-0.082871
-0.036817
0.000893
0.051266
0.079489
0.116819
0.132029
0.139555
0.135901
0.113660
0.071227
0.031159
-0.012681
-0.066761
-0.108934
-0.144947
-0.168561
-0.155940
-0.157714
-0.134425
-0.098474
-0.053499
-0.003481
