0.035521
0.089444
0.128861
0.166270
0.186542
0.202705
0.202118
0.197735
0.167897
0.121624
0.065219
0.041983
0.023598
-0.023884
-0.070980
-0.075542
-0.074479
-0.065853
-0.043950
-0.005060
0.051268
0.109882
0.149689
0.187567
0.213355
0.226746
0.229104
0.205879
0.175774
0.140159
0.104499
0.052493
0.002840
-0.042867
-0.072628
-0.075713
-0.077971
-0.056252
-0.031946
0.003355
0.041304
0.088351
0.125220
0.172170
0.190032
0.200418
0.209735
0.180317
0.145079
0.117425
0.080826
0.033389
-0.016851
-0.057086
-0.085655
-0.096674
-0.099015
-0.077403
-0.044964
-0.004693
0.032376
0.077537
0.107668
0.140520
0.164460
0.179489
0.183506
0.171944
0.140462
0.102955
0.057756
0.004959
-0.033140
-0.072269
-0.100024
-0.104590
-0.108927
-0.109671
-0.083204
-0.048266
-0.018853
0.033339
0.060785
0.098880
0.135783
0.139753
0.147270
0.129376
0.089046
0.047322
-0.002362
-0.049525
-0.075767
-0.105363
-0.133992
-0.144169
-0.142492
-0.138222
-0.113919
-0.084723
-0.031795
0.009086
0.038400
0.072060
0.088629
0.093037
0.096461
0.076978
0.038945
0.001467
-0.034165
-0.076232
-0.115333
-0.151023
-0.168644
-0.170260
-0.176007
-0.171230
-0.143278
-0.107157
-0.066098
-0.025657
0.011406
0.042177
0.066306
0.069162
0.069898
0.059693
0.042148
-0.004547
-0.051268
-0.107092
-0.134086
-0.169500
-0.187865
-0.184889
-0.181574
-0.164580
-0.144238
-0.107504
-0.069604
-0.015328
0.018444
0.040770
0.059161
0.058491
0.051771
0.034181
0.003915
-0.031388
-0.063702
-0.100090
-0.139709
-0.168062
-0.188191
-0.181836
-0.190773
-0.161808
-0.131512
-0.106589
-0.036463
0.003163
0.024447
0.042419
0.072871
0.080469
0.080909
0.063120
0.041538
-0.016406
-0.052349
-0.088877
-0.125094
-0.155914
-0.171590
-0.157624
-0.166641
-0.162554
-0.118376
-0.076166
-0.033754
0.017719
0.043785
0.063614
0.080862
0.074550
0.074602
0.057340
0.018764
-0.023598
-0.060888
-0.095800
-0.119040
-0.149964
-0.173726
-0.172313
-0.169857
-0.145055
-0.115197
-0.089848
-0.041155
0.011540
0.051312
0.078779
0.093585
0.113858
0.099048
0.066344
0.018938
-0.023443
-0.058778
-0.101666
-0.123059
-0.148973
-0.175821
-0.178162
-0.166582
-0.148738
-0.124423
-0.077586
-0.032211
0.006916
0.042814
0.068304
0.082484
0.106921
0.104548
0.068723
0.021993
-0.022845
-0.073300
-0.109874
-0.131366
-0.155175
-0.182585
-0.183283
-0.173984
-0.146977
-0.121703
-0.074911
-0.029886
0.011666
0.046269
0.070325
0.077410
0.085932
0.075157
0.053834
0.017567
-0.018825
-0.070457
-0.115054
-0.153881
-0.186038
-0.196542
-0.203010
-0.184755
-0.162411
-0.123036
-0.076989
-0.025378
0.007989
0.033978
0.066361
0.092115
0.090004
0.081355
0.055034
0.024302
-0.019724
-0.071329
-0.106451
-0.147332
-0.175001
-0.204560
-0.210237
-0.207639
-0.150937
-0.123931
-0.089374
-0.053526
-0.005458
0.034947
0.074822
0.101581
0.086787
0.079435
0.060467
0.023943
-0.033369
-0.084024
-0.135635
-0.162219
-0.192418
-0.205081
-0.212187
-0.210508
-0.184138
-0.150847
-0.112228
-0.064780
-0.022499
0.026563
0.046045
0.072351
0.079116
0.083854
0.070944
0.026680
-0.025406
-0.089255
-0.128330
-0.166024
-0.209634
-0.208895
-0.207424
-0.209422
-0.205693
-0.165296
-0.093739
-0.012911
0.014642
0.044681
0.070881
0.092463
0.096893
0.086374
0.058475
0.026355
-0.029422
-0.069216
-0.120976
-0.169370
-0.199274
-0.225877
-0.235281
-0.231940
-0.206207
-0.166279
-0.117492
-0.069377
-0.018575
0.030906
0.064284
0.081358
0.087954
0.079667
0.060121
0.029525
-0.019550
-0.068529
-0.135753
-0.186708
-0.221172
-0.234663
-0.243955
-0.233695
-0.175119
-0.157582
-0.112943
-0.059892
-0.020231
0.024209
0.064161
0.079944
0.101258
0.093899
0.070336
0.031939
-0.007998
-0.054479
-0.103888
-0.157610
-0.195413
-0.216286
-0.221820
-0.221640
-0.211820
-0.168658
-0.115305
-0.062553
-0.019176
0.023653
0.056410
0.076258
0.092786
0.092954
0.068115
0.027184
-0.011206
-0.051145
-0.102087
-0.150211
-0.175223
-0.185398
-0.211773
-0.228165
-0.202075
-0.170024
-0.125968
-0.080946
-0.028340
0.018871
0.041482
0.071747
0.084200
0.090015
0.075538
0.043358
-0.001529
-0.070674
-0.112893
-0.162819
-0.184964
-0.208140
-0.226587
-0.218056
-0.202475
-0.173002
-0.139724
-0.085214
-0.035379
0.009294
0.046510
0.083500
0.109269
0.109075
0.065660
0.045043
0.012797
-0.036106
-0.070182
-0.114089
-0.152716
-0.178731
-0.185544
-0.186484
-0.170559
-0.141948
-0.096110
-0.051692
-0.010934
0.033922
0.074646
0.096082
0.115705
0.123702
0.100505
0.067079
0.033413
-0.019667
-0.062815
-0.101821
-0.126542
-0.154836
-0.155212
-0.142109
-0.129578
-0.108589
-0.080173
-0.029401
0.019682
0.054695
0.089880
0.114204
0.127129
0.124225
0.114100
0.083571
0.051033
0.003702
-0.045224
-0.084074
-0.089530
-0.120981
-0.143467
-0.164966
-0.149844
-0.122858
-0.079590
-0.026688
0.015685
0.053951
0.085025
0.103540
0.086474
0.117836
0.098529
0.064298
0.024046
-0.023193
-0.069980
-0.108735
-0.138067
-0.180851
-0.186375
-0.183186
-0.153770
-0.144064
-0.112103
-0.070892
-0.030088
0.008915
0.036273
0.056863
0.069330
0.067188
0.067124
0.033990
-0.012045
-0.055045
-0.100332
-0.138801
-0.180368
-0.205760
-0.214290
-0.206945
-0.197760
-0.172419
-0.130685
-0.076592
-0.036749
0.002721
0.020668
0.040403
0.052497
0.055304
0.035074
-0.001250
-0.038715
-0.083195
-0.123915
-0.160327
-0.195327
-0.219021
-0.226062
-0.202089
-0.187485
-0.162799
-0.123294
-0.083567
-0.043617
0.000854
0.015139
0.034516
0.049126
0.049899
0.027850
0.005624
-0.037983
-0.080960
-0.122105
-0.167780
-0.194280
-0.210428
-0.222821
-0.210898
-0.198127
-0.171496
-0.129272
-0.084156
-0.045199
-0.010047
0.023654
0.047956
0.063611
0.054602
0.035385
0.014967
-0.019145
-0.081802
-0.124888
-0.149523
-0.181257
-0.217353
-0.218370
-0.213283
-0.186112
-0.150755
-0.119452
-0.089866
-0.051149
-0.016759
0.010239
0.029248
0.030379
0.029936
0.021825
0.001878
-0.045440
-0.078241
-0.114329
-0.127326
-0.145964
-0.157954
-0.145494
-0.123209
-0.094828
-0.057015
-0.001914
0.051581
0.100092
0.160592
0.215567
0.240842
0.273873
0.294042
0.305439
0.309305
0.314506
0.321420
0.318870
0.312306
0.339956
0.346553
0.362429
0.403884
0.471873
0.548202
0.620749
0.695299
0.745131
0.810483
0.862979
0.892365
0.892578
0.884816
0.830615
0.772528
0.713355
0.649316
0.567610
0.456431
0.366067
0.291889
0.227370
0.196661
0.147631
0.123792
0.116477
0.131852
0.169224
0.192978
0.208689
0.224531
0.235130
0.217900
0.185843
0.121972
0.063811
0.029485
-0.015256
-0.069951
-0.094699
-0.102103
-0.110359
-0.099130
-0.091747
-0.050975
-0.014137
0.025073
0.065686
0.094797
0.118598
0.128129
0.143275
0.125064
0.096982
0.057434
0.007441
-0.043619
-0.097265
-0.139980
-0.156207
-0.169078
-0.168989
-0.148451
-0.137282
-0.095766
-0.051402
-0.023272
0.027235
0.071964
0.099252
0.100012
0.095952
0.077123
0.066344
0.044137
0.001599
-0.047322
-0.088942
-0.125808
-0.149731
-0.173497
-0.181250
-0.170666
-0.144377
-0.103844
-0.056847
-0.006061
0.039267
0.075089
0.099168
0.114683
0.127707
0.104004
0.081442
0.046242
-0.000170
-0.038241
-0.087028
-0.120058
-0.137667
-0.158403
-0.166742
-0.154828
-0.130314
-0.089069
-0.049392
-0.017368
0.043246
0.092840
0.119181
0.135580
0.133440
0.125456
0.091321
0.054167
0.015390
-0.011826
-0.055538
-0.097537
-0.134761
-0.149234
-0.157447
-0.122720
-0.090792
-0.063844
-0.027251
0.023003
0.069730
0.124673
0.163782
0.191622
0.201440
0.178899
0.131635
0.088205
0.055260
0.007664
-0.034894
-0.075952
-0.119281
-0.131808
-0.128170
-0.113577
-0.094258
-0.060948
-0.012437
0.079086
0.135021
0.148367
0.167840
0.224957
0.221535
0.206944
0.185186
0.141711
0.117049
0.070701
0.017518
-0.038300
-0.070096
-0.088644
-0.086490
-0.083415
-0.062970
-0.024535
0.023523
0.082344
0.127301
0.179130
0.217261
0.228614
0.231276
0.217912
0.210892
0.164461
0.125094
0.085522
0.046614
-0.000377
-0.037837
-0.063682
-0.078937
-0.062911
-0.050536
-0.001313
0.056109
0.111676
0.155041
0.200264
0.227960
0.238052
0.247864
0.242629
0.224116
0.187161
0.126349
0.091339
0.041291
-0.013295
-0.047036
-0.061023
-0.071230
-0.068454
-0.062112
-0.029551
0.028214
0.086881
0.149988
0.197597
0.224268
0.240062
0.242200
0.233578
0.223741
0.190756
0.128501
0.068626
0.006764
-0.042842
-0.071049
-0.096315
-0.108766
-0.101297
-0.091020
-0.049321
-0.001103
0.036523
0.085506
0.122839
0.169384
0.194115
0.199018
0.186326
0.158567
0.133533
0.084275
0.026961
-0.046667
-0.085651
-0.090339
-0.120162
-0.112115
-0.107888
-0.118061
-0.089748
-0.046455
-0.007407
0.037199
0.081391
0.091561
0.166835
0.183754
0.165943
0.127376
0.090519
0.051549
0.004941
-0.045443
-0.097507
-0.146025
-0.170795
-0.178020
-0.178154
-0.161558
-0.130607
-0.096946
-0.049025
0.008270
0.049807
0.085419
0.104758
0.120779
0.115080
0.099007
0.063439
0.030654
-0.020120
-0.068334
-0.123419
-0.154807
-0.169709
-0.170546
-0.179770
-0.162670
-0.131886
-0.095893
-0.062881
-0.014281
0.042122
0.073876
0.094109
0.109043
0.102165
0.092127
0.061973
0.030171
-0.022277
-0.072886
-0.117671
-0.143197
-0.164772
-0.176645
-0.184707
-0.168107
-0.140262
-0.109877
-0.065777
-0.020778
0.031946
0.063707
0.096350
0.108545
0.096565
0.076209
0.048347
0.018911
-0.026232
-0.059831
-0.105814
-0.150160
-0.173780
-0.184699
-0.176588
-0.155138
-0.131411
-0.097710
-0.061466
-0.007861
0.043160
0.092346
0.103277
0.106667
0.106057
0.084788
0.056590
0.024696
-0.005786
-0.049353
-0.091069
-0.123430
-0.142192
-0.161457
-0.173779
-0.181759
-0.126417
-0.081182
-0.041130
0.007250
0.053731
0.089859
0.105261
0.105379
0.095617
0.079804
0.063963
0.033004
-0.013589
-0.055117
-0.094009
-0.119910
-0.145409
-0.151858
-0.151325
-0.142019
-0.119152
-0.101544
-0.031979
0.013750
0.053721
0.074031
0.082741
0.093480
0.091471
0.077825
0.051586
0.032471
-0.000064
-0.051766
-0.084386
-0.126337
-0.156289
-0.159521
-0.158784
-0.144698
-0.126665
-0.080830
-0.027177
0.001768
0.044697
0.073644
0.102114
0.107536
0.093719
0.080273
0.039041
0.007331
-0.040798
-0.080587
-0.118805
-0.141099
-0.160102
-0.154261
-0.150390
-0.141665
-0.131706
-0.098739
-0.038358
0.016088
0.035066
0.060703
0.083161
0.089181
0.097516
0.080952
0.045808
-0.005334
-0.050093
-0.090618
-0.128823
-0.145599
-0.157076
-0.164491
-0.163289
-0.143654
-0.107976
-0.075902
-0.036574
0.007916
0.050590
0.079016
0.102414
0.101506
0.089812
0.056345
0.017988
-0.010790
-0.059157
-0.097125
-0.137856
-0.159309
-0.172675
-0.178584
-0.172952
-0.150926
-0.119790
-0.074959
-0.035796
0.008874
0.041114
0.077359
0.092744
0.089513
0.076359
0.046306
0.014453
-0.024570
-0.062303
-0.098378
-0.151828
-0.174879
-0.198126
-0.197607
-0.163411
-0.157555
-0.147994
-0.096956
-0.019042
0.022424
0.059176
0.084841
0.100914
0.105025
0.078230
0.047983
0.008704
-0.013498
-0.060836
-0.092586
-0.147670
-0.165598
-0.177157
-0.198621
-0.175987
-0.154285
-0.120163
-0.079293
-0.038238
-0.003338
0.039752
0.091118
0.103790
0.086562
0.069651
0.053780
0.011649
-0.032805
-0.077714
-0.117429
-0.156413
-0.185985
-0.198903
-0.201588
-0.182266
-0.151352
-0.123382
-0.086449
-0.030805
0.005486
0.043497
0.051483
0.091235
0.098073
0.092625
0.059213
0.011384
-0.029136
-0.077499
-0.112961
-0.155592
-0.189191
-0.202314
-0.210609
-0.198646
-0.174179
-0.131419
-0.081459
-0.028896
0.018748
0.045477
0.076383
0.088595
0.094197
0.078332
0.060207
0.022303
-0.011835
-0.064407
-0.112918
-0.154038
-0.184051
-0.193462
-0.205609
-0.190395
-0.166559
-0.140412
-0.092561
-0.046236
-0.000092
0.028974
0.064487
0.087937
0.099071
0.093174
0.052165
0.016745
-0.024335
-0.077568
-0.117964
-0.152635
-0.175572
-0.182651
-0.183685
-0.187262
-0.161997
-0.124066
-0.083907
-0.032181
0.020698
0.067683
0.103874
0.113867
0.121202
0.107303
0.085022
0.049893
0.004579
-0.036859
-0.087036
-0.128075
-0.161024
-0.178015
-0.180714
-0.169416
-0.142470
-0.101277
-0.053979
-0.010315
0.038886
0.078690
0.117160
0.129761
0.137849
0.116093
0.089532
0.047101
-0.007544
-0.065147
-0.091458
-0.118881
-0.129156
-0.143621
-0.159676
-0.168062
-0.130025
-0.079587
-0.039917
0.010727
0.062969
0.107306
0.131716
0.143798
0.167781
0.174046
0.153418
0.105931
0.036394
-0.019002
-0.075272
-0.114554
-0.150969
-0.184443
-0.200663
-0.186388
-0.157681
-0.127703
-0.080120
-0.021188
0.029426
0.077326
0.114907
0.111077
0.092720
0.092484
0.097663
0.079958
0.015252
-0.025874
-0.078578
-0.138496
-0.183076
-0.211617
-0.219838
-0.205206
-0.176208
-0.139500
-0.096540
-0.051588
-0.002605
0.044097
0.075895
0.090694
0.089110
0.078689
0.059332
0.025356
-0.017626
-0.072798
-0.120953
-0.171861
-0.201077
-0.220281
-0.232056
-0.219045
-0.210062
-0.177872
-0.129220
-0.075985
-0.031507
0.017683
0.051429
0.074264
0.087389
0.081747
0.052957
0.018650
-0.018895
-0.072693
-0.121214
-0.164284
-0.206030
-0.222165
-0.234136
-0.226596
-0.213425
-0.172708
-0.143470
-0.079488
-0.037912
0.011984
0.072364
0.085240
0.088640
0.077157
0.056437
0.025769
-0.012166
-0.067851
-0.120810
-0.162163
-0.189381
-0.216906
-0.238216
-0.238750
-0.197959
-0.176204
-0.140837
-0.093211
-0.040305
0.006744
0.045367
0.063166
0.084000
0.077298
0.063990
0.020381
-0.022098
-0.070755
-0.124904
-0.172233
-0.202455
-0.233267
-0.251816
-0.237403
-0.222265
-0.203994
-0.159968
-0.088040
-0.025375
0.031457
0.080994
0.106377
0.128483
0.142905
0.129171
0.124987
0.100634
0.070503
0.031313
0.005794
-0.011035
-0.025907
-0.022463
0.011463
0.048654
0.108585
0.177416
0.266015
0.355159
0.444244
0.519184
0.558337
0.590010
0.618345
0.636296
0.644672
0.640618
0.621715
0.624038
0.611954
0.588961
0.571915
0.554662
0.559797
0.580230
0.590866
0.618391
0.639721
0.642009
0.613634
0.595450
0.568506
0.529118
0.464549
0.401954
0.327803
0.231977
0.143116
0.082610
0.026200
-0.027898
-0.066925
-0.089983
-0.094710
-0.079891
-0.063058
-0.023024
0.019394
0.053526
0.095087
0.132177
0.146744
0.163828
0.161124
0.139788
0.109973
0.059785
0.017801
-0.041902
-0.088049
-0.117907
-0.129098
-0.132471
-0.138472
-0.120667
-0.097093
-0.063959
-0.021831
0.024987
0.061688
0.091336
0.108524
0.111779
0.110080
0.083102
0.060966
0.017663
-0.022990
-0.064188
-0.107298
-0.137598
-0.160874
-0.175113
-0.179776
-0.149798
-0.120377
-0.088858
-0.048158
-0.000192
0.051333
0.084033
0.102232
0.119419
0.116222
0.097585
0.063053
0.028328
-0.010567
-0.057463
-0.102421
-0.127460
-0.151736
-0.162873
-0.157624
-0.129981
-0.094359
-0.049420
-0.015633
0.013522
0.058178
0.084272
0.109128
0.129271
0.117350
0.095403
0.061136
0.020148
-0.023150
-0.049459
-0.088886
-0.120707
-0.132655
-0.139318
-0.134812
-0.105451
-0.079034
-0.040629
0.010343
0.055396
0.098515
0.127188
0.133005
0.147046
0.140391
0.106824
0.077339
0.039518
-0.004120
-0.023555
-0.024701
-0.060040
-0.101650
-0.118493
-0.108891
-0.085250
-0.069071
-0.007837
0.045343
0.088659
0.143827
0.157116
0.183657
0.182615
0.165336
0.151610
0.118872
0.078631
0.041589
0.002792
-0.029670
-0.046642
-0.064806
-0.076165
-0.069226
-0.039730
-0.008740
0.021776
0.070865
0.124666
0.162191
0.185002
0.208216
0.205979
0.193961
0.178470
0.157858
0.106003
0.058996
0.021866
-0.012354
-0.039551
-0.056723
-0.061566
-0.045152
-0.027967
0.002567
0.049298
0.094301
0.136470
0.189007
0.212712
0.219634
0.220133
0.217584
0.201006
0.165339
0.125432
0.079747
0.030942
-0.000175
-0.034319
-0.037585
-0.049246
-0.029584
-0.008713
0.031312
0.072295
0.106653
0.139937
0.178856
0.206107
0.215002
0.230237
0.221144
0.193335
0.163426
0.113340
0.059974
0.016883
-0.014125
-0.045738
-0.060840
-0.068140
-0.056862
-0.036319
0.002577
0.038086
0.087052
0.130112
0.165069
0.190553
0.197373
0.199363
0.185026
0.180636
0.159680
0.110735
0.053564
-0.005094
-0.062640
-0.111832
-0.119270
-0.116459
-0.090107
-0.065123
-0.041378
0.000175
0.045085
0.089150
0.128554
0.158586
0.184539
0.173702
0.159505
0.145638
0.101805
0.054315
-0.013496
-0.068360
-0.097961
-0.143733
-0.146846
-0.145938
-0.128672
-0.114587
-0.096022
-0.050382
-0.012968
0.036322
0.079276
0.118384
0.139551
0.134321
0.124140
0.094820
0.051135
0.007915
-0.034359
-0.089538
-0.128129
-0.178569
-0.190715
-0.190106
-0.173611
-0.155168
-0.134117
-0.064216
-0.003890
0.036711
0.075420
0.105116
0.123143
0.128622
0.121842
0.100454
0.061836
0.002730
-0.050887
-0.098974
-0.136020
-0.164658
-0.186981
-0.196420
-0.193325
-0.170607
-0.127000
-0.083129
-0.037409
0.012764
0.058298
0.087753
0.111299
0.125846
0.104792
0.074873
0.046737
0.009813
-0.032251
-0.094290
-0.140576
-0.177235
-0.199999
-0.183663
-0.172743
-0.154931
-0.119833
-0.085912
-0.033856
0.014446
0.059445
0.107852
0.124218
0.136962
0.125900
0.102036
0.059465
0.017380
-0.040566
-0.098862
-0.143702
-0.154839
-0.170378
-0.181743
-0.181562
-0.158229
-0.127609
-0.077461
-0.023393
0.021196
0.069077
0.101056
0.117699
0.128076
0.118546
0.107186
0.076042
0.028416
-0.015098
-0.062060
-0.122288
-0.161901
-0.185448
-0.192888
-0.194488
-0.154061
-0.121467
-0.096127
-0.017818
0.031639
0.060668
0.092304
0.121728
0.124435
0.117240
0.092832
0.070617
0.039324
-0.008509
-0.069629
-0.125787
-0.181996
-0.206926
-0.189002
-0.186869
-0.167724
-0.138945
-0.093419
-0.037822
0.023847
0.065071
0.094974
0.132837
0.131936
0.132734
0.098903
0.061411
0.016101
-0.015057
-0.062219
-0.112796
-0.157157
-0.173344
-0.182159
-0.186690
-0.159249
-0.133720
-0.093973
-0.052794
-0.002810
0.046321
0.072239
0.099676
0.097403
0.116789
0.108537
0.075425
0.031324
-0.009620
-0.069043
-0.115786
-0.155556
-0.181276
-0.191033
-0.191701
-0.168044
-0.147681
-0.109676
-0.060173
-0.009560
0.029630
0.055249
0.089714
0.110029
0.112122
0.106039
0.062950
0.012813
-0.034755
-0.074005
-0.106829
-0.143474
-0.177052
-0.187388
-0.190348
-0.176637
-0.147014
-0.109172
-0.058432
-0.007458
0.038476
0.063975
0.096407
0.101812
0.102976
0.078185
0.055488
0.014869
-0.028799
-0.087259
-0.146329
-0.182159
-0.201084
-0.186738
-0.175366
-0.165292
-0.151733
-0.109138
-0.074292
-0.024316
0.015082
0.054278
0.095607
0.090991
0.103453
0.086117
0.050183
0.003695
-0.036533
-0.096468
-0.119608
-0.154418
-0.174911
-0.171926
-0.172958
-0.162998
-0.144450
-0.112023
-0.074372
-0.019231
0.027346
0.062949
0.080822
0.094681
0.094150
0.077696
0.051421
0.012251
-0.030449
-0.081401
-0.125725
-0.160075
-0.196884
-0.199000
-0.200893
-0.184227
-0.159833
-0.118969
-0.083262
-0.039000
0.005952
0.035633
0.060165
0.075728
0.069150
0.048762
0.023242
-0.012427
-0.049153
-0.098255
-0.142530
-0.180821
-0.185072
-0.190667
-0.193983
-0.183009
-0.137448
-0.097035
-0.056806
-0.015170
0.017981
0.056686
0.077623
0.086338
0.092488
0.067553
0.040832
0.012561
-0.031727
-0.078658
-0.115041
-0.150624
-0.168910
-0.179614
-0.177230
-0.160888
-0.142529
-0.106376
-0.046159
0.010903
0.054452
0.081904
0.090450
0.102339
0.118568
0.088708
0.062409
0.032994
-0.006812
-0.050897
-0.090955
-0.124646
-0.143480
-0.151553
-0.146628
-0.133659
-0.106667
-0.066401
-0.023830
0.016970
0.051784
0.077410
0.103048
0.109304
0.101397
0.087318
0.053198
0.045287
0.000955
-0.045991
-0.082482
-0.115463
-0.156428
-0.164808
-0.138231
-0.101073
-0.078694
-0.061284
-0.018701
0.053654
0.077980
0.102663
0.129232
0.129657
0.131991
0.101036
0.072435
0.049800
0.016156
-0.032345
-0.073701
-0.104097
-0.120358
-0.141229
-0.142368
-0.126463
-0.082993
-0.061253
-0.030620
0.024196
0.061744
0.090216
0.097683
0.107444
0.102101
0.076735
0.046549
0.004952
-0.032545
-0.073188
-0.110129
-0.145990
-0.178607
-0.172287
-0.159946
-0.168661
-0.128754
-0.106818
-0.064119
-0.017428
0.001786
0.027274
0.046886
0.056945
0.052958
0.028984
0.004493
-0.028688
-0.084094
-0.112124
-0.122518
-0.147246
-0.171506
-0.180736
-0.196267
-0.180276
-0.150530
-0.113088
-0.054438
-0.022240
0.005278
0.033106
0.043409
0.058520
0.047243
0.026690
-0.018831
-0.025417
-0.073710
-0.121892
-0.160530
-0.189706
-0.209129
-0.212832
-0.202327
-0.184476
-0.144715
-0.116658
-0.077997
-0.029556
0.001753
0.035117
0.056492
0.048463
0.037792
0.008463
-0.003388
-0.027168
-0.082159
-0.129243
-0.161329
-0.189154
-0.217995
-0.212548
-0.197633
-0.182540
-0.161980
-0.121598
-0.076051
-0.017630
0.012476
0.037816
0.053288
0.057613
0.048702
0.029911
-0.007407
-0.038931
-0.083428
-0.122798
-0.164131
-0.195338
-0.215890
-0.227569
-0.219917
-0.199394
-0.151797
-0.124418
-0.078318
-0.048037
0.008486
0.048246
0.074763
0.093477
0.083648
0.069227
0.055390
0.018180
-0.018084
-0.031687
-0.020394
-0.050950
-0.075054
-0.054914
-0.017485
0.029333
0.094301
0.152680
0.232767
0.314034
0.388059
0.455337
0.498859
0.539042
0.545691
0.556624
0.543575
0.548119
0.545828
0.535140
0.538906
0.548869
0.561658
0.589623
0.604530
0.629977
0.671694
0.705108
0.729045
0.764413
0.778862
0.778800
0.754058
0.698348
0.606630
0.529159
0.428941
0.344135
0.241353
0.147123
0.052831
-0.003526
-0.037830
-0.061611
-0.070131
-0.026011
0.011152
0.033312
0.056441
0.082867
0.116753
0.150283
0.181258
0.197137
0.191697
0.159259
0.115218
0.069042
0.015004
-0.043556
-0.082144
-0.109204
-0.133108
-0.150781
-0.156175
-0.139282
-0.083230
-0.037556
-0.005770
0.037611
0.080089
0.108772
0.133298
0.132735
0.117456
0.089614
0.052467
0.002640
-0.037845
-0.082463
-0.134038
-0.162963
-0.184499
-0.192630
-0.190435
-0.169960
-0.129170
-0.091425
-0.015091
0.028072
0.079245
0.102607
0.127020
0.123381
0.118331
0.087504
0.041923
0.008688
-0.037049
-0.077422
-0.123422
-0.160066
-0.192891
-0.196765
-0.174023
-0.149983
-0.104575
-0.063219
-0.007911
0.032838
0.085860
0.115205
0.139074
0.146049
0.129087
0.107850
0.064689
0.016609
-0.035245
-0.077424
-0.118891
-0.150198
-0.160778
-0.167929
-0.160319
-0.134926
-0.098785
-0.052360
0.002975
0.050561
0.086328
0.119887
0.147449
0.146739
0.145843
0.128932
0.101732
0.068834
0.010122
-0.048474
-0.101842
-0.140799
-0.135333
-0.118759
-0.094173
-0.088402
-0.059765
-0.016519
0.035660
0.090763
0.130911
0.158156
0.191169
0.205475
0.197009
0.165781
0.116303
0.083182
0.035707
-0.006360
-0.056404
-0.085987
-0.119909
-0.120212
-0.108006
-0.100714
-0.065571
-0.014201
0.053726
0.127782
0.167507
0.189719
0.213193
0.252667
0.248344
0.199892
0.152779
0.115599
0.076040
0.027937
-0.017727
-0.055544
-0.077658
-0.081031
-0.061195
-0.037558
0.000638
0.035444
0.078829
0.131134
0.165121
0.210490
0.225331
0.257123
0.243160
0.221488
0.185614
0.151479
0.092207
0.048941
0.014820
-0.022094
-0.060205
-0.072557
-0.062856
-0.052592
-0.013302
0.026504
0.088330
0.121754
0.154382
0.204139
0.231324
0.234594
0.223499
0.217429
0.176731
0.125551
0.069993
0.029455
-0.009779
-0.043216
-0.064878
-0.080994
-0.074067
-0.062454
-0.028201
0.011007
0.049804
0.097531
0.143307
0.180844
0.212364
0.225720
0.216789
0.199982
0.151032
0.110931
0.057563
0.014217
-0.041433
-0.072157
-0.099153
-0.115344
-0.108959
-0.099729
-0.064268
-0.031835
0.004789
0.052956
0.099500
0.126363
0.146218
0.172094
0.159076
0.142569
0.104601
0.050455
0.009937
-0.032054
-0.073637
-0.106124
-0.128656
-0.151655
-0.137756
-0.127529
-0.103538
-0.067121
-0.023875
0.021264
0.054284
0.094243
0.110539
0.124683
0.115990
0.097758
0.067168
0.025921
-0.017406
-0.063662
-0.108032
-0.138084
-0.169424
-0.179442
-0.163402
-0.145484
-0.115492
-0.102335
-0.057543
-0.004254
0.039402
0.070548
0.096325
0.098222
0.095179
0.075400
0.049276
0.005275
-0.039186
-0.080132
-0.128531
-0.147628
-0.166025
-0.169716
-0.171316
-0.144334
-0.118751
-0.085352
-0.046179
-0.004351
0.028681
0.064751
0.083322
0.086086
0.074739
0.070016
0.038357
-0.001257
-0.038382
-0.073708
-0.117564
-0.151482
-0.160381
-0.179279
-0.156771
-0.145854
-0.126212
-0.077650
-0.033699
0.006407
0.034629
0.077333
0.090559
0.094613
0.072880
0.051433
0.034845
0.019751
-0.022322
-0.063060
-0.107740
-0.142043
-0.167753
-0.182944
-0.160626
-0.135815
-0.089796
-0.049272
-0.015921
0.016271
0.057960
0.082523
0.096114
0.114580
0.107321
0.083454
0.047079
0.003124
-0.036594
-0.056215
-0.099712
-0.140693
-0.157024
-0.171707
-0.151760
-0.134114
-0.106795
-0.069351
-0.023984
0.015246
0.049080
0.084097
0.102000
0.122527
0.103787
0.075286
0.049338
0.007294
-0.040475
-0.073535
-0.112843
-0.143003
-0.152869
-0.157767
-0.147271
-0.128138
-0.098451
-0.054980
-0.010259
0.024062
0.061621
0.084476
0.100547
0.100504
0.085627
0.053922
0.049487
-0.013926
-0.052745
-0.096512
-0.137669
-0.166307
-0.153398
-0.150155
-0.141497
-0.124500
-0.108250
-0.063525
-0.033048
0.006547
0.050988
0.071689
0.078540
0.071044
0.068729
0.071518
0.041438
-0.002517
-0.049413
-0.102371
-0.145237
-0.172151
-0.169749
-0.170782
-0.151808
-0.125110
-0.094261
-0.053199
-0.017278
0.026771
0.066216
0.084600
0.089927
0.091839
0.079533
0.060842
0.036286
-0.019166
-0.060645
-0.102942
-0.146100
-0.167794
-0.172145
-0.183857
-0.175740
-0.143831
-0.099167
-0.065735
-0.036011
0.009389
0.044665
0.086966
0.098880
0.111729
0.091699
0.068118
0.032663
-0.007876
-0.055081
-0.107629
-0.151696
-0.178784
-0.193528
-0.191916
-0.181553
-0.158282
-0.128264
-0.080728
-0.036956
0.006153
0.043007
0.074503
0.096136
0.095652
0.076824
0.054305
0.022731
-0.032874
-0.083104
-0.116333
-0.155389
-0.181594
-0.191245
-0.197617
-0.183471
-0.166012
-0.140934
-0.088026
-0.039231
0.009381
0.053675
0.089854
0.096932
0.109875
0.088433
0.067562
0.016509
-0.028425
-0.075244
-0.140074
-0.164740
-0.201755
-0.212907
-0.217541
-0.210807
-0.178282
-0.145955
-0.099347
-0.046711
0.001403
0.048560
0.079574
0.092968
0.106617
0.098671
0.067804
0.037310
-0.019438
-0.052041
-0.107778
-0.152086
-0.181396
-0.202755
-0.214598
-0.199649
-0.174182
-0.143131
-0.112591
-0.042950
0.010532
0.050006
0.073536
0.087183
0.099253
0.092862
0.064251
0.034766
-0.017967
-0.067524
-0.115679
-0.160314
-0.190242
-0.220538
-0.220798
-0.205451
-0.177596
-0.150961
-0.096981
-0.047729
-0.000359
0.038078
0.098500
0.127564
0.130102
0.116322
0.091912
0.047049
0.009065
-0.032013
-0.081636
-0.126988
-0.165460
-0.180921
-0.178245
-0.170126
-0.145825
-0.105968
-0.057922
-0.022701
0.030756
0.075418
0.103913
0.138165
0.149377
0.138411
0.115803
0.073523
0.023921
-0.026929
-0.076060
-0.119029
-0.147194
-0.174338
-0.185932
-0.169119
-0.153611
-0.119318
-0.076916
-0.024906
0.026636
0.079074
0.122333
0.152691
0.161679
0.141250
0.122878
0.096856
0.055430
0.010392
-0.052390
-0.100086
-0.128961
-0.146922
-0.161884
-0.171376
-0.143436
-0.111918
-0.076673
-0.033681
0.018259
0.062063
0.091265
0.121098
0.125164
0.116395
0.096048
0.058565
0.021226
-0.025344
-0.091439
-0.130065
-0.153751
-0.176368
-0.191922
-0.173104
-0.158035
-0.135005
-0.088824
-0.057714
-0.017280
0.019398
0.083314
0.098495
0.113610
0.122954
0.084872
0.055409
-0.000920
-0.055075
-0.099982
-0.147221
-0.192991
-0.223306
-0.238196
-0.237128
-0.214909
-0.161317
-0.101382
-0.053640
-0.023713
-0.001149
0.045284
0.069280
0.093148
0.085572
0.048028
0.017605
-0.028163
-0.067204
-0.123454
-0.162381
-0.197860
-0.218857
-0.226662
-0.221093
-0.209003
-0.176843
-0.133111
-0.092544
-0.043899
-0.001160
0.036781
0.062387
0.076855
0.083510
0.068115
0.024453
-0.022158
-0.065485
-0.115912
-0.159301
-0.195350
-0.226958
-0.238163
-0.229537
-0.217466
-0.190375
-0.136615
-0.089551
-0.049386
-0.018188
0.019666
0.046129
0.066003
0.074004
0.057192
0.035098
-0.005460
-0.061731
-0.101032
-0.138336
-0.195302
-0.203464
-0.206387
-0.208913
-0.188708
-0.166334
-0.139218
-0.117800
-0.083967
-0.011552
0.056101
0.071097
0.064936
0.046717
0.046396
0.031283
0.000522
-0.037833
-0.067989
-0.083573
-0.096310
-0.119676
-0.110070
-0.083926
-0.054490
-0.018283
0.039781
0.095607
0.172717
0.233459
0.296123
0.345589
0.389629
0.428177
0.450672
0.453465
0.433335
0.447973
0.442039
0.431803
0.441901
0.469657
0.511871
0.559536
0.592080
0.659624
0.729596
0.786481
0.829136
0.856399
0.884105
0.877811
0.870990
0.842137
0.793999
0.733762
0.631735
0.522555
0.424579
0.322569
0.233781
0.154798
0.094629
0.067383
0.043542
0.064463
0.090184
0.123052
0.164365
0.189922
0.199643
0.205302
0.199934
0.176791
0.161811
0.138055
0.084327
0.029926
-0.022490
-0.057573
-0.087172
-0.116638
-0.135856
-0.127180
-0.097463
-0.069608
-0.032298
-0.004590
0.033086
0.062937
0.085719
0.113802
0.119071
0.111491
0.103231
0.079791
0.040437
-0.009362
-0.061798
-0.094275
-0.119978
-0.150487
-0.153725
-0.148884
-0.127060
-0.094496
-0.068399
-0.035847
0.004104
0.060311
0.089453
0.103708
0.095945
0.085734
0.072873
0.065949
0.031593
-0.027895
-0.088677
-0.120404
-0.155753
-0.180487
-0.168599
-0.148778
-0.118663
-0.086037
-0.050673
-0.004570
0.030586
0.064897
0.101752
0.112839
0.115430
0.119844
0.090934
0.046976
0.010287
-0.045125
-0.085718
-0.116910
-0.140360
-0.158929
-0.160803
-0.144837
-0.118637
-0.073464
-0.034023
0.013856
0.063063
0.099532
0.124553
0.142352
0.147877
0.139228
0.112028
0.075860
0.029013
-0.015697
-0.064871
-0.088718
-0.122559
-0.146828
-0.136967
-0.122759
-0.097672
-0.062960
-0.012042
0.043248
0.101164
0.139445
0.170083
0.179875
0.178302
0.171106
0.135412
0.104063
0.053854
0.016705
-0.027549
-0.070756
-0.097723
-0.103670
-0.104599
-0.106744
-0.075717
-0.041570
0.007401
0.048970
0.105325
0.156929
0.193770
0.212766
0.222632
0.209511
0.180803
0.144147
0.110407
0.067445
0.013572
-0.035839
-0.065055
-0.081185
-0.074307
-0.066030
-0.027790
0.011724
0.050620
0.103287
0.158141
0.192983
0.232257
0.254237
0.257766
0.245968
0.217511
0.170933
0.130444
0.074856
0.030178
-0.014680
-0.039858
-0.057838
-0.073690
-0.078974
-0.044434
0.002198
0.051203
0.092642
0.148658
0.192419
0.225969
0.238803
0.241557
0.230843
0.212402
0.176810
0.136779
0.094190
0.039227
-0.016249
-0.056107
-0.082659
-0.097337
-0.075102
-0.051431
-0.016616
0.029258
0.082036
0.138080
0.170597
0.206007
0.230206
0.233897
0.215010
0.193301
0.164467
0.129823
0.066546
0.001317
-0.039223
-0.072829
-0.093734
-0.110020
-0.105027
-0.082797
-0.045616
-0.015803
0.038005
0.088901
0.140459
0.173516
0.188278
0.193687
0.179678
0.149703
0.111648
0.065225
0.019973
-0.024862
-0.070489
-0.115043
-0.136037
-0.145663
-0.140790
-0.120422
-0.086768
-0.044193
-0.004429
0.040284
0.085318
0.118209
0.136572
0.152805
0.134119
0.116021
0.077818
0.042408
-0.007396
-0.066342
-0.103465
-0.141852
-0.160975
-0.164828
-0.168895
-0.151133
-0.124691
-0.091823
-0.039630
0.001100
0.051108
0.088249
0.115557
0.110309
0.099571
0.065934
0.071588
0.013993
-0.011245
-0.052505
-0.106783
-0.151994
-0.186826
-0.198139
-0.196129
-0.168141
-0.141124
-0.088156
-0.041761
0.004127
0.044407
0.077786
0.092134
0.099353
0.104569
0.073747
0.054634
0.007742
-0.029013
-0.065589
-0.113532
-0.153200
-0.170002
-0.177420
-0.171816
-0.162284
-0.148921
-0.104250
-0.048885
0.003590
0.039890
0.077048
0.100239
0.104805
0.095202
0.074133
0.048931
0.010040
-0.029917
-0.076661
-0.122384
-0.148554
-0.147689
-0.146716
-0.148014
-0.137995
-0.120925
-0.091506
-0.044268
0.019447
0.050803
0.081891
0.094883
0.106300
0.096025
0.084247
0.059045
0.024449
-0.010074
-0.060682
-0.111158
-0.140219
-0.160877
-0.164782
-0.157053
-0.138245
-0.107305
-0.065522
-0.034001
0.004840
0.050982
0.076512
0.101570
0.103692
0.105113
0.068668
0.049886
0.012437
-0.016321
-0.066276
-0.108871
-0.146451
-0.158193
-0.158288
-0.155883
-0.125957
-0.109542
-0.069015
-0.025224
0.016155
0.051967
0.101020
0.126116
0.117785
0.094999
0.073381
0.072464
0.022337
-0.033454
-0.063239
-0.099266
-0.141729
-0.159480
-0.155643
-0.143614
-0.111110
-0.093809
-0.069063
-0.029650
-0.000187
0.049292
0.065810
0.112686
0.120170
0.105546
0.070836
0.041857
-0.000740
-0.038532
-0.074410
-0.121557
-0.151819
-0.163206
-0.161207
-0.162202
-0.120664
-0.088839
-0.062427
-0.027005
0.010040
0.055083
0.075271
0.083920
0.100965
0.088600
0.060289
0.036582
-0.011546
-0.054785
-0.087276
-0.137832
-0.155828
-0.162749
-0.171564
-0.168003
-0.144990
-0.106438
-0.063653
-0.018839
0.011404
0.047563
0.075966
0.084603
0.085731
0.075397
0.056913
0.016472
-0.021987
-0.064048
-0.087641
-0.117956
-0.147197
-0.160659
-0.182642
-0.176390
-0.142384
-0.100725
-0.065729
-0.020547
0.020492
0.062973
0.081244
0.094413
0.085509
0.064319
0.047510
0.023564
-0.012237
-0.057608
-0.099721
-0.141634
-0.171273
-0.185565
-0.176549
-0.174486
-0.148309
-0.121281
-0.089047
-0.033762
0.008613
0.049582
0.084299
0.092162
0.093913
0.087019
0.054063
0.010840
-0.029289
-0.071863
-0.113115
-0.147163
-0.178797
-0.205438
-0.209897
-0.194441
-0.165019
-0.122938
-0.093996
-0.043133
0.005112
0.034937
0.084762
0.097511
0.096198
0.087690
0.047275
0.021688
-0.016111
-0.068801
-0.107834
-0.151983
-0.179768
-0.193471
-0.205925
-0.195516
-0.163831
-0.114327
-0.069900
-0.042784
-0.003079
0.037073
0.079133
0.085686
0.094766
0.093416
0.076071
0.038675
-0.002611
-0.050488
-0.096075
-0.145571
-0.179253
-0.200589
-0.190859
-0.165762
-0.141949
-0.110640
-0.056144
-0.013117
0.032695
0.084512
0.105636
0.125186
0.130593
0.128708
0.100429
0.054456
0.007915
-0.029004
-0.075200
-0.125755
-0.149430
-0.167826
-0.171394
-0.161406
-0.118800
-0.081198
-0.043723
-0.001781
0.043587
0.091168
0.124355
0.137001
0.145817
0.138733
0.114443
0.080258
0.029193
-0.014978
-0.063803
-0.112830
-0.161111
-0.157604
-0.141235
-0.126470
-0.121329
-0.077115
-0.028132
0.029156
0.068977
0.122973
0.143972
0.153859
0.157521
0.145189
0.111672
0.077008
0.035925
-0.015460
-0.061854
-0.096267
-0.135749
-0.165003
-0.173378
-0.163627
-0.151370
-0.115486
-0.077250
-0.019678
0.023853
0.059229
0.096545
0.116612
0.129560
0.113390
0.091011
0.063433
0.014723
-0.040334
-0.089197
-0.134324
-0.182725
-0.210215
-0.219836
-0.211655
-0.187320
-0.155289
-0.114881
-0.066539
-0.027238
0.023003
0.063641
0.084286
0.096356
0.094752
0.072369
0.033591
-0.015062
-0.080138
-0.121957
-0.153669
-0.174075
-0.194246
-0.232557
-0.242464
-0.199083
-0.167324
-0.126351
-0.066052
-0.019764
0.026355
0.059837
0.090349
0.090773
0.083191
0.048776
0.020363
-0.013266
-0.072246
-0.120981
-0.166363
-0.194590
-0.220894
-0.233933
-0.233093
-0.208328
-0.173220
-0.126641
-0.082625
-0.021560
0.015072
0.041226
0.067630
0.082397
0.074097
0.063611
0.029324
-0.013396
-0.059474
-0.111634
-0.167497
-0.208118
-0.245177
-0.213717
-0.219462
-0.210813
-0.179802
-0.120049
-0.076344
-0.047398
-0.000493
0.043990
0.081652
0.098031
0.072046
0.055024
0.023547
-0.023368
-0.077470
-0.126577
-0.179922
-0.186899
-0.224662
-0.233270
-0.227863
-0.197367
-0.153729
-0.107676
-0.044928
0.015303
0.074820
0.128184
0.158948
0.186586
0.190818
0.176928
0.168711
0.162552
0.136076
0.115875
0.109347
0.096096
0.098123
0.124802
0.161698
0.212804
0.275263
0.350672
0.451506
0.531609
0.614737
0.686319
0.769930
0.823394
0.838205
0.834078
0.824773
0.815472
0.783445
0.730391
0.690742
0.635361
0.586644
0.563802
0.558721
0.561066
0.525663
0.483017
0.456572
0.438889
0.426787
0.400182
0.371481
0.325118
0.296809
0.270419
0.230226
0.188040
0.137010
0.085809
0.025271
-0.015843
-0.045988
-0.066378
-0.071185
-0.071238
-0.050089
-0.004633
0.033717
0.072000
0.112428
0.147758
0.160664
0.165036
0.143803
0.132410
0.097975
0.058212
0.016064
-0.034118
-0.075438
-0.112654
-0.142205
-0.157108
-0.142731
-0.116437
-0.090962
-0.064077
-0.017395
0.020578
0.062476
0.081527
0.109870
0.133279
0.131025
0.102396
0.062756
0.026902
-0.005632
-0.051423
-0.093150
-0.133739
-0.157732
-0.178374
-0.161042
-0.139292
-0.099467
-0.076973
-0.021714
0.023803
0.062429
0.083431
0.110168
0.119095
0.112396
0.082219
0.037165
0.018124
-0.026270
-0.087970
-0.087229
-0.104338
-0.124122
-0.154285
-0.163783
-0.134883
-0.087752
-0.060552
-0.013677
0.032041
0.069390
0.105394
0.149039
0.147834
0.122412
0.093559
0.072203
0.041082
0.001245
-0.044791
-0.079153
-0.108551
-0.122265
-0.134223
-0.125377
-0.113793
-0.076503
-0.029536
0.020302
0.062744
0.093141
0.127754
0.152698
0.176379
0.174644
0.142425
0.106081
0.077242
0.028089
-0.006832
-0.046813
-0.080267
-0.096105
-0.100273
-0.092626
-0.076322
-0.039503
0.013473
0.051128
0.098781
0.130412
0.163091
0.182283
0.199112
0.187166
0.161907
0.116843
0.084130
0.053198
0.016813
-0.027816
-0.049514
-0.063154
-0.068756
-0.061570
-0.040410
-0.001144
0.041319
0.104187
0.153629
0.193204
0.204076
0.222128
0.227558
0.216572
0.186274
0.142137
0.104131
0.079401
0.030192
-0.013652
-0.021283
-0.031215
-0.035900
-0.030920
-0.005305
0.027315
0.066682
0.114453
0.172503
0.198872
0.228709
0.246354
0.248688
0.243284
0.208647
0.165039
0.120652
0.080996
0.031913
-0.000575
-0.035461
-0.061649
-0.053957
-0.032031
-0.002476
0.029130
0.049678
0.107889
0.145710
0.183155
0.197737
0.225271
0.243214
0.217274
0.196669
0.184351
0.131676
0.072270
0.025121
-0.020050
-0.047314
-0.069990
-0.066397
-0.052322
-0.028339
-0.000057
0.045254
0.085578
0.128684
0.172393
0.197972
0.217309
0.218040
0.207367
0.177136
0.132949
0.080100
0.036244
-0.008927
-0.048264
-0.088924
-0.102704
-0.108455
-0.100473
-0.080675
-0.040933
0.005526
0.050806
0.088947
0.122183
0.157084
0.181787
0.168737
0.166551
0.140527
0.093921
0.041374
-0.009782
-0.060731
-0.106514
-0.131951
-0.163080
-0.154753
-0.156249
-0.128378
-0.076669
-0.037356
0.015692
0.049398
0.085304
0.125420
0.143648
0.149015
0.138787
0.104403
0.061891
0.020997
-0.029214
-0.080325
-0.123056
-0.163474
-0.168352
-0.158836
-0.155998
-0.141249
-0.103906
-0.058289
-0.011747
0.028244
0.074498
0.112406
0.126757
0.122880
0.102102
0.084727
0.049287
0.002015
-0.053292
-0.100502
-0.125576
-0.161989
-0.189871
-0.187213
-0.171453
-0.139265
-0.095103
-0.057121
-0.012937
0.040996
0.086923
0.117371
0.138144
0.126594
0.130302
0.108572
0.057034
0.014928
-0.037712
-0.077474
-0.127328
-0.161776
-0.185386
-0.195044
-0.175988
-0.145243
-0.108486
-0.068358
-0.019865
0.039553
0.083334
0.119036
0.142399
0.131210
0.111134
0.097193
0.050122
0.013192
-0.038021
-0.056541
-0.097069
-0.149337
-0.153540
-0.163147
-0.158048
-0.141366
-0.086505
-0.035137
0.001127
0.049812
0.095169
0.127633
0.148676
0.145430
0.130577
0.101378
0.059434
0.035404
-0.017680
-0.086394
-0.123614
-0.155163
-0.156921
-0.165214
-0.180022
-0.150156
-0.094543
-0.046650
0.013596
0.062773
0.103465
0.133614
0.138857
0.137492
0.141122
0.119717
0.086280
0.038291
-0.019362
-0.075649
-0.117772
-0.146089
-0.171278
-0.182842
-0.170118
-0.137150
-0.101035
-0.068033
-0.020880
0.046036
0.087763
0.122039
0.149050
0.147194
0.138072
0.121201
0.076606
0.041522
-0.010230
-0.074638
-0.116009
-0.142126
-0.171171
-0.170635
-0.166961
-0.153890
-0.116770
-0.086610
-0.032359
0.036960
0.087750
0.121028
0.138435
0.135451
0.125419
0.104230
0.082999
0.034986
-0.026768
-0.078942
-0.126066
-0.160730
-0.172775
-0.180444
-0.176698
-0.158389
-0.126138
-0.083574
-0.027702
0.019945
0.065729
0.103942
0.132622
0.136021
0.125922
0.104993
0.081355
0.029366
-0.026108
-0.069526
-0.119556
-0.164431
-0.178894
-0.191662
-0.181509
-0.161131
-0.128246
-0.084207
-0.035272
0.016150
0.055093
0.101837
0.120913
0.130766
0.134952
0.108953
0.069961
0.023521
-0.024631
-0.076132
-0.121545
-0.154691
-0.190221
-0.209356
-0.198540
-0.185025
-0.148246
-0.106563
-0.050617
0.003233
0.057741
0.064235
0.110547
0.134882
0.111324
0.110902
0.098301
0.057555
-0.006020
-0.058493
-0.115540
-0.147114
-0.177183
-0.189402
-0.183587
-0.155253
-0.124978
-0.090773
-0.037466
0.010299
0.045690
0.082085
0.109493
0.116307
0.108905
0.101407
0.070823
0.024988
-0.018389
-0.090764
-0.139719
-0.169765
-0.183221
-0.193615
-0.195177
-0.168799
-0.128275
-0.082889
-0.038284
0.002537
0.048608
0.083308
0.108790
0.115417
0.110310
0.097878
0.057949
0.019251
-0.038307
-0.085641
-0.120882
-0.163331
-0.184523
-0.197197
-0.195216
-0.178418
-0.142976
-0.101454
-0.050970
0.006993
0.049723
0.084631
0.104284
0.125846
0.125052
0.116708
0.088232
0.051846
-0.013470
-0.066622
-0.096440
-0.128412
-0.147700
-0.150691
-0.154126
-0.135144
-0.101601
-0.060525
-0.021803
0.029494
0.074673
0.119200
0.141556
0.154704
0.141910
0.118418
0.093665
0.053285
0.008818
-0.039401
-0.076396
-0.113032
-0.144793
-0.164052
-0.154136
-0.137324
-0.110023
-0.067201
-0.012569
0.042033
0.086188
0.112823
0.143266
0.161664
0.159572
0.140364
0.114829
0.078583
0.029231
-0.013455
-0.054314
-0.086413
-0.113859
-0.130015
-0.129773
-0.116244
-0.074962
-0.043982
0.000150
0.036716
0.063530
0.099118
0.125936
0.137949
0.134202
0.103448
0.072007
0.038554
-0.011502
-0.063707
-0.107370
-0.147684
-0.164624
-0.175250
-0.178832
-0.164815
-0.136710
-0.097548
-0.048017
0.005973
0.042069
0.074066
0.093425
0.106617
0.121365
0.105401
0.046987
0.009875
-0.026314
-0.071432
-0.119875
-0.164662
-0.179519
-0.180557
-0.179349
-0.157869
-0.136320
-0.094240
-0.057522
-0.020579
0.012882
0.044041
0.074934
0.079159
0.069579
0.043261
0.017930
-0.023326
-0.054447
-0.089382
-0.128220
-0.161581
-0.188021
-0.193797
-0.198043
-0.175840
-0.143648
-0.111392
-0.062027
-0.020755
0.015483
0.045327
0.066860
0.067631
0.068743
0.054574
0.018345
-0.026711
-0.077525
-0.116265
-0.142328
-0.189492
-0.207428
-0.195362
-0.183010
-0.160449
-0.123818
-0.098975
-0.064649
-0.031091
0.006802
0.045390
0.057804
0.062745
0.065185
0.042117
-0.002039
-0.032692
-0.070256
-0.117838
-0.146871
-0.177344
-0.190898
-0.198062
-0.191664
-0.184552
-0.151916
-0.115543
-0.065087
-0.031169
0.010451
0.037710
0.055817
0.062777
0.064476
0.055827
0.038195
0.002585
-0.020766
-0.055250
-0.081556
-0.088948
-0.098900
-0.082586
-0.066709
-0.034617
-0.006087
0.048529
0.106845
0.179953
0.242132
0.287285
0.338331
0.378512
0.395057
0.410148
0.409229
0.394353
0.388166
0.363372
0.340134
0.336391
0.379644
0.415369
0.461016
0.515969
0.591210
0.664377
0.721155
0.768337
0.796476
0.825917
0.830125
0.822375
0.792138
0.743174
0.674678
0.559589
0.457127
0.364817
0.279311
0.180542
0.111882
0.076746
0.047301
0.030267
0.051086
0.091226
0.120482
0.125284
0.149228
0.179645
0.182701
0.187849
0.166078
0.136192
0.108699
0.051019
-0.000205
-0.049009
-0.061790
-0.092908
-0.109347
-0.121870
-0.105107
-0.070987
-0.044484
-0.012392
0.029637
0.065905
0.100954
0.125517
0.140849
0.141172
0.126806
0.096995
0.048088
0.012871
-0.023471
-0.073102
-0.103438
-0.131318
-0.157500
-0.172279
-0.161204
-0.133838
-0.097800
-0.041465
-0.009686
0.044519
0.084491
0.102728
0.125423
0.119413
0.100333
0.084825
0.053782
0.000766
-0.043124
-0.085699
-0.130576
-0.152485
-0.162881
-0.172372
-0.161024
-0.135957
-0.102737
-0.044985
-0.012338
0.029476
0.073089
0.096435
0.123331
0.139502
0.128443
0.102368
0.068737
0.013086
-0.017675
-0.062443
-0.101077
-0.129247
-0.149325
-0.139589
-0.134774
-0.109828
-0.080093
-0.019332
0.026775
0.076444
0.114078
0.153506
0.156438
0.158211
0.148141
0.118242
0.093333
0.047508
-0.001068
-0.052991
-0.092678
-0.116181
-0.134040
-0.133878
-0.134530
-0.098909
-0.051638
0.000073
0.053597
0.098757
0.151397
0.178296
0.202671
0.202343
0.188292
0.161141
0.138136
0.085400
0.023130
-0.026714
-0.055834
-0.091309
-0.119376
-0.126962
-0.119262
-0.078863
-0.011219
0.052421
0.083326
0.118185
0.163945
0.210812
0.229650
0.235393
0.212028
0.191532
0.164352
0.113869
0.074776
0.040277
-0.016927
-0.051145
-0.069147
-0.081539
-0.067816
-0.036765
-0.003333
0.044995
0.091854
0.148372
0.201247
0.219992
0.248388
0.249256
0.252167
0.249354
0.208933
0.143845
0.085221
0.036476
0.001266
-0.027310
-0.052523
-0.067498
-0.062156
-0.038585
0.004572
0.070335
0.122709
0.163982
0.198485
0.231208
0.252410
0.245770
0.235674
0.223759
0.205718
0.144018
0.087528
0.038276
-0.000992
-0.028643
-0.058678
-0.065839
-0.054740
-0.033022
-0.013796
0.032156
0.088019
0.140221
0.180312
0.205398
0.232958
0.241370
0.226693
0.204346
0.165602
0.122726
0.094352
0.033351
-0.021539
-0.059133
-0.079487
-0.102292
-0.091620
-0.083687
-0.032327
0.007621
0.029887
0.076424
0.125486
0.143704
0.174131
0.207808
0.213442
0.181685
0.142720
0.090791
0.043569
-0.015542
-0.064517
-0.100590
-0.127157
-0.138306
-0.141256
-0.120580
-0.101581
-0.052746
-0.005963
0.042722
0.093314
0.135835
0.150369
0.157343
0.157092
0.125906
0.091559
0.047792
-0.000250
-0.057017
-0.099860
-0.137161
-0.158098
-0.172973
-0.171721
-0.142510
-0.115030
-0.075170
-0.043410
0.000226
0.048961
0.085212
0.112185
0.127180
0.124914
0.106427
0.078458
0.028901
-0.014472
-0.061226
-0.109896
-0.132319
-0.167187
-0.178221
-0.164946
-0.169080
-0.148493
-0.103635
-0.050826
-0.008991
0.053706
0.080668
0.108818
0.117108
0.103313
0.089694
0.072228
0.021656
-0.016579
-0.069626
-0.123661
-0.148378
-0.168940
-0.177806
-0.174967
-0.164416
-0.136266
-0.084950
-0.033184
0.010112
0.061538
0.100105
0.122236
0.108367
0.086805
0.081428
0.055107
0.025305
-0.024664
-0.062053
-0.105514
-0.123542
-0.144265
-0.158715
-0.166807
-0.143498
-0.120281
-0.073254
-0.015035
0.014470
0.047217
0.067650
0.084297
0.107546
0.091738
0.071440
0.041908
0.002962
-0.033197
-0.070344
-0.107395
-0.123665
-0.153669
-0.155371
-0.150270
-0.141423
-0.121145
-0.074407
-0.029495
0.020784
0.057950
0.078349
0.103960
0.114647
0.111222
0.089180
0.054607
0.008939
-0.035850
-0.081553
-0.116126
-0.133992
-0.150745
-0.158245
-0.156981
-0.128562
-0.112270
-0.074327
-0.032755
0.017666
0.059389
0.098836
0.102828
0.106633
0.092541
0.065522
0.041433
-0.000477
-0.041139
-0.082748
-0.111639
-0.126098
-0.145985
-0.147700
-0.154798
-0.133681
-0.103954
-0.063660
-0.023112
0.040864
0.066250
0.080955
0.097686
0.102366
0.086420
0.074903
0.038115
-0.011146
-0.049400
-0.110529
-0.140008
-0.157625
-0.171324
-0.175402
-0.151887
-0.131632
-0.112898
-0.067186
-0.027190
0.009885
0.052879
0.082827
0.093582
0.092168
0.089036
0.072739
0.027292
-0.010698
-0.055626
-0.104050
-0.154541
-0.177622
-0.184870
-0.194996
-0.192447
-0.161440
-0.114901
-0.070381
-0.016762
0.009795
0.061190
0.091739
0.102147
0.100559
0.082350
0.052676
0.021694
-0.017371
-0.076383
-0.110526
-0.147517
-0.174940
-0.192626
-0.193554
-0.185800
-0.165840
-0.131104
-0.085533
-0.043327
0.004384
0.037892
0.075695
0.088126
0.097325
0.091769
0.064013
0.026574
-0.021125
-0.067521
-0.116452
-0.150795
-0.178614
-0.191876
-0.199735
-0.190782
-0.169169
-0.132720
-0.081282
-0.039202
-0.011238
0.012660
0.050402
0.070453
0.086813
0.070667
0.048413
0.002016
-0.024422
-0.057442
-0.107591
-0.153222
-0.178702
-0.189329
-0.192882
-0.197899
-0.174160
-0.124322
-0.062780
-0.016895
0.023574
0.056532
0.083728
0.110345
0.116237
0.102762
0.086735
0.048525
-0.005885
-0.063224
-0.107280
-0.134085
-0.172977
-0.188689
-0.190986
-0.172445
-0.147345
-0.105936
-0.068112
-0.012213
0.027405
0.081494
0.126751
0.137921
0.134033
0.121358
0.089406
0.049485
0.018940
-0.045543
-0.095656
-0.120570
-0.144688
-0.168792
-0.165483
-0.168031
-0.142905
-0.103488
-0.061781
-0.011208
0.043226
0.097200
0.145956
0.159557
0.151981
0.136564
0.108386
0.072780
0.028442
-0.014486
-0.075864
-0.126235
-0.156010
-0.170313
-0.172695
-0.164519
-0.140941
-0.102811
-0.051456
-0.003085
0.045199
0.087738
0.116232
0.130295
0.125482
0.110006
0.081175
0.037127
-0.000857
-0.051572
-0.108462
-0.143128
-0.178590
-0.202480
-0.208954
-0.203728
-0.178522
-0.148619
-0.110522
-0.063627
-0.013234
0.035190
0.065926
0.076283
0.076995
0.066962
0.035476
-0.009712
-0.053394
-0.098043
-0.143782
-0.188757
-0.208977
-0.238320
-0.243654
-0.230928
-0.202125
-0.165153
-0.115918
-0.068879
-0.011551
0.028437
0.053324
0.074751
0.078108
0.061034
0.040480
0.003211
-0.041843
-0.102038
-0.152150
-0.197583
-0.219855
-0.248082
-0.256785
-0.254993
-0.230199
-0.184947
-0.138530
-0.086516
-0.029394
0.021150
0.058692
0.082005
0.088860
0.078218
0.054313
0.006195
-0.046404
-0.095091
-0.143595
-0.179818
-0.220641
-0.248087
-0.249671
-0.231354
-0.210426
-0.176571
-0.137078
-0.076747
-0.040931
0.012476
0.049234
0.071915
0.072268
0.067544
0.043287
-0.009540
-0.056892
-0.102350
-0.141346
-0.187737
-0.223404
-0.253709
-0.253226
-0.242567
-0.224367
-0.198551
-0.157506
-0.088032
-0.037038
0.019756
0.068742
0.102155
0.110870
0.123723
0.128031
0.100051
0.075679
0.029546
-0.012598
-0.059834
-0.079817
-0.076413
-0.062860
-0.032956
0.027728
0.088081
0.167769
0.247457
0.329032
0.402438
0.474321
0.525373
0.554245
0.567229
0.581377
0.576272
0.569572
0.542066
0.532810
0.523651
0.521214
0.530355
0.529752
0.540588
0.564774
0.585273
0.614135
0.650209
0.687285
0.711146
0.703195
0.641630
0.592129
0.535850
0.464630
0.366500
0.274913
0.196142
0.107951
0.027539
-0.042805
-0.100869
-0.121494
-0.134186
-0.124933
-0.090440
-0.035355
0.014927
0.053769
0.092966
0.149306
0.181163
0.180081
0.168934
0.137154
0.100321
0.053793
0.002405
-0.055894
-0.092714
-0.135932
-0.159585
-0.176382
-0.174975
-0.154773
-0.125213
-0.087306
-0.032138
-0.001342
0.038498
0.079564
0.124142
0.125798
0.119930
0.091462
0.057308
0.018502
-0.033992
-0.070513
-0.116398
-0.143091
-0.172621
-0.181993
-0.190494
-0.167647
-0.138187
-0.105169
-0.051449
0.002922
0.041001
0.072417
0.095532
0.094867
0.097776
0.079840
0.056543
0.026294
-0.021054
-0.064845
-0.118902
-0.156403
-0.170853
-0.175176
-0.170864
-0.151371
-0.124837
-0.087917
-0.049245
-0.019385
0.037515
0.078768
0.099196
0.112878
0.121131
0.105832
0.067279
0.025882
-0.017965
-0.055252
-0.087377
-0.121105
-0.142614
-0.152538
-0.145673
-0.131286
-0.096061
-0.067232
-0.007547
0.037127
0.084975
0.120480
0.147640
0.149903
0.146815
0.124583
0.088394
0.062323
0.017772
-0.020591
-0.066619
-0.104987
-0.128188
-0.135928
-0.118120
-0.094810
-0.065313
-0.031312
0.016477
0.049983
0.089665
0.123055
0.150248
0.165348
0.165418
0.148318
0.119899
0.072194
0.029559
-0.009199
-0.051462
-0.059360
-0.058097
-0.083344
-0.092895
-0.073818
-0.046893
-0.001809
0.043140
0.093037
0.132635
0.164228
0.188475
0.193109
0.177229
0.151475
0.139673
0.111649
0.062301
0.035430
0.000976
-0.048313
-0.066370
-0.072692
-0.051720
-0.037367
-0.002935
0.035537
0.079380
0.118468
0.158146
0.186403
0.204900
0.219520
0.218524
0.201459
0.175907
0.128194
0.081129
0.039985
0.002537
-0.021604
-0.041282
-0.044943
-0.039146
-0.024007
0.001202
0.033568
0.090840
0.128409
0.150644
0.200123
0.209629
0.212952
0.201395
0.174632
0.152332
0.102975
0.060564
0.013538
-0.020884
-0.054632
-0.069217
-0.084996
-0.080812
-0.058916
-0.021440
0.010259
0.047528
0.086822
0.131727
0.178724
0.189258
0.194322
0.180310
0.154480
0.117910
0.076360
0.028780
-0.015073
-0.045825
-0.072492
-0.098755
-0.113559
-0.104879
-0.078901
-0.059748
-0.023102
0.026132
0.074711
0.102675
0.128319
0.134559
0.130735
0.114170
0.086284
0.052204
0.013806
-0.033727
-0.075316
-0.095463
-0.128875
-0.136837
-0.139818
-0.141082
-0.107380
-0.082647
-0.042997
-0.000655
0.040615
0.075555
0.099326
0.111191
0.114381
0.101192
0.068463
0.023124
-0.008835
-0.045558
-0.062816
-0.091446
-0.154741
-0.193749
-0.196074
-0.177217
-0.141712
-0.096100
-0.054742
-0.013722
0.033305
0.072398
0.090162
0.102902
0.113058
0.103002
0.073558
0.026258
-0.025358
-0.064405
-0.106588
-0.150742
-0.182374
-0.201592
-0.197446
-0.188007
-0.155772
-0.126398
-0.087431
-0.032273
0.016090
0.057405
0.090839
0.093512
0.098170
0.099562
0.079585
0.037908
-0.002619
-0.059310
-0.110669
-0.160934
-0.179828
-0.188059
-0.193294
-0.171594
-0.150920
-0.122742
-0.077831
-0.023386
0.028030
0.072189
0.087414
0.117764
0.118454
0.099823
0.071386
0.042426
-0.005101
-0.055108
-0.097227
-0.137627
-0.171091
-0.180176
-0.190071
-0.178162
-0.148244
-0.116893
-0.064376
-0.015598
0.029542
0.064409
0.098710
0.126215
0.131945
0.115148
0.083193
0.033118
-0.002991
-0.047977
-0.098228
-0.134767
-0.159617
-0.173015
-0.186103
-0.169924
-0.148271
-0.110097
-0.065913
-0.008288
0.044215
0.080170
0.106596
0.121610
0.131699
0.117192
0.098691
0.059444
0.016343
-0.042259
-0.088480
-0.127579
-0.159454
-0.188057
-0.208978
-0.196965
-0.178690
-0.128774
-0.083794
-0.030984
0.036541
0.085890
0.104318
0.114751
0.116334
0.108236
0.088114
0.048669
0.014966
-0.034152
-0.092730
-0.132237
-0.169170
-0.197262
-0.209742
-0.195920
-0.178480
-0.141856
-0.098210
-0.040880
0.008719
0.052159
0.104398
0.114069
0.124507
0.116341
0.089240
0.058367
0.013482
-0.029747
-0.081663
-0.130643
-0.177015
-0.214091
-0.216436
-0.195424
-0.174781
-0.147115
-0.095399
-0.037414
0.013834
0.055471
0.099388
0.109148
0.116942
0.107163
0.091823
0.060041
0.015419
-0.036938
-0.089500
-0.134453
-0.174522
-0.196783
-0.202713
-0.201547
-0.187392
-0.161717
-0.130041
-0.076165
-0.027182
0.024748
0.066225
0.093395
0.094373
0.095347
0.101212
0.063563
0.015207
-0.043996
-0.096525
-0.134274
-0.169684
-0.204578
-0.221708
-0.217105
-0.195558
-0.143142
-0.091126
-0.051956
-0.007092
0.029619
0.062540
0.091401
0.095998
0.085609
0.074743
0.041787
-0.002306
-0.052778
-0.099601
-0.125135
-0.150283
-0.182809
-0.212451
-0.206944
-0.185028
-0.152618
-0.114966
-0.066073
-0.026742
0.010968
0.045723
0.071593
0.088663
0.099467
0.081750
0.039796
-0.007296
-0.041382
-0.082164
-0.127747
-0.173314
-0.193076
-0.205577
-0.196480
-0.180742
-0.147575
-0.110190
-0.062184
-0.017135
0.025673
0.055760
0.064548
0.077540
0.083432
0.073569
0.038936
0.005142
-0.035828
-0.098349
-0.124603
-0.148774
-0.170144
-0.179294
-0.177313
-0.163316
-0.131009
-0.092338
-0.053608
0.003543
0.049110
0.081121
0.119066
0.125417
0.112267
0.095695
0.062290
0.028575
-0.003092
-0.059184
-0.085055
-0.121150
-0.149383
-0.158447
-0.147774
-0.135003
-0.109238
-0.070135
-0.020403
0.020728
0.057782
0.081527
0.099626
0.102494
0.100202
0.083997
0.062366
0.034154
0.001279
-0.040329
-0.083174
-0.108851
-0.132684
-0.140134
-0.135570
-0.109939
-0.067164
-0.026537
-0.003063
0.040019
0.076131
0.106370
0.122142
0.118697
0.112762
0.090616
0.060208
0.019428
-0.020353
-0.072113
-0.114700
-0.158157
-0.183800
-0.185837
-0.169372
-0.163202
-0.127873
-0.088515
-0.031857
0.012666
0.032079
0.060757
0.094054
0.091905
0.069477
0.042995
0.012104
-0.029006
-0.080985
-0.133745
-0.165374
-0.197210
-0.215950
-0.217745
-0.215311
-0.190219
-0.145298
-0.094731
-0.051139
-0.014868
0.013159
0.036865
0.055053
0.073179
0.051659
0.030829
0.002709
-0.037820
-0.085514
-0.137700
-0.172156
-0.195042
-0.214530
-0.216464
-0.198098
-0.189251
-0.150878
-0.102565
-0.070315
-0.029720
0.014684
0.039252
0.061651
0.057371
0.042212
0.023105
-0.008035
-0.047370
-0.098893
-0.138997
-0.180566
-0.203913
-0.221765
-0.227993
-0.215591
-0.182753
-0.154793
-0.118646
-0.077623
-0.030437
0.006779
0.035999
0.057019
0.060983
0.056592
0.025307
-0.013385
-0.066884
-0.105167
-0.152144
-0.192380
-0.229507
-0.232604
-0.238141
-0.213033
-0.180047
-0.140298
-0.104716
-0.059436
-0.014607
0.006120
0.042450
0.049559
0.061817
0.049595
0.023527
-0.017615
-0.055377
-0.092491
-0.145983
-0.168799
-0.192297
-0.203580
-0.183584
-0.157315
-0.132030
-0.078546
-0.014459
0.051402
0.124759
0.158126
0.202259
0.228535
0.252978
0.267744
0.262590
0.258458
0.239028
0.228312
0.208977
0.210382
0.212914
0.223989
0.267328
0.309526
0.382609
0.474877
0.536887
0.599280
0.697507
0.788784
0.853619
0.906895
0.904781
0.873987
0.836681
0.796700
0.762617
0.693756
0.611044
0.539709
0.483022
0.401644
0.326999
0.276700
0.226922
0.218979
0.217698
0.216553
0.210962
0.229822
0.237581
0.247535
0.232213
0.230887
0.206380
0.155467
0.093960
0.033235
-0.042886
-0.093790
-0.125366
-0.135495
-0.131572
-0.120757
-0.092914
-0.069075
-0.019808
0.026962
0.077409
0.110985
0.136552
0.148940
0.151180
0.136790
0.102826
0.064356
0.016247
-0.037967
-0.082354
-0.121885
-0.161364
-0.195974
-0.194860
-0.183170
-0.146093
-0.109315
-0.073917
-0.025710
0.028006
0.071368
0.099773
0.124055
0.124016
0.109543
0.082714
0.041086
0.002545
-0.054831
-0.105524
-0.150038
-0.171153
-0.200094
-0.196791
-0.184349
-0.169213
-0.118931
-0.080848
-0.022907
0.040188
0.080609
0.109835
0.136644
0.129099
0.122691
0.094419
0.059576
0.013933
-0.030984
-0.079478
-0.125009
-0.168501
-0.182935
-0.182558
-0.180345
-0.159599
-0.119852
-0.073465
-0.002850
0.057303
0.101881
0.129813
0.144657
0.148142
0.142259
0.114074
0.080024
0.038543
-0.000395
-0.052679
-0.094973
-0.137996
-0.158848
-0.157279
-0.154712
-0.124432
-0.089137
-0.041191
0.005258
0.060909
0.107134
0.151231
0.166931
0.172333
0.162824
0.141297
0.106632
0.072137
0.015782
-0.039548
-0.084185
-0.120421
-0.143719
-0.140902
-0.133711
-0.103581
-0.059699
-0.009391
0.037056
0.096724
0.141776
0.180137
0.216055
0.227441
0.218259
0.195399
0.159414
0.105305
0.058134
0.011931
-0.033117
-0.069506
-0.088099
-0.096057
-0.090585
-0.064446
-0.024865
0.026592
0.069363
0.122731
0.169165
0.197211
0.233450
0.254165
0.254988
0.223644
0.183298
0.137634
0.080949
0.025597
-0.023799
-0.055059
-0.081851
-0.089041
-0.072915
-0.034892
-0.008745
0.031838
0.082337
0.129871
0.167671
0.207569
0.248770
0.258839
0.253227
0.242467
0.193169
0.149026
0.094132
0.038200
-0.014103
-0.053142
-0.081910
-0.076862
-0.066755
-0.037092
-0.025573
0.013404
0.066548
0.130810
0.179316
0.212480
0.227028
0.232939
0.228033
0.200805
0.165730
0.124168
0.075285
0.027688
-0.023139
-0.065748
-0.103057
-0.110764
-0.097428
-0.076772
-0.052132
-0.002455
0.036607
0.079444
0.121253
0.159418
0.187036
0.201035
0.198709
0.166362
0.131271
0.087277
0.044796
-0.008582
-0.061510
-0.102833
-0.133620
-0.136607
-0.120985
-0.117731
-0.096625
-0.061398
-0.020473
0.034259
0.080031
0.127388
0.154365
0.167038
0.152041
0.128469
0.090498
0.050539
0.004263
-0.046885
-0.092384
-0.133079
-0.162986
-0.176538
-0.177615
-0.159528
-0.130587
-0.091785
-0.049717
0.005701
0.052671
0.086068
0.107612
0.114537
0.109052
0.084844
0.056364
0.008991
-0.042792
-0.080162
-0.111951
-0.148811
-0.180617
-0.190581
-0.175730
-0.158412
-0.127855
-0.093873
-0.052083
-0.009262
0.029311
0.081890
0.106222
0.110397
0.113123
0.083363
0.044723
0.003450
-0.040493
-0.076122
-0.127233
-0.162186
-0.193444
-0.195328
-0.166438
-0.151425
-0.137388
-0.102794
-0.058604
-0.017356
0.028442
0.063858
0.093853
0.106780
0.102799
0.085516
0.058420
0.034657
-0.003332
-0.054461
-0.116193
-0.146953
-0.174035
-0.185586
-0.173917
-0.148183
-0.113686
-0.083545
-0.027881
0.014576
0.057388
0.092566
0.107441
0.111201
0.112452
0.093227
0.054277
0.018783
-0.031070
-0.076307
-0.111534
-0.149861
-0.160488
-0.163242
-0.174402
-0.146008
-0.098216
-0.065625
-0.029129
0.022581
0.064418
0.089506
0.109781
0.111252
0.105567
0.077997
0.050241
0.018698
-0.022523
-0.072972
-0.101861
-0.131917
-0.160020
-0.158033
-0.151569
-0.137814
-0.110141
-0.072068
-0.004062
0.028384
0.060409
0.085565
0.104171
0.109534
0.094805
0.073197
0.042593
0.006269
-0.036783
-0.078807
-0.121024
-0.164216
-0.172600
-0.187348
-0.169829
-0.143526
-0.110359
-0.067377
-0.023092
0.024678
0.060434
0.081808
0.089206
0.101995
0.114246
0.079544
0.040884
0.008209
-0.038398
-0.074875
-0.107936
-0.130449
-0.157853
-0.159965
-0.161296
-0.137601
-0.109965
-0.073137
-0.014592
0.031039
0.061968
0.115206
0.128097
0.120474
0.099186
0.083503
0.036909
-0.012591
-0.061514
-0.115697
-0.159816
-0.170070
-0.181237
-0.172994
-0.153853
-0.126956
-0.102179
-0.056991
-0.010391
0.023022
0.061342
0.083396
0.116151
0.100096
0.078824
0.053897
0.048908
-0.007732
-0.067534
-0.104187
-0.147364
-0.172326
-0.187746
-0.196758
-0.183416
-0.155932
-0.107684
-0.071551
-0.024470
0.024756
0.058972
0.091174
0.109958
0.105355
0.099248
0.059889
0.029214
-0.005637
-0.055324
-0.103306
-0.153808
-0.178625
-0.208072
-0.220441
-0.202719
-0.153930
-0.115399
-0.069881
-0.020365
0.010535
0.051640
0.087017
0.101033
0.105552
0.092662
0.065291
0.015488
-0.026624
-0.079510
-0.131403
-0.175520
-0.203381
-0.210240
-0.187932
-0.177255
-0.183122
-0.145788
-0.090652
-0.031597
0.025972
0.069338
0.088347
0.106034
0.107738
0.093567
0.055949
0.024492
-0.017600
-0.056472
-0.101157
-0.146880
-0.186077
-0.202302
-0.196466
-0.176275
-0.158527
-0.126501
-0.073607
-0.030221
0.031007
0.081315
0.113944
0.143232
0.150930
0.146674
0.109376
0.064124
0.018411
-0.035959
-0.062980
-0.105614
-0.138595
-0.164982
-0.190469
-0.175450
-0.153644
-0.111046
-0.060337
-0.015363
0.046505
0.106957
0.141641
0.168339
0.159606
0.153193
0.117248
0.077125
0.032754
-0.023499
-0.068669
-0.122828
-0.144932
-0.164096
-0.185050
-0.160158
-0.129561
-0.100856
-0.049428
0.013038
0.059564
0.120643
0.149609
0.162531
0.155337
0.154396
0.135248
0.114057
0.066360
0.005068
-0.044774
-0.104538
-0.150623
-0.169046
-0.174118
-0.170863
-0.147082
-0.113774
-0.073775
-0.024555
0.011063
0.063719
0.099060
0.123583
0.131572
0.116883
0.095899
0.063600
0.025265
-0.030914
-0.082440
-0.142127
-0.179066
-0.198152
-0.208242
-0.208822
-0.196155
-0.165082
-0.117690
-0.075488
-0.027246
0.028011
0.066892
0.087724
0.097906
0.102658
0.083529
0.044937
-0.009617
-0.069072
-0.106429
-0.138916
-0.183781
-0.217469
-0.233002
-0.227137
-0.216689
-0.170647
-0.126081
-0.079777
-0.029101
0.009979
0.047431
0.086559
0.085870
0.084166
0.064348
0.033161
-0.009377
-0.060630
-0.111857
-0.170776
-0.215814
-0.238865
-0.245714
-0.241542
-0.217079
-0.187669
-0.150166
-0.085789
-0.026344
0.017210
0.052496
0.086493
0.085043
0.080385
0.052547
0.039504
-0.017140
-0.070411
-0.115449
-0.158062
-0.194966
-0.223182
-0.240765
-0.237496
-0.217880
-0.184278
-0.142368
-0.090599
-0.040657
0.008242
0.043683
0.074698
0.080562
0.068550
0.050847
0.017570
-0.029095
-0.075176
-0.130260
-0.183689
-0.228870
-0.209887
-0.214991
-0.223003
-0.211305
-0.181560
-0.145078
-0.084207
-0.024517
0.023519
0.065956
0.093483
0.124783
0.150336
0.147625
0.111988
0.079052
0.054301
0.023162
-0.017261
-0.031676
-0.042122
-0.028027
-0.010574
0.045830
0.113446
0.207661
0.281592
0.360870
0.430883
0.504598
0.568296
0.611220
0.626816
0.639512
0.641103
0.655932
0.664749
0.655308
0.647918
0.659342
0.661651
0.630559
0.617249
0.650427
0.658594
0.673193
0.695042
0.718009
0.727925
0.705042
0.651058
0.593511
0.515935
0.451670
0.365207
0.263264
0.169775
0.088080
0.034690
0.018165
-0.000171
-0.005323
-0.017503
-0.025026
0.000744
0.028162
0.068677
0.097168
0.127007
0.149501
0.160122
0.167285
0.143079
0.128129
0.098616
0.060859
0.008751
-0.042933
-0.087855
-0.119937
-0.135051
-0.140773
-0.124042
-0.105864
-0.080665
-0.051492
-0.012835
0.034219
0.062082
0.093591
0.098749
0.110210
0.095500
0.082656
0.056158
0.017987
-0.030629
-0.077894
-0.116916
-0.146404
-0.159827
-0.181451
-0.160543
-0.138448
-0.101048
-0.070103
-0.019782
0.022143
0.050599
0.081264
0.095971
0.103703
0.097693
0.086970
0.050663
0.009605
-0.042670
-0.077718
-0.119216
-0.143681
-0.158073
-0.163059
-0.155669
-0.120669
-0.092286
-0.053372
-0.012255
0.028305
0.074589
0.101983
0.116187
0.125676
0.109158
0.091467
0.049186
0.011259
-0.024531
-0.069259
-0.105155
-0.135393
-0.152205
-0.157352
-0.144441
-0.122209
-0.086634
-0.051189
-0.011664
0.042804
0.093841
0.138789
0.154629
0.158952
0.149683
0.127607
0.087031
0.044170
-0.000480
-0.043095
-0.080536
-0.080800
-0.080155
-0.114708
-0.126429
-0.105035
-0.056503
-0.005996
0.045516
0.089993
0.132703
0.161450
0.184801
0.186732
0.172811
0.135248
0.105323
0.065568
0.014492
-0.015378
-0.054207
-0.084322
-0.104960
-0.110680
-0.077465
-0.048509
-0.019233
0.037569
0.088707
0.133861
0.178708
0.215492
0.225245
0.234651
0.209231
0.189121
0.145039
0.092557
0.048372
0.019801
-0.000973
-0.019703
-0.045605
-0.063226
-0.060569
-0.028231
0.007761
0.053275
0.102549
0.157226
0.206590
0.238666
0.253889
0.256956
0.237436
0.205850
0.167925
0.122273
0.065717
0.022033
-0.018742
-0.047123
-0.064393
-0.069695
-0.048220
-0.017957
0.013743
0.062092
0.107325
0.152716
0.191206
0.237915
0.254694
0.250267
0.230763
0.216128
0.179102
0.121415
0.073419
0.017701
-0.037784
-0.070792
-0.091330
-0.105295
-0.092199
-0.068272
-0.029773
0.016931
0.091263
0.133414
0.166058
0.200042
0.218384
0.213434
0.205420
0.191277
0.158668
0.105868
0.048156
-0.006209
-0.057744
-0.095014
-0.123400
-0.127933
-0.130099
-0.104423
-0.062539
-0.023526
0.022606
0.081483
0.127857
0.167149
0.188512
0.175463
0.160196
0.147765
0.102751
0.059557
0.010937
-0.045358
-0.095806
-0.145396
-0.171004
-0.183888
-0.174902
-0.156772
-0.118236
-0.075353
-0.021567
0.033014
0.088485
0.116967
0.131910
0.132202
0.133083
0.104003
0.071370
0.029492
-0.026604
-0.073842
-0.129041
-0.153680
-0.170582
-0.180264
-0.178779
-0.168948
-0.138863
-0.101706
-0.049856
0.004178
0.053084
0.079146
0.092105
0.115973
0.111375
0.099622
0.071814
0.016409
-0.039330
-0.091415
-0.121251
-0.168369
-0.184195
-0.184785
-0.189933
-0.182067
-0.135813
-0.099436
-0.051757
-0.004723
0.023814
0.062159
0.104493
0.125010
0.110467
0.087582
0.062051
0.019527
-0.024819
-0.062619
-0.113359
-0.159952
-0.171288
-0.174917
-0.173534
-0.165863
-0.135469
-0.084464
-0.037711
0.005066
0.045371
0.080218
0.109265
0.126946
0.114583
0.095682
0.062104
0.020769
-0.018603
-0.070671
-0.125118
-0.155556
-0.172016
-0.171944
-0.154690
-0.141938
-0.120715
-0.086648
-0.033657
0.003916
0.036777
0.078267
0.095677
0.108034
0.096721
0.066756
0.065047
0.039475
-0.000912
-0.050596
-0.097045
-0.141175
-0.165164
-0.182888
-0.168371
-0.152040
-0.125811
-0.083098
-0.026547
0.026454
0.045838
0.084459
0.112874
0.115356
0.104377
0.082231
0.058271
0.020061
-0.027030
-0.057495
-0.098167
-0.136486
-0.157991
-0.154618
-0.140558
-0.115711
-0.091494
-0.072522
-0.024022
0.024898
0.063089
0.098175
0.108239
0.109495
0.100789
0.085290
0.056283
0.021908
-0.027825
-0.065947
-0.110537
-0.149911
-0.169828
-0.165859
-0.155432
-0.133776
-0.101698
-0.070863
-0.036492
0.009564
0.054180
0.100490
0.114488
0.116704
0.104961
0.072673
0.036335
-0.017571
-0.050633
-0.080032
-0.125247
-0.175082
-0.174651
-0.173908
-0.159569
-0.135579
-0.104617
-0.066106
-0.021707
0.015779
0.058705
0.098249
0.093870
0.105401
0.099688
0.080080
0.043874
0.003446
-0.050266
-0.099447
-0.132711
-0.164100
-0.178248
-0.164001
-0.156426
-0.141100
-0.110605
-0.061467
-0.022209
0.010360
0.051064
0.086775
0.096053
0.084929
0.089547
0.059957
0.031956
-0.006470
-0.048862
-0.095016
-0.130549
-0.172617
-0.186025
-0.189668
-0.174172
-0.153377
-0.119563
-0.074845
-0.034155
0.007687
0.057358
0.088875
0.095784
0.092899
0.084038
0.059850
0.028650
-0.014974
-0.051037
-0.096344
-0.139090
-0.174283
-0.197182
-0.188309
-0.170937
-0.148247
-0.130337
-0.066694
-0.013898
0.014130
0.050779
0.080778
0.094743
0.094253
0.080413
0.054489
0.018317
-0.018271
-0.079534
-0.130470
-0.171111
-0.187697
-0.195381
-0.193034
-0.178860
-0.154368
-0.124841
-0.086557
-0.038999
0.012038
0.067521
0.098704
0.106616
0.106090
0.094762
0.068411
0.040485
-0.002741
-0.070153
-0.122024
-0.155953
-0.199888
-0.211515
-0.219255
-0.204248
-0.181492
-0.138000
-0.090510
-0.044595
0.015470
0.059325
0.102936
0.115071
0.111426
0.103075
0.073724
0.032928
-0.012248
-0.063445
-0.114373
-0.149897
-0.185900
-0.206365
-0.212578
-0.204827
-0.171390
-0.132386
-0.099609
-0.060285
-0.007159
0.050349
0.088796
0.102439
0.119322
0.116415
0.083137
0.042707
0.000465
-0.050540
-0.112313
-0.145297
-0.189683
-0.214518
-0.212183
-0.196515
-0.166746
-0.136707
-0.093743
-0.035501
0.022706
0.073244
0.121833
0.143758
0.149970
0.138494
0.114307
0.084971
0.038765
-0.004830
-0.065839
-0.115588
-0.149450
-0.171614
-0.182783
-0.175501
-0.160710
-0.116772
-0.069704
-0.026577
0.028675
0.070816
0.124473
0.172573
0.173831
0.153173
0.113867
0.081679
0.042933
-0.009280
-0.060984
-0.106068
-0.129427
-0.159361
-0.173236
-0.158038
-0.128976
-0.092373
-0.038719
0.007633
0.062650
0.110190
0.147661
0.163734
0.179116
0.168506
0.133520
0.098816
0.057228
-0.019513
-0.080368
-0.144989
-0.158416
-0.172369
-0.187280
-0.172577
-0.155255
-0.127111
-0.089709
-0.035763
0.006227
0.043345
0.080831
0.111668
0.118811
0.111297
0.094592
0.069942
0.019238
-0.031371
-0.084218
-0.139015
-0.185833
-0.198413
-0.222209
-0.221545
-0.195735
-0.167380
-0.129549
-0.073653
-0.023903
0.024360
0.072008
0.092822
0.094934
0.097788
0.081120
0.050417
-0.006523
-0.056363
-0.103596
-0.154808
-0.199512
-0.220865
-0.219171
-0.228470
-0.210496
-0.179777
-0.129216
-0.083652
-0.030857
0.017742
0.059990
0.069970
0.087988
0.086265
0.064488
0.027033
-0.012073
-0.065661
-0.109318
-0.148751
-0.187329
-0.209553
-0.240555
-0.236421
-0.215226
-0.176642
-0.142678
-0.086361
-0.031852
0.008859
0.055199
0.079590
0.074987
0.085502
0.066555
0.034173
-0.002300
-0.050605
-0.107617
-0.153131
-0.201286
-0.232900
-0.227681
-0.234280
-0.204597
-0.174202
-0.133771
-0.087130
-0.039043
0.020851
0.067699
0.083284
0.072027
0.065057
0.051143
0.024888
-0.025389
-0.070170
-0.112126
-0.151640
-0.205636
-0.226417
-0.233864
-0.224647
-0.204193
-0.165294
-0.118817
-0.052505
0.004827
0.049275
0.099248
0.136856
0.155005
0.173301
0.168676
0.150147
0.126249
0.100305
0.083271
0.051615
0.040984
0.038381
0.064877
0.104072
0.165199
0.238421
0.323462
0.402328
0.483424
0.559803
0.631111
0.687886
0.736250
0.787719
0.793998
0.795619
0.794017
0.777010
0.752804
0.707797
0.659746
0.659726
0.625706
0.608082
0.610177
0.606233
0.611506
0.601198
0.570777
0.543744
0.517224
0.478595
0.435170
0.380271
0.304033
0.253252
0.187702
0.135229
0.089855
0.042296
-0.007928
-0.040655
-0.063505
-0.061854
-0.048126
-0.025320
0.011193
0.049348
0.080996
0.119872
0.142811
0.168740
0.167859
0.146230
0.104093
0.087877
0.059749
0.025266
-0.019441
-0.069508
-0.114393
-0.126029
-0.137117
-0.134613
-0.122178
-0.086606
-0.060359
-0.014909
0.021701
0.062276
0.074367
0.089154
0.100199
0.100785
0.085708
0.045762
-0.000757
-0.027863
-0.069228
-0.100221
-0.131721
-0.151356
-0.155491
-0.158085
-0.136361
-0.103701
-0.063662
-0.026841
0.007776
0.047410
0.087335
0.110373
0.103318
0.086910
0.080390
0.049852
0.008946
-0.036106
-0.078617
-0.109900
-0.139104
-0.167071
-0.162120
-0.152514
-0.119861
-0.089870
-0.046397
-0.012644
0.042525
0.085139
0.095534
0.110219
0.127440
0.131072
0.096754
0.069051
0.033355
-0.023131
-0.071803
-0.109848
-0.126554
-0.146423
-0.145204
-0.140689
-0.118318
-0.078993
-0.031220
0.009009
0.057575
0.108141
0.128515
0.149156
0.152998
0.144985
0.122509
0.086256
0.042187
-0.003755
-0.041993
-0.068514
-0.100566
-0.124358
-0.129092
-0.124802
-0.084039
-0.053259
-0.006281
0.034706
0.078747
0.126817
0.166229
0.190782
0.198664
0.197491
0.163709
0.127606
0.077232
0.033065
-0.006341
-0.035346
-0.075489
-0.098542
-0.097858
-0.072252
-0.055055
-0.015208
0.024603
0.078196
0.129236
0.176087
0.206789
0.239238
0.231126
0.227702
0.200000
0.155694
0.106234
0.058463
0.024163
-0.022886
-0.050964
-0.082808
-0.068769
-0.052795
-0.038077
0.011120
0.058796
0.095440
0.148674
0.198427
0.231346
0.249868
0.254712
0.244680
0.209087
0.177317
0.124083
0.078261
0.032690
-0.015403
-0.044072
-0.063092
-0.060895
-0.051285
-0.023332
0.012445
0.054364
0.104546
0.152806
0.189257
0.227816
0.245647
0.246434
0.232413
0.201188
0.150706
0.099021
0.063962
0.011197
-0.032297
-0.057063
-0.077651
-0.091227
-0.086318
-0.063596
-0.021556
0.020447
0.065142
0.121715
0.166640
0.195324
0.222665
0.215242
0.211521
0.177368
0.136412
0.089307
0.047930
-0.019727
-0.067242
-0.098886
-0.124736
-0.139651
-0.133252
-0.112803
-0.069336
-0.002767
0.052137
0.082360
0.109713
0.142899
0.173825
0.181767
0.167178
0.146328
0.108808
0.049779
-0.002863
-0.059834
-0.108920
-0.138648
-0.171036
-0.169565
-0.175080
-0.156487
-0.124192
-0.070367
-0.016732
0.030836
0.064847
0.101550
0.127697
0.129433
0.120511
0.092778
0.064243
0.021705
-0.018960
-0.066785
-0.117269
-0.156247
-0.184321
-0.192366
-0.180029
-0.172813
-0.141971
-0.097400
-0.045758
-0.000108
0.049516
0.089535
0.113310
0.104860
0.104293
0.098852
0.074012
0.029743
-0.026868
-0.070956
-0.120795
-0.163240
-0.191761
-0.197443
-0.191032
-0.177114
-0.144547
-0.111977
-0.060330
-0.009990
0.043925
0.085566
0.113551
0.123609
0.119382
0.103102
0.083978
0.029790
-0.014142
-0.077480
-0.134685
-0.168826
-0.188330
-0.195779
-0.205584
-0.178861
-0.148354
-0.093404
-0.037669
0.007059
0.043183
0.068337
0.094906
0.116797
0.118824
0.103114
0.076076
0.046935
-0.000670
-0.058754
-0.112573
-0.153506
-0.164105
-0.167027
-0.173095
-0.161829
-0.127197
-0.095755
-0.051839
-0.000791
0.044193
0.091594
0.123437
0.126280
0.120464
0.091766
0.037955
0.001286
-0.010712
-0.044068
-0.091646
-0.127645
-0.157548
-0.174101
-0.178877
-0.158993
-0.125040
-0.079644
-0.035548
0.003367
0.050288
0.077533
0.109081
0.118365
0.119682
0.107232
0.070430
0.029187
-0.018364
-0.064592
-0.106729
-0.141854
-0.164589
-0.171970
-0.175448
-0.155727
-0.129139
-0.086280
-0.046714
-0.004911
0.038318
0.070958
0.100750
0.108216
0.116457
0.098455
0.072180
0.030356
-0.014359
-0.051780
-0.095744
-0.133044
-0.157970
-0.158324
-0.156439
-0.152165
-0.117890
-0.086937
-0.034060
0.013690
0.050627
0.089223
0.109683
0.110655
0.094202
0.084872
0.052392
0.012035
-0.040445
-0.081148
-0.122755
-0.151132
-0.185596
-0.186366
-0.183321
-0.154471
-0.108077
-0.077178
-0.040294
-0.001415
0.037324
0.061395
0.091076
0.100756
0.089303
0.066670
0.031894
-0.011609
-0.049262
-0.088328
-0.142976
-0.161756
-0.167992
-0.165057
-0.165689
-0.140949
-0.113772
-0.083926
-0.037856
-0.002928
0.042012
0.061982
0.080036
0.086802
0.081856
0.054807
0.019130
-0.027652
-0.044487
-0.068652
-0.115638
-0.166625
-0.193775
-0.184758
-0.162111
-0.139714
-0.107937
-0.084061
-0.037816
0.006875
0.056997
0.088453
0.102791
0.106950
0.097339
0.064264
0.027864
-0.011272
-0.065033
-0.102251
-0.146602
-0.173906
-0.192966
-0.192461
-0.190264
-0.175871
-0.139965
-0.084286
-0.036761
0.011406
0.044383
0.077226
0.087679
0.096416
0.090762
0.068265
0.012052
-0.018555
-0.066744
-0.115155
-0.154071
-0.182313
-0.210729
-0.228448
-0.224209
-0.181972
-0.126653
-0.071319
-0.024879
0.011472
0.049256
0.076721
0.093323
0.098747
0.097557
0.071447
0.027445
-0.024377
-0.073648
-0.120339
-0.165298
-0.190148
-0.218827
-0.217756
-0.208645
-0.172642
-0.132551
-0.099308
-0.061621
0.000829
0.041156
0.070776
0.089028
0.096147
0.104180
0.073444
0.016732
-0.037301
-0.074186
-0.126182
-0.166795
-0.197400
-0.224650
-0.232465
-0.224720
-0.202092
-0.151297
-0.103947
-0.048681
0.001238
0.052751
0.081459
0.100129
0.099621
0.090725
0.072406
0.028797
-0.009557
-0.066434
-0.109454
-0.149094
-0.176957
-0.207777
-0.223544
-0.212584
-0.176841
-0.137240
-0.097281
-0.048594
-0.002933
0.050964
0.089927
0.114470
0.122121
0.104674
0.090618
0.066562
0.019966
-0.044489
-0.100898
-0.154945
-0.190755
-0.195076
-0.181682
-0.165232
-0.143319
-0.105663
-0.069020
-0.017634
0.032299
0.079612
0.115203
0.126076
0.146626
0.142723
0.117395
0.083510
0.048626
-0.019944
-0.072533
-0.122327
-0.158153
-0.194446
-0.199630
-0.183161
-0.156628
-0.132345
-0.085963
-0.023634
0.030420
0.081530
0.107308
0.137373
0.143553
0.147799
0.131638
0.097310
0.045865
0.000620
-0.046781
-0.076914
-0.117726
-0.148247
-0.161822
-0.162479
-0.140798
-0.104304
-0.060469
-0.018193
0.026751
0.069113
0.099686
0.118621
0.128030
0.112828
0.093285
0.052098
0.022841
-0.034217
-0.091564
-0.132810
-0.169521
-0.196517
-0.206594
-0.178191
-0.171039
-0.146351
-0.103634
-0.066086
-0.024690
0.021286
0.055809
0.094551
0.102218
0.106084
0.076535
0.040744
-0.006428
-0.052516
-0.095607
-0.136406
-0.173702
-0.194599
-0.214299
-0.218724
-0.200361
-0.172419
-0.138886
-0.088241
-0.041518
-0.006573
0.024273
0.056869
0.075253
0.052877
0.043037
0.015436
-0.021058
-0.061768
-0.122802
-0.154605
-0.193955
-0.215467
-0.226830
-0.233086
-0.216849
-0.197325
-0.146075
-0.091785
-0.057557
-0.008912
0.030058
0.047643
0.047408
0.043638
0.048638
0.027890
-0.016305
-0.073656
-0.119737
-0.153271
-0.200033
-0.223566
-0.230308
-0.216047
-0.202657
-0.175949
-0.130075
-0.083184
-0.056570
-0.010300
0.026874
0.055488
0.067091
0.062705
0.044235
0.005372
-0.037757
-0.088138
-0.136735
-0.154226
-0.178541
-0.201564
-0.224704
-0.216920
-0.193501
-0.163572
-0.121899
-0.083988
-0.042741
-0.013213
0.014967
0.030227
0.039723
0.035257
0.025492
0.011279
-0.020410
-0.065422
-0.109519
-0.140558
-0.160589
-0.153864
-0.141259
-0.130563
-0.094699
-0.039526
0.015757
0.063493
0.118364
0.173250
0.217099
0.255750
0.309832
0.333465
0.340446
0.336307
0.343688
0.340594
0.324649
0.318821
0.325744
0.343406
0.367075
0.430334
0.494060
0.565831
0.631022
0.710667
0.783743
0.849302
0.889078
0.899377
0.912571
0.899198
0.838979
0.784540
0.728586
0.660154
0.577117
0.471204
0.376777
0.303787
0.239703
0.189821
0.147879
0.128445
0.133128
0.167935
0.187605
0.217977
0.244243
0.249840
0.238205
0.214964
0.188010
0.134856
0.073505
0.021930
-0.028816
-0.071475
-0.099959
-0.119699
-0.127504
-0.117912
-0.098167
-0.062173
-0.036106
0.011186
0.054533
0.092871
0.127740
0.136529
0.141834
0.132739
0.106941
0.056406
0.010458
-0.036684
-0.083544
-0.126506
-0.155725
-0.172441
-0.183620
-0.166163
-0.152037
-0.117952
-0.068625
-0.027781
0.027654
0.062178
0.099528
0.115451
0.121092
0.111010
0.087579
0.049693
-0.006005
-0.059359
-0.108142
-0.147512
-0.180107
-0.204170
-0.220296
-0.212534
-0.154008
-0.092286
-0.031970
-0.003945
0.016985
0.057823
0.098442
0.134661
0.144208
0.119532
0.090998
0.047161
0.000652
-0.046052
-0.084751
-0.118790
-0.158344
-0.177509
-0.201590
-0.184110
-0.131249
-0.094737
-0.057166
0.001531
0.053395
0.094712
0.123740
0.141790
0.158171
0.151456
0.118171
0.088828
0.043135
-0.007360
-0.056924
-0.108517
-0.142947
-0.172492
-0.171672
-0.152498
-0.132205
-0.099192
-0.048370
0.017861
0.058950
0.103804
0.142067
0.171829
0.193696
0.172223
0.144655
0.115637
0.066816
0.022461
-0.017808
-0.067145
-0.094899
-0.117965
-0.143397
-0.137734
-0.117512
-0.071073
-0.010293
0.041400
0.086963
0.136818
0.180016
0.200701
0.210182
0.208091
0.184161
0.162331
0.125144
0.068405
0.022564
-0.021155
-0.063296
-0.080676
-0.098073
-0.103757
-0.077868
-0.048622
0.015977
0.061783
0.112196
0.158136
0.192653
0.219359
0.239549
0.233405
0.221337
0.186465
0.152721
0.100525
0.038581
0.001917
-0.032578
-0.063777
-0.074717
-0.080452
-0.061193
-0.019728
0.021325
0.069701
0.113483
0.156142
0.192399
0.213040
0.220074
0.223758
0.219901
0.200320
0.164710
0.113751
0.062945
0.008882
-0.028070
-0.050536
-0.064603
-0.068555
-0.063617
-0.033770
0.015097
0.057863
0.097263
0.142722
0.171142
0.202216
0.224133
0.207142
0.189649
0.158628
0.113512
0.073074
0.020754
-0.025943
-0.079217
-0.093231
-0.104350
-0.092011
-0.073743
-0.060434
-0.011124
0.029780
0.074376
0.106181
0.134166
0.157254
0.174420
0.177586
0.151985
0.116138
0.081015
0.030175
-0.015207
-0.062345
-0.103799
-0.123437
-0.128505
-0.135064
-0.127918
-0.095991
-0.051312
-0.018775
0.025077
0.064589
0.090523
0.110802
0.136738
0.123137
0.104874
0.073097
0.029710
-0.023709
-0.056455
-0.095975
-0.144381
-0.156288
-0.167171
-0.161878
-0.151922
-0.118700
-0.077578
-0.045236
0.004393
0.041485
0.061341
0.080387
0.103094
0.095066
0.069947
0.045260
0.001390
-0.041236
-0.082583
-0.122160
-0.158097
-0.177177
-0.195822
-0.183057
-0.168733
-0.138651
-0.086227
-0.041208
-0.004654
0.032719
0.061185
0.065399
0.067640
0.063712
0.052853
0.037263
0.013606
-0.023981
-0.064395
-0.113220
-0.152679
-0.179570
-0.188174
-0.178151
-0.153899
-0.122069
-0.072382
-0.039765
-0.001144
0.037498
0.065613
0.080685
0.101326
0.081336
0.047760
0.020006
-0.019365
-0.049805
-0.095472
-0.124134
-0.150815
-0.182667
-0.192306
-0.177857
-0.153252
-0.123305
-0.085157
-0.018254
0.025960
0.049567
0.060828
0.082517
0.089036
0.087510
0.053660
0.032561
-0.018352
-0.058936
-0.097964
-0.137597
-0.168594
-0.191936
-0.186524
-0.168782
-0.142629
-0.114885
-0.064197
-0.017674
0.024172
0.062443
0.076532
0.099348
0.113525
0.102541
0.086074
0.048403
-0.001720
-0.053198
-0.105026
-0.139152
-0.170532
-0.190805
-0.192274
-0.173352
-0.142535
-0.120144
-0.068957
-0.017737
0.035523
0.070251
0.098720
0.113906
0.115158
0.108881
0.078289
0.046707
0.003483
-0.046672
-0.097649
-0.127664
-0.156914
-0.174865
-0.183252
-0.168158
-0.153143
-0.122243
-0.072349
-0.017331
0.027150
0.057538
0.086432
0.095835
0.106949
0.100483
0.069945
0.035619
-0.003589
-0.046104
-0.094702
-0.142924
-0.173363
-0.195008
-0.192258
-0.189048
-0.166305
-0.128785
-0.080995
-0.040820
0.005815
0.071030
0.099772
0.100170
0.102359
0.090403
0.064671
0.027377
-0.022945
-0.068877
-0.107352
-0.149527
-0.181629
-0.201729
-0.188573
-0.177346
-0.172402
-0.139146
-0.088166
-0.041164
-0.002425
0.037265
0.069735
0.096164
0.102796
0.100892
0.073700
0.037231
-0.020621
-0.073446
-0.123934
-0.155503
-0.184352
-0.200330
-0.206774
-0.214607
-0.193414
-0.137442
-0.087772
-0.041659
0.003095
0.040588
0.073345
0.101583
0.108215
0.111070
0.080160
0.022781
-0.034539
-0.066231
-0.118237
-0.166406
-0.197649
-0.211325
-0.219790
-0.214466
-0.189398
-0.151500
-0.107133
-0.053260
-0.005593
0.042562
0.074331
0.099146
0.107876
0.095959
0.077591
0.037775
-0.005024
-0.067307
-0.119792
-0.164084
-0.196107
-0.219013
-0.230955
-0.222212
-0.192678
-0.155990
-0.106810
-0.063541
-0.014183
0.030824
0.061231
0.080135
0.091068
0.100587
0.066185
0.030713
-0.021007
-0.061302
-0.112751
-0.161842
-0.199807
-0.233036
-0.240566
-0.234542
-0.209079
-0.159253
-0.102357
-0.046414
-0.001344
0.027960
0.064593
0.079808
0.088245
0.084337
0.064918
0.023827
-0.025735
-0.069600
-0.120282
-0.166988
-0.191751
-0.202006
-0.210897
-0.222387
-0.212740
-0.182354
-0.127120
-0.079244
-0.026214
0.031093
0.081807
0.095723
0.097103
0.103435
0.078771
0.043978
-0.006495
-0.055762
-0.115061
-0.162075
-0.184329
-0.199514
-0.231538
-0.234976
-0.212164
-0.164857
-0.116427
-0.068893
-0.017001
0.024427
0.059030
0.082761
0.093744
0.099973
0.073266
0.038313
-0.002504
-0.058008
-0.107855
-0.156384
-0.205286
-0.234149
-0.250859
-0.239323
-0.220546
-0.187783
-0.138016
-0.079439
-0.031970
0.015789
0.063126
0.101956
0.120687
0.113795
0.086769
0.057697
0.012599
-0.022214
-0.070518
-0.119300
-0.159042
-0.190830
-0.209807
-0.200833
-0.169701
-0.133527
-0.095445
-0.048113
0.004920
0.047735
0.088411
0.115461
0.122786
0.114185
0.094860
0.066774
0.031247
-0.015773
-0.076004
-0.117236
-0.149818
-0.178096
-0.190304
-0.190606
-0.166291
-0.137826
-0.087163
-0.025094
0.028620
0.073857
0.107472
0.128493
0.144545
0.157728
0.139685
0.105544
0.052181
0.010556
-0.027658
-0.072815
-0.114576
-0.152811
-0.172057
-0.169021
-0.150126
-0.119928
-0.091259
-0.042624
0.005704
0.044932
0.072013
0.090804
0.093477
0.095888
0.101146
0.072907
0.015495
-0.037314
-0.085647
-0.124829
-0.162806
-0.180697
-0.203067
-0.220050
-0.186539
-0.148509
-0.112935
-0.071097
-0.035834
0.015267
0.037472
0.065739
0.085018
0.080771
0.071550
0.039754
-0.016960
-0.066847
-0.110072
-0.157338
-0.187320
-0.213451
-0.227498
-0.225738
-0.215756
-0.182040
-0.146030
-0.091154
-0.048224
-0.011149
0.023238
0.040784
0.046764
0.040432
0.016507
-0.007706
-0.035106
-0.081469
-0.138124
-0.171310
-0.191576
-0.215128
-0.232218
-0.232831
-0.216064
-0.181500
-0.146431
-0.084276
-0.041193
-0.006577
0.027321
0.047275
0.045611
0.035743
0.018981
-0.004672
-0.039607
-0.093557
-0.140876
-0.176771
-0.201543
-0.215311
-0.210923
-0.200046
-0.188355
-0.180855
-0.137212
-0.087154
-0.052888
-0.013443
0.007908
0.036180
0.050645
0.054210
0.021115
-0.009095
-0.047038
-0.095326
-0.129687
-0.162976
-0.192657
-0.220421
-0.223451
-0.217679
-0.201941
-0.164109
-0.121749
-0.078251
-0.052606
-0.017633
0.017561
0.036081
0.034069
0.032773
0.023883
-0.005527
-0.035263
-0.070258
-0.088073
-0.129502
-0.145152
-0.151494
-0.135065
-0.121119
-0.078499
-0.033636
0.011977
0.059612
0.115824
0.180459
0.233763
0.292996
0.328319
0.345475
0.341077
0.338138
0.331359
0.313941
0.290301
0.290664
0.284283
0.288107
0.320823
0.372359
0.435980
0.512573
0.586630
0.685852
0.760781
0.804168
0.828551
0.836038
0.839676
0.824646
0.788672
0.740485
0.654639
0.566612
0.451463
0.351717
0.258964
0.174393
0.128248
0.088097
0.075683
0.056274
0.052056
0.077745
0.121432
0.142327
0.174193
0.193881
0.194775
0.178817
0.141490
0.101852
0.038317
-0.016413
-0.055031
-0.090545
-0.127178
-0.140873
-0.152680
-0.147260
-0.118734
-0.089991
-0.053504
0.003037
0.041786
0.084399
0.112144
0.120124
0.125399
0.117204
0.082937
0.050109
0.022133
-0.035636
-0.096326
-0.146031
-0.190812
-0.212151
-0.210877
-0.184127
-0.165653
-0.117211
-0.061961
-0.009133
0.017757
0.059027
0.088304
0.108638
0.121492
0.109604
0.094805
0.054103
0.004398
-0.049813
-0.094499
-0.140448
-0.183349
-0.202197
-0.205862
-0.205070
-0.171008
-0.135214
-0.102647
-0.049204
0.010317
0.057507
0.086573
0.105844
0.120021
0.113208
0.081307
0.057715
0.000555
-0.043333
-0.079174
-0.127327
-0.177308
-0.190476
-0.186944
-0.183447
-0.167954
-0.132485
-0.089090
-0.042219
0.027724
0.082896
0.130134
0.147696
0.148745
0.134162
0.114458
0.089549
0.045504
-0.001201
-0.051848
-0.095051
-0.135997
-0.163760
-0.181108
-0.178778
-0.151631
-0.112356
-0.067298
-0.023003
0.032885
0.082314
0.132558
0.168260
0.169484
0.164197
0.153004
0.115156
0.064893
0.014710
-0.025467
-0.071500
-0.104395
-0.126468
-0.134602
-0.139997
-0.115386
-0.072671
-0.025844
0.031346
0.083465
0.121795
0.157798
0.185973
0.200472
0.198191
0.174700
0.145178
0.106267
0.058497
0.012255
-0.033339
-0.073256
-0.099770
-0.113756
-0.100578
-0.073160
-0.036747
0.004051
0.055943
0.103466
0.152015
0.195468
0.226847
0.232113
0.222895
0.202345
0.169526
0.127602
0.076816
0.031976
-0.016207
-0.053393
-0.064024
-0.083528
-0.081826
-0.065157
-0.024262
0.007021
0.068321
0.113042
0.153380
0.185555
0.201213
0.217146
0.212999
0.196833
0.168590
0.120799
0.076411
0.034547
-0.028549
-0.065373
-0.092206
-0.098740
-0.088316
-0.065565
-0.041596
-0.003761
0.048447
0.096818
0.138019
0.174553
0.201722
0.214677
0.215578
0.196408
0.164151
0.114462
0.073322
0.028006
-0.014600
-0.069940
-0.104892
-0.107762
-0.102587
-0.084771
-0.056015
-0.016912
0.022910
0.059622
0.109340
0.129391
0.148644
0.160790
0.150741
0.131623
0.106608
0.062881
0.019006
-0.024691
-0.070483
-0.101574
-0.123920
-0.140620
-0.140368
-0.127024
-0.100114
-0.074612
-0.037732
0.000638
0.047055
0.081579
0.100882
0.105151
0.097740
0.090465
0.064223
0.022993
-0.026903
-0.068837
-0.110577
-0.144576
-0.162723
-0.174754
-0.178135
-0.166715
-0.135893
-0.093900
-0.053629
-0.019912
0.012521
0.020219
0.038393
0.065558
0.074471
0.065122
0.035964
0.001739
-0.051427
-0.097065
-0.137272
-0.159340
-0.180638
-0.195625
-0.187873
-0.177876
-0.155503
-0.104679
-0.065173
-0.012622
0.029189
0.052602
0.066094
0.068674
0.055888
0.031908
0.020678
-0.030621
-0.078393
-0.127109
-0.169353
-0.170726
-0.203817
-0.235209
-0.228714
-0.190308
-0.147903
-0.099352
-0.049728
0.000255
0.047422
0.071448
0.081436
0.086222
0.066480
0.050273
0.009733
-0.023108
-0.070410
-0.116343
-0.154267
-0.180938
-0.183891
-0.190117
-0.193175
-0.183837
-0.146768
-0.103579
-0.051883
0.001261
0.048670
0.072014
0.080522
0.083481
0.065317
0.041140
0.007808
-0.024353
-0.055113
-0.096734
-0.146726
-0.178737
-0.192531
-0.195892
-0.185078
-0.167467
-0.126041
-0.087719
-0.037451
0.004948
0.037899
0.064020
0.079550
0.088772
0.077306
0.063283
0.035398
-0.015525
-0.067822
-0.109962
-0.152079
-0.179946
-0.202431
-0.202444
-0.182541
-0.171915
-0.140225
-0.092320
-0.040076
0.011006
0.048760
0.074032
0.096745
0.093095
0.086231
0.058184
0.028714
-0.026759
-0.073407
-0.126280
-0.171607
-0.194741
-0.198378
-0.205199
-0.192436
-0.173343
-0.134181
-0.081818
-0.047790
-0.001991
0.035973
0.059584
0.098266
0.104706
0.087964
0.071761
0.036487
-0.017456
-0.066682
-0.124041
-0.153506
-0.180770
-0.198715
-0.199831
-0.203566
-0.186937
-0.144576
-0.102205
-0.058168
-0.010083
0.043621
0.076792
0.092251
0.089888
0.087734
0.059685
0.019403
-0.021383
-0.067098
-0.124042
-0.172252
-0.213449
-0.230753
-0.228243
-0.204427
-0.190050
-0.155673
-0.111115
-0.068336
-0.005207
0.029130
0.056562
0.084476
0.088269
0.070774
0.046634
0.009080
-0.025205
-0.081358
-0.132349
-0.178870
-0.204736
-0.229007
-0.239359
-0.221185
-0.201599
-0.156731
-0.116348
-0.072592
-0.017491
0.027754
0.047679
0.078453
0.090325
0.083876
0.052105
0.023516
-0.020839
-0.085381
-0.135606
-0.171272
-0.210857
-0.237631
-0.246856
-0.237503
-0.203530
-0.166675
-0.135599
-0.076964
-0.019013
0.020948
0.059719
0.084290
0.104047
0.084946
0.063909
0.023856
-0.025205
-0.081387
-0.137402
-0.182944
-0.216197
-0.248326
-0.264010
-0.230588
-0.224630
-0.186735
-0.153519
-0.107035
-0.025193
0.051772
0.084622
0.075509
0.086357
0.079665
0.064790
0.023951
-0.023971
-0.080297
-0.136472
-0.184545
-0.208253
-0.219173
-0.255070
-0.272195
-0.232794
-0.196441
-0.140600
-0.083346
-0.031961
0.002801
0.044950
0.090060
0.089795
0.080632
0.067166
0.022880
-0.018529
-0.070172
-0.125471
-0.177724
-0.197803
-0.240284
-0.252286
-0.249957
-0.219593
-0.200153
-0.146782
-0.101108
-0.025674
0.025361
0.062353
0.096207
0.090302
0.091641
0.056761
0.033683
-0.004576
-0.042135
-0.089635
-0.146278
-0.189624
-0.199872
-0.219242
-0.213305
-0.200286
-0.164481
-0.118720
-0.071934
-0.022203
0.036068
0.072389
0.106266
0.107951
0.066251
0.079031
0.055536
0.020999
-0.008906
-0.061852
-0.117459
-0.161446
-0.188551
-0.200304
-0.203427
-0.191942
-0.158317
-0.103806
-0.070107
-0.017272
0.045790
0.075660
0.098745
0.115205
0.115917
0.104420
0.069371
0.026222
-0.018769
-0.070607
-0.107210
-0.151712
-0.173485
-0.163338
-0.166072
-0.167610
-0.148893
-0.104768
-0.055177
0.005309
0.048112
0.081360
0.091151
0.114334
0.116650
0.089281
0.050414
-0.000430
-0.036384
-0.090096
-0.135058
-0.155532
-0.187904
-0.198009
-0.192566
-0.211785
-0.169878
-0.113596
-0.077519
-0.053649
-0.001403
0.027520
0.060412
0.073930
0.052878
0.034128
0.003871
-0.049989
-0.084449
-0.131517
-0.178210
-0.206348
-0.225180
-0.230413
-0.229948
-0.225248
-0.193703
-0.139107
-0.098293
-0.032910
-0.018075
0.003770
0.030155
0.039050
0.033052
0.011749
-0.026412
-0.063010
-0.098714
-0.149334
-0.183498
-0.218750
-0.238422
-0.238359
-0.216773
-0.196825
-0.180945
-0.163063
-0.116710
-0.070414
-0.024426
-0.000260
0.015050
0.038033
0.025152
-0.011837
-0.029641
-0.069985
-0.115873
-0.156155
-0.206933
-0.234462
-0.268551
-0.259763
-0.245996
-0.222127
-0.183667
-0.120624
-0.078453
-0.053747
-0.031417
0.030879
0.051576
0.040318
0.020150
0.024877
-0.017501
-0.071531
-0.105246
-0.151252
-0.193472
-0.231186
-0.252173
-0.258435
-0.239975
-0.222108
-0.189245
-0.150552
-0.100053
-0.061375
-0.020347
0.005966
0.031720
0.041772
0.034997
0.005959
-0.031371
-0.048463
-0.085522
-0.128246
-0.150928
-0.170772
-0.160621
-0.148501
-0.132062
-0.111908
-0.060872
0.013445
0.045916
0.106462
0.177247
0.246988
0.300732
0.344857
0.353395
0.360102
0.361068
0.337256
0.310102
0.287592
0.276732
0.262495
0.273194
0.305210
0.359593
0.439746
0.495057
0.546775
0.657499
0.730669
0.775011
0.813978
0.826809
0.821013
0.815018
0.789017
0.722105
0.636621
0.505316
0.381589
0.289574
0.194229
0.143674
0.088558
0.047294
0.022023
0.009059
0.032216
0.055680
0.073868
0.118920
0.155385
0.161763
0.174125
0.159666
0.122314
0.087120
0.042944
0.015318
-0.041302
-0.103020
-0.158966
-0.168475
-0.170383
-0.165810
-0.150260
-0.144659
-0.098672
-0.047442
-0.002063
0.050748
0.094131
0.110000
0.144681
0.122884
0.069798
0.038747
0.009027
-0.045546
-0.096053
-0.137385
-0.172391
-0.207567
-0.220530
-0.224281
-0.204007
-0.166858
-0.121477
-0.056327
-0.001465
0.044589
0.074228
0.090383
0.099675
0.093622
0.063522
0.030077
-0.016763
-0.050063
-0.076374
-0.107470
-0.174202
-0.207090
-0.231404
-0.227208
-0.188995
-0.163369
-0.123047
-0.077198
-0.032190
0.022433
0.061879
0.115784
0.123782
0.113412
0.084568
0.052924
0.006791
-0.048822
-0.088979
-0.126489
-0.179279
-0.195603
-0.200514
-0.188712
-0.178708
-0.147917
-0.082136
-0.056381
-0.025756
0.022514
0.077276
0.110898
0.136095
0.114141
0.087481
0.069725
0.041905
-0.004428
-0.065418
-0.106094
-0.135127
-0.160174
-0.168920
-0.171908
-0.138100
-0.106920
-0.074482
-0.044393
-0.004136
0.061124
0.105590
0.136556
0.146433
0.129233
0.116414
0.096143
0.075608
0.024846
-0.028227
-0.072102
-0.104679
-0.123031
-0.114192
-0.123692
-0.111827
-0.089266
-0.039957
0.023631
0.048980
0.098159
0.134399
0.149277
0.163451
0.158714
0.138503
0.105343
0.082031
0.047930
-0.005454
-0.042244
-0.066638
-0.074612
-0.078764
-0.064467
-0.051675
-0.007101
0.024139
0.059991
0.083943
0.133115
0.168643
0.185450
0.185531
0.174238
0.158871
0.144023
0.106610
0.071491
0.020113
-0.042299
-0.075621
-0.078880
-0.073479
-0.053975
-0.041236
-0.040573
0.020688
0.079940
0.104843
0.153545
0.190784
0.189436
0.179690
0.182219
0.167672
0.152309
0.097830
0.040737
-0.015779
-0.052307
-0.087224
-0.101444
-0.067107
-0.082460
-0.073064
-0.041318
0.001039
0.040628
0.081039
0.130670
0.173848
0.198241
0.185767
0.165138
0.133160
0.110643
0.059567
0.005325
-0.051628
-0.091069
-0.113603
-0.123885
-0.124473
-0.113305
-0.085104
-0.061098
-0.020439
0.021673
0.097054
0.130161
0.140762
0.135076
0.142870
0.131790
0.106082
0.085415
0.027352
-0.034396
-0.071474
-0.125564
-0.165156
-0.180675
-0.186458
-0.178099
-0.159621
-0.123273
-0.074008
-0.018558
0.012300
0.050795
0.089758
0.105356
0.110127
0.094488
0.065905
0.043779
0.010418
-0.043363
-0.119549
-0.151100
-0.171852
-0.211295
-0.238261
-0.225743
-0.194684
-0.176608
-0.128511
-0.060000
-0.018450
0.032417
0.067971
0.085360
0.082459
0.052519
0.042646
0.021157
-0.011405
-0.067245
-0.133740
-0.178415
-0.224194
-0.250957
-0.247622
-0.243101
-0.197541
-0.161838
-0.135927
-0.089968
-0.043326
0.012250
0.050793
0.067796
0.082005
0.055199
0.033612
0.031767
-0.010707
-0.071850
-0.133689
-0.178392
-0.198026
-0.216441
-0.226512
-0.226923
-0.217537
-0.188285
-0.143652
-0.102583
-0.043856
0.015910
0.042099
0.061066
0.082109
0.069492
0.043848
0.016463
-0.018769
-0.060944
-0.105606
-0.161028
-0.202912
-0.228868
-0.228852
-0.222045
-0.211984
-0.187598
-0.157539
-0.105490
-0.038486
0.018841
0.033470
0.055971
0.052550
0.062425
0.056304
0.025780
-0.003789
-0.038355
-0.082153
-0.137337
-0.183162
-0.212666
-0.219403
-0.211554
-0.204461
-0.176434
-0.128748
-0.079599
-0.032177
0.018764
0.045731
0.069138
0.090953
0.078666
0.052621
0.038446
-0.002004
-0.045617
-0.094814
-0.133371
-0.179510
-0.202608
-0.205198
-0.212313
-0.202076
-0.177094
-0.141498
-0.089566
-0.041134
0.000385
0.031949
0.057636
0.070728
0.052027
0.033803
0.011045
-0.013681
-0.071100
-0.116424
-0.153563
-0.186056
-0.199023
-0.201084
-0.195113
-0.170136
-0.144439
-0.129364
-0.093686
-0.038762
0.004967
0.031585
0.051181
0.057846
0.055318
0.045666
0.029554
-0.009704
-0.067787
-0.109587
-0.155554
-0.188903
-0.217030
-0.215805
-0.204320
-0.194107
-0.169776
-0.114121
-0.065753
-0.040667
0.005447
0.031840
0.056806
0.049690
0.048531
0.053253
0.005490
-0.033709
-0.090793
-0.135566
-0.176163
-0.194928
-0.211380
-0.218143
-0.201696
-0.178953
-0.156630
-0.115747
-0.083524
-0.050974
-0.013934
0.029890
0.048823
0.049679
0.027427
0.009059
-0.006026
-0.059884
-0.099599
-0.147659
-0.186424
-0.221441
-0.238729
-0.214134
-0.201520
-0.187204
-0.154197
-0.122893
-0.079182
-0.034108
0.001855
0.039476
0.058258
0.049129
0.034732
0.005978
-0.013732
-0.073386
-0.109000
-0.147632
-0.208405
-0.236770
-0.256766
-0.269785
-0.243767
-0.204765
-0.167138
-0.115528
-0.064686
-0.020963
0.018884
0.032918
0.067046
0.084140
0.071060
0.040388
0.002551
-0.047938
-0.112151
-0.162254
-0.209448
-0.234420
-0.259114
-0.248748
-0.235124
-0.227207
-0.188392
-0.144756
-0.085822
-0.035681
0.019994
0.060720
0.076238
0.088854
0.068773
0.045718
0.016046
-0.045447
-0.091069
-0.132328
-0.180571
-0.219999
-0.248389
-0.270169
-0.222014
-0.200075
-0.167972
-0.128516
-0.088790
-0.020506
0.020392
0.053158
0.087658
0.102444
0.089812
0.063401
0.044255
-0.003924
-0.058615
-0.108478
-0.140925
-0.171677
-0.202465
-0.216286
-0.199855
-0.182248
-0.165685
-0.120380
-0.086059
-0.039738
0.019365
0.072018
0.092261
0.097279
0.093343
0.081107
0.049752
-0.000435
-0.043518
-0.085464
-0.143214
-0.175691
-0.213789
-0.226523
-0.211730
-0.190606
-0.159841
-0.123353
-0.045247
0.015386
0.062165
0.089239
0.111949
0.129649
0.111427
0.098808
0.063442
0.025701
-0.022330
-0.068838
-0.130790
-0.154159
-0.173569
-0.196331
-0.197425
-0.188684
-0.170736
-0.138869
-0.096158
-0.044095
0.017141
0.060689
0.075754
0.072720
0.066350
0.038057
0.009346
-0.030072
-0.073125
-0.120410
-0.163598
-0.192513
-0.214095
-0.234096
-0.244831
-0.217382
-0.182382
-0.162351
-0.137572
-0.079110
-0.034537
-0.005247
0.022049
0.036863
0.030019
0.012097
-0.021901
-0.044926
-0.088899
-0.135878
-0.177703
-0.216784
-0.237826
-0.245217
-0.246710
-0.222780
-0.186270
-0.159073
-0.127412
-0.091657
-0.046307
-0.012455
0.016109
0.015854
0.013519
-0.003731
-0.032800
-0.067478
-0.102197
-0.149478
-0.204466
-0.224332
-0.249278
-0.257891
-0.248596
-0.225777
-0.206435
-0.172228
-0.126842
-0.092124
-0.032172
-0.011593
0.013076
0.010396
0.014684
0.001699
-0.031057
-0.066142
-0.124748
-0.182417
-0.210630
-0.232883
-0.255560
-0.260984
-0.261623
-0.246360
-0.189784
-0.134212
-0.098264
-0.076207
-0.021299
0.007128
0.022380
0.003066
-0.017653
-0.020085
-0.040396
-0.072758
-0.116289
-0.149000
-0.197115
-0.245122
-0.252404
-0.249114
-0.240202
-0.218373
-0.162917
-0.117277
-0.073134
-0.022102
0.027381
0.066734
0.104958
0.133539
0.148792
0.134223
0.104096
0.069829
0.054319
0.030276
0.002442
-0.004161
0.021240
0.036289
0.088302
0.135105
0.207289
0.266731
0.350698
0.436993
0.500592
0.550310
0.591438
0.641596
0.672400
0.675686
0.656649
0.666841
0.664558
0.654129
0.620131
0.581169
0.556090
0.516592
0.501760
0.514675
0.527134
0.528048
0.505785
0.496676
0.481927
0.460142
0.439463
0.364571
0.302003
0.250132
0.157122
0.100728
0.038142
-0.011434
-0.088927
-0.123250
-0.144083
-0.131945
-0.139669
-0.129573
-0.095471
-0.050522
0.007210
0.048530
0.082596
0.125350
0.143072
0.142311
0.110389
0.090601
0.057405
0.017128
-0.054144
-0.100952
-0.155391
-0.176722
-0.196294
-0.206314
-0.206927
-0.189653
-0.162785
-0.117593
-0.063158
-0.023684
0.019302
0.061215
0.084803
0.102868
0.092185
0.058370
0.048317
-0.000920
-0.060892
-0.102603
-0.153063
-0.191458
-0.223232
-0.225121
-0.218871
-0.204435
-0.171274
-0.128101
-0.058686
-0.005049
0.030338
0.062942
0.074695
0.087832
0.074126
0.058218
0.039321
0.012142
-0.040229
-0.088673
-0.150546
-0.216475
-0.227670
-0.195028
-0.208443
-0.187309
-0.145842
-0.093818
-0.043834
-0.010162
0.036269
0.079850
0.106621
0.103712
0.104642
0.080755
0.042797
0.017051
-0.014983
-0.068158
-0.117978
-0.172672
-0.189679
-0.214935
-0.195975
-0.178697
-0.135535
-0.091205
-0.039640
-0.005877
0.055798
0.113147
0.131169
0.136367
0.132928
0.109975
0.086283
0.045238
0.005241
-0.042986
-0.090360
-0.124827
-0.149997
-0.145694
-0.156534
-0.140661
-0.127933
-0.079680
-0.024464
0.026496
0.069871
0.122995
0.158726
0.176187
0.172918
0.151701
0.134705
0.096119
0.029814
-0.011503
-0.056702
-0.096596
-0.119566
-0.120488
-0.116570
-0.094297
-0.070154
-0.035732
0.020846
0.067608
0.105130
0.146099
0.187370
0.203961
0.205349
0.194429
0.174518
0.130589
0.079350
0.031206
-0.005429
-0.042227
-0.058281
-0.075198
-0.065395
-0.055046
-0.023025
-0.001017
0.041939
0.078534
0.129863
0.172351
0.187365
0.189760
0.170566
0.169864
0.153819
0.117408
0.075925
0.042206
0.008970
-0.014952
-0.033046
-0.054909
-0.069452
-0.081001
-0.040908
0.012314
0.061098
0.089386
0.130114
0.174953
0.206954
0.215408
0.197536
0.161649
0.145470
0.102831
0.046639
0.008806
-0.030429
-0.066470
-0.090258
-0.088202
-0.078007
-0.064064
-0.040213
-0.005154
0.047308
0.083639
0.128448
0.147813
0.146948
0.138948
0.139710
0.120944
0.069594
0.033260
-0.003670
-0.041144
-0.074490
-0.113577
-0.135657
-0.135021
-0.121365
-0.099591
-0.080196
-0.043887
0.006733
0.042727
0.066617
0.096572
0.114749
0.126305
0.111642
0.095148
0.047942
0.000837
-0.026973
-0.069253
-0.112349
-0.149224
-0.164628
-0.194428
-0.176920
-0.142101
-0.118177
-0.084089
-0.019833
0.008081
0.030356
0.048402
0.057988
0.081146
0.086044
0.062375
0.046017
0.015363
-0.053807
-0.117569
-0.151656
-0.185051
-0.195824
-0.219647
-0.211443
-0.178976
-0.132076
-0.089541
-0.046864
-0.004703
0.042080
0.071689
0.085517
0.092567
0.067672
0.034589
0.005720
-0.044720
-0.082973
-0.124717
-0.165354
-0.211931
-0.248408
-0.216073
-0.181195
-0.169823
-0.140450
-0.107107
-0.065215
-0.005021
0.025654
0.061004
0.089757
0.096087
0.085557
0.074048
0.038288
-0.021308
-0.066194
-0.114935
-0.158568
-0.190114
-0.217645
-0.222692
-0.209006
-0.190547
-0.167764
-0.124757
-0.071224
-0.014217
0.037222
0.072233
0.100396
0.116576
0.099593
0.085521
0.045878
0.005650
-0.020177
-0.093866
-0.137841
-0.183865
-0.202212
-0.223710
-0.210447
-0.172058
-0.125374
-0.082977
-0.042088
0.010676
0.072896
0.099995
0.101536
0.090656
0.083378
0.078717
0.048160
0.014742
-0.036379
-0.096222
-0.139062
-0.196634
-0.219738
-0.208003
-0.192408
-0.168873
-0.138807
-0.104188
-0.066946
-0.028376
-0.006666
0.071230
0.101189
0.124607
0.115723
0.109971
0.059605
0.011259
-0.028563
-0.060557
-0.111819
-0.173362
-0.202984
-0.210436
-0.194339
-0.179605
-0.160909
-0.121936
-0.050410
-0.005914
0.035301
0.068592
0.117432
0.137165
0.128963
0.098721
0.053232
0.004167
-0.046435
-0.084109
-0.119003
-0.155791
-0.192823
-0.233850
-0.216267
-0.185567
-0.160351
-0.112521
-0.055513
-0.020314
0.019961
0.048828
0.086795
0.099153
0.086643
0.068987
0.039528
-0.007541
-0.062600
-0.086154
-0.077862
-0.148045
-0.194293
-0.205990
-0.184364
-0.161732
-0.143295
-0.119366
-0.098150
-0.053176
0.012401
0.059321
0.084165
0.094990
0.083706
0.069419
0.014695
-0.021207
-0.035780
-0.080337
-0.126604
-0.169657
-0.211645
-0.223035
-0.200500
-0.167309
-0.145335
-0.113893
-0.070706
-0.039632
0.006239
0.052239
0.061115
0.080959
0.078851
0.061221
0.041685
-0.008860
-0.033605
-0.082844
-0.132527
-0.188055
-0.193074
-0.206414
-0.193440
-0.181334
-0.173291
-0.122568
-0.087121
-0.045463
0.013963
0.051374
0.067046
0.060153
0.061703
0.072124
0.031475
-0.022849
-0.074259
-0.126014
-0.151295
-0.180330
-0.187480
-0.203486
-0.214539
-0.192139
-0.168436
-0.130961
-0.075603
-0.020467
0.008300
0.051363
0.071497
0.067394
0.053621
0.026183
0.015033
-0.013682
-0.046614
-0.106253
-0.146574
-0.196367
-0.216787
-0.197118
-0.193747
-0.170559
-0.137295
-0.103674
-0.067290
-0.013906
0.012935
0.042094
0.067135
0.059778
0.032574
0.019692
-0.012170
-0.042793
-0.078499
-0.116580
-0.140578
-0.175869
-0.199968
-0.208322
-0.204498
-0.173021
-0.142712
-0.096977
-0.051513
-0.000008
0.017848
0.044366
0.075917
0.084163
0.070740
0.035855
-0.000798
-0.015098
-0.050636
-0.083807
-0.129579
-0.143763
-0.159230
-0.167962
-0.178086
-0.143775
-0.111583
-0.076760
-0.037380
0.016551
0.044400
0.061867
0.076721
0.115703
0.112760
0.078736
0.049482
0.030418
-0.024455
-0.115750
-0.166267
-0.181927
-0.161487
-0.167906
-0.160665
-0.157372
-0.110108
-0.059306
-0.017416
0.028701
0.068823
0.096059
0.119532
0.138686
0.141049
0.113751
0.075724
0.030356
-0.032703
-0.095622
-0.125529
-0.160574
-0.188340
-0.165268
-0.166824
-0.149636
-0.116719
-0.043282
-0.025850
0.011945
0.050152
0.124397
0.155854
0.144278
0.107316
0.070970
0.040244
0.008860
-0.031860
-0.095254
-0.152655
-0.181412
-0.200753
-0.210879
-0.199637
-0.158492
-0.127015
-0.095398
-0.047485
-0.002788
0.057775
0.073545
0.079430
0.100486
0.097806
0.074982
0.024459
-0.030587
-0.092822
-0.120651
-0.159333
-0.195157
-0.211504
-0.204110
-0.228321
-0.224242
-0.191996
-0.129417
-0.078692
-0.018656
0.021134
0.052562
0.073885
0.083319
0.078245
0.056943
0.002436
-0.054937
-0.080332
-0.141126
-0.184774
-0.210206
-0.248992
-0.271261
-0.270285
-0.248884
-0.200388
-0.159553
-0.118568
-0.039016
0.003877
0.044358
0.057439
0.079191
0.073838
0.047861
-0.006468
-0.045965
-0.074375
-0.126868
-0.184390
-0.215468
-0.252659
-0.260282
-0.259442
-0.264762
-0.184592
-0.137466
-0.102052
-0.049883
0.004357
0.036258
0.069573
0.077363
0.061396
0.032247
0.012837
-0.043813
-0.104490
-0.168079
-0.166089
-0.174533
-0.196116
-0.236587
-0.250479
-0.218496
-0.191881
-0.154474
-0.109035
-0.052068
-0.006678
0.025207
0.050488
0.057049
0.058394
0.043968
0.010136
-0.011310
-0.040890
-0.100144
-0.156023
-0.168730
-0.185767
-0.184017
-0.172154
-0.132510
-0.068770
-0.012327
0.052149
0.099885
0.164836
0.235558
0.283104
0.313959
0.329910
0.340526
0.354056
0.353369
0.349579
0.312785
0.303529
0.318871
0.321725
0.343380
0.371505
0.436159
0.520291
0.603325
0.672102
0.746696
0.821753
0.877735
0.909246
0.910527
0.916421
0.869168
0.814556
0.758463
0.686779
0.605419
0.493798
0.394438
0.306366
0.228193
0.172169
0.132168
0.127302
0.110663
0.112234
0.130508
0.164862
0.187404
0.219008
0.233096
0.216450
0.190905
0.147274
0.088112
0.035577
-0.018721
-0.096581
-0.139021
-0.102805
-0.111217
-0.121852
-0.115609
-0.088195
-0.063023
-0.022458
0.024088
0.062235
0.089710
0.112477
0.118892
0.109028
0.071821
0.054674
0.027346
-0.009552
-0.078751
-0.107831
-0.115802
-0.145870
-0.168307
-0.177727
-0.157668
-0.128282
-0.091577
-0.051766
-0.007391
0.041899
0.071959
0.073337
0.087538
0.088120
0.077352
0.040454
-0.005955
-0.054800
-0.086098
-0.126413
-0.154347
-0.170873
-0.180674
-0.187418
-0.168191
-0.120884
-0.085925
-0.049871
-0.013423
0.037451
0.071922
0.103268
0.099930
0.100451
0.081720
0.048508
0.018993
-0.025598
-0.098253
-0.141690
-0.158044
-0.170329
-0.178374
-0.171444
-0.142683
-0.112318
-0.061277
-0.008876
0.037640
0.075987
0.106057
0.121788
0.116919
0.097420
0.084921
0.071323
0.034066
-0.005100
-0.058759
-0.094611
-0.130557
-0.152157
-0.163284
-0.167580
-0.136625
-0.084463
-0.045019
-0.014486
0.038343
0.083155
0.130739
0.163485
0.175640
0.154044
0.108329
0.086909
0.040022
-0.011756
-0.053374
-0.083204
-0.091789
-0.104969
-0.115026
-0.109232
-0.080859
-0.050545
-0.004383
0.049503
0.098029
0.145303
0.171616
0.198083
0.204469
0.206302
0.176677
0.156311
0.104152
0.030107
-0.000475
-0.052242
-0.074434
-0.091090
-0.074717
-0.057974
-0.038244
-0.010316
0.026330
0.066643
0.113710
0.155300
0.188903
0.215402
0.227621
0.212674
0.179091
0.146171
0.121272
0.080583
0.032473
-0.004985
-0.043961
-0.063436
-0.073455
-0.059007
-0.035572
-0.017417
0.038863
0.090358
0.135695
0.174782
0.209881
0.225768
0.232285
0.229363
0.204299
0.167214
0.130292
0.071741
0.015862
-0.049079
-0.072216
-0.089486
-0.094512
-0.081142
-0.048354
-0.026150
0.031295
0.063349
0.106779
0.159118
0.193470
0.229539
0.241195
0.238813
0.211416
0.158941
0.101194
0.068057
0.028531
-0.007712
-0.062486
-0.096959
-0.117909
-0.118525
-0.093890
-0.048836
-0.011450
0.035484
0.078917
0.116120
0.162998
0.171457
0.171660
0.178236
0.152889
0.118792
0.078735
0.035582
-0.026163
-0.075237
-0.113408
-0.150174
-0.153201
-0.166798
-0.143358
-0.104210
-0.064595
-0.023633
0.025897
0.074289
0.123506
0.145081
0.139746
0.122975
0.102311
0.083600
0.038033
-0.029844
-0.081636
-0.106164
-0.135681
-0.180833
-0.197909
-0.195335
-0.162821
-0.131856
-0.094434
-0.061455
-0.004758
0.040812
0.075524
0.098339
0.103588
0.100519
0.084007
0.056903
0.007672
-0.033977
-0.085639
-0.129294
-0.174659
-0.184163
-0.209173
-0.200269
-0.177194
-0.154865
-0.114458
-0.064015
-0.030010
0.004873
0.036897
0.063138
0.078505
0.043794
0.029298
0.041624
0.005882
-0.020390
-0.069540
-0.115291
-0.156986
-0.178059
-0.192407
-0.197826
-0.169106
-0.127827
-0.097137
-0.061340
-0.024209
0.022258
0.044169
0.070848
0.092299
0.090577
0.076449
0.046420
0.005491
-0.035545
-0.079072
-0.118458
-0.146662
-0.181794
-0.190394
-0.181655
-0.160842
-0.127359
-0.099757
-0.061973
-0.023693
0.016375
0.053964
0.073049
0.080930
0.090384
0.066813
0.047478
0.012933
-0.037118
-0.074117
-0.118701
-0.142785
-0.171250
-0.182509
-0.177603
-0.163645
-0.129766
-0.096472
-0.058795
-0.018745
0.029237
0.064365
0.074812
0.088976
0.070347
0.058520
0.033851
-0.001151
-0.048794
-0.091622
-0.127387
-0.152972
-0.153623
-0.158783
-0.163102
-0.150989
-0.117620
-0.066592
-0.031792
0.005081
0.041368
0.040670
0.050588
0.083107
0.089874
0.077982
0.042448
0.025639
-0.012670
-0.051821
-0.116598
-0.136655
-0.160901
-0.192690
-0.195490
-0.145167
-0.119455
-0.086083
-0.037893
0.002771
0.042390
0.072409
0.090690
0.108259
0.097189
0.084966
0.043639
-0.010248
-0.065361
-0.106762
-0.140241
-0.159159
-0.174048
-0.195202
-0.185501
-0.157461
-0.120634
-0.080214
-0.033551
0.006565
0.045260
0.067779
0.093613
0.102909
0.076467
0.048077
0.027849
-0.007575
-0.081211
-0.119601
-0.159431
-0.180725
-0.188423
-0.210462
-0.207688
-0.190379
-0.163005
-0.095856
-0.031365
0.018669
0.050342
0.065353
0.083133
0.113651
0.100321
0.077190
0.042545
-0.009852
-0.071322
-0.124285
-0.141807
-0.166025
-0.193034
-0.203231
-0.186935
-0.182408
-0.166738
-0.097572
-0.030073
0.016193
0.053987
0.076715
0.090995
0.079895
0.059868
0.036887
0.021981
-0.016825
-0.073354
-0.112380
-0.154500
-0.178862
-0.203410
-0.224636
-0.211816
-0.188066
-0.146460
-0.121572
-0.053127
0.000683
0.048811
0.079808
0.101541
0.098340
0.085653
0.051334
0.018511
-0.022899
-0.085402
-0.123843
-0.153404
-0.186791
-0.202160
-0.214943
-0.218566
-0.187453
-0.148892
-0.112592
-0.067082
-0.018221
0.029286
0.068730
0.088815
0.097893
0.091034
0.056913
0.009319
-0.029884
-0.062716
-0.126109
-0.188788
-0.201954
-0.217253
-0.234470
-0.212486
-0.202880
-0.161294
-0.128069
-0.062813
-0.014183
0.027242
0.060708
0.067799
0.054889
0.087441
0.053226
0.028078
-0.012517
-0.061135
-0.115294
-0.158241
-0.186889
-0.214526
-0.239258
-0.245400
-0.195579
-0.149715
-0.092859
-0.045488
0.006218
0.047438
0.089382
0.121713
0.140171
0.119248
0.098218
0.071824
0.023333
-0.032191
-0.073834
-0.131969
-0.165514
-0.189733
-0.212986
-0.197123
-0.160962
-0.124437
-0.083465
-0.042076
-0.008758
0.064131
0.109149
0.141990
0.151658
0.146718
0.096308
0.071953
0.024100
-0.017999
-0.066226
-0.115958
-0.161509
-0.187334
-0.190018
-0.172583
-0.151734
-0.117453
-0.076773
-0.040358
0.027688
0.080655
0.118189
0.130691
0.149055
0.138498
0.136168
0.103730
0.055489
-0.008854
-0.051709
-0.116653
-0.146247
-0.167683
-0.185529
-0.191459
-0.193353
-0.135981
-0.096444
-0.047098
-0.006734
0.044777
0.081842
0.099639
0.113354
0.112366
0.099073
0.060609
0.009925
-0.046830
-0.105466
-0.148982
-0.190687
-0.203797
-0.210873
-0.221210
-0.198474
-0.164634
-0.123623
-0.075629
-0.029883
0.000015
0.031451
0.063789
0.068496
0.060427
0.041033
0.012804
-0.018581
-0.073744
-0.113482
-0.175633
-0.210903
-0.217368
-0.231973
-0.220246
-0.208375
-0.185216
-0.146079
-0.108469
-0.065729
-0.027663
0.012647
0.040461
0.062465
0.075724
0.047901
0.013277
-0.043336
-0.101937
-0.131707
-0.162721
-0.190448
-0.230580
-0.238708
-0.226933
-0.216140
-0.177982
-0.144583
-0.098901
-0.057158
-0.017756
0.010018
0.020515
0.039471
0.032168
0.014441
-0.013247
-0.033236
-0.060857
-0.106816
-0.147019
-0.187141
-0.203098
-0.220819
-0.235877
-0.206194
-0.171009
-0.132086
-0.082189
-0.049837
-0.014691
0.017667
0.046779
0.047935
0.033433
0.019589
-0.009742
-0.047640
-0.090354
-0.140156
-0.184105
-0.219499
-0.246888
-0.230470
-0.221171
-0.200261
-0.187034
-0.155105
-0.106780
-0.050000
0.017555
0.020803
0.033827
0.062348
0.059347
0.055323
0.038323
0.013785
-0.010028
-0.052167
-0.066056
-0.065724
-0.098051
-0.087843
-0.048179
-0.006140
0.052081
0.112448
0.186137
0.255754
0.334156
0.392432
0.437867
0.490436
0.520394
0.531915
0.532013
0.522868
0.512968
0.515806
0.550016
0.560202
0.550728
0.598361
0.636224
0.670604
0.716067
0.743209
0.800407
0.831579
0.842939
0.850065
0.843517
0.813418
0.750626
0.651878
0.538046
0.422627
0.309269
0.224893
0.132539
0.053360
-0.004784
-0.019548
0.021488
0.044451
0.065022
0.101326
0.129506
0.150168
0.136125
0.169022
0.166780
0.163481
0.162614
0.142624
0.096143
0.041723
-0.006358
-0.057856
-0.109853
-0.129688
-0.129413
-0.142333
-0.137158
-0.122408
-0.088452
-0.050736
-0.025981
0.033062
0.077587
0.103653
0.125281
0.135380
0.112835
0.087428
0.054833
0.003405
-0.041547
-0.095001
-0.145285
-0.173081
-0.173407
-0.181745
-0.187090
-0.173146
-0.124512
-0.058985
-0.014481
0.020778
0.041416
0.066005
0.098128
0.108739
0.109743
0.091752
0.060536
-0.009687
-0.062471
-0.104188
-0.143299
-0.173899
-0.189723
-0.182099
-0.186077
-0.158077
-0.146579
-0.116958
-0.050374
0.014596
0.065024
0.099738
0.132777
0.124485
0.134149
0.139015
0.094244
0.055030
-0.000213
-0.083887
-0.125320
-0.144770
-0.160418
-0.195998
-0.177795
-0.147473
-0.111182
-0.074129
-0.019771
0.021220
0.071078
0.111074
0.141589
0.166106
0.152962
0.142688
0.114690
0.060354
0.004370
-0.062541
-0.108797
-0.129701
-0.166616
-0.168516
-0.153610
-0.131429
-0.085538
-0.043460
-0.000604
0.040606
0.081301
0.129305
0.166321
0.164324
0.158081
0.151536
0.145547
0.125275
0.079790
0.011150
-0.053569
-0.095219
-0.100486
-0.119686
-0.093687
-0.084167
-0.061812
-0.016551
0.035000
0.080694
0.112993
0.177958
0.193740
0.204020
0.203045
0.190592
0.173102
0.142710
0.089604
0.029284
-0.004875
-0.052384
-0.071361
-0.078036
-0.094039
-0.066253
-0.038744
0.014452
0.067777
0.130452
0.169258
0.194709
0.217539
0.225624
0.224228
0.200507
0.180557
0.144959
0.093652
0.038408
0.020159
-0.028108
-0.043379
-0.074517
-0.071389
-0.050674
-0.014068
0.026200
0.074556
0.117476
0.152939
0.183521
0.202672
0.210410
0.209818
0.198770
0.158985
0.134958
0.092896
0.054078
0.012506
-0.025164
-0.058403
-0.069341
-0.073084
-0.047603
-0.017370
0.015811
0.058760
0.094883
0.139912
0.173225
0.195745
0.176425
0.182272
0.165707
0.139540
0.091851
0.045616
-0.006931
-0.044140
-0.066791
-0.084429
-0.092891
-0.104119
-0.097145
-0.058925
-0.001794
0.036348
0.059112
0.085118
0.117589
0.137722
0.138972
0.126285
0.095064
0.087893
0.045757
-0.009019
-0.035325
-0.078392
-0.117590
-0.137194
-0.149936
-0.163550
-0.146108
-0.118887
-0.059661
-0.015247
0.032298
0.069409
0.095213
0.110957
0.116714
0.107040
0.079982
0.041686
-0.002037
-0.051215
-0.089097
-0.117464
-0.156517
-0.169519
-0.167655
-0.167997
-0.155773
-0.133832
-0.096656
-0.042812
0.000958
0.024707
0.068552
0.082224
0.083573
0.076480
0.041933
0.011332
-0.021418
-0.071725
-0.095614
-0.126166
-0.156932
-0.179461
-0.184052
-0.177112
-0.155373
-0.132759
-0.089737
-0.040946
0.005920
0.031770
0.080939
0.096632
0.089318
0.081053
0.060007
0.020889
-0.019879
-0.070281
-0.113933
-0.155016
-0.180506
-0.197739
-0.201592
-0.179421
-0.155892
-0.128770
-0.093434
-0.053560
-0.009470
0.025591
0.070614
0.102509
0.100455
0.101757
0.055554
0.050091
0.007398
-0.059376
-0.119662
-0.140421
-0.159557
-0.189267
-0.197624
-0.176894
-0.164651
-0.138565
-0.098294
-0.041384
0.015263
0.036939
0.075478
0.104936
0.114017
0.118449
0.090111
0.048840
-0.003225
-0.054911
-0.099595
-0.145847
-0.172964
-0.202305
-0.196075
-0.197649
-0.174282
-0.142174
-0.091163
-0.034301
0.017024
0.060013
0.093242
0.121349
0.125296
0.113645
0.088176
0.056095
0.022917
-0.028922
-0.084588
-0.135894
-0.176324
-0.184867
-0.188444
-0.184553
-0.150201
-0.131231
-0.097267
-0.037378
0.019683
0.061746
0.100000
0.127410
0.132792
0.121338
0.096987
0.071739
0.023725
-0.045311
-0.081546
-0.118106
-0.149891
-0.175940
-0.209051
-0.199417
-0.173689
-0.159697
-0.110727
-0.041771
-0.000500
0.032412
0.087243
0.123827
0.131311
0.115749
0.093863
0.059344
0.005602
-0.038104
-0.077408
-0.124572
-0.162778
-0.197111
-0.208364
-0.197853
-0.174002
-0.140392
-0.100533
-0.045315
0.005186
0.058044
0.088710
0.111043
0.107835
0.102951
0.082861
0.035567
-0.007520
-0.052502
-0.098324
-0.130368
-0.170743
-0.198933
-0.203119
-0.199449
-0.186010
-0.148076
-0.107078
-0.055135
-0.016969
0.023893
0.052331
0.074507
0.081331
0.083380
0.067581
0.050090
0.016811
-0.031084
-0.087419
-0.142511
-0.170733
-0.193356
-0.195089
-0.192204
-0.180211
-0.154485
-0.117375
-0.095827
-0.044738
0.024924
0.057262
0.078148
0.093892
0.084904
0.055716
0.021490
-0.011520
-0.046440
-0.072536
-0.114930
-0.162071
-0.194815
-0.208576
-0.203769
-0.179072
-0.146504
-0.116505
-0.079678
-0.024131
0.016472
0.046221
0.084058
0.092435
0.076138
0.056215
0.022615
-0.006836
-0.050119
-0.094971
-0.135874
-0.170739
-0.194555
-0.186172
-0.184440
-0.166009
-0.149407
-0.111070
-0.068029
-0.029446
0.022163
0.043055
0.066224
0.066908
0.063715
0.060434
0.028694
-0.012475
-0.065993
-0.083710
-0.133741
-0.166220
-0.189945
-0.184843
-0.185839
-0.154987
-0.135255
-0.108272
-0.064492
-0.022363
0.009503
0.043939
0.070444
0.079038
0.071497
0.052391
0.022685
-0.035244
-0.074342
-0.113582
-0.147865
-0.171229
-0.175873
-0.186555
-0.170229
-0.158394
-0.131735
-0.091136
-0.051639
-0.013340
0.027626
0.049702
0.075144
0.081930
0.079137
0.065128
0.049989
0.003445
-0.041412
-0.088430
-0.130717
-0.146081
-0.162864
-0.163593
-0.153240
-0.146326
-0.117931
-0.066810
-0.011314
0.025646
0.062628
0.102694
0.120137
0.125765
0.119372
0.093972
0.057985
0.017285
-0.022269
-0.057518
-0.104064
-0.131813
-0.157628
-0.152771
-0.140594
-0.120607
-0.095555
-0.046882
-0.006208
0.034973
0.073714
0.088433
0.114423
0.127306
0.125718
0.097608
0.068150
0.034532
-0.015744
-0.061823
-0.090126
-0.123950
-0.152788
-0.162063
-0.140344
-0.111383
-0.069339
-0.035759
-0.009671
0.029048
0.082546
0.095648
0.110623
0.115519
0.090851
0.052236
0.021393
-0.014395
-0.051731
-0.086485
-0.121340
-0.148647
-0.183847
-0.195862
-0.180523
-0.159520
-0.129171
-0.090126
-0.039076
0.021763
0.053021
0.070510
0.085302
0.102609
0.093107
0.077695
0.029918
-0.027642
-0.078097
-0.125723
-0.170990
-0.205232
-0.225598
-0.224963
-0.206905
-0.191061
-0.163079
-0.121040
-0.069111
-0.021656
0.032944
0.061896
0.074539
0.075325
0.061761
0.042176
0.000093
-0.043772
-0.085850
-0.138680
-0.175826
-0.193260
-0.212505
-0.230071
-0.228854
-0.201212
-0.160617
-0.130522
-0.072264
-0.012545
0.013526
0.049427
0.068863
0.075322
0.066430
0.049188
0.013728
-0.036117
-0.095211
-0.134327
-0.194746
-0.237161
-0.239300
-0.236088
-0.217642
-0.203301
-0.172825
-0.132720
-0.080965
-0.031249
0.007834
0.036747
0.068241
0.083972
0.067181
0.047772
0.008300
-0.039707
-0.095951
-0.141897
-0.186074
-0.213172
-0.239086
-0.235881
-0.245320
-0.212697
-0.178283
-0.137618
-0.089487
-0.035663
0.009904
0.038515
0.069028
0.071910
0.064097
0.055517
0.019202
-0.020316
-0.067223
-0.104570
-0.145557
-0.168919
-0.178724
-0.165491
-0.144379
-0.121611
-0.060405
-0.008378
0.058455
0.122898
0.187791
0.240649
0.290751
0.320816
0.343280
0.358528
0.358261
0.336425
0.357739
0.332155
0.308095
0.331019
0.337346
0.344681
0.380137
0.455215
0.541419
0.628427
0.702067
0.782772
0.855900
0.895279
0.925425
0.934631
0.916348
0.871323
0.824538
0.758698
0.691655
0.601548
0.487043
0.381112
0.306465
0.235004
0.175895
0.133088
0.115727
0.102844
0.116544
0.162683
0.213874
0.246139
0.259143
0.253020
0.234375
0.214992
0.169003
0.111505
0.046714
-0.024439
-0.070933
-0.105984
-0.118804
-0.127362
-0.116432
-0.117733
-0.082226
-0.042300
0.003156
0.038387
0.083904
0.111764
0.125566
0.119776
0.119460
0.106836
0.075854
0.059548
0.016894
-0.041893
-0.101560
-0.129250
-0.160717
-0.167473
-0.164760
-0.155336
-0.130082
-0.090549
-0.050927
-0.006060
0.034134
0.062723
0.090783
0.107850
0.101483
0.087242
0.060869
0.021741
-0.023447
-0.073719
-0.109890
-0.140933
-0.168754
-0.191419
-0.185656
-0.171688
-0.138689
-0.081789
-0.038494
-0.011537
0.022260
0.068023
0.102117
0.116554
0.119762
0.092091
0.071057
0.027111
-0.014089
-0.051449
-0.091661
-0.123564
-0.142837
-0.148879
-0.147621
-0.134683
-0.108648
-0.076506
-0.031167
0.021175
0.056128
0.088158
0.102899
0.114294
0.116345
0.098707
0.064383
0.029393
-0.002280
-0.038521
-0.064285
-0.104657
-0.107410
-0.122176
-0.116690
-0.108149
-0.079902
-0.035031
0.006312
0.042384
0.089904
0.115245
0.144714
0.152669
0.154395
0.135782
0.111356
0.074004
0.033472
-0.010372
-0.049890
-0.075596
-0.100563
-0.104027
-0.089926
-0.067566
-0.048795
-0.017483
0.043108
0.095893
0.127630
0.162302
0.171498
0.171244
0.174590
0.171564
0.141993
0.096952
0.053036
0.013757
-0.027503
-0.051488
-0.064827
-0.065660
-0.072634
-0.050207
-0.003055
0.035889
0.088047
0.120464
0.149132
0.184135
0.199763
0.206395
0.191196
0.178046
0.150020
0.102975
0.057605
0.013789
-0.022103
-0.028565
-0.048113
-0.047293
-0.037539
-0.016176
0.020160
0.064688
0.100768
0.144856
0.186874
0.210483
0.223614
0.214064
0.209177
0.186675
0.146623
0.114725
0.064931
0.022010
-0.024274
-0.048819
-0.055091
-0.047743
-0.046874
-0.025333
0.013496
0.044836
0.090156
0.137857
0.170323
0.202952
0.212426
0.207661
0.184266
0.170679
0.140992
0.096806
0.050126
-0.002346
-0.050381
-0.094897
-0.104810
-0.105820
-0.089282
-0.048422
-0.025882
0.015811
0.052589
0.096303
0.133919
0.153997
0.164162
0.155715
0.146200
0.123657
0.105136
0.058329
0.012025
-0.044813
-0.081911
-0.121489
-0.135920
-0.141910
-0.130414
-0.117901
-0.081687
-0.043690
0.001549
0.046276
0.098030
0.117730
0.118618
0.121319
0.113803
0.080535
0.040758
0.001797
-0.044329
-0.084724
-0.124700
-0.163377
-0.181875
-0.185285
-0.177782
-0.148268
-0.113121
-0.076480
-0.023717
0.008111
0.049743
0.079954
0.085518
0.101516
0.084564
0.053165
0.021821
-0.018037
-0.051843
-0.105512
-0.141373
-0.179469
-0.192774
-0.195541
-0.182928
-0.162715
-0.132154
-0.087211
-0.029662
0.031019
0.060240
0.087592
0.085401
0.091894
0.086875
0.060189
0.015226
-0.024920
-0.067334
-0.118193
-0.160422
-0.194371
-0.215439
-0.197602
-0.182410
-0.153556
-0.123297
-0.082973
-0.038099
0.016023
0.051627
0.079579
0.090011
0.095974
0.081228
0.064108
0.032929
-0.007660
-0.060338
-0.115537
-0.161337
-0.186530
-0.201139
-0.222028
-0.182589
-0.165443
-0.129185
-0.089827
-0.052841
-0.006451
0.044669
0.091151
0.107267
0.111088
0.099882
0.085365
0.037071
-0.008809
-0.054498
-0.107211
-0.149497
-0.174189
-0.190282
-0.195722
-0.182983
-0.159421
-0.123901
-0.081436
-0.024059
0.022985
0.057528
0.088400
0.096243
0.107457
0.097009
0.071647
0.038719
-0.001290
-0.052049
-0.090053
-0.139428
-0.180728
-0.198990
-0.205962
-0.190747
-0.173798
-0.136942
-0.091210
-0.033832
0.016103
0.062234
0.090317
0.102330
0.105495
0.107334
0.082081
0.041707
-0.002628
-0.047937
-0.095648
-0.141498
-0.175678
-0.198167
-0.208161
-0.200440
-0.164961
-0.135667
-0.093160
-0.044906
-0.001801
0.038671
0.070107
0.089599
0.107358
0.107321
0.074624
0.058268
0.001694
-0.054480
-0.098865
-0.137076
-0.173427
-0.195569
-0.213726
-0.205644
-0.186998
-0.159529
-0.119676
-0.076211
-0.028783
0.017921
0.057670
0.079367
0.098592
0.105117
0.081362
0.043650
0.004593
-0.044570
-0.095683
-0.137308
-0.181393
-0.210863
-0.224191
-0.206357
-0.194650
-0.162833
-0.121880
-0.070930
-0.008913
0.031514
0.068414
0.087210
0.098505
0.086249
0.056397
0.033845
-0.005687
-0.058485
-0.110190
-0.149266
-0.186681
-0.213101
-0.219145
-0.216359
-0.203467
-0.173255
-0.130107
-0.088405
-0.043715
0.006202
0.049338
0.066445
0.077300
0.065936
0.055128
0.031102
-0.016258
-0.069823
-0.121941
-0.165900
-0.205041
-0.220646
-0.224422
-0.217349
-0.198558
-0.182414
-0.134054
-0.088254
-0.039160
0.005943
0.042042
0.053542
0.069029
0.071878
0.051636
0.034164
-0.010057
-0.060361
-0.110567
-0.153721
-0.203796
-0.237511
-0.248281
-0.237292
-0.194478
-0.169336
-0.133880
-0.081144
-0.040337
0.000945
0.035336
0.041260
0.055235
0.044354
0.027546
0.024539
-0.007586
-0.070416
-0.121092
-0.149360
-0.189743
-0.221704
-0.232917
