-0.006612
0.040524
0.081517
0.113579
0.153336
0.163134
0.160595
0.122198
0.082471
0.035825
-0.017524
-0.064060
-0.102873
-0.139633
-0.165014
-0.163162
-0.175402
-0.146380
-0.129502
-0.088929
-0.045684
-0.013875
0.017847
0.057963
0.123421
0.122343
0.098272
0.087341
0.049509
0.011961
-0.041124
-0.071267
-0.113265
-0.125416
-0.141649
-0.166637
-0.176760
-0.160506
-0.129505
-0.087720
-0.040414
0.003994
0.038917
0.068019
0.086245
0.090469
0.097741
0.075253
0.042026
0.006357
-0.033843
-0.068636
-0.108501
-0.136656
-0.172014
-0.181982
-0.179834
-0.146117
-0.104785
-0.069923
-0.019504
0.016649
0.057375
0.080672
0.096795
0.099413
0.098584
0.078186
0.041132
0.012985
-0.034769
-0.074177
-0.099981
-0.129780
-0.142254
-0.147964
-0.144651
-0.122289
-0.084301
-0.049933
-0.005409
0.047906
0.091009
0.116534
0.129790
0.139283
0.130029
0.103031
0.080539
0.052761
-0.008006
-0.040680
-0.088944
-0.117800
-0.126163
-0.126147
-0.119422
-0.090772
-0.061982
-0.017849
0.031860
0.073744
0.110413
0.152417
0.170353
0.189824
0.181234
0.153823
0.110278
0.077280
0.026045
-0.026740
-0.058620
-0.091381
-0.106739
-0.102982
-0.087890
-0.062521
-0.025023
0.034453
0.078567
0.117488
0.160355
0.192531
0.209353
0.218558
0.197462
0.177035
0.162498
0.140902
0.070765
0.012114
-0.026758
-0.048101
-0.076438
-0.091917
-0.081089
-0.060317
-0.001881
0.045122
0.080867
0.140966
0.196192
0.228310
0.243132
0.248493
0.242327
0.216140
0.178617
0.119889
0.053155
0.011519
-0.013579
-0.038505
-0.069935
-0.077700
-0.078075
-0.062442
-0.020330
0.028849
0.084177
0.142075
0.192223
0.228162
0.244258
0.239727
0.230264
0.202956
0.169765
0.125303
0.060096
-0.002271
-0.039150
-0.069218
-0.069176
-0.087203
-0.104201
-0.102204
-0.051716
-0.005283
0.055288
0.100206
0.145211
0.177521
0.196103
0.205239
0.196937
0.182577
0.156405
0.099404
0.033900
-0.016620
-0.063778
-0.103901
-0.135750
-0.149940
-0.158493
-0.131080
-0.102493
-0.060450
-0.017928
0.030256
0.076352
0.095374
0.155765
0.153812
0.148460
0.116288
0.077484
0.042752
-0.010340
-0.055076
-0.088902
-0.114743
-0.150620
-0.170970
-0.194182
-0.184859
-0.165591
-0.095061
-0.043154
-0.002668
0.040752
0.070891
0.097140
0.107245
0.099345
0.091516
0.056861
0.012470
-0.048962
-0.090167
-0.128875
-0.162030
-0.186423
-0.201492
-0.207806
-0.186388
-0.162795
-0.117515
-0.079462
-0.034866
0.018283
0.061618
0.082916
0.081597
0.084246
0.050181
0.035304
-0.007361
-0.048674
-0.111786
-0.158855
-0.191205
-0.180221
-0.197116
-0.192244
-0.156159
-0.123982
-0.111737
-0.055413
-0.003964
0.024772
0.055749
0.067721
0.077271
0.073934
0.049980
0.015131
-0.033230
-0.078858
-0.111853
-0.125035
-0.165506
-0.190688
-0.204322
-0.198160
-0.188854
-0.131649
-0.103596
-0.075675
-0.038236
0.024713
0.071092
0.101364
0.085904
0.057685
0.046707
0.008635
-0.027275
-0.059245
-0.105599
-0.148292
-0.171035
-0.191332
-0.205927
-0.188368
-0.163720
-0.131583
-0.096983
-0.061065
-0.015673
0.029695
0.055638
0.071174
0.075828
0.060828
0.040032
0.003506
-0.032412
-0.077170
-0.106038
-0.151572
-0.193707
-0.205208
-0.198577
-0.193293
-0.165211
-0.124260
-0.083306
-0.032680
0.013978
0.072010
0.096527
0.107213
0.086973
0.081523
0.069038
0.040393
-0.015779
-0.071368
-0.120842
-0.163960
-0.189645
-0.200550
-0.194401
-0.210535
-0.162291
-0.130333
-0.095790
-0.042367
-0.005119
0.051161
0.084316
0.101830
0.097954
0.091759
0.074333
0.027659
-0.017283
-0.065927
-0.126857
-0.177347
-0.203445
-0.216044
-0.220328
-0.207962
-0.205614
-0.143702
-0.107420
-0.069841
0.006447
0.058775
0.078647
0.100857
0.101520
0.091536
0.066012
0.031530
-0.005820
-0.059863
-0.111727
-0.155237
-0.190773
-0.223741
-0.238992
-0.236700
-0.216957
-0.193528
-0.140531
-0.097333
-0.034980
0.021552
0.073588
0.092316
0.103107
0.090724
0.090017
0.032087
-0.010928
-0.053303
-0.106789
-0.148142
-0.202184
-0.251367
-0.254814
-0.239626
-0.234189
-0.176362
-0.140825
-0.102451
-0.041400
0.023427
0.060647
0.078896
0.082467
0.081416
0.063564
0.029182
-0.020328
-0.068583
-0.111384
-0.157543
-0.194413
-0.219070
-0.250670
-0.247763
-0.237281
-0.193657
-0.140009
-0.093149
-0.039651
0.005624
0.050078
0.072946
0.075265
0.070679
0.059610
0.029183
-0.003272
-0.045058
-0.105932
-0.151122
-0.188465
-0.212594
-0.228256
-0.240921
-0.232611
-0.165404
-0.138472
-0.108330
-0.055699
-0.016768
0.035372
0.057383
0.067876
0.053520
0.018387
-0.024219
-0.063821
-0.050284
-0.085128
-0.147448
-0.185257
-0.201609
-0.216313
-0.223289
-0.203939
-0.167173
-0.122701
-0.095807
-0.034264
0.018329
0.038157
0.062397
0.086392
0.069194
0.067275
0.036746
-0.004829
-0.047833
-0.088186
-0.130224
-0.154766
-0.182482
-0.198670
-0.199859
-0.177791
-0.137936
-0.098943
-0.057495
-0.017144
0.014183
0.050036
0.066288
0.078079
0.066505
0.070033
0.018641
-0.018737
-0.055915
-0.098376
-0.145173
-0.155971
-0.166921
-0.162353
-0.162076
-0.152133
-0.118215
-0.080662
-0.037550
0.013377
0.047721
0.079465
0.094459
0.096431
0.099576
0.088268
0.059606
-0.001672
-0.042056
-0.089205
-0.128843
-0.156180
-0.179040
-0.193416
-0.178712
-0.167768
-0.145450
-0.106338
-0.060991
-0.022532
0.021628
0.046213
0.063121
0.061451
0.062193
0.030498
-0.001887
-0.038910
-0.086456
-0.127533
-0.170397
-0.210425
-0.227984
-0.230206
-0.224240
-0.203475
-0.168264
-0.142958
-0.095031
-0.044667
-0.006184
0.024100
0.043249
0.040857
0.016872
-0.002078
-0.031872
-0.074498
-0.131080
-0.167785
-0.210582
-0.243863
-0.260334
-0.271169
-0.250212
-0.232300
-0.196310
-0.152508
-0.110457
-0.042690
-0.015246
-0.004467
0.003387
0.013341
0.033688
0.013235
-0.038762
-0.090356
-0.127006
-0.162235
-0.211061
-0.247116
-0.281195
-0.271135
-0.259096
-0.236730
-0.207836
-0.171276
-0.117044
-0.068142
-0.031764
-0.003167
0.026908
0.040089
0.038302
0.017431
-0.034149
-0.108703
-0.132065
-0.184891
-0.230939
-0.246773
-0.277792
-0.271894
-0.244926
-0.230533
-0.190777
-0.148093
-0.119815
-0.070427
-0.025990
0.013273
0.027628
0.025050
0.009755
0.004131
-0.049160
-0.097582
-0.144982
-0.195329
-0.248834
-0.273995
-0.295470
-0.292617
-0.286018
-0.253023
-0.210513
-0.155453
-0.100351
-0.049500
0.002266
0.063690
0.121899
0.120751
0.154668
0.159444
0.122765
0.066095
0.021612
0.008676
-0.018713
-0.055383
-0.056465
-0.014139
0.031012
0.058784
0.111442
0.180672
0.248758
0.356313
0.439308
0.497437
0.548528
0.594878
0.623795
0.638687
0.630215
0.615694
0.615465
0.600753
0.577352
0.540876
0.506128
0.501586
0.485229
0.478717
0.502944
0.537484
0.545008
0.526752
0.499350
0.473718
0.430307
0.407130
0.348851
0.298557
0.228305
0.150042
0.084992
0.000336
-0.079857
-0.124635
-0.154212
-0.162640
-0.169573
-0.163769
-0.137236
-0.097739
-0.053790
-0.016075
0.023202
0.060634
0.087900
0.098877
0.103167
0.087375
0.057012
0.023694
-0.029292
-0.091696
-0.129670
-0.167292
-0.196087
-0.196255
-0.196676
-0.175785
-0.161712
-0.115096
-0.078704
-0.023607
-0.003307
0.029423
0.043862
0.039786
0.044743
0.033265
-0.005604
-0.037441
-0.074627
-0.130408
-0.181516
-0.206431
-0.211421
-0.213209
-0.239802
-0.223143
-0.160922
-0.116498
-0.080200
-0.050612
-0.024758
0.004515
0.037518
0.064935
0.049191
0.038997
0.002339
-0.004064
-0.076757
-0.122049
-0.154225
-0.177682
-0.166104
-0.188632
-0.176311
-0.160289
-0.143627
-0.104153
-0.052493
0.000620
0.027993
0.057411
0.071335
0.063508
0.043234
0.042747
0.013408
-0.017153
-0.047284
-0.089548
-0.129077
-0.166224
-0.178801
-0.194705
-0.186855
-0.155333
-0.114514
-0.068890
-0.026361
0.015686
0.052147
0.076747
0.100708
0.096505
0.110563
0.098059
0.050119
0.005901
-0.048167
-0.098584
-0.129513
-0.156774
-0.174538
-0.170237
-0.166698
-0.129245
-0.092956
-0.050712
-0.005038
0.042886
0.081249
0.119848
0.141930
0.150465
0.149646
0.115154
0.075687
0.034611
-0.004495
-0.053756
-0.100052
-0.137570
-0.154076
-0.162267
-0.141505
-0.113684
-0.082076
-0.020431
0.033670
0.088018
0.120466
0.156627
0.180228
0.191718
0.183328
0.151055
0.129649
0.079103
0.029986
-0.010280
-0.058696
-0.091805
-0.113523
-0.128438
-0.119633
-0.087897
-0.064733
-0.021758
0.031662
0.090121
0.138131
0.187495
0.206329
0.206387
0.203152
0.173042
0.137932
0.100333
0.044180
-0.000455
-0.062291
-0.097297
-0.118321
-0.140470
-0.146074
-0.107608
-0.074309
-0.042056
0.013172
0.050189
0.096991
0.138140
0.172845
0.191296
0.193121
0.190873
0.157884
0.104559
0.051213
0.002961
-0.035735
-0.083163
-0.102561
-0.124738
-0.131744
-0.123957
-0.087494
-0.037747
-0.007043
0.044177
0.089551
0.121017
0.145597
0.151082
0.138783
0.124060
0.109152
0.087222
0.005773
-0.055827
-0.080900
-0.096987
-0.114905
-0.131841
-0.147269
-0.140718
-0.127331
-0.087730
-0.046539
0.025648
0.064989
0.096455
0.098394
0.113186
0.109039
0.073723
0.037736
0.008352
-0.038306
-0.086615
-0.118042
-0.156920
-0.185395
-0.205885
-0.207619
-0.178073
-0.158365
-0.129296
-0.084723
-0.038451
0.003762
0.024041
0.044550
0.061936
0.058134
0.038920
0.008787
-0.027327
-0.072190
-0.109338
-0.160683
-0.192298
-0.210693
-0.216849
-0.212752
-0.209409
-0.167579
-0.131273
-0.104796
-0.057591
-0.009358
0.033209
0.038714
0.036815
0.030785
-0.012555
-0.036321
-0.083139
-0.114118
-0.163943
-0.185789
-0.220603
-0.239070
-0.230337
-0.223312
-0.202629
-0.184197
-0.156134
-0.090122
-0.037560
0.015498
0.053092
0.058175
0.042428
0.016426
-0.016688
-0.047563
-0.079397
-0.097125
-0.107693
-0.148357
-0.184073
-0.210529
-0.225422
-0.218765
-0.194073
-0.165467
-0.146081
-0.090964
-0.061717
-0.017969
0.020339
0.057904
0.096657
0.082738
0.039129
0.003647
-0.034983
-0.074273
-0.116409
-0.154604
-0.197147
-0.232056
-0.236479
-0.220221
-0.202885
-0.171973
-0.121376
-0.077430
-0.024713
0.024531
0.048690
0.080569
0.071679
0.049552
0.022755
0.012087
-0.047263
-0.079702
-0.115058
-0.165056
-0.195614
-0.214923
-0.223623
-0.228591
-0.202287
-0.174692
-0.121263
-0.086990
-0.031427
0.027134
0.066670
0.082253
0.094837
0.084039
0.053255
0.023408
-0.027718
-0.083355
-0.153680
-0.201088
-0.235334
-0.239827
-0.232324
-0.232586
-0.213336
-0.171388
-0.099994
-0.056253
-0.037029
0.020033
0.060872
0.086422
0.079622
0.074043
0.048362
0.018728
-0.034143
-0.054774
-0.097607
-0.156338
-0.199354
-0.184715
-0.206800
-0.222842
-0.206270
-0.186235
-0.137941
-0.123660
-0.045781
0.006504
0.045866
0.061378
0.082395
0.083377
0.071428
0.039241
-0.011773
-0.065025
-0.107217
-0.171149
-0.210329
-0.242855
-0.244001
-0.239350
-0.221172
-0.203419
-0.140422
-0.105981
-0.060238
-0.022436
0.021933
0.086245
0.078773
0.071135
0.048450
0.023658
-0.019574
-0.072904
-0.124959
-0.175142
-0.199671
-0.218882
-0.214011
-0.221623
-0.197018
-0.174872
-0.155407
-0.096264
-0.052504
-0.012809
0.029884
0.064008
0.083045
0.067759
0.041954
0.023267
-0.014951
-0.065054
-0.121367
-0.168376
-0.208042
-0.237980
-0.239198
-0.224069
-0.206461
-0.195481
-0.134204
-0.100762
-0.060540
-0.006996
0.023057
0.031993
0.055433
0.052941
0.076326
0.064730
0.001820
-0.022807
-0.087996
-0.144458
-0.178015
-0.222976
-0.226246
-0.221111
-0.206653
-0.166242
-0.117263
-0.060923
-0.024346
0.019403
0.057836
0.106521
0.133793
0.093862
0.070591
0.040033
0.000683
-0.035109
-0.078937
-0.139380
-0.164964
-0.192253
-0.193114
-0.195274
-0.186768
-0.154771
-0.107932
-0.073167
-0.024714
0.029660
0.058835
0.108929
0.136789
0.109598
0.063757
0.055822
0.032128
-0.018235
-0.069112
-0.106204
-0.132448
-0.150824
-0.161130
-0.142364
-0.140223
-0.107798
-0.075632
-0.037019
0.000688
0.036417
0.081619
0.096970
0.085591
0.073234
0.049395
0.008536
-0.018148
-0.065282
-0.107406
-0.160763
-0.188370
-0.215084
-0.230486
-0.228962
-0.179068
-0.167455
-0.119305
-0.096689
-0.054089
-0.004042
0.016833
0.044701
0.050025
0.027216
0.003208
-0.031718
-0.078966
-0.097617
-0.153402
-0.200008
-0.231356
-0.244071
-0.263457
-0.263702
-0.224143
-0.202168
-0.159483
-0.090109
-0.030646
-0.007602
0.008679
0.013890
0.026571
0.022162
0.004801
-0.028530
-0.068040
-0.121308
-0.178705
-0.229494
-0.222370
-0.229149
-0.238051
-0.251324
-0.218638
-0.188948
-0.161780
-0.098537
-0.052317
-0.008557
0.021083
0.047508
0.037871
0.025276
0.017643
-0.011752
-0.051596
-0.125169
-0.186024
-0.218856
-0.260813
-0.291675
-0.274163
-0.270989
-0.250431
-0.208690
-0.158729
-0.119077
-0.065174
-0.017184
0.022197
0.041174
0.039961
0.023966
0.016297
-0.000999
-0.044947
-0.102942
-0.155511
-0.224763
-0.261901
-0.292278
-0.303940
-0.311650
-0.290761
-0.250468
-0.191108
-0.130958
-0.058612
-0.001663
-0.004330
0.033327
0.070769
0.077948
0.063302
0.041667
-0.011238
-0.037088
-0.057268
-0.093801
-0.130112
-0.153534
-0.131593
-0.110751
-0.110413
-0.085592
-0.021999
0.099561
0.167679
0.237695
0.312379
0.369673
0.406439
0.417781
0.421969
0.436843
0.436940
0.427477
0.389701
0.369762
0.370295
0.378891
0.408361
0.446908
0.511379
0.591929
0.642725
0.689632
0.735317
0.775195
0.792906
0.793094
0.801493
0.774201
0.713431
0.618037
0.502659
0.394558
0.288546
0.204868
0.124120
0.040538
-0.028906
-0.063555
-0.054627
-0.021549
-0.000085
0.014762
0.042607
0.062121
0.087145
0.093346
0.128533
0.137595
0.100604
0.068321
0.047987
-0.004905
-0.058509
-0.119016
-0.133958
-0.146803
-0.156940
-0.147130
-0.135659
-0.118938
-0.109423
-0.064528
-0.011273
0.022289
0.054197
0.075091
0.067538
0.065439
0.038763
0.020537
-0.014710
-0.059360
-0.102356
-0.149584
-0.192040
-0.216960
-0.224010
-0.218895
-0.176516
-0.153244
-0.114861
-0.079962
-0.044950
-0.008507
0.039857
0.073795
0.076182
0.056232
0.036473
0.008998
-0.028580
-0.076303
-0.129925
-0.175132
-0.202620
-0.228982
-0.224754
-0.218103
-0.226383
-0.211832
-0.128483
-0.053533
-0.032197
0.003404
0.047336
0.095247
0.127063
0.118810
0.078302
0.018382
-0.014884
-0.065695
-0.094567
-0.115986
-0.154048
-0.183021
-0.200881
-0.171289
-0.154020
-0.115211
-0.079641
-0.041891
-0.006002
0.047382
0.090531
0.103814
0.115441
0.096752
0.089320
0.040012
0.030249
-0.015679
-0.073114
-0.118042
-0.149445
-0.170872
-0.173230
-0.151405
-0.120461
-0.086159
-0.045338
-0.007168
0.049046
0.083746
0.112429
0.139970
0.136246
0.131278
0.102108
0.075684
0.025451
-0.023539
-0.077473
-0.122601
-0.150474
-0.173387
-0.182789
-0.150242
-0.110802
-0.079606
-0.028709
0.024932
0.063989
0.114255
0.143478
0.165628
0.171486
0.150505
0.144239
0.108505
0.066752
0.023314
-0.042477
-0.087434
-0.105793
-0.137591
-0.147500
-0.140697
-0.112526
-0.073476
-0.016722
0.052706
0.087659
0.104971
0.148122
0.172850
0.167770
0.172335
0.187207
0.150708
0.112624
0.091749
0.016143
-0.036667
-0.095097
-0.143011
-0.145001
-0.130864
-0.096937
-0.057411
-0.012684
0.039214
0.092613
0.127711
0.167364
0.175879
0.172467
0.171458
0.171109
0.130707
0.099786
0.045572
0.005086
-0.048721
-0.094562
-0.119244
-0.142753
-0.127188
-0.092128
-0.071190
-0.042834
0.005120
0.053527
0.118603
0.151067
0.146313
0.135715
0.143295
0.130728
0.119639
0.085027
0.047160
-0.017443
-0.086665
-0.074138
-0.130073
-0.148651
-0.149897
-0.134014
-0.113126
-0.079223
-0.034275
0.000306
0.043242
0.086180
0.125573
0.150674
0.130859
0.091425
0.051707
0.007341
-0.037856
-0.095684
-0.145056
-0.178884
-0.185523
-0.190380
-0.193453
-0.162126
-0.140744
-0.109112
-0.074352
-0.022264
0.014513
0.044063
0.050985
0.074028
0.069904
0.050092
0.016900
-0.016706
-0.062393
-0.120964
-0.157437
-0.196114
-0.208691
-0.227146
-0.215896
-0.204989
-0.168944
-0.134578
-0.085891
-0.031983
0.009156
0.041736
0.045586
0.046558
0.039544
0.026780
-0.001694
-0.048761
-0.075986
-0.125107
-0.163752
-0.189891
-0.202231
-0.205349
-0.196248
-0.186170
-0.143860
-0.100965
-0.069351
-0.028317
0.007471
0.043168
0.058731
0.060421
0.042911
0.007149
-0.015699
-0.034715
-0.067188
-0.115302
-0.170066
-0.197269
-0.219731
-0.219393
-0.195699
-0.157259
-0.151318
-0.121032
-0.078240
-0.021892
-0.002170
0.047326
0.071946
0.056167
0.031414
0.000296
-0.025065
-0.031598
-0.080683
-0.120808
-0.148968
-0.191077
-0.216827
-0.218798
-0.195487
-0.168722
-0.144195
-0.117080
-0.067191
-0.019656
0.026316
0.058283
0.081858
0.097299
0.087762
0.056072
0.023339
-0.018406
-0.069192
-0.136385
-0.160000
-0.202734
-0.225967
-0.223187
-0.210590
-0.204222
-0.170714
-0.115006
-0.056233
-0.009527
0.036677
0.070208
0.087287
0.095668
0.079878
0.073271
0.033550
-0.016190
-0.054840
-0.078759
-0.142621
-0.191804
-0.213987
-0.221071
-0.206669
-0.175832
-0.136164
-0.103204
-0.054293
-0.013446
0.025537
0.068251
0.095469
0.108256
0.083519
0.054151
0.016309
-0.033176
-0.062497
-0.112413
-0.153353
-0.207419
-0.222128
-0.223929
-0.221865
-0.195069
-0.152005
-0.096589
-0.061830
-0.022331
-0.016490
0.062669
0.126102
0.117103
0.107577
0.088490
0.039218
0.002369
-0.039268
-0.094100
-0.141775
-0.190428
-0.218324
-0.202355
-0.194671
-0.188296
-0.160659
-0.138179
-0.105030
-0.024683
0.026583
0.059205
0.071888
0.079816
0.074015
0.061286
0.036209
-0.012468
-0.052566
-0.097705
-0.136060
-0.184470
-0.215978
-0.225566
-0.208553
-0.192381
-0.176059
-0.133568
-0.082289
-0.041819
0.002671
0.057502
0.080221
0.083035
0.063044
0.040147
0.005840
-0.021244
-0.068132
-0.097608
-0.112555
-0.131426
-0.168848
-0.193988
-0.198234
-0.181665
-0.169277
-0.108905
-0.057132
-0.007875
0.031425
0.063809
0.108240
0.111415
0.110200
0.090385
0.057584
0.021407
-0.021295
-0.073946
-0.118988
-0.171192
-0.198536
-0.203586
-0.197357
-0.172544
-0.132772
-0.069339
-0.063781
-0.031437
0.033376
0.084459
0.089355
0.099987
0.096572
0.074786
0.039642
0.035451
-0.000646
-0.036924
-0.078643
-0.125276
-0.132038
-0.141669
-0.135688
-0.119500
-0.098322
-0.077543
-0.029530
0.002145
0.043143
0.077675
0.086205
0.094907
0.090205
0.079825
0.048010
0.016834
-0.041778
-0.092859
-0.134490
-0.172278
-0.195227
-0.201020
-0.196204
-0.177145
-0.139238
-0.100735
-0.063221
-0.030050
0.007194
0.034140
0.054508
0.072963
0.064247
0.048640
-0.006662
-0.050192
-0.114677
-0.127088
-0.155720
-0.191056
-0.215597
-0.221059
-0.213997
-0.198948
-0.174402
-0.137744
-0.099578
-0.076621
-0.038498
-0.005570
0.036588
0.028778
0.015891
0.010054
-0.012444
-0.068967
-0.117004
-0.170385
-0.200658
-0.250920
-0.261717
-0.258401
-0.232162
-0.223123
-0.176619
-0.122769
-0.096336
-0.043898
0.000122
0.036013
0.059416
0.040638
0.047739
0.012192
-0.025539
-0.068043
-0.131420
-0.173478
-0.194368
-0.230319
-0.249976
-0.254839
-0.248642
-0.202390
-0.180728
-0.139380
-0.097504
-0.046697
0.002759
0.033656
0.056678
0.067892
0.043172
0.011630
-0.030031
-0.084727
-0.127235
-0.177929
-0.227281
-0.267919
-0.267159
-0.263129
-0.254091
-0.236023
-0.203787
-0.163062
-0.109204
-0.054439
0.003171
0.032467
0.032842
0.035365
0.027125
0.014760
-0.025693
-0.078303
-0.110328
-0.137387
-0.164442
-0.194905
-0.210125
-0.198270
-0.156974
-0.138407
-0.096703
-0.026683
0.040228
0.097524
0.143256
0.209470
0.250482
0.269707
0.299714
0.314887
0.303059
0.280572
0.270635
0.266486
0.251725
0.235489
0.225696
0.276142
0.301449
0.343120
0.430063
0.513429
0.600219
0.680271
0.767972
0.845441
0.896735
0.904709
0.871024
0.853506
0.814333
0.758814
0.692468
0.610355
0.532006
0.429312
0.358038
0.289301
0.213769
0.197315
0.146963
0.134738
0.128649
0.131096
0.147918
0.176148
0.205156
0.202322
0.200032
0.166326
0.116052
0.087160
0.043233
-0.021527
-0.076058
-0.111729
-0.127864
-0.126565
-0.144181
-0.161086
-0.134282
-0.087093
-0.047283
-0.017831
0.017461
0.076630
0.082234
0.086586
0.086122
0.083789
0.059265
0.023280
-0.026434
-0.078512
-0.118560
-0.147795
-0.173632
-0.189864
-0.180826
-0.162303
-0.141484
-0.115995
-0.078770
-0.025708
0.007254
0.028037
0.054320
0.071226
0.059832
0.054343
0.020028
-0.032728
-0.075527
-0.112181
-0.145584
-0.174780
-0.210821
-0.210433
-0.200500
-0.184373
-0.152932
-0.104370
-0.059330
-0.032093
0.001096
0.013242
0.043120
0.035125
0.046522
0.049559
0.014104
-0.035547
-0.106000
-0.139697
-0.147507
-0.180153
-0.159470
-0.166033
-0.179110
-0.159099
-0.134788
-0.101505
-0.052217
0.025295
0.074943
0.090239
0.116400
0.104560
0.111515
0.081827
0.056727
-0.007233
-0.044735
-0.081214
-0.119531
-0.156519
-0.179839
-0.183396
-0.177511
-0.139066
-0.088824
-0.043348
-0.011318
0.042971
0.081616
0.110263
0.115643
0.132522
0.099321
0.078008
0.065578
0.021026
-0.025178
-0.065658
-0.100691
-0.108975
-0.137005
-0.150242
-0.147839
-0.129510
-0.098422
-0.040755
-0.012072
0.034639
0.067048
0.116727
0.151985
0.171529
0.174933
0.151909
0.119735
0.088022
0.044644
-0.034012
-0.079286
-0.116422
-0.154652
-0.158720
-0.157157
-0.134709
-0.091263
-0.051627
-0.011921
0.048657
0.108411
0.127514
0.135254
0.185553
0.204248
0.162531
0.103404
0.088358
0.034825
-0.006287
-0.053604
-0.067660
-0.104911
-0.131801
-0.139465
-0.114086
-0.077962
-0.031709
0.004085
0.048487
0.081942
0.099480
0.127581
0.163925
0.172550
0.173292
0.143574
0.077789
0.063066
0.014912
-0.045713
-0.101621
-0.136834
-0.154325
-0.149714
-0.123228
-0.096288
-0.068458
-0.016517
0.021428
0.059463
0.107408
0.138290
0.143830
0.150343
0.119825
0.072547
0.038321
0.024444
-0.027331
-0.086419
-0.115059
-0.148175
-0.156550
-0.153796
-0.158565
-0.128248
-0.088567
-0.044073
0.001371
0.051341
0.083733
0.101185
0.098688
0.101483
0.080376
0.039435
0.002717
-0.016636
-0.050452
-0.085480
-0.120283
-0.164724
-0.171192
-0.161572
-0.159139
-0.140731
-0.103270
-0.061731
-0.018422
0.017274
0.049784
0.075728
0.078665
0.076316
0.045139
0.025495
-0.018421
-0.060806
-0.096947
-0.138321
-0.161242
-0.182248
-0.191953
-0.191092
-0.179905
-0.150431
-0.102631
-0.083014
-0.061249
-0.002644
0.022847
0.036332
0.044990
0.047030
0.038471
0.034451
0.011817
-0.047094
-0.125388
-0.178718
-0.206612
-0.211752
-0.219484
-0.211397
-0.181343
-0.143555
-0.115486
-0.068701
-0.033356
0.003409
0.033874
0.060596
0.062053
0.048211
0.030290
-0.005443
-0.062596
-0.054341
-0.093326
-0.150414
-0.181686
-0.207595
-0.221160
-0.200811
-0.202296
-0.170665
-0.112116
-0.076912
-0.009611
0.015697
0.048745
0.068537
0.063235
0.053569
0.019794
-0.006298
-0.050873
-0.084851
-0.128100
-0.161580
-0.183419
-0.212917
-0.215927
-0.198164
-0.157282
-0.136447
-0.095981
-0.037596
0.009333
0.054357
0.082551
0.092771
0.101384
0.095030
0.071063
0.019952
-0.014850
-0.063317
-0.119472
-0.176139
-0.203472
-0.235518
-0.241892
-0.228550
-0.190982
-0.149004
-0.092625
-0.028698
0.021180
0.030702
0.087548
0.111681
0.108788
0.115064
0.083423
0.041628
-0.025856
-0.083317
-0.135541
-0.158873
-0.196184
-0.210643
-0.240928
-0.226746
-0.168908
-0.149486
-0.094841
-0.035631
0.006182
0.056230
0.080858
0.101450
0.117877
0.112364
0.078254
0.029449
-0.020350
-0.045392
-0.103220
-0.142482
-0.180325
-0.228434
-0.239069
-0.220234
-0.190973
-0.130176
-0.087750
-0.054948
-0.006092
0.029156
0.069193
0.100254
0.112170
0.108466
0.089234
0.044931
0.009855
-0.040576
-0.099295
-0.150948
-0.179435
-0.207901
-0.205998
-0.207943
-0.198231
-0.171151
-0.118780
-0.064253
-0.027472
0.009352
0.060711
0.081290
0.098328
0.095742
0.069598
0.033580
0.000074
-0.059839
-0.110520
-0.155004
-0.175914
-0.211804
-0.223711
-0.216727
-0.204722
-0.183841
-0.145611
-0.090636
-0.050666
0.003750
0.047432
0.068915
0.081757
0.073871
0.058588
0.023246
0.002200
-0.042174
-0.086121
-0.130905
-0.177872
-0.197774
-0.214793
-0.221867
-0.196478
-0.179076
-0.149498
-0.094325
-0.035838
0.008707
0.059245
0.067027
0.084174
0.083843
0.067904
0.043503
-0.014878
-0.048482
-0.068635
-0.105138
-0.141765
-0.163011
-0.137038
-0.148847
-0.117380
-0.092614
-0.064137
-0.026194
-0.000246
0.038046
0.063615
0.100780
0.102376
0.075065
0.082736
0.060085
0.031063
-0.022212
-0.069089
-0.107645
-0.141351
-0.150549
-0.160746
-0.160230
-0.126270
-0.098455
-0.060754
-0.011927
0.032290
0.055815
0.079927
0.096796
0.099667
0.097682
0.086191
0.041681
-0.005215
-0.042856
-0.086332
-0.111575
-0.132709
-0.153449
-0.156143
-0.157100
-0.132088
-0.098690
-0.066596
-0.034825
-0.003714
0.028854
0.069402
0.088012
0.097115
0.069976
0.029681
0.012185
-0.054209
-0.115588
-0.132776
-0.126498
-0.135661
-0.152097
-0.189689
-0.191230
-0.152093
-0.117870
-0.090935
-0.039428
0.004853
0.033822
0.037939
0.054045
0.065093
0.052529
0.043993
0.021246
-0.046147
-0.102995
-0.149141
-0.191269
-0.220975
-0.257271
-0.262127
-0.239116
-0.205511
-0.199798
-0.149038
-0.091231
-0.035672
0.013371
0.047646
0.043960
0.052962
0.032383
0.004734
-0.023907
-0.071997
-0.132262
-0.145854
-0.200008
-0.237915
-0.277744
-0.276785
-0.272814
-0.231082
-0.187657
-0.147036
-0.102425
-0.065627
-0.015660
0.027684
0.049381
0.069524
0.068868
0.033976
-0.022788
-0.056660
-0.118123
-0.169884
-0.217387
-0.245566
-0.267706
-0.286514
-0.280369
-0.263944
-0.210180
-0.150309
-0.094985
-0.046815
-0.009937
0.025239
0.049047
0.060461
0.050523
0.028334
0.006856
-0.051654
-0.116203
-0.157349
-0.218189
-0.240173
-0.267412
-0.286241
-0.292737
-0.285621
-0.245210
-0.199136
-0.142828
-0.089863
-0.048160
-0.011130
0.046652
0.084080
0.063279
0.102240
0.079269
0.041054
0.003030
-0.045641
-0.057266
-0.066232
-0.087310
-0.079101
-0.076664
-0.037317
0.028083
0.079606
0.154649
0.217943
0.297671
0.354030
0.402019
0.485688
0.529675
0.533351
0.518955
0.495659
0.496839
0.505643
0.504379
0.499381
0.517363
0.542857
0.560577
0.588644
0.632349
0.685999
0.717641
0.722839
0.736925
0.751977
0.782401
0.782424
0.724264
0.634078
0.521396
0.414274
0.332593
0.222472
0.119885
0.054331
-0.007753
-0.052006
-0.076393
-0.064094
-0.040693
-0.015865
0.004855
0.047823
0.085391
0.112554
0.127034
0.151607
0.139165
0.113444
0.075292
0.059331
0.021406
-0.027231
-0.068485
-0.120707
-0.152044
-0.169940
-0.178596
-0.150029
-0.124024
-0.078214
-0.037758
-0.003336
0.039135
0.074088
0.075182
0.095369
0.079885
0.045432
0.014935
-0.019421
-0.066091
-0.108271
-0.148905
-0.195468
-0.209285
-0.185604
-0.179401
-0.180476
-0.138556
-0.088557
-0.040718
-0.030931
-0.006726
0.029321
0.088545
0.105740
0.083239
0.044918
0.009208
-0.039495
-0.070894
-0.101223
-0.153571
-0.170054
-0.189573
-0.204399
-0.200237
-0.178325
-0.134086
-0.084417
-0.047858
-0.012892
0.024853
0.054726
0.051091
0.056243
0.062842
0.040268
0.000739
-0.036533
-0.075160
-0.098578
-0.131780
-0.192582
-0.194093
-0.193009
-0.182257
-0.162754
-0.118243
-0.071942
-0.015337
0.014623
0.063535
0.099198
0.096959
0.112925
0.114715
0.070290
0.035647
-0.004275
-0.041548
-0.089036
-0.125760
-0.165831
-0.180353
-0.175910
-0.157375
-0.127583
-0.093497
-0.045755
-0.006589
0.034917
0.078635
0.106564
0.129676
0.139333
0.119930
0.102044
0.073953
0.026530
-0.013097
-0.052561
-0.108066
-0.155689
-0.165399
-0.175578
-0.158290
-0.133908
-0.111417
-0.059467
-0.005218
0.063732
0.115998
0.154507
0.158849
0.170298
0.156503
0.140232
0.096062
0.045707
-0.005656
-0.023204
-0.049444
-0.103970
-0.136068
-0.155417
-0.153539
-0.131592
-0.093331
-0.055665
-0.010365
0.016934
0.101399
0.181587
0.193452
0.188653
0.185866
0.196721
0.153319
0.097563
0.024833
-0.016502
-0.065490
-0.123295
-0.144789
-0.158316
-0.141850
-0.116361
-0.087453
-0.046182
0.002608
0.048734
0.096848
0.128843
0.150479
0.166805
0.144223
0.129015
0.096965
0.059783
0.013033
-0.054992
-0.095270
-0.140212
-0.161761
-0.179516
-0.161038
-0.143279
-0.113066
-0.066836
-0.012307
0.026501
0.074135
0.116103
0.129688
0.137588
0.139706
0.115340
0.074734
0.029541
-0.010495
-0.073372
-0.126780
-0.160945
-0.168277
-0.170331
-0.167026
-0.168491
-0.144934
-0.120296
-0.074060
-0.031310
0.032941
0.102868
0.108375
0.100225
0.090884
0.075496
0.047781
0.017684
-0.022201
-0.078174
-0.114460
-0.158749
-0.175196
-0.186292
-0.185421
-0.183864
-0.162998
-0.133945
-0.095179
-0.034910
0.017390
0.049989
0.056949
0.056583
0.053067
0.030540
-0.003477
-0.004610
-0.020316
-0.086318
-0.142014
-0.182577
-0.201777
-0.205103
-0.205692
-0.174926
-0.154975
-0.126108
-0.082316
-0.037648
-0.008863
0.021927
0.021939
0.035824
0.050801
0.038999
0.024009
-0.008201
-0.060754
-0.107694
-0.161922
-0.213028
-0.213423
-0.227891
-0.225196
-0.158781
-0.141504
-0.093467
-0.050896
-0.012520
0.027479
0.048821
0.051730
0.069926
0.048373
0.027509
0.001890
-0.033319
-0.080404
-0.117718
-0.167691
-0.189988
-0.202466
-0.211563
-0.198651
-0.169159
-0.133539
-0.110235
-0.067382
-0.039500
-0.011441
0.021800
0.052077
0.072343
0.078293
0.037610
0.000714
-0.029389
-0.064085
-0.111386
-0.128406
-0.157887
-0.181030
-0.178082
-0.168632
-0.167964
-0.155120
-0.117558
-0.060065
-0.025491
0.030038
0.076073
0.092944
0.097981
0.080072
0.050706
0.013283
-0.029672
-0.075572
-0.110172
-0.146486
-0.176025
-0.196857
-0.208011
-0.184520
-0.165159
-0.151615
-0.098491
-0.053116
-0.009873
0.039156
0.062530
0.086214
0.096910
0.077076
0.048470
0.018189
-0.026543
-0.076073
-0.123709
-0.173592
-0.200743
-0.214539
-0.213370
-0.198525
-0.191512
-0.136665
-0.079086
-0.044896
0.009008
0.043744
0.080378
0.088050
0.096798
0.072850
0.059938
0.021004
-0.013161
-0.051623
-0.112129
-0.169350
-0.219222
-0.230657
-0.213087
-0.223359
-0.192972
-0.161969
-0.105314
-0.057739
-0.014882
0.028410
0.053316
0.084280
0.103931
0.077754
0.053458
-0.002720
-0.026771
-0.100495
-0.150726
-0.186954
-0.225717
-0.235830
-0.263622
-0.246937
-0.223226
-0.192762
-0.151498
-0.102297
-0.042664
0.018173
0.047637
0.075411
0.068062
0.080283
0.052684
0.021885
-0.026361
-0.087560
-0.131910
-0.179318
-0.225398
-0.248018
-0.260488
-0.247605
-0.214700
-0.203826
-0.145425
-0.040333
0.005996
0.008054
0.039803
0.073905
0.084967
0.086747
0.058634
0.032405
0.023232
-0.050615
-0.115452
-0.150869
-0.203361
-0.227267
-0.241831
-0.234946
-0.224158
-0.182172
-0.149180
-0.107613
-0.059353
-0.010509
0.026143
0.056865
0.062538
0.069453
0.052596
0.003283
-0.028262
-0.048702
-0.102491
-0.158582
-0.197082
-0.229911
-0.235573
-0.234794
-0.221087
-0.183477
-0.151535
-0.111589
-0.063987
-0.023679
0.015451
0.027514
0.042565
0.032718
0.016832
-0.011944
-0.052630
-0.088448
-0.125508
-0.140840
-0.184731
-0.208639
-0.209312
-0.189498
-0.169108
-0.180182
-0.166464
-0.103476
-0.045972
-0.020888
0.035384
0.038686
0.034264
0.030342
0.002767
-0.012239
-0.055573
-0.105614
-0.149012
-0.173957
-0.200014
-0.205021
-0.191003
-0.201222
-0.166451
-0.145918
-0.105352
-0.063778
-0.015149
0.010057
0.025296
0.056249
0.053828
0.081781
0.058402
0.037750
0.013103
-0.019526
-0.081593
-0.122498
-0.146819
-0.182347
-0.190868
-0.191570
-0.174551
-0.135439
-0.097804
-0.054345
-0.020339
0.008823
0.040698
0.069195
0.073405
0.072920
0.050404
0.039615
0.003834
-0.038633
-0.081857
-0.137149
-0.158677
-0.177888
-0.187346
-0.171690
-0.138057
-0.103290
-0.055853
-0.025253
0.007611
0.034858
0.075879
0.095475
0.099631
0.100003
0.058403
0.015574
-0.025230
-0.067585
-0.122197
-0.157435
-0.185922
-0.206663
-0.210091
-0.213522
-0.196479
-0.154377
-0.116696
-0.075237
-0.039905
-0.012128
0.016941
0.032877
0.046077
0.056562
0.054807
-0.002399
-0.062584
-0.106963
-0.156698
-0.193717
-0.223714
-0.244013
-0.268349
-0.253083
-0.213734
-0.161246
-0.139573
-0.104775
-0.069202
-0.035923
-0.001909
0.032627
0.046388
0.027427
0.010903
-0.027029
-0.090493
-0.139139
-0.190713
-0.226758
-0.252398
-0.271180
-0.265381
-0.268736
-0.226277
-0.204737
-0.160374
-0.100512
-0.051181
-0.016730
0.030971
0.038770
0.026780
0.018256
-0.016269
-0.046941
-0.087354
-0.130309
-0.199152
-0.200156
-0.246206
-0.269274
-0.263624
-0.266809
-0.243870
-0.207178
-0.168843
-0.131918
-0.063827
-0.005561
0.028314
0.033298
0.038813
0.024389
0.004076
-0.037206
-0.081924
-0.139633
-0.180423
-0.225502
-0.263704
-0.300297
-0.306427
-0.293835
-0.250504
-0.204061
-0.167858
-0.124762
-0.065637
-0.028831
0.003814
0.038986
0.038082
0.042013
0.014528
-0.029353
-0.088162
-0.136744
-0.158616
-0.213644
-0.247159
-0.239263
-0.223342
-0.224039
-0.209194
-0.157474
-0.088375
-0.015897
0.050521
0.100852
0.153243
0.175215
0.194462
0.221213
0.209894
0.183132
0.174093
0.163029
0.146218
0.142533
0.131768
0.138440
0.160106
0.196429
0.237491
0.333361
0.396994
0.481893
0.570910
0.641637
0.712705
0.790039
0.823106
0.856511
0.848514
0.814201
0.778663
0.730552
0.654191
0.589848
0.531232
0.488874
0.423546
0.360351
0.303275
0.257019
0.243951
0.246378
0.239468
0.233092
0.219449
0.220074
0.224588
0.202141
0.206123
0.164759
0.087264
0.013468
-0.007012
-0.042080
-0.104946
-0.128004
-0.143159
-0.149759
-0.123120
-0.106204
-0.070364
-0.044512
0.002654
0.042140
0.061909
0.085180
0.099104
0.104597
0.087747
0.061275
0.014026
-0.042638
-0.089641
-0.128874
-0.165135
-0.197530
-0.194639
-0.196054
-0.189895
-0.150565
-0.111530
-0.075144
-0.030475
0.016853
0.030953
0.049173
0.051190
0.062435
0.037177
0.013355
-0.014400
-0.050126
-0.092387
-0.136776
-0.164630
-0.190014
-0.201827
-0.208002
-0.192765
-0.157388
-0.131074
-0.075495
-0.030947
-0.005354
0.028864
0.059426
0.064923
0.061970
0.031461
0.005003
-0.025174
-0.065437
-0.101000
-0.126616
-0.161563
-0.177140
-0.190256
-0.174930
-0.167870
-0.144181
-0.107669
-0.073006
-0.036080
0.010289
0.050720
0.066868
0.072875
0.070113
0.058968
0.037432
-0.008974
-0.060916
-0.102219
-0.110088
-0.134085
-0.160347
-0.167932
-0.161622
-0.135828
-0.110672
-0.078235
-0.051453
-0.007453
0.031184
0.069197
0.072428
0.072615
0.051207
0.068759
0.043304
0.008314
-0.033873
-0.083329
-0.125766
-0.152022
-0.158552
-0.150478
-0.137215
-0.104918
-0.067258
-0.019436
0.019433
0.050847
0.086517
0.113142
0.122299
0.131330
0.119557
0.094929
0.068149
0.027083
-0.012261
-0.045852
-0.086964
-0.112879
-0.142600
-0.141596
-0.148586
-0.115590
-0.071162
-0.024017
0.031310
0.075351
0.105675
0.139669
0.187742
0.182446
0.154997
0.123737
0.103547
0.059253
0.001423
-0.050145
-0.105688
-0.138906
-0.141871
-0.134329
-0.105205
-0.073824
-0.042064
-0.006969
0.047146
0.091420
0.134422
0.154189
0.156531
0.183444
0.186129
0.148183
0.102053
0.049294
0.000534
-0.045622
-0.081489
-0.118800
-0.135988
-0.142738
-0.141922
-0.117941
-0.080611
-0.034090
0.024136
0.078036
0.123144
0.141123
0.163654
0.166178
0.157201
0.136345
0.097691
0.048229
-0.007643
-0.053116
-0.116930
-0.124571
-0.154240
-0.167219
-0.165237
-0.151637
-0.113189
-0.057560
-0.015682
0.037348
0.091474
0.124618
0.140403
0.135313
0.125512
0.099907
0.059288
0.016512
-0.037350
-0.101054
-0.143406
-0.167508
-0.187981
-0.201170
-0.204338
-0.185007
-0.136924
-0.075370
-0.039783
0.005532
0.053506
0.079890
0.112181
0.102704
0.109245
0.084806
0.072326
0.035155
-0.043982
-0.114299
-0.167088
-0.177373
-0.198949
-0.219714
-0.240089
-0.206644
-0.181259
-0.123941
-0.084604
-0.025660
0.026004
0.058249
0.085305
0.084050
0.069658
0.054476
0.021139
-0.011148
-0.064907
-0.100888
-0.152429
-0.184775
-0.208529
-0.237368
-0.235897
-0.207830
-0.182708
-0.139658
-0.096473
-0.052773
-0.011396
0.031384
0.073474
0.073193
0.071547
0.062768
0.046074
-0.000615
-0.054059
-0.085406
-0.143236
-0.185448
-0.227246
-0.243061
-0.229420
-0.228342
-0.164097
-0.119270
-0.084468
-0.058867
-0.024985
0.026285
0.069901
0.076325
0.065918
0.041698
0.031687
-0.006904
-0.049581
-0.089580
-0.136833
-0.174976
-0.193803
-0.211096
-0.201615
-0.189325
-0.166702
-0.125685
-0.076376
-0.029032
0.018753
0.041011
0.045223
0.062289
0.060933
0.063266
0.045958
-0.001220
-0.050484
-0.089882
-0.131055
-0.156451
-0.189113
-0.191001
-0.181223
-0.167953
-0.142844
-0.101071
-0.065455
-0.024314
0.018137
0.045956
0.067180
0.073806
0.066080
0.055785
0.019054
-0.018276
-0.069790
-0.110314
-0.145331
-0.172475
-0.196154
-0.188553
-0.164988
-0.159584
-0.146160
-0.092282
-0.043302
-0.002800
0.034732
0.047644
0.056835
0.082497
0.063652
0.064076
0.021954
-0.040605
-0.095840
-0.105015
-0.107382
-0.126416
-0.160962
-0.184954
-0.181267
-0.169687
-0.136051
-0.094583
-0.048118
-0.010564
0.018537
0.038617
0.052406
0.067133
0.058143
0.034922
0.011927
-0.027785
-0.084021
-0.120890
-0.156710
-0.190618
-0.216517
-0.217213
-0.203216
-0.186534
-0.139206
-0.099523
-0.047793
-0.013690
0.024865
0.036414
0.043665
0.068863
0.065555
0.035742
0.005943
-0.035349
-0.091865
-0.145748
-0.194855
-0.182747
-0.209895
-0.226988
-0.213835
-0.186050
-0.160108
-0.120352
-0.060381
0.012449
0.077901
0.071858
0.042471
0.052293
0.054241
0.041388
0.003018
-0.042584
-0.088217
-0.142866
-0.189553
-0.205265
-0.227227
-0.221226
-0.211122
-0.187504
-0.157753
-0.114685
-0.073870
-0.025767
0.016530
0.043172
0.055186
0.061735
0.052422
0.027448
-0.007912
-0.058776
-0.109034
-0.164429
-0.222628
-0.236688
-0.257063
-0.234934
-0.210584
-0.198635
-0.169673
-0.128088
-0.086796
-0.037343
0.016853
0.039178
0.075383
0.069638
0.057843
0.022647
-0.017570
-0.051761
-0.099908
-0.147088
-0.186904
-0.228887
-0.245206
-0.242368
-0.217162
-0.204731
-0.174982
-0.121150
-0.079016
-0.030223
0.007998
0.039364
0.073793
0.085116
0.067008
0.037726
0.003234
-0.045778
-0.090269
-0.141793
-0.187390
-0.215096
-0.237655
-0.246914
-0.236898
-0.215043
-0.183633
-0.134239
-0.078687
-0.032064
0.013671
0.042061
0.063046
0.071575
0.068557
0.052133
0.004726
-0.039432
-0.086769
-0.139128
-0.186569
-0.217574
-0.251363
-0.243207
-0.226448
-0.209011
-0.168312
-0.112649
-0.050854
-0.005633
0.046564
0.086602
0.100649
0.104741
0.115301
0.119461
0.080055
0.024801
-0.023702
-0.079202
-0.126665
-0.178350
-0.200757
-0.215242
-0.203437
-0.197109
-0.157063
-0.117074
-0.077528
-0.029826
0.039344
0.078975
0.107920
0.112898
0.120641
0.105784
0.070003
0.039099
-0.014030
-0.073611
-0.112412
-0.142448
-0.175630
-0.188876
-0.184004
-0.178312
-0.153996
-0.109971
-0.051077
0.023464
0.066949
0.064575
0.072569
0.074689
0.080373
0.080091
0.054031
0.004050
-0.049388
-0.101690
-0.147549
-0.184354
-0.203790
-0.223969
-0.209795
-0.213273
-0.186765
-0.151850
-0.100844
-0.060841
-0.017390
0.023288
0.048651
0.057800
0.064369
0.056348
0.024226
-0.038974
-0.083367
-0.140821
-0.179252
-0.178329
-0.194885
-0.227770
-0.234739
-0.218100
-0.185819
-0.150138
-0.127964
-0.079719
-0.036310
0.002380
0.014788
0.023942
0.024032
0.010529
-0.027815
-0.069322
-0.100188
-0.138951
-0.168774
-0.202226
-0.243933
-0.251807
-0.249977
-0.231285
-0.209003
-0.158935
-0.124166
-0.073072
-0.032196
-0.000482
0.020713
0.024255
0.020676
0.006587
-0.033280
-0.057306
-0.097097
-0.123732
-0.165471
-0.194328
-0.225095
-0.244249
-0.238974
-0.228983
-0.204124
-0.165317
-0.121859
-0.077996
-0.034930
-0.005469
0.008330
0.023680
0.012999
-0.009221
-0.032217
-0.066170
-0.114879
-0.159876
-0.182376
-0.206400
-0.224336
-0.238337
-0.234388
-0.214781
-0.185127
-0.159049
-0.124647
-0.077930
-0.056011
-0.025089
0.000980
0.026839
0.021499
-0.000405
-0.027097
-0.053711
-0.102106
-0.128864
-0.157318
-0.172644
-0.193655
-0.199425
-0.167415
-0.130464
-0.081435
-0.044473
0.017564
0.072000
0.118080
0.167222
0.193379
0.210715
0.223673
0.238052
0.225475
0.217360
0.222670
0.227678
0.247472
0.261939
0.270604
0.288398
0.337490
0.385244
0.456497
0.552902
0.637553
0.699715
0.762878
0.822464
0.853987
0.870017
0.860971
0.843667
0.799622
0.739059
0.683801
0.604417
0.543046
0.484955
0.388103
0.327086
0.244120
0.208242
0.186639
0.180511
0.169272
0.165014
0.187066
0.191916
0.190542
0.177762
0.184943
0.156413
0.112307
0.070797
0.023258
-0.030236
-0.071881
-0.101154
-0.121383
-0.127517
-0.119384
-0.087426
-0.063617
-0.041914
-0.003898
0.052730
0.089292
0.116165
0.112614
0.110564
0.099164
0.079937
0.049055
0.000542
-0.051290
-0.105477
-0.145642
-0.171342
-0.184918
-0.192204
-0.186660
-0.159507
-0.126842
-0.079560
-0.033623
0.008908
0.048946
0.078211
0.091723
0.104798
0.093268
0.069082
0.031974
-0.013996
-0.070477
-0.111791
-0.143527
-0.169120
-0.187464
-0.194392
-0.196363
-0.174365
-0.134858
-0.085146
-0.034718
0.014859
0.046799
0.077023
0.097357
0.103093
0.099354
0.071271
0.027194
-0.009269
-0.057445
-0.097379
-0.141681
-0.177788
-0.194651
-0.199946
-0.197581
-0.176199
-0.127784
-0.079301
-0.028355
0.027589
0.072367
0.094728
0.116898
0.131157
0.120646
0.096123
0.052130
0.004921
-0.035393
-0.088763
-0.131645
-0.174131
-0.197745
-0.207156
-0.176055
-0.138119
-0.110455
-0.070705
-0.014178
0.070932
0.118823
0.139440
0.154998
0.156600
0.136027
0.116546
0.090268
0.057073
0.000872
-0.043879
-0.080158
-0.115050
-0.141455
-0.140575
-0.140161
-0.111371
-0.076095
-0.027972
0.020412
0.073412
0.116401
0.140932
0.157488
0.174251
0.181693
0.154147
0.133659
0.100300
0.048278
-0.008146
-0.047367
-0.089367
-0.118848
-0.109200
-0.104582
-0.091565
-0.054515
-0.012788
0.034534
0.096602
0.140162
0.171168
0.189573
0.202200
0.202315
0.197980
0.160457
0.111665
0.059935
0.017411
-0.025355
-0.056426
-0.091736
-0.097034
-0.092353
-0.076600
-0.046810
-0.003871
0.047845
0.101123
0.145645
0.177507
0.195247
0.202921
0.198260
0.183814
0.152698
0.122037
0.064264
0.010798
-0.033530
-0.061506
-0.082281
-0.102413
-0.113159
-0.091553
-0.066536
-0.025586
0.020472
0.066107
0.109757
0.147328
0.165214
0.168337
0.163175
0.156639
0.150231
0.128661
0.072070
0.009713
-0.036912
-0.078570
-0.099181
-0.123155
-0.118754
-0.103134
-0.065258
-0.037286
0.012617
0.051631
0.088359
0.121032
0.140979
0.155866
0.153579
0.138118
0.089993
0.045702
0.002692
-0.030310
-0.091272
-0.142816
-0.161635
-0.158760
-0.163750
-0.126214
-0.089000
-0.065931
-0.043733
0.010451
0.061542
0.097294
0.110549
0.111485
0.085183
0.084550
0.081097
0.050288
0.018869
-0.039333
-0.090540
-0.132421
-0.157993
-0.168605
-0.171493
-0.158382
-0.125670
-0.092026
-0.041328
0.003320
0.039906
0.075354
0.079260
0.094196
0.065112
0.051149
0.054080
0.010369
-0.043827
-0.089801
-0.105633
-0.134191
-0.170764
-0.202407
-0.191566
-0.155654
-0.114821
-0.097191
-0.058834
-0.006812
0.026026
0.049952
0.055284
0.072319
0.078453
0.067811
0.044378
0.002792
-0.033966
-0.081479
-0.109555
-0.145155
-0.170475
-0.176054
-0.172004
-0.160109
-0.133579
-0.088577
-0.045753
-0.003914
0.031227
0.064759
0.081044
0.091558
0.081835
0.045318
0.021618
-0.025671
-0.051696
-0.101504
-0.146596
-0.149733
-0.152781
-0.171321
-0.181663
-0.143185
-0.094081
-0.053738
0.003049
0.028012
0.042489
0.067455
0.086505
0.095347
0.082623
0.061678
0.042960
0.012296
-0.034373
-0.076088
-0.117367
-0.134678
-0.143855
-0.151776
-0.156015
-0.135397
-0.100936
-0.051660
0.004040
0.039536
0.065947
0.089358
0.102247
0.115407
0.095024
0.070058
0.023266
-0.006912
-0.042296
-0.079596
-0.130885
-0.163034
-0.180716
-0.170311
-0.160556
-0.121663
-0.100979
-0.057200
-0.004382
0.043249
0.078685
0.109535
0.106902
0.112116
0.080860
0.028667
0.059481
0.027433
-0.034967
-0.099416
-0.159894
-0.191247
-0.164102
-0.165201
-0.141431
-0.133690
-0.107188
-0.051769
0.004526
0.032064
0.083378
0.104215
0.112506
0.116468
0.108733
0.079516
0.042327
-0.015599
-0.072631
-0.115405
-0.170216
-0.160696
-0.149332
-0.188714
-0.194828
-0.167238
-0.132407
-0.103012
-0.023463
0.019034
0.072796
0.099808
0.102790
0.107525
0.105635
0.076583
0.047197
0.010427
-0.043085
-0.097664
-0.135755
-0.179722
-0.192193
-0.205296
-0.196067
-0.176502
-0.137021
-0.097295
-0.055297
-0.009420
0.045962
0.102311
0.139095
0.126188
0.117148
0.101837
0.064101
0.012288
-0.038703
-0.095783
-0.154175
-0.186302
-0.209217
-0.208754
-0.208448
-0.185173
-0.146461
-0.115215
-0.060590
0.005513
0.054285
0.064817
0.083945
0.110789
0.100993
0.085760
0.051756
0.005684
-0.045416
-0.102123
-0.152251
-0.181113
-0.200545
-0.218147
-0.208029
-0.182553
-0.149635
-0.104002
-0.062513
-0.018675
0.020550
0.059326
0.087254
0.104560
0.096245
0.083461
0.059657
0.011394
-0.032372
-0.085513
-0.130679
-0.165077
-0.190057
-0.207000
-0.208693
-0.182672
-0.156817
-0.109572
-0.080793
-0.032937
0.015085
0.057741
0.080629
0.081717
0.091747
0.081695
0.039743
-0.004510
-0.046750
-0.103965
-0.147050
-0.180023
-0.168888
-0.171814
-0.191204
-0.170638
-0.147975
-0.106906
-0.063093
-0.017336
0.029623
0.066655
0.094579
0.093928
0.091267
0.076477
0.054392
0.022875
-0.020235
-0.070156
-0.121915
-0.152045
-0.155010
-0.182358
-0.183354
-0.170600
-0.140142
-0.086888
-0.029589
0.020781
0.053006
0.085455
0.083542
0.100716
0.110260
0.088775
0.059346
0.023031
-0.024457
-0.062548
-0.097109
-0.094339
-0.113804
-0.139364
-0.135866
-0.112929
-0.099993
-0.046182
-0.013924
0.022898
0.058265
0.088811
0.110714
0.119067
0.126301
0.112963
0.091815
0.041601
0.001982
-0.026192
-0.060201
-0.089965
-0.105702
-0.114336
-0.117415
-0.107670
-0.061960
-0.035646
0.004490
0.039287
0.077150
0.102110
0.110685
0.119527
0.099957
0.073182
0.059867
0.025318
-0.012649
-0.065636
-0.098867
-0.123729
-0.143417
-0.156952
-0.160383
-0.147595
-0.114694
-0.082747
-0.040363
0.000985
0.044088
0.070172
0.082764
0.082497
0.075982
0.050652
0.017073
-0.029519
-0.059349
-0.104583
-0.147637
-0.179050
-0.193227
-0.194486
-0.191032
-0.166171
-0.148599
-0.080915
-0.055885
-0.027185
0.012112
0.035920
0.068479
0.083694
0.073219
0.026516
-0.014692
-0.043034
-0.071236
-0.115633
-0.157582
-0.195975
-0.196660
-0.189014
-0.182088
-0.160198
-0.131797
-0.094754
-0.053866
-0.008048
0.030787
0.057534
0.070296
0.076765
0.061257
0.045010
0.010968
-0.039759
-0.086932
-0.144434
-0.194621
-0.216132
-0.224843
-0.216399
-0.201949
-0.177866
-0.157285
-0.098586
-0.065052
-0.025185
0.037231
0.072521
0.094840
0.090623
0.064305
0.039092
-0.004700
-0.049411
-0.089207
-0.133127
-0.166698
-0.201694
-0.210125
-0.210417
-0.209409
-0.172452
-0.139932
-0.095944
-0.052151
-0.000425
0.032992
0.068733
0.093585
0.087208
0.085812
0.055003
0.012354
-0.025441
-0.083115
-0.134886
-0.175724
-0.197159
-0.204460
-0.183636
-0.170391
-0.142841
-0.100665
-0.039915
0.028156
0.095513
0.152139
0.202480
0.226725
0.246026
0.258011
0.258866
0.240148
0.238822
0.200459
0.181668
0.169370
0.183621
0.206267
0.228627
0.283853
0.332075
0.411551
0.494132
0.587396
0.674146
0.769196
0.847133
0.898422
0.920857
0.953692
0.932493
0.897255
0.843797
0.793869
0.719370
0.655515
0.601191
0.539772
0.486610
0.425162
0.374001
0.346487
0.322332
0.321943
0.308771
0.294920
0.288187
0.296288
0.294077
0.273401
0.241394
0.227983
0.174453
0.093191
0.026928
-0.028266
-0.062579
-0.098960
-0.119030
-0.122588
-0.096837
-0.063829
-0.019660
0.027582
0.080673
0.116941
0.153365
0.183954
0.195531
0.171824
0.144985
0.112873
0.066474
0.019688
-0.028878
-0.067653
-0.102522
-0.130550
-0.146513
-0.164395
-0.148377
-0.106283
-0.056838
-0.012145
0.022274
0.070970
0.109850
0.131434
0.130383
0.118640
0.125386
0.095835
0.056897
0.000547
-0.065234
-0.105301
-0.133160
-0.153905
-0.162978
-0.154959
-0.140038
-0.114061
-0.077999
-0.032937
0.019216
0.064001
0.096701
0.123339
0.129418
0.134183
0.100126
0.096445
0.050814
0.000040
-0.039876
-0.090167
-0.125257
-0.144992
-0.145655
-0.143339
-0.149236
-0.111449
-0.075965
-0.022145
0.024794
0.102417
0.125806
0.129947
0.134142
0.131956
0.125584
0.101139
0.065679
0.028795
-0.031872
-0.074142
-0.087542
-0.102174
-0.127487
-0.129206
-0.118479
-0.075172
-0.037141
0.007920
0.058216
0.101889
0.139163
0.152526
0.161838
0.164880
0.150873
0.121523
0.084531
0.047300
0.005762
-0.037795
-0.071454
-0.081304
-0.094055
-0.085425
-0.063701
-0.041056
-0.004277
0.034585
0.080471
0.129284
0.168634
0.179512
0.188167
0.199874
0.194958
0.166370
0.106586
0.072410
0.054077
0.020683
0.011441
-0.028756
-0.053251
-0.053805
-0.029507
0.001286
0.027456
0.067623
0.108127
0.152667
0.187749
0.218751
0.242098
0.239390
0.220064
0.183419
0.126277
0.080970
0.053027
0.030097
-0.007159
-0.024142
-0.034282
-0.038232
-0.019074
0.012763
0.043056
0.080813
0.131255
0.171207
0.221444
0.258692
0.254952
0.229543
0.208346
0.173885
0.137499
0.103501
0.043736
-0.003513
-0.000971
-0.034824
-0.040459
-0.038955
-0.014025
0.023122
0.060351
0.103954
0.146304
0.172421
0.197714
0.213625
0.210972
0.205225
0.178479
0.149972
0.115302
0.074770
0.043928
0.004822
-0.034721
-0.062792
-0.058095
-0.053238
-0.033061
0.000199
0.038696
0.073595
0.104733
0.146066
0.181384
0.189308
0.178558
0.164520
0.147622
0.110940
0.078248
0.036090
-0.015529
-0.058394
-0.095653
-0.106426
-0.100763
-0.098665
-0.082541
-0.058237
-0.033009
0.016936
0.071823
0.101075
0.133632
0.159261
0.157186
0.150522
0.115310
0.075084
0.047441
-0.002063
-0.038235
-0.071090
-0.100197
-0.132198
-0.139482
-0.117557
-0.095414
-0.056926
-0.028702
0.005948
0.051124
0.086727
0.110434
0.117923
0.117700
0.108272
0.080415
0.037462
0.006545
-0.039403
-0.080806
-0.118661
-0.150487
-0.168602
-0.144234
-0.120467
-0.104234
-0.072750
-0.047986
-0.001961
0.044445
0.078524
0.100272
0.109501
0.122302
0.121836
0.077957
0.050188
0.012281
-0.034193
-0.076032
-0.112902
-0.151514
-0.176279
-0.161958
-0.154174
-0.121627
-0.071583
-0.033424
0.017591
0.056983
0.092157
0.119826
0.134689
0.132956
0.113883
0.087625
0.054640
0.023279
-0.023460
-0.080446
-0.123747
-0.155554
-0.169385
-0.164633
-0.157512
-0.135828
-0.099538
-0.052813
0.015507
0.060382
0.091803
0.119223
0.132962
0.128805
0.121568
0.074648
0.060736
0.036853
-0.023704
-0.059069
-0.086320
-0.124712
-0.155141
-0.162148
-0.146200
-0.120200
-0.076636
-0.036348
-0.002350
0.042024
0.089315
0.126854
0.140522
0.161129
0.149089
0.107795
0.065140
0.031163
-0.014833
-0.073041
-0.114603
-0.152166
-0.167212
-0.169641
-0.156772
-0.132905
-0.101320
-0.039272
0.007189
0.057859
0.104899
0.142309
0.162303
0.173970
0.166686
0.133616
0.082580
0.039807
-0.001893
-0.042351
-0.095220
-0.144045
-0.159050
-0.155305
-0.145034
-0.129990
-0.096659
-0.074174
-0.012410
0.039419
0.076568
0.105842
0.141047
0.151548
0.152781
0.126032
0.081116
0.034513
-0.012970
-0.059461
-0.112227
-0.151794
-0.186512
-0.185153
-0.168904
-0.168823
-0.109911
-0.053373
0.014893
0.056831
0.092413
0.113391
0.147086
0.151179
0.137736
0.120361
0.078913
0.035063
-0.010773
-0.051689
-0.093883
-0.130617
-0.166665
-0.180500
-0.171991
-0.151916
-0.107885
-0.072961
-0.024623
0.024814
0.074361
0.106276
0.126002
0.124484
0.126904
0.107645
0.072273
0.026953
-0.016510
-0.071556
-0.132305
-0.179208
-0.194446
-0.171354
-0.165846
-0.117841
-0.104808
-0.068061
-0.018276
0.009352
0.044147
0.086778
0.115618
0.122700
0.120366
0.110621
0.075238
0.044160
-0.007036
-0.060459
-0.096687
-0.131664
-0.165287
-0.183039
-0.171779
-0.152550
-0.123891
-0.087128
-0.043312
0.002616
0.051006
0.080739
0.108316
0.120957
0.107715
0.084870
0.049185
0.010660
-0.017535
-0.052025
-0.083848
-0.128208
-0.163504
-0.169737
-0.182026
-0.157142
-0.128401
-0.077409
-0.043031
0.011966
0.056970
0.078323
0.086061
0.101853
0.103872
0.083714
0.064527
0.018724
-0.038292
-0.067844
-0.106758
-0.142349
-0.176601
-0.168280
-0.158291
-0.154995
-0.121807
-0.079752
-0.039780
0.016468
0.057476
0.085480
0.097691
0.106314
0.115941
0.087290
0.061950
0.023251
-0.017469
-0.055961
-0.098075
-0.128470
-0.143043
-0.155687
-0.142667
-0.127750
-0.120799
-0.074662
-0.032529
0.020893
0.074245
0.111694
0.137521
0.140767
0.127189
0.104710
0.072351
0.037455
-0.007620
-0.030850
-0.064861
-0.091737
-0.095157
-0.113546
-0.111748
-0.099462
-0.079781
-0.051124
-0.001333
0.049296
0.088761
0.097218
0.105282
0.140737
0.129934
0.101065
0.069891
0.030271
0.002603
-0.016075
-0.070196
-0.090177
-0.111012
-0.116893
-0.089885
-0.068528
-0.047302
-0.010341
0.045764
0.081980
0.117427
0.139694
0.154698
0.161971
0.147212
0.125530
0.100866
0.057195
0.003178
-0.041128
-0.091865
-0.122021
-0.140189
-0.150920
-0.131677
-0.091339
-0.059386
-0.025465
0.012851
0.047047
0.061780
0.092126
0.105731
0.117967
0.097058
0.067252
0.045851
0.017228
-0.024874
-0.085201
-0.133683
-0.153549
-0.167523
-0.176468
-0.162894
-0.139733
-0.108275
-0.068742
-0.027507
0.014096
0.058697
0.084317
0.106584
0.094141
0.071853
0.065181
0.031252
-0.030069
-0.086790
-0.109531
-0.139406
-0.163639
-0.193655
-0.214807
-0.190780
-0.142548
-0.118301
-0.087755
-0.042529
0.000461
0.041581
0.066824
0.085261
0.092336
0.072624
0.056712
0.017447
-0.015145
-0.057881
-0.106699
-0.156362
-0.186321
-0.210303
-0.211885
-0.186711
-0.156000
-0.123640
-0.087089
-0.038732
0.005525
0.030350
0.070557
0.083779
0.082920
0.062072
0.037133
0.000079
-0.009460
-0.068417
-0.114462
-0.186082
-0.182077
-0.188824
-0.184894
-0.173961
-0.170805
-0.135023
-0.086982
-0.049947
0.014661
0.059462
0.096243
0.103214
0.091304
0.109389
0.084753
0.026495
-0.041963
-0.097764
-0.123361
-0.179591
-0.209076
-0.226655
-0.237783
-0.211599
-0.191598
-0.151912
-0.095489
-0.030105
0.023226
0.070167
0.117333
0.163697
0.187813
0.182282
0.172606
0.157075
0.113763
0.069453
0.040742
0.025370
0.017955
0.020362
0.042686
0.097462
0.154305
0.221364
0.308545
0.383955
0.475077
0.554122
0.628062
0.690334
0.734640
0.756800
0.784135
0.784933
0.768803
0.749397
0.737211
0.713235
0.676914
0.649819
0.651700
0.640413
0.634098
0.659642
0.683383
0.709355
0.706982
0.679766
0.637341
0.601633
0.552579
0.485610
0.410675
0.327103
0.238572
0.173132
0.111270
0.056805
0.018099
-0.008582
-0.025670
-0.034662
-0.032892
-0.019237
0.012613
0.055109
0.083235
0.127510
0.170316
0.174729
0.219492
0.197828
0.192767
0.133320
0.081392
0.023540
-0.016650
-0.039682
-0.089783
-0.132511
-0.148257
-0.136474
-0.100982
-0.060827
-0.025201
0.005667
0.040078
0.092211
0.137995
0.153665
0.143377
0.112470
0.110221
0.091024
0.045179
0.003444
-0.034076
-0.083782
-0.128046
-0.156615
-0.162482
-0.149395
-0.134502
-0.107207
-0.063910
-0.030864
0.011315
0.070477
0.103277
0.117420
0.137082
0.118336
0.106076
0.087259
0.042685
-0.000099
-0.038915
-0.074540
-0.112882
-0.127042
-0.137361
-0.131045
-0.123809
-0.096608
-0.056608
-0.002192
0.039565
0.081939
0.116616
0.139492
0.149984
0.147809
0.121814
0.098307
0.062763
0.019254
-0.022381
-0.067447
-0.104737
-0.114496
-0.120021
-0.119906
-0.101507
-0.076859
-0.031787
0.010177
0.050870
0.098012
0.129025
0.163304
0.168615
0.150393
0.128785
0.115843
0.069814
0.035030
-0.010641
-0.046737
-0.079252
-0.097762
-0.115029
-0.105294
-0.076819
-0.012692
0.031374
0.069241
0.092620
0.109832
0.150864
0.168057
0.181485
0.163680
0.168493
0.166612
0.132329
0.087196
0.056436
0.018804
-0.027715
-0.050395
-0.064865
-0.056673
-0.036488
0.001726
0.035197
0.085528
0.126413
0.160850
0.179307
0.228900
0.230724
0.201040
0.194189
0.166222
0.130414
0.112190
0.060124
0.007329
-0.023946
-0.041762
-0.042699
-0.026174
0.003586
0.038622
0.060237
0.104322
0.148251
0.182539
0.204964
0.229723
0.231849
0.218593
0.206786
0.178411
0.129695
0.078068
0.045932
0.000670
-0.018460
-0.028457
-0.030523
-0.021981
-0.005163
0.032319
0.070032
0.105478
0.150240
0.186376
0.218139
0.234332
0.226692
0.221495
0.196309
0.161930
0.110045
0.067703
0.022061
-0.017598
-0.047736
-0.074436
-0.060734
-0.051543
-0.021932
0.005815
0.048227
0.065102
0.106737
0.166744
0.202582
0.202402
0.210367
0.204784
0.175666
0.128864
0.081625
0.041342
0.000410
-0.040373
-0.083098
-0.093963
-0.081955
-0.065221
-0.045724
-0.023120
0.005376
0.038373
0.085643
0.114934
0.146221
0.151113
0.155600
0.154731
0.127772
0.086074
0.039956
-0.007783
-0.053374
-0.094355
-0.123815
-0.144594
-0.151982
-0.144540
-0.102249
-0.054300
-0.015607
0.033948
0.066763
0.095174
0.128514
0.146449
0.148304
0.138656
0.104770
0.059909
0.015072
-0.040220
-0.078859
-0.120927
-0.152235
-0.170593
-0.167353
-0.151760
-0.134747
-0.102142
-0.044741
-0.004454
0.049656
0.085966
0.128392
0.142126
0.132260
0.109217
0.080430
0.046065
-0.016926
-0.043925
-0.077425
-0.116737
-0.158527
-0.188310
-0.197494
-0.190359
-0.150412
-0.111655
-0.061268
-0.012185
0.033105
0.069892
0.111409
0.125599
0.114456
0.128406
0.117212
0.080673
0.028065
-0.021723
-0.068083
-0.112351
-0.153583
-0.181421
-0.186555
-0.179653
-0.162370
-0.114074
-0.061015
-0.015922
0.038927
0.096015
0.127758
0.141257
0.151054
0.144825
0.116209
0.068636
0.023056
-0.027247
-0.076340
-0.116411
-0.146004
-0.174237
-0.190950
-0.184605
-0.157815
-0.114632
-0.065636
-0.008279
0.040162
0.090691
0.113840
0.151508
0.156774
0.134529
0.114467
0.096416
0.057553
-0.013314
-0.067931
-0.110844
-0.147660
-0.165311
-0.175520
-0.157704
-0.130783
-0.102813
-0.055573
-0.014994
0.014199
0.051722
0.103985
0.139483
0.162519
0.147023
0.122854
0.091066
0.040921
-0.005434
-0.062244
-0.111163
-0.142193
-0.169573
-0.177851
-0.178490
-0.152267
-0.118078
-0.074246
-0.036040
0.027552
0.093983
0.111822
0.112028
0.137959
0.145686
0.128244
0.085573
0.040730
0.000096
-0.047077
-0.103928
-0.138681
-0.167380
-0.180442
-0.168147
-0.147713
-0.123605
-0.079979
-0.040277
0.017263
0.064659
0.091506
0.106824
0.127326
0.116914
0.098319
0.066576
0.030459
-0.019587
-0.064352
-0.102153
-0.145206
-0.162163
-0.175803
-0.175296
-0.136533
-0.118117
-0.095974
-0.063801
-0.021670
0.028701
0.084187
0.115752
0.132833
0.108718
0.078084
0.052950
0.020232
-0.026351
-0.080248
-0.086358
-0.132578
-0.167005
-0.175554
-0.175270
-0.144715
-0.118676
-0.085173
-0.043203
0.000551
0.040524
0.079544
0.101062
0.105806
0.097222
0.077755
0.054352
0.015399
-0.028042
-0.077761
-0.101228
-0.133673
-0.170774
-0.201478
-0.151635
-0.142685
-0.119670
-0.086844
-0.049049
-0.000615
0.027834
0.063578
0.082736
0.080371
0.078017
0.052383
0.023801
-0.017326
-0.048026
-0.084300
-0.128953
-0.159288
-0.175484
-0.176132
-0.167521
-0.142336
-0.088332
-0.061504
-0.036578
-0.005441
0.027064
0.048448
0.082196
0.086254
0.073528
0.041440
0.015842
-0.026061
-0.038961
-0.104774
-0.143226
-0.174846
-0.182849
-0.187829
-0.170719
-0.140578
-0.111367
-0.129979
-0.069593
-0.014596
0.030475
0.061296
0.082902
0.096614
0.094362
0.065537
0.034964
-0.011212
-0.061862
-0.105120
-0.134690
-0.163259
-0.180745
-0.179441
-0.174488
-0.147090
-0.114551
-0.080009
-0.026856
0.007915
0.048907
0.077765
0.094949
0.091926
0.076860
0.047428
0.014232
-0.030510
-0.076029
-0.123227
-0.176174
-0.184386
-0.213807
-0.227774
-0.182848
-0.145301
-0.112709
-0.079921
-0.033118
0.006207
0.041189
0.067384
0.091697
0.097284
0.088673
0.052968
0.011714
-0.029937
-0.049085
-0.104741
-0.148169
-0.185980
-0.200548
-0.199979
-0.181144
-0.139299
-0.114589
-0.070115
-0.016607
0.026906
0.070902
0.100524
0.116019
0.121671
0.116721
0.093923
0.060115
0.006557
-0.034155
-0.079088
-0.120202
-0.160308
-0.175877
-0.179634
-0.170127
-0.139761
-0.100590
-0.058688
-0.017343
0.029007
0.082663
0.112268
0.151638
0.147665
0.134415
0.102377
0.060913
0.024310
-0.015894
-0.070306
-0.120881
-0.153568
-0.178592
-0.172133
-0.162153
-0.134053
-0.093861
-0.061222
0.002027
0.049272
0.088381
0.128451
0.155785
0.155874
0.162706
0.141236
0.097596
0.058278
-0.008991
-0.068808
-0.108406
-0.164282
-0.195395
-0.206353
-0.199556
-0.174434
-0.135510
-0.085331
-0.046782
0.002543
0.069213
0.132127
0.126379
0.119117
0.120198
0.090486
0.056386
0.011589
-0.055186
-0.101386
-0.145675
-0.196811
-0.221543
-0.222352
-0.208657
-0.185438
-0.158937
-0.124508
-0.073226
-0.023528
0.014211
0.056112
0.085549
0.101086
0.089935
0.059463
0.024779
-0.020879
-0.076839
-0.128688
-0.173465
-0.215124
-0.226575
-0.236040
-0.234641
-0.215264
-0.176711
-0.135520
-0.086998
-0.048097
-0.006675
0.032805
0.060883
0.070357
0.063778
0.028030
0.005240
-0.032854
-0.073894
-0.109486
-0.142757
-0.187105
-0.226736
-0.241041
-0.236961
-0.213837
-0.186080
-0.165890
-0.102345
-0.035046
-0.004324
0.014975
0.049668
0.061679
0.057320
0.030243
0.015257
-0.025696
-0.082792
-0.112314
-0.158451
-0.198518
-0.235498
-0.239259
-0.236161
-0.209259
-0.192480
-0.158296
-0.126246
-0.075656
-0.047085
-0.007283
0.032238
0.090564
0.097983
0.052285
-0.009002
-0.045556
-0.084947
-0.131052
-0.176547
-0.204550
-0.229882
-0.238213
-0.235087
-0.212479
-0.186915
-0.144495
-0.101398
-0.054720
0.001332
0.048991
0.066539
0.094429
0.100014
0.095610
0.090551
0.083101
0.045582
0.012826
-0.003602
-0.013126
-0.029367
-0.013278
0.022595
0.059604
0.119873
0.191095
0.284268
0.357853
0.426167
0.501895
0.551976
0.610714
0.625830
0.618035
0.654738
0.673162
0.671924
0.670408
0.655431
0.645989
0.639793
0.635555
0.638417
0.647719
0.646285
0.662476
0.689649
0.710227
0.699884
0.650447
0.608455
0.546301
0.477543
0.405108
0.313481
0.231309
0.137792
0.084445
0.046562
-0.001516
-0.032386
-0.045221
-0.050406
-0.026493
-0.013177
0.002693
0.040319
0.064832
0.095924
0.140031
0.152920
0.144144
0.125943
0.099923
0.068703
0.023979
-0.033718
-0.078428
-0.111530
-0.145684
-0.171036
-0.169214
-0.144373
-0.119956
-0.103433
-0.059815
-0.012139
0.028225
0.052783
0.072441
0.083190
0.100787
0.096215
0.065517
0.017836
-0.024416
-0.077377
-0.119841
-0.153111
-0.186771
-0.195295
-0.194669
-0.188211
-0.165233
-0.135360
-0.086433
-0.029314
0.022646
0.050710
0.069160
0.085500
0.080716
0.080290
0.082966
0.032187
-0.019778
-0.072043
-0.107395
-0.142112
-0.177939
-0.198919
-0.193590
-0.188249
-0.159209
-0.115064
-0.064362
-0.019266
0.025201
0.058107
0.081446
0.098713
0.102454
0.084163
0.047270
0.031396
-0.011435
-0.055480
-0.115517
-0.145724
-0.155349
-0.174680
-0.193342
-0.175194
-0.138189
-0.092715
-0.059773
-0.011795
0.023655
0.055440
0.109392
0.131466
0.141887
0.144121
0.111961
0.071531
0.015569
-0.035389
-0.080588
-0.121530
-0.148925
-0.165795
-0.180093
-0.168122
-0.124087
-0.086510
-0.034169
0.032202
0.071092
0.115223
0.154231
0.169611
0.171355
0.138065
0.115574
0.090290
0.050863
0.005640
-0.045659
-0.083938
-0.111424
-0.122742
-0.134296
-0.124611
-0.089622
-0.068332
-0.013911
0.038316
0.087773
0.116907
0.156599
0.202983
0.211902
0.195155
0.169475
0.123523
0.065811
0.010502
-0.034144
-0.074577
-0.094714
-0.110412
-0.116447
-0.102882
-0.085867
-0.046599
-0.001962
0.036814
0.077345
0.151696
0.180825
0.204946
0.215991
0.217817
0.191922
0.140173
0.093665
0.035999
-0.006628
-0.053585
-0.076630
-0.119116
-0.122752
-0.105433
-0.073126
-0.045918
-0.004494
0.070319
0.128002
0.155879
0.166071
0.200249
0.221256
0.205646
0.172450
0.136545
0.088371
0.047994
-0.000955
-0.054356
-0.101199
-0.139562
-0.141131
-0.130714
-0.110024
-0.077383
-0.031813
0.017053
0.067192
0.107867
0.133099
0.150114
0.163947
0.151184
0.139968
0.109855
0.074867
0.009721
-0.045430
-0.062355
-0.102307
-0.124285
-0.140539
-0.154648
-0.149138
-0.108593
-0.092087
-0.017449
0.030412
0.064984
0.121505
0.146822
0.147795
0.147943
0.118212
0.070673
0.031270
-0.015216
-0.063574
-0.129421
-0.156929
-0.176865
-0.195236
-0.187740
-0.172474
-0.139230
-0.097591
-0.062900
-0.006663
0.036483
0.067548
0.085273
0.084745
0.071877
0.056402
0.025575
-0.018044
-0.054305
-0.104894
-0.146890
-0.191169
-0.219447
-0.236590
-0.233090
-0.204668
-0.166765
-0.129461
-0.106417
-0.056248
-0.012716
0.032498
0.065664
0.078806
0.075970
0.049516
0.015307
-0.015678
-0.062347
-0.114653
-0.151856
-0.181243
-0.196913
-0.205682
-0.222492
-0.186043
-0.170467
-0.137148
-0.077721
-0.041988
0.001048
0.038503
0.058317
0.059392
0.051714
0.037537
0.010412
-0.024957
-0.069303
-0.114929
-0.164403
-0.197695
-0.210098
-0.226797
-0.230189
-0.201470
-0.157008
-0.102867
-0.056863
-0.037415
-0.011944
0.023447
0.047305
0.057588
0.057602
0.043050
0.016726
-0.007732
-0.071567
-0.097524
-0.140955
-0.180455
-0.201910
-0.201402
-0.188348
-0.177372
-0.143692
-0.102991
-0.070997
-0.030091
0.022711
0.053943
0.066137
0.059605
0.039260
-0.011662
0.010781
-0.014782
-0.068699
-0.115939
-0.160283
-0.185163
-0.202937
-0.203517
-0.191959
-0.169013
-0.127819
-0.095599
-0.060458
-0.012800
0.016518
0.044411
0.064272
0.078890
0.057057
0.035529
0.011329
-0.029527
-0.082828
-0.139103
-0.176767
-0.199168
-0.214233
-0.219676
-0.193559
-0.178727
-0.146955
-0.097672
-0.052727
-0.012096
0.028177
0.056940
0.071901
0.065499
0.056744
0.048197
0.013789
-0.024520
-0.071735
-0.112849
-0.160435
-0.194988
-0.218312
-0.219418
-0.198173
-0.183577
-0.141541
-0.107845
-0.059512
-0.018250
0.024430
0.050114
0.051902
0.059726
0.050851
0.026656
-0.009033
-0.061328
-0.110178
-0.147689
-0.185282
-0.216203
-0.244202
-0.243708
-0.235251
-0.197711
-0.161809
-0.103981
-0.052188
-0.002067
0.026552
0.063046
0.092392
0.085353
0.059256
0.037705
-0.001848
-0.053617
-0.103629
-0.155458
-0.195487
-0.221809
-0.239391
-0.253984
-0.246505
-0.205015
-0.166530
-0.110843
-0.053240
-0.005879
0.031198
0.060458
0.075639
0.074492
0.061122
0.031416
-0.010995
-0.061105
-0.113395
-0.156899
-0.192742
-0.222842
-0.231495
-0.248175
-0.241413
-0.233024
-0.178873
-0.126723
-0.078496
-0.047471
-0.012467
0.007280
0.079775
0.085694
0.036832
0.049200
0.005581
-0.052985
-0.097718
-0.158196
-0.206434
-0.237140
-0.246659
-0.238557
-0.232615
-0.210486
-0.174797
-0.128898
-0.076711
-0.018643
0.013464
0.041859
0.062424
0.062134
0.060335
0.033889
-0.016135
-0.054800
-0.108334
-0.145980
-0.174473
-0.220812
-0.260559
-0.268661
-0.241430
-0.227586
-0.191947
-0.128827
-0.088986
-0.042716
-0.006033
0.031641
0.058115
0.063704
0.048221
0.024726
-0.019440
-0.053418
-0.098235
-0.162393
-0.214030
-0.245136
-0.256529
-0.252836
-0.259793
-0.230996
-0.188248
-0.143144
-0.093756
-0.056899
-0.012067
0.023204
0.042823
0.066030
0.061508
0.032725
-0.008013
-0.047475
-0.102273
-0.152519
-0.223016
-0.259639
-0.269549
-0.268036
-0.253654
-0.218906
-0.178065
-0.120961
-0.094248
-0.057347
0.004592
0.046930
0.045043
0.041575
0.057966
0.029663
-0.014557
-0.047872
-0.097388
-0.148012
-0.192907
-0.228891
-0.251311
-0.254927
-0.251251
-0.239267
-0.207591
-0.165014
-0.113318
-0.063379
-0.015002
0.034085
0.057302
0.048820
0.041081
0.025598
0.001413
-0.032760
-0.082780
-0.128634
-0.175904
-0.222072
-0.242596
-0.228677
-0.242415
-0.222063
-0.189973
-0.141434
-0.102602
-0.071164
-0.007156
0.036478
0.053176
0.064923
0.056447
0.051373
0.015718
-0.021146
-0.086581
-0.119261
-0.148369
-0.182898
-0.202060
-0.212589
-0.210906
-0.198148
-0.164729
-0.126635
-0.076502
-0.025899
-0.001903
0.032331
0.066300
0.078351
0.062706
0.036370
-0.000039
-0.028693
-0.058045
-0.099526
-0.131808
-0.150281
-0.177948
-0.193279
-0.192932
-0.183648
-0.144703
-0.110586
-0.065429
-0.015645
0.034209
0.075588
0.100095
0.105917
0.104134
0.085906
0.062894
0.024291
-0.031229
-0.082832
-0.107275
-0.150341
-0.171458
-0.187577
-0.183370
-0.179558
-0.150861
-0.130862
-0.065801
-0.017593
0.018714
0.043651
0.046017
0.059436
0.048397
0.034080
0.007087
-0.036900
-0.087434
-0.130637
-0.164840
-0.199982
-0.221989
-0.227713
-0.215597
-0.189863
-0.165901
-0.135849
-0.100032
-0.051729
0.020614
0.022653
0.028160
0.031910
0.024971
0.006722
-0.029484
-0.067882
-0.118138
-0.142170
-0.181210
-0.220644
-0.257308
-0.259925
-0.239261
-0.217860
-0.190257
-0.157121
-0.114326
-0.090536
-0.039959
0.004347
0.002722
0.008794
-0.008118
-0.017017
-0.053570
-0.083786
-0.124857
-0.143424
-0.177086
-0.229731
-0.264904
-0.246630
-0.237626
-0.229633
-0.196208
-0.150649
-0.095767
-0.036406
-0.006517
-0.000274
0.018830
0.021124
0.011830
-0.002170
-0.033774
-0.080112
-0.124363
-0.166680
-0.208042
-0.240183
-0.252533
-0.256683
-0.245324
-0.224732
-0.190956
-0.141662
-0.093099
-0.046244
-0.015662
0.001263
0.006328
0.044236
0.026522
-0.007506
-0.051231
-0.094976
-0.141234
-0.179226
-0.211623
-0.239463
-0.262241
-0.261850
-0.240720
-0.222103
-0.192712
-0.154369
-0.109097
-0.063800
-0.038071
0.001449
0.025673
0.031355
0.023311
0.007158
-0.017260
-0.058772
-0.111195
-0.142702
-0.151256
-0.157104
-0.166192
-0.152548
-0.131960
-0.085898
-0.030477
0.040007
0.098871
0.170200
0.245219
0.307405
0.349596
0.388232
0.409927
0.425893
0.426294
0.417383
0.393392
0.358092
0.358536
0.364477
0.390490
0.430288
0.495646
0.553513
0.622352
0.680671
0.768116
0.826132
0.839402
0.837924
0.837828
0.842138
0.817673
0.758375
0.658386
0.519114
0.438535
0.311179
0.200856
0.117928
0.055180
0.003132
-0.016489
-0.022895
-0.007002
0.034777
0.094284
0.142600
0.165545
0.195372
0.198126
0.202142
0.167184
0.136411
0.083169
0.039338
-0.025775
-0.091140
-0.110846
-0.153404
-0.180191
-0.187430
-0.179951
-0.151635
-0.131737
-0.088856
-0.037606
0.004004
0.041408
0.083373
0.118949
0.128990
0.122766
0.091762
0.047801
-0.009028
-0.065451
-0.115109
-0.147668
-0.197523
-0.230309
-0.235151
-0.220743
-0.195534
-0.163530
-0.122309
-0.067062
-0.021301
0.025318
0.058989
0.087715
0.089730
0.082880
0.069208
0.033797
-0.010329
-0.062472
-0.097419
-0.133853
-0.170954
-0.209869
-0.225696
-0.221071
-0.202255
-0.169588
-0.109848
-0.049246
-0.005867
0.031960
0.077986
0.094960
0.098220
0.100431
0.080085
0.052048
0.011704
-0.034765
-0.077142
-0.120452
-0.162511
-0.187063
-0.206540
-0.199726
-0.187012
-0.147132
-0.088888
-0.043117
-0.002975
0.046154
0.085972
0.107413
0.113633
0.133237
0.104988
0.063293
0.015212
-0.033432
-0.077424
-0.073041
-0.110015
-0.156705
-0.166986
-0.172515
-0.154440
-0.110822
-0.063417
-0.036669
-0.016592
0.028486
0.113496
0.127055
0.154547
0.154903
0.125999
0.090358
0.063343
0.008563
-0.034586
-0.075612
-0.074068
-0.099858
-0.136526
-0.138162
-0.102628
-0.057638
-0.017186
0.030030
0.053360
0.075924
0.120061
0.140397
0.159678
0.163627
0.147296
0.124715
0.095698
0.048923
-0.004976
-0.046304
-0.063476
-0.065173
-0.066342
-0.070979
-0.064262
-0.034529
0.010298
0.057740
0.103807
0.137415
0.161707
0.183053
0.196560
0.183315
0.162622
0.135305
0.096325
0.056992
0.007061
-0.031547
-0.057788
-0.075945
-0.080260
-0.072768
-0.043919
-0.016393
0.018416
0.064945
0.121967
0.144770
0.169739
0.183638
0.196494
0.197531
0.166548
0.137722
0.092267
0.032880
-0.009864
-0.044854
-0.057451
-0.082984
-0.094122
-0.091424
-0.064555
-0.020136
0.011624
0.015318
0.112555
0.154791
0.164350
0.155742
0.173867
0.173185
0.148934
0.117000
0.095514
0.031466
-0.023546
-0.063920
-0.093930
-0.115646
-0.120675
-0.103523
-0.077222
-0.054626
-0.019172
0.030013
0.070141
0.103964
0.130394
0.145385
0.135685
0.128000
0.106326
0.070726
0.037829
-0.024650
-0.083089
-0.121679
-0.146167
-0.154394
-0.162553
-0.155727
-0.127299
-0.093290
-0.058308
-0.018162
0.034388
0.081757
0.113296
0.120818
0.116269
0.109275
0.085242
0.050902
0.004254
-0.048075
-0.099617
-0.140263
-0.168169
-0.180230
-0.191395
-0.183359
-0.161417
-0.129172
-0.083385
-0.037962
0.017003
0.047523
0.083114
0.098470
0.103987
0.094393
0.063989
0.022295
-0.023960
-0.073123
-0.121929
-0.161275
-0.187454
-0.202080
-0.209457
-0.197025
-0.174751
-0.128627
-0.090747
-0.041078
-0.002228
0.033436
0.074301
0.087144
0.107294
0.118743
0.103415
0.054283
-0.018637
-0.064775
-0.110721
-0.134631
-0.164335
-0.195321
-0.212591
-0.192799
-0.179677
-0.147313
-0.087396
-0.029341
0.036546
0.065290
0.074779
0.078369
0.107541
0.100564
0.087374
0.038210
-0.007601
-0.049919
-0.120440
-0.166014
-0.192864
-0.205336
-0.208670
-0.204741
-0.177284
-0.143673
-0.092495
-0.028445
0.019418
0.075328
0.106659
0.113071
0.109072
0.098791
0.069659
0.075803
0.016429
-0.050706
-0.095319
-0.136687
-0.171792
-0.205864
-0.205300
-0.180123
-0.163838
-0.130394
-0.092192
-0.038267
0.024626
0.073984
0.105631
0.128449
0.135161
0.134234
0.102518
0.059104
0.003793
-0.042946
-0.102374
-0.145600
-0.178747
-0.200163
-0.211848
-0.210145
-0.173948
-0.131315
-0.092426
-0.046475
0.019378
0.071723
0.120958
0.132382
0.133436
0.114845
0.087454
0.049662
0.006835
-0.034686
-0.089147
-0.144708
-0.162177
-0.172677
-0.194288
-0.197409
-0.158516
-0.126087
-0.091256
-0.050887
0.007954
0.064080
0.092710
0.112934
0.124688
0.133420
0.111211
0.066122
0.005048
-0.041074
-0.083887
-0.143310
-0.176358
-0.205223
-0.211946
-0.212074
-0.189751
-0.141951
-0.080108
-0.043327
-0.009581
0.015874
0.078251
0.089230
0.093867
0.090980
0.074745
0.060631
0.012567
-0.027190
-0.082905
-0.128876
-0.162579
-0.182887
-0.187625
-0.197843
-0.181932
-0.161998
-0.125303
-0.065090
-0.007890
0.030940
0.058404
0.088034
0.087452
0.075656
0.067874
0.038175
-0.002172
-0.053633
-0.094084
-0.129902
-0.164545
-0.173723
-0.187980
-0.192643
-0.179468
-0.153246
-0.116131
-0.064832
-0.005531
0.036427
0.052095
0.090347
0.098636
0.073871
0.089163
0.082340
0.009720
-0.039643
-0.092183
-0.130476
-0.171219
-0.191227
-0.203857
-0.194089
-0.174025
-0.139550
-0.096230
-0.052924
-0.019703
0.040141
0.068691
0.078689
0.080587
0.094824
0.074702
0.036530
-0.016410
-0.061622
-0.097596
-0.141193
-0.154085
-0.190780
-0.208571
-0.204124
-0.150677
-0.138818
-0.099286
-0.053347
-0.021691
0.005409
0.036170
0.062666
0.087143
0.078123
0.061894
0.026731
-0.019085
-0.061534
-0.108553
-0.135350
-0.151715
-0.171274
-0.195947
-0.189181
-0.164558
-0.140068
-0.106254
-0.071441
-0.030213
0.014185
0.047415
0.095355
0.111372
0.092324
0.055083
0.009777
-0.028041
-0.071873
-0.110070
-0.153175
-0.184731
-0.202760
-0.195909
-0.164440
-0.152802
-0.139353
-0.096918
-0.053159
-0.003811
0.045046
0.069401
0.085726
0.078684
0.061345
0.052488
0.022459
-0.017684
-0.064447
-0.111800
-0.136298
-0.157331
-0.172461
-0.182204
-0.181534
-0.160643
-0.125280
-0.076473
-0.036150
0.004398
0.044002
0.071949
0.084235
0.090826
0.077178
0.046518
0.012915
-0.025906
-0.057012
-0.094283
-0.144448
-0.184666
-0.204566
-0.188857
-0.157320
-0.138167
-0.103041
-0.064182
-0.005420
0.030117
0.063313
0.085658
0.119074
0.114997
0.096145
0.069827
0.031269
-0.015338
-0.057347
-0.086007
-0.122003
-0.154976
-0.186232
-0.152649
-0.149078
-0.126511
-0.098117
-0.049820
-0.001509
0.064099
0.093559
0.092652
0.129968
0.143799
0.136884
0.101920
0.048226
-0.015546
-0.046947
-0.073333
-0.109394
-0.131495
-0.161067
-0.161359
-0.148813
-0.118004
-0.076160
-0.020094
0.027163
0.085811
0.135878
0.157581
0.169563
0.164324
0.150120
0.127712
0.097487
0.040443
-0.016563
-0.066216
-0.121216
-0.154972
-0.178054
-0.178923
-0.169289
-0.155049
-0.121699
-0.069781
-0.013790
0.025135
0.057233
0.084509
0.122606
0.132847
0.132505
0.117771
0.066963
0.021099
-0.045657
-0.106322
-0.166535
-0.194356
-0.226361
-0.222220
-0.205368
-0.188145
-0.135585
-0.074210
-0.018038
0.025214
0.062867
0.077166
0.095841
0.103590
0.098930
0.082147
0.051778
0.001256
-0.046011
-0.109838
-0.145375
-0.176032
-0.219427
-0.228889
-0.231695
-0.220509
-0.180783
-0.131841
-0.070007
-0.022944
0.029886
0.065924
0.083774
0.089113
0.084486
0.073371
0.031780
-0.019366
-0.050458
-0.105194
-0.156594
-0.191290
-0.210230
-0.221467
-0.190781
-0.187460
-0.155877
-0.123439
-0.083921
-0.023047
0.016913
0.046900
0.074316
0.074714
0.080370
0.055307
0.014018
-0.017270
-0.049673
-0.106453
-0.154071
-0.196037
-0.193035
-0.192600
-0.199197
-0.182551
-0.160676
-0.127974
-0.083836
-0.032401
0.016932
0.049366
0.079779
0.093898
0.089475
0.070368
0.029642
-0.021294
-0.070168
-0.116122
-0.156715
-0.178717
-0.216762
-0.233631
-0.224118
-0.205831
-0.168500
-0.116674
-0.053395
-0.004185
0.054845
0.098415
0.128377
0.148295
0.154118
0.161892
0.134521
0.092425
0.049458
0.039779
0.010127
0.015789
0.006909
0.037436
0.074785
0.116773
0.165649
0.240885
0.319916
0.409873
0.472915
0.535412
0.572239
0.610081
0.636891
0.656466
0.651574
0.644558
0.665306
0.665609
0.634399
0.602124
0.585108
0.594800
0.602017
0.597815
0.620128
0.631685
0.657004
0.651130
0.610659
0.579223
0.531906
0.485748
0.431252
0.362606
0.274614
0.181672
0.110903
0.038807
-0.013095
-0.048425
-0.068507
-0.063583
-0.054982
-0.054815
-0.040008
-0.010036
0.047514
0.103537
0.140632
0.171496
0.168257
0.170165
0.157868
0.133339
0.064055
0.051884
-0.005031
-0.048486
-0.087511
-0.119974
-0.141495
-0.145926
-0.127597
-0.101887
-0.083371
-0.027513
0.018337
0.053001
0.094553
0.119942
0.130677
0.127076
0.120176
0.091267
0.071618
0.019529
-0.035693
-0.081320
-0.132031
-0.156690
-0.173389
-0.170474
-0.166263
-0.132502
-0.095042
-0.045895
0.021937
0.063621
0.104616
0.138805
0.152039
0.156424
0.144302
0.108319
0.073172
0.010710
-0.035442
-0.082166
-0.120465
-0.160915
-0.164708
-0.165525
-0.161756
-0.131091
-0.101083
-0.062017
0.008161
0.053151
0.084440
0.125522
0.148231
0.169393
0.163641
0.141381
0.100573
0.049878
0.006877
-0.049100
-0.106124
-0.115731
-0.149315
-0.165731
-0.141901
-0.111028
-0.084011
-0.041430
0.017433
0.073036
0.118909
0.152858
0.189722
0.185256
0.188167
0.157412
0.113728
0.078943
0.010032
-0.028309
-0.063718
-0.094758
-0.129703
-0.136610
-0.131423
-0.099587
-0.055022
-0.017713
0.045585
0.096323
0.136787
0.170036
0.211619
0.217424
0.212785
0.194187
0.154988
0.118849
0.075748
0.025210
-0.023310
-0.055124
-0.081085
-0.090199
-0.091509
-0.077767
-0.035012
0.006244
0.069677
0.136534
0.176920
0.214776
0.240271
0.247344
0.248755
0.236925
0.191767
0.142667
0.095547
0.060745
0.013022
-0.038589
-0.070627
-0.073345
-0.062246
-0.027924
0.007963
0.047937
0.093101
0.145044
0.169802
0.226945
0.259979
0.254701
0.232765
0.217691
0.175244
0.139931
0.102927
0.066860
0.026576
-0.009420
-0.039853
-0.041013
-0.024511
0.008023
0.029844
0.045675
0.080941
0.141518
0.173781
0.218519
0.223946
0.232654
0.241451
0.218806
0.198275
0.155927
0.099084
0.042651
0.032401
-0.000355
-0.034023
-0.052200
-0.059497
-0.039363
-0.006020
0.033430
0.082500
0.125032
0.155252
0.172139
0.178092
0.202142
0.208802
0.195023
0.158610
0.110591
0.064202
0.027404
-0.024223
-0.053943
-0.073913
-0.067037
-0.057086
-0.051064
-0.036818
0.003375
0.043147
0.090687
0.140604
0.160406
0.162041
0.153511
0.146859
0.133799
0.101985
0.062050
0.007303
-0.020517
-0.060045
-0.094229
-0.116396
-0.128011
-0.121201
-0.098254
-0.070368
-0.043246
0.001883
0.046324
0.084432
0.113998
0.145325
0.143305
0.124229
0.100785
0.065547
0.020078
-0.026929
-0.079883
-0.124930
-0.140358
-0.142365
-0.152587
-0.145792
-0.119724
-0.096149
-0.062446
-0.000129
0.071829
0.116067
0.130136
0.141666
0.149475
0.136903
0.099166
0.045281
-0.007307
-0.076509
-0.095034
-0.111663
-0.146658
-0.160502
-0.159019
-0.149069
-0.134388
-0.098897
-0.034030
0.008597
0.056634
0.085655
0.129171
0.145597
0.149668
0.126919
0.099991
0.073755
0.022255
-0.039322
-0.080816
-0.116428
-0.159226
-0.171241
-0.189589
-0.167035
-0.135002
-0.103541
-0.061564
0.002190
0.038529
0.099605
0.138082
0.154196
0.147232
0.140512
0.111299
0.070180
0.028463
-0.016789
-0.066231
-0.128563
-0.169940
-0.192987
-0.202264
-0.191843
-0.148743
-0.075007
-0.030121
0.013419
0.056074
0.096941
0.129201
0.148584
0.165228
0.145107
0.120509
0.086093
0.037565
-0.021167
-0.069382
-0.112781
-0.157990
-0.183868
-0.192866
-0.171736
-0.151556
-0.110000
-0.067758
-0.022440
0.031900
0.084891
0.135624
0.156603
0.145000
0.141235
0.125662
0.099004
0.043341
-0.006562
-0.048323
-0.090077
-0.134120
-0.162393
-0.166672
-0.161248
-0.146013
-0.102429
-0.050563
0.001171
0.047263
0.062017
0.125795
0.144745
0.145879
0.141912
0.120806
0.088998
0.056852
0.006413
-0.034726
-0.084918
-0.130934
-0.151869
-0.168225
-0.163901
-0.144915
-0.110242
-0.074090
-0.034029
0.000690
0.047430
0.108614
0.136405
0.135897
0.129281
0.103409
0.072527
0.041654
0.004101
-0.048084
-0.074111
-0.107099
-0.139602
-0.155216
-0.162359
-0.163887
-0.098870
-0.054690
-0.019707
0.016536
0.051819
0.094650
0.121366
0.110771
0.097430
0.094018
0.059094
0.014226
-0.032588
-0.079863
-0.134464
-0.141583
-0.159224
-0.177055
-0.170348
-0.153016
-0.116121
-0.077256
-0.023710
0.015917
0.059582
0.085831
0.090874
0.101317
0.125020
0.103339
0.056552
0.007297
-0.029165
-0.049264
-0.081800
-0.131081
-0.153038
-0.152602
-0.151397
-0.141839
-0.103794
-0.066213
-0.024295
0.020662
0.057415
0.094799
0.101453
0.096679
0.086854
0.073742
0.049747
0.004694
-0.045699
-0.088133
-0.129266
-0.167478
-0.182165
-0.178653
-0.167781
-0.139445
-0.093709
-0.055954
-0.003989
0.039602
0.071131
0.101142
0.111892
0.110558
0.097538
0.085211
0.041426
-0.009319
-0.052905
-0.095341
-0.142472
-0.171249
-0.184616
-0.199211
-0.180486
-0.148047
-0.114694
-0.073711
-0.023618
0.014291
0.092142
0.127518
0.117696
0.105447
0.112575
0.079861
0.035618
-0.012342
-0.067459
-0.108194
-0.132314
-0.160074
-0.185145
-0.168190
-0.165397
-0.130538
-0.092207
-0.053757
0.000163
0.037316
0.087490
0.119509
0.135984
0.152973
0.146329
0.116816
0.068064
0.017558
-0.023067
-0.074949
-0.110374
-0.144859
-0.160216
-0.161086
-0.149385
-0.125657
-0.076304
-0.031841
0.025078
0.062243
0.096601
0.163991
0.161214
0.160466
0.149435
0.118950
0.090999
0.052389
-0.009115
-0.072657
-0.107050
-0.144920
-0.160300
-0.166564
-0.148215
-0.128427
-0.079644
-0.014576
0.034008
0.085609
0.128877
0.161820
0.185969
0.208560
0.187231
0.145306
0.103183
0.053067
0.011120
-0.037452
-0.086515
-0.136626
-0.157940
-0.159341
-0.156601
-0.135705
-0.098039
-0.052953
0.004128
0.040794
0.090300
0.142974
0.155240
0.151374
0.134678
0.105028
0.071526
0.027232
-0.030363
-0.070847
-0.109120
-0.157182
-0.177115
-0.189600
-0.179014
-0.151033
-0.122522
-0.086606
-0.031873
0.012849
0.051926
0.086940
0.100685
0.121187
0.106839
0.091797
0.061848
0.015525
-0.033690
-0.089827
-0.131746
-0.188171
-0.219773
-0.225382
-0.219529
-0.195183
-0.175176
-0.140911
-0.099396
-0.009110
0.020952
0.048181
0.069511
0.100890
0.108054
0.090247
0.057979
0.005820
-0.042169
-0.095379
-0.124482
-0.152940
-0.187886
-0.207071
-0.212072
-0.177532
-0.150532
-0.119876
-0.074305
-0.019950
0.007565
0.048845
0.072893
0.092258
0.086702
0.080633
0.040768
-0.005130
-0.044357
-0.096541
-0.148787
-0.184387
-0.201895
-0.207430
-0.205543
-0.186817
-0.161064
-0.109542
-0.080232
-0.017126
0.029295
0.047670
0.056405
0.099477
0.082274
0.062835
0.026175
-0.012734
-0.053184
-0.083992
-0.114822
-0.151941
-0.203346
-0.201766
-0.198107
-0.188847
-0.149497
-0.107845
-0.059437
-0.006610
0.034218
0.089328
0.115997
0.138868
0.147891
0.130387
0.115589
0.094458
0.061636
0.029750
-0.013725
-0.029926
-0.004929
0.013824
0.031353
0.073987
0.133764
0.199136
0.273698
0.354848
0.430249
0.480441
0.533507
0.562851
0.582537
0.594251
0.594915
0.568518
0.564354
0.588168
0.581511
0.582005
0.588358
0.590654
0.602851
0.637719
0.651375
0.674400
0.706919
0.739849
0.741944
0.702713
0.631476
0.576350
0.509649
0.442195
0.359517
0.275679
0.194488
0.109514
0.041776
-0.001659
-0.050228
-0.071212
-0.071092
-0.054319
-0.015764
0.023997
0.060286
0.108582
0.156667
0.175328
0.187855
0.179216
0.178908
0.169430
0.141516
0.071723
-0.003584
-0.058063
-0.088497
-0.122051
-0.128182
-0.127057
-0.114279
-0.099023
-0.059758
-0.017916
0.015994
0.080383
0.116407
0.141063
0.160698
0.180784
0.176346
0.121200
0.066995
0.016487
-0.021306
-0.057362
-0.110516
-0.164754
-0.170805
-0.171241
-0.172257
-0.133943
-0.095068
-0.056089
0.004546
0.066199
0.109280
0.140914
0.156337
0.160065
0.159452
0.131668
0.085379
0.039783
-0.013618
-0.070840
-0.114221
-0.139982
-0.151489
-0.153091
-0.149424
-0.121470
-0.081531
-0.048548
-0.016277
0.051002
0.114908
0.139296
0.171121
0.177504
0.165273
0.147857
0.101741
0.065645
0.022569
-0.033585
-0.088044
-0.130689
-0.142629
-0.145670
-0.128188
-0.113963
-0.087813
-0.029548
0.011653
0.071620
0.123151
0.158480
0.186199
0.181153
0.201740
0.189896
0.150848
0.096824
0.047085
-0.010416
-0.055210
-0.079540
-0.095880
-0.118060
-0.110783
-0.091109
-0.057301
-0.003750
0.036731
0.096147
0.146642
0.179487
0.209664
0.220310
0.212194
0.184835
0.154794
0.119881
0.068663
0.033426
-0.023738
-0.067936
-0.067352
-0.072520
-0.058995
-0.046324
-0.008815
0.029824
0.083759
0.132023
0.186191
0.209953
0.234325
0.238181
0.230888
0.215222
0.183806
0.145279
0.095024
0.048282
0.022615
-0.010976
-0.039383
-0.048778
-0.046777
-0.024457
0.024743
0.063320
0.104814
0.147700
0.182019
0.202621
0.239870
0.244034
0.248541
0.231828
0.203057
0.176778
0.139645
0.082840
0.037839
0.017352
0.003483
-0.017957
-0.019342
-0.003760
0.021968
0.048697
0.090567
0.124796
0.169915
0.220583
0.252386
0.252767
0.230704
0.216134
0.187359
0.146031
0.100677
0.057730
0.024068
-0.015391
-0.032619
-0.036840
-0.025819
-0.013939
0.018855
0.053614
0.098051
0.135171
0.177181
0.202488
0.220056
0.216766
0.205773
0.185554
0.146114
0.091078
0.080040
0.031236
-0.018777
-0.055987
-0.072248
-0.082932
-0.071799
-0.063802
-0.022170
0.022264
0.070928
0.114359
0.147357
0.172916
0.185435
0.183111
0.162699
0.139785
0.106206
0.061942
0.014876
-0.032285
-0.074855
-0.099800
-0.102170
-0.123696
-0.117753
-0.099852
-0.056782
-0.010715
0.029080
0.074812
0.096392
0.112363
0.141903
0.165106
0.157367
0.119827
0.087102
0.046362
-0.004347
-0.055530
-0.106557
-0.140575
-0.163013
-0.155981
-0.139202
-0.104646
-0.073892
-0.031148
0.005431
0.058421
0.098446
0.130052
0.156841
0.146047
0.127623
0.099515
0.063686
0.030398
-0.013609
-0.071020
-0.136294
-0.174350
-0.169618
-0.157653
-0.142838
-0.124581
-0.087963
-0.035767
0.001520
0.053680
0.101965
0.136130
0.152609
0.158222
0.139526
0.123265
0.086557
0.040510
-0.004586
-0.053847
-0.104273
-0.141104
-0.166647
-0.161952
-0.161860
-0.146320
-0.108076
-0.059846
0.006345
0.057340
0.106844
0.133820
0.152172
0.167503
0.161031
0.126385
0.089214
0.049217
0.001496
-0.054689
-0.096043
-0.124010
-0.158607
-0.191251
-0.188828
-0.158930
-0.101824
-0.048350
-0.015480
0.049649
0.108280
0.149965
0.154963
0.157770
0.166680
0.159120
0.115269
0.056204
0.016711
-0.038502
-0.091397
-0.140621
-0.159727
-0.155413
-0.159328
-0.140175
-0.094363
-0.045877
0.004713
0.042606
0.074784
0.115859
0.140931
0.148689
0.145509
0.132473
0.108591
0.062526
0.014042
-0.031485
-0.067295
-0.100124
-0.126337
-0.127485
-0.128461
-0.121677
-0.091648
-0.058421
-0.014997
0.030163
0.071303
0.104547
0.139654
0.142208
0.131840
0.116818
0.086209
0.053784
0.007862
-0.049772
-0.075003
-0.110044
-0.134948
-0.144411
-0.130965
-0.123029
-0.095930
-0.056530
-0.009701
0.040296
0.078878
0.091992
0.120041
0.117436
0.110473
0.092500
0.088973
0.061988
0.010873
-0.055186
-0.096642
-0.123699
-0.145579
-0.145029
-0.155639
-0.114730
-0.097404
-0.070935
-0.006298
0.043295
0.086014
0.099479
0.120972
0.121733
0.109026
0.090277
0.055521
0.033942
0.005372
-0.055244
-0.091612
-0.119691
-0.143093
-0.157368
-0.125837
-0.099869
-0.086921
-0.058387
-0.004770
0.037070
0.068441
0.090017
0.132042
0.154471
0.134191
0.103718
0.057657
0.012500
-0.041793
-0.085270
-0.120219
-0.145040
-0.163310
-0.162291
-0.153075
-0.128627
-0.093228
-0.054991
-0.002262
0.050493
0.079013
0.101331
0.102431
0.141033
0.118020
0.096036
0.055448
0.007836
-0.036993
-0.083366
-0.116187
-0.143909
-0.176900
-0.174537
-0.162858
-0.137365
-0.106772
-0.047122
0.004614
0.056011
0.075638
0.095649
0.116643
0.125414
0.113596
0.074810
0.062653
0.026084
-0.040062
-0.106667
-0.151047
-0.177454
-0.192794
-0.193798
-0.183516
-0.140257
-0.102173
-0.062140
-0.010011
0.061700
0.093678
0.122568
0.137135
0.144030
0.133224
0.111117
0.086031
0.052685
-0.009211
-0.068296
-0.108291
-0.133920
-0.153431
-0.166582
-0.129492
-0.122921
-0.100199
-0.053079
0.009935
0.063678
0.101073
0.135447
0.168379
0.178970
0.168664
0.153195
0.127149
0.089057
0.030636
-0.022613
-0.075790
-0.118514
-0.143297
-0.149564
-0.141254
-0.124650
-0.095782
-0.050860
-0.005668
0.052760
0.098812
0.137905
0.165449
0.185697
0.193212
0.177439
0.120012
0.073502
0.046962
0.006935
-0.046347
-0.101301
-0.137876
-0.116629
-0.102877
-0.089646
-0.063720
-0.027425
0.020376
0.081112
0.112769
0.145711
0.172469
0.168153
0.159236
0.138880
0.098148
0.062283
0.003934
-0.021487
-0.074994
-0.118749
-0.148165
-0.166877
-0.170098
-0.154048
-0.100882
-0.069077
-0.030584
0.014441
0.061836
0.086321
0.124056
0.125044
0.115730
0.114435
0.095566
0.056703
-0.008301
-0.063222
-0.110459
-0.144131
-0.153836
-0.174705
-0.173633
-0.167196
-0.152038
-0.123528
-0.077931
-0.010392
0.037842
0.076792
0.103809
0.104334
0.112488
0.102260
0.076417
0.031678
-0.021108
-0.075693
-0.111760
-0.147115
-0.165482
-0.178279
-0.176920
-0.162162
-0.133305
-0.099071
-0.060600
-0.009485
0.027191
0.064316
0.081040
0.088063
0.080894
0.043904
0.006455
-0.012430
-0.040389
-0.098804
-0.158677
-0.183180
-0.177599
-0.154397
-0.164116
-0.149326
-0.122793
-0.084573
-0.039184
0.004306
0.047034
0.076744
0.088366
0.093907
0.083611
0.057991
0.022667
-0.016365
-0.065463
-0.101458
-0.142264
-0.168360
-0.179808
-0.176086
-0.176174
-0.153991
-0.126629
-0.089832
-0.037716
0.004568
0.044508
0.066609
0.081966
0.084514
0.078068
0.052061
0.007871
-0.032842
-0.065645
-0.099903
-0.125478
-0.146619
-0.158474
-0.124955
-0.113961
-0.070931
-0.029725
0.048725
0.104668
0.169168
0.217323
0.267784
0.297974
0.312702
0.334592
0.345721
0.344196
0.302322
0.306333
0.299240
0.290342
0.288581
0.294848
0.311970
0.349098
0.422770
0.492931
0.572078
0.661184
0.750587
0.846778
0.902618
0.929345
0.919146
0.892901
0.868525
0.815925
0.747039
0.683202
0.586180
0.535404
0.431635
0.355431
0.296373
0.226753
0.199463
0.181437
0.178255
0.182265
0.209943
0.232956
0.269202
0.262749
0.277883
0.256124
0.219585
0.171253
0.120156
0.065782
0.006825
-0.045197
-0.061468
-0.079461
-0.095201
-0.103793
-0.091645
-0.056109
-0.025299
0.027177
0.079372
0.115510
0.168883
0.194621
0.202303
0.186498
0.164140
0.125661
0.087025
0.028400
-0.032615
-0.082437
-0.122252
-0.146339
-0.151895
-0.151496
-0.141137
-0.103364
-0.064870
-0.016002
0.026826
0.069667
0.122467
0.144464
0.143967
0.144339
0.125578
0.105399
0.070705
0.019376
-0.058070
-0.092904
-0.117719
-0.138867
-0.154641
-0.196923
-0.142750
-0.077616
-0.024465
0.019042
0.050107
0.082597
0.123619
0.147767
0.156328
0.149346
0.129226
0.098608
0.061015
0.021480
-0.024732
-0.069178
-0.113185
-0.129774
-0.139255
-0.125968
-0.096501
-0.072881
-0.027441
0.012573
0.056483
0.098235
0.117213
0.143354
0.155160
0.163156
0.134107
0.104883
0.080325
0.045069
0.012247
-0.046320
-0.076970
-0.091825
-0.106080
-0.106427
-0.089076
-0.024721
0.018887
0.053408
0.090300
0.119385
0.168228
0.193464
0.187929
0.172026
0.150883
0.133586
0.099277
0.050629
0.015719
-0.027560
-0.059508
-0.084063
-0.083212
-0.070344
-0.034575
0.008565
0.048962
0.094773
0.133799
0.175910
0.193553
0.210553
0.209403
0.205130
0.189044
0.155208
0.117455
0.070929
0.026631
-0.023163
-0.044764
-0.049562
-0.049293
-0.049436
-0.025895
0.016415
0.071968
0.113488
0.148173
0.213146
0.249949
0.278095
0.267834
0.244246
0.215961
0.189672
0.156760
0.106374
0.045442
-0.006565
-0.037023
-0.049850
-0.063184
-0.033470
-0.006424
0.041554
0.089280
0.127266
0.176055
0.227391
0.257507
0.270092
0.270304
0.255596
0.238990
0.210196
0.148226
0.092465
0.048195
0.000736
-0.031162
-0.056455
-0.058249
-0.056715
-0.012384
0.023597
0.067306
0.123502
0.176864
0.222389
0.244373
0.255357
0.261685
0.255051
0.223215
0.182089
0.172200
0.101283
0.027649
-0.028822
-0.065326
-0.076017
-0.081862
-0.064330
-0.054490
-0.022583
0.019692
0.066817
0.115526
0.157697
0.195514
0.211625
0.219990
0.212717
0.190202
0.162751
0.106555
0.043066
0.017717
-0.048244
-0.088877
-0.122056
-0.137675
-0.122002
-0.091110
-0.047795
-0.013884
0.014209
0.052530
0.099989
0.141873
0.173951
0.178333
0.184753
0.181320
0.136511
0.069962
0.014623
-0.042396
-0.088910
-0.129610
-0.159194
-0.160762
-0.149787
-0.132783
-0.084186
-0.043264
-0.002612
0.059448
0.096960
0.116403
0.144758
0.159667
0.136190
0.103615
0.071621
0.044827
-0.001919
-0.047494
-0.089136
-0.123169
-0.144805
-0.161179
-0.157661
-0.138499
-0.110305
-0.080853
-0.031372
0.014246
0.058545
0.080766
0.107535
0.120006
0.111971
0.111559
0.092630
0.047119
0.003458
-0.032471
-0.082575
-0.111262
-0.148322
-0.158749
-0.158933
-0.133729
-0.098756
-0.049551
-0.014614
0.027418
0.072576
0.092192
0.119444
0.138048
0.130769
0.101959
0.061156
0.017969
-0.019019
-0.061721
-0.090076
-0.100873
-0.134066
-0.142791
-0.123252
-0.112320
-0.101377
-0.066341
-0.015558
0.047982
0.092299
0.124134
0.127411
0.126833
0.118626
0.100698
0.066346
0.028743
-0.008912
-0.043288
-0.104108
-0.138834
-0.158273
-0.159128
-0.134921
-0.111878
-0.081392
-0.034466
0.018382
0.064220
0.112248
0.131290
0.150848
0.137012
0.118104
0.093336
0.089798
0.029228
-0.024604
-0.066947
-0.115879
-0.152939
-0.179637
-0.163721
-0.158742
-0.131953
-0.065692
-0.014960
0.023223
0.063824
0.097701
0.143928
0.170127
0.170291
0.143310
0.091265
0.049419
0.004775
-0.030350
-0.075456
-0.115983
-0.131012
-0.157806
-0.166192
-0.151769
-0.120736
-0.083010
-0.042272
0.002406
0.045388
0.098086
0.138867
0.144737
0.176735
0.165087
0.131803
0.087763
0.036160
-0.019591
-0.079200
-0.131647
-0.155514
-0.164128
-0.186350
-0.170819
-0.144424
-0.101230
-0.050602
-0.000265
0.044719
0.081728
0.105642
0.132396
0.138269
0.116401
0.116705
0.082784
0.039275
-0.013781
-0.081982
-0.131330
-0.173073
-0.188136
-0.189590
-0.174451
-0.145850
-0.105857
-0.065374
-0.015715
0.023850
0.084244
0.115090
0.128262
0.145124
0.141627
0.120209
0.101633
0.051496
-0.011829
-0.069395
-0.126787
-0.171338
-0.176408
-0.186598
-0.191878
-0.178949
-0.153136
-0.088614
-0.040243
0.001530
0.053506
0.111805
0.145582
0.142967
0.127880
0.106581
0.058761
0.021447
-0.011184
-0.062835
-0.103316
-0.148414
-0.178385
-0.199096
-0.185191
-0.176598
-0.139661
-0.089657
-0.047987
-0.003037
0.055548
0.095890
0.117834
0.121895
0.098276
0.084427
0.052982
0.015979
-0.033072
-0.070165
-0.109244
-0.138798
-0.165719
-0.173420
-0.173131
-0.162938
-0.128161
-0.094753
-0.048477
-0.003318
0.036185
0.071583
0.102479
0.120735
0.124137
0.114675
0.073516
0.021844
-0.030812
-0.057771
-0.091124
-0.133152
-0.158999
-0.155207
-0.144072
-0.126893
-0.097066
-0.069701
-0.015858
0.012854
0.053075
0.087915
0.130306
0.131783
0.134848
0.107378
0.071457
0.036677
0.002757
-0.035490
-0.075486
-0.100363
-0.128749
-0.137367
-0.134156
-0.127090
-0.108157
-0.078819
-0.020867
0.040076
0.071100
0.115745
0.139928
0.136412
0.130102
0.118010
0.108744
0.087147
0.022774
-0.026109
-0.043662
-0.080271
-0.110900
-0.132429
-0.123768
-0.101843
-0.070419
-0.032382
0.015178
0.050429
0.086676
0.119575
0.151721
0.153995
0.141224
0.114484
0.083753
0.030971
-0.013580
-0.067207
-0.115788
-0.143120
-0.170406
-0.175652
-0.151951
-0.126376
-0.083755
-0.035277
0.002169
0.041428
0.084015
0.095739
0.096628
0.086618
0.086739
0.062773
0.032476
0.013261
-0.039106
-0.105877
-0.136391
-0.176405
-0.198340
-0.208530
-0.172592
-0.165443
-0.138841
-0.086669
-0.044886
0.017433
0.054605
0.062279
0.079275
0.076755
0.060379
0.045707
0.000500
-0.041048
-0.082915
-0.127534
-0.169932
-0.197621
-0.230125
-0.238891
-0.221709
-0.190275
-0.119995
-0.082630
-0.061182
-0.025330
0.015378
0.046390
0.086879
0.099865
0.074371
0.056054
0.010005
-0.045317
-0.090947
-0.121738
-0.159640
-0.197717
-0.212403
-0.220855
-0.208278
-0.187773
-0.144321
-0.103263
-0.057579
-0.015260
0.027658
0.059127
0.089275
0.093564
0.082198
0.062073
0.019868
-0.021575
-0.073174
-0.128303
-0.179370
-0.210098
-0.237185
-0.236330
-0.214419
-0.190553
-0.154808
-0.117505
-0.060054
-0.001504
0.035998
0.065868
0.075915
0.077390
0.060299
0.027677
-0.001972
-0.037331
-0.077841
-0.132657
-0.189096
-0.207380
-0.220751
-0.210492
-0.153081
-0.112122
-0.067225
-0.003922
0.053929
0.117873
0.176328
0.212651
0.262771
0.282608
0.300308
0.300653
0.287476
0.259697
0.254803
0.243533
0.232037
0.219203
0.221427
0.261919
0.301409
0.340963
0.401629
0.496233
0.618979
0.714466
0.795391
0.866290
0.915614
0.949118
0.925988
0.926996
0.910528
0.824643
0.739489
0.668404
0.604179
0.527343
0.445415
0.352189
0.303013
0.254997
0.236720
0.227880
0.221998
0.229966
0.239109
0.259697
0.277539
0.276641
0.259930
0.224034
0.197751
0.141913
0.089004
0.022054
-0.025106
-0.080394
-0.109152
-0.130228
-0.122204
-0.103760
-0.067625
-0.040018
-0.002228
0.042914
0.093320
0.120889
0.134482
0.135325
0.143275
0.118989
0.082642
0.038052
-0.006007
-0.050426
-0.091996
-0.136584
-0.147656
-0.146853
-0.111063
-0.123112
-0.122190
-0.088823
-0.029052
0.008872
0.051464
0.097497
0.111708
0.116095
0.095454
0.075222
0.056909
0.013729
-0.032840
-0.067907
-0.106109
-0.147650
-0.157897
-0.171298
-0.161092
-0.141929
-0.110337
-0.078786
-0.029385
0.021773
0.072616
0.086982
0.101069
0.118903
0.113368
0.081063
0.039505
-0.003045
-0.030304
-0.049785
-0.106775
-0.147547
-0.164091
-0.174631
-0.155861
-0.137753
-0.063437
-0.020179
0.014627
0.048514
0.084446
0.114981
0.142629
0.153580
0.132905
0.110914
0.069770
0.029441
-0.020657
-0.058979
-0.118979
-0.122206
-0.138763
-0.146923
-0.135944
-0.095936
-0.059878
-0.025877
0.028900
0.074819
0.114343
0.150704
0.166324
0.175681
0.166671
0.136624
0.091014
0.062025
0.015772
-0.036735
-0.089321
-0.120012
-0.133223
-0.137756
-0.133361
-0.097945
-0.066510
-0.014168
0.058788
0.111171
0.156002
0.198190
0.200154
0.199903
0.187574
0.171151
0.150081
0.113992
0.048126
0.002034
-0.045569
-0.081154
-0.107850
-0.114402
-0.110190
-0.055968
-0.013711
0.020886
0.083558
0.125155
0.165064
0.197064
0.218371
0.226253
0.224293
0.219015
0.191573
0.137357
0.083843
0.030054
-0.019923
-0.058237
-0.081868
-0.087445
-0.079249
-0.066454
-0.028888
0.034284
0.099057
0.150254
0.183279
0.222983
0.255916
0.260081
0.222982
0.234074
0.213034
0.150547
0.087452
0.028418
-0.013212
-0.062989
-0.091410
-0.099603
-0.060221
-0.047639
-0.034522
0.004978
0.050716
0.084795
0.144311
0.199359
0.220677
0.219610
0.224384
0.185273
0.152277
0.126315
0.092535
0.046455
-0.010195
-0.061252
-0.080310
-0.092993
-0.086116
-0.075205
-0.049107
-0.012403
0.024171
0.059914
0.099601
0.141308
0.147543
0.159686
0.175268
0.173556
0.135100
0.086515
0.039102
-0.016772
-0.061817
-0.099059
-0.132560
-0.144818
-0.147944
-0.114676
-0.102907
-0.065699
-0.001762
0.051055
0.065163
0.097476
0.119155
0.128250
0.119884
0.097616
0.070290
0.020907
-0.026873
-0.065216
-0.092944
-0.139482
-0.144193
-0.156971
-0.163260
-0.144562
-0.122878
-0.080396
-0.048543
0.002892
0.040644
0.071065
0.101841
0.111904
0.096075
0.075001
0.039103
0.004591
-0.043088
-0.091552
-0.129864
-0.162926
-0.184430
-0.193391
-0.193463
-0.162466
-0.128364
-0.088841
-0.026993
0.023422
0.052897
0.079901
0.101792
0.104942
0.101546
0.068259
0.034172
-0.010864
-0.072749
-0.119308
-0.163778
-0.170076
-0.177296
-0.186114
-0.165267
-0.144798
-0.126224
-0.092868
-0.040053
0.005746
0.061590
0.094566
0.128975
0.117938
0.110013
0.055900
0.012799
-0.004433
-0.034672
-0.070538
-0.133891
-0.186326
-0.210358
-0.223485
-0.219008
-0.175930
-0.127305
-0.074174
-0.008828
0.045144
0.081801
0.120633
0.126148
0.124682
0.114750
0.092713
0.058725
0.009435
-0.048077
-0.093329
-0.135881
-0.175316
-0.200582
-0.199950
-0.194539
-0.164302
-0.124271
-0.081572
-0.035201
0.018755
0.065279
0.107066
0.131805
0.136209
0.128627
0.103396
0.062441
0.011394
-0.025800
-0.070835
-0.111979
-0.138977
-0.185661
-0.201358
-0.209676
-0.172330
-0.123056
-0.083620
-0.045246
-0.005541
0.050740
0.114292
0.125897
0.143742
0.153539
0.124551
0.081734
0.037936
-0.013156
-0.080699
-0.119558
-0.157977
-0.181521
-0.195401
-0.191400
-0.173806
-0.142832
-0.102263
-0.055639
0.011555
0.052890
0.080777
0.102513
0.122380
0.116247
0.083851
0.052911
0.025095
-0.022200
-0.072350
-0.126631
-0.184694
-0.215995
-0.219477
-0.187956
-0.167671
-0.125985
-0.084086
-0.052524
0.019323
0.055565
0.081146
0.100896
0.119869
0.111577
0.098747
0.062230
0.020229
-0.030113
-0.081204
-0.116864
-0.159449
-0.180973
-0.178763
-0.189252
-0.175753
-0.152232
-0.101754
-0.046148
-0.003537
0.038344
0.079794
0.095989
0.097882
0.095810
0.075799
0.054692
0.012975
-0.038532
-0.088803
-0.133993
-0.167450
-0.187818
-0.192647
-0.191321
-0.167691
-0.145760
-0.107651
-0.064921
-0.027812
0.012217
0.044224
0.090002
0.116637
0.111025
0.079231
0.042256
0.004152
-0.046508
-0.087637
-0.137753
-0.178312
-0.185059
-0.191517
-0.190918
-0.177674
-0.150852
-0.089077
-0.055629
-0.020726
0.013744
0.045496
0.068177
0.085997
0.081049
0.048338
0.012165
-0.025631
-0.060961
-0.105662
-0.143465
-0.179026
-0.180549
-0.188814
-0.189862
-0.182978
-0.143596
-0.106874
-0.070111
-0.000855
0.040511
0.070895
0.094126
0.100236
0.091022
0.064884
0.018232
-0.023870
-0.066060
-0.107668
-0.143934
-0.171252
-0.183645
-0.181854
-0.178129
-0.154175
-0.123432
-0.088781
-0.044792
0.001577
0.075029
0.097152
0.106658
0.107310
0.098864
0.069665
0.040775
0.012099
-0.017309
-0.067142
-0.120587
-0.167596
-0.195260
-0.198510
-0.109762
-0.104099
-0.100677
-0.056175
0.005714
0.047777
0.082057
0.112333
0.129613
0.128129
0.126533
0.089994
0.050687
0.011233
-0.037996
-0.086493
-0.130288
-0.173550
-0.182020
-0.171854
-0.155092
-0.123176
-0.081212
-0.026696
0.028741
0.065082
0.105287
0.138987
0.161701
0.152970
0.149945
0.111939
0.071136
0.025131
-0.023734
-0.070022
-0.129684
-0.167273
-0.190137
-0.199548
-0.196858
-0.172453
-0.121769
-0.071546
-0.034205
0.004792
0.068015
0.106696
0.126500
0.112977
0.096998
0.070347
0.036264
-0.010755
-0.065901
-0.127181
-0.171962
-0.209697
-0.213605
-0.232626
-0.221114
-0.181251
-0.134612
-0.118466
-0.075394
-0.024766
0.021411
0.072541
0.096549
0.090605
0.090021
0.059041
0.018324
-0.032025
-0.085458
-0.127160
-0.179692
-0.229009
-0.253776
-0.254956
-0.250866
-0.216268
-0.183976
-0.142768
-0.104472
-0.046247
-0.002858
0.032063
0.074265
0.095131
0.081448
0.048731
0.023623
-0.018642
-0.072230
-0.127524
-0.175954
-0.213168
-0.243548
-0.245083
-0.240090
-0.211628
-0.178461
-0.135373
-0.103584
-0.060053
-0.021193
0.042763
0.077359
0.080538
0.095258
0.061919
0.029113
-0.018699
-0.070357
-0.124897
-0.169094
-0.208875
-0.238587
-0.247611
-0.252844
-0.225092
-0.191383
-0.149334
-0.100394
-0.043700
0.005503
0.031740
0.068533
0.071747
0.060225
0.031304
0.001874
-0.042441
-0.082796
-0.131557
-0.153910
-0.172709
-0.224918
-0.250966
-0.253902
-0.237277
-0.215891
-0.156792
-0.093385
-0.043940
0.013042
0.079964
0.116664
0.129307
0.125623
0.122369
0.110747
0.087358
0.050298
0.016073
0.004065
-0.002563
-0.007994
0.016745
0.037040
0.076488
0.137358
0.212298
0.304640
0.385349
0.453284
0.514393
0.577236
0.626296
0.672401
0.702371
0.727104
0.718345
0.712958
0.694844
0.689704
0.668374
0.644218
0.628858
0.614940
0.605335
0.633657
0.666534
0.685325
0.690858
0.664955
0.629133
0.585590
0.528256
0.465640
0.384692
0.300736
0.218992
0.162098
0.121479
0.063280
0.008940
-0.030508
-0.058725
-0.046465
-0.029067
-0.020433
0.009846
0.044342
0.074147
0.114053
0.143185
0.160060
0.161194
0.142083
0.121752
0.081934
0.037771
-0.019221
-0.062184
-0.106127
-0.140480
-0.136893
-0.157854
-0.148636
-0.135021
-0.094680
-0.045943
-0.011714
0.019860
0.061707
0.094088
0.113647
0.110619
0.101329
0.073057
0.050466
0.013365
-0.035332
-0.090867
-0.129824
-0.154669
-0.188174
-0.192903
-0.173514
-0.153284
-0.106200
-0.055051
-0.019531
0.030835
0.064844
0.099537
0.126802
0.112539
0.095910
0.066452
0.034630
-0.008460
-0.046426
-0.083892
-0.136970
-0.171641
-0.188039
-0.189121
-0.178123
-0.146486
-0.102087
-0.061149
-0.011471
0.029398
0.066856
0.108583
0.119870
0.116554
0.107416
0.093777
0.062286
0.020719
-0.034114
-0.078216
-0.125647
-0.173374
-0.187207
-0.188960
-0.159771
-0.124857
-0.086467
-0.039570
0.009354
0.048118
0.098257
0.130667
0.149581
0.166924
0.156353
0.118337
0.083597
0.048938
-0.002510
-0.060621
-0.103143
-0.118866
-0.130933
-0.144450
-0.131260
-0.108722
-0.071719
-0.031770
0.029456
0.082857
0.125729
0.168778
0.195429
0.193010
0.183436
0.163069
0.131380
0.085058
0.040653
-0.012749
-0.039845
-0.071298
-0.111491
-0.138278
-0.115534
-0.085965
-0.044839
0.023337
0.068648
0.113193
0.153179
0.195049
0.222464
0.237339
0.224967
0.192514
0.149454
0.090566
0.077140
0.028289
-0.023917
-0.055316
-0.075877
-0.086050
-0.079400
-0.063468
-0.024081
0.026297
0.073229
0.126790
0.177134
0.218919
0.249736
0.256988
0.239155
0.222234
0.184932
0.135627
0.090528
0.028842
-0.015590
-0.048578
-0.052067
-0.065165
-0.072145
-0.067100
-0.034771
0.006338
0.052173
0.119290
0.167676
0.197060
0.222622
0.224290
0.219993
0.208886
0.186636
0.141900
0.071996
0.013385
-0.024626
-0.087373
-0.084262
-0.091920
-0.089494
-0.070602
-0.047653
-0.016533
0.028560
0.076155
0.114137
0.161228
0.191297
0.216247
0.202650
0.182220
0.159382
0.110247
0.078253
0.012705
-0.039508
-0.083719
-0.112749
-0.118948
-0.113262
-0.097994
-0.074085
-0.040479
-0.001796
0.042501
0.095274
0.117424
0.133296
0.152993
0.144310
0.131420
0.097258
0.059553
0.025526
-0.025347
-0.084828
-0.123057
-0.156181
-0.154084
-0.158688
-0.138486
-0.108103
-0.075981
-0.035754
0.010425
0.053062
0.090332
0.106455
0.108850
0.097103
0.084011
0.054571
0.014718
-0.026428
-0.065620
-0.119829
-0.147092
-0.175686
-0.199237
-0.184080
-0.170877
-0.128856
-0.078957
-0.041181
0.005336
0.050142
0.082374
0.096137
0.103428
0.082118
0.064865
0.026840
-0.033508
-0.040030
-0.058893
-0.126804
-0.181130
-0.170030
-0.179413
-0.178629
-0.173859
-0.121673
-0.074605
-0.035651
-0.010735
0.032079
0.069069
0.092152
0.096436
0.079708
0.048238
0.017798
-0.005519
-0.039605
-0.078335
-0.122922
-0.150658
-0.176263
-0.183018
-0.174571
-0.149940
-0.118646
-0.079038
-0.037184
0.007120
0.048611
0.069977
0.093397
0.095600
0.099000
0.087888
0.043636
-0.011507
-0.049769
-0.087970
-0.132327
-0.174899
-0.183115
-0.177670
-0.167765
-0.132679
-0.102708
-0.060384
-0.007192
0.034512
0.078986
0.095465
0.122425
0.120029
0.104291
0.062340
0.038121
-0.002670
-0.055438
-0.093088
-0.130495
-0.162258
-0.176935
-0.184571
-0.154479
-0.125045
-0.093586
-0.080068
-0.047544
0.032722
0.097079
0.126631
0.116160
0.143514
0.130949
0.087420
0.037290
-0.004139
-0.066363
-0.113113
-0.157955
-0.184304
-0.210681
-0.178003
-0.173077
-0.169523
-0.111492
-0.066450
-0.014610
0.022557
0.067928
0.115020
0.147801
0.125744
0.121202
0.097131
0.059358
0.012261
-0.038366
-0.098466
-0.143912
-0.177191
-0.206191
-0.196927
-0.171621
-0.155695
-0.112038
-0.067773
-0.021523
0.021158
0.066171
0.087547
0.119576
0.124266
0.114265
0.098016
0.067407
0.020426
-0.023490
-0.060721
-0.116465
-0.166808
-0.195619
-0.218403
-0.207722
-0.183112
-0.133899
-0.077995
-0.020083
0.032556
0.066981
0.097863
0.122189
0.127664
0.110987
0.081855
0.051306
0.011584
-0.042753
-0.102499
-0.158393
-0.173923
-0.193356
-0.210840
-0.241277
-0.198630
-0.172173
-0.145369
-0.039088
0.023257
0.056215
0.087684
0.114145
0.114381
0.088277
0.077669
0.038322
0.009966
-0.037893
-0.098939
-0.143096
-0.191092
-0.209278
-0.226638
-0.224942
-0.219805
-0.173692
-0.127188
-0.070940
-0.021432
0.021718
0.042883
0.125140
0.123673
0.112599
0.086133
0.052934
0.013532
-0.041551
-0.088628
-0.121889
-0.153186
-0.193883
-0.196397
-0.179719
-0.186220
-0.151419
-0.126957
-0.092571
-0.037884
0.014737
0.044853
0.070221
0.076872
0.071259
0.061763
0.055570
0.015781
-0.045498
-0.083810
-0.123999
-0.164074
-0.207255
-0.212488
-0.206034
-0.195250
-0.160406
-0.107422
-0.067182
-0.041436
0.020921
0.066262
0.088498
0.097552
0.097679
0.096117
0.045227
0.006995
-0.042430
-0.085939
-0.118807
-0.171728
-0.195066
-0.202587
-0.192335
-0.170491
-0.136202
-0.103544
-0.062776
-0.014950
0.032953
0.067861
0.102645
0.123338
0.103136
0.084056
0.040679
0.034311
-0.003846
-0.057321
-0.102144
-0.130205
-0.163772
-0.177313
-0.163580
-0.152430
-0.126778
-0.078164
-0.029815
0.001834
0.040844
0.061116
0.083309
0.096242
0.083982
0.074440
0.049689
0.007513
-0.034553
-0.066270
-0.098046
-0.115905
-0.116105
-0.139587
-0.141695
-0.122946
-0.097642
-0.050558
-0.008875
0.029064
0.069645
0.121169
0.139175
0.138081
0.121889
0.096337
0.066813
0.026362
-0.024156
-0.057400
-0.114761
-0.166058
-0.191895
-0.191304
-0.184759
-0.177769
-0.146794
-0.085752
-0.019917
0.002082
0.038048
0.075925
0.117406
0.122090
0.101251
0.067150
0.025417
-0.013356
-0.058815
-0.113042
-0.151325
-0.181156
-0.207226
-0.207781
-0.198259
-0.176488
-0.157557
-0.099780
-0.059723
-0.007638
0.035792
0.057618
0.068645
0.070859
0.041598
0.022339
-0.009716
-0.056188
-0.098010
-0.150398
-0.193338
-0.236000
-0.240092
-0.258786
-0.243432
-0.226307
-0.160116
-0.118057
-0.040635
-0.002057
0.015111
0.046329
0.070582
0.076185
0.053423
0.020448
-0.009424
-0.055738
-0.113259
-0.167690
-0.207246
-0.214474
-0.235909
-0.234375
-0.228414
-0.196843
-0.158746
-0.122025
-0.074318
-0.025340
0.018196
0.030664
0.047032
0.105843
0.070708
0.032123
0.002426
-0.037770
-0.103645
-0.154233
-0.180948
-0.214632
-0.235129
-0.236230
-0.240815
-0.221665
-0.167965
-0.131124
-0.090375
-0.032692
0.013432
0.037296
0.056427
0.068199
0.052117
0.045005
0.000578
-0.055266
-0.105736
-0.157715
-0.199552
-0.234009
-0.255093
-0.259714
-0.247943
-0.214727
-0.179822
-0.112933
-0.060551
0.010188
0.077890
0.140462
0.186444
0.202716
0.210513
0.184162
0.143536
0.130943
0.107122
0.072619
0.037591
0.028536
0.025626
0.048758
0.074307
0.134157
0.210266
0.287441
0.360208
0.440295
0.509300
0.583485
0.646496
0.699518
0.707877
0.722545
0.725129
0.724029
0.705518
0.662405
0.604573
0.576412
0.543923
0.511042
0.498798
0.487792
0.484793
0.457431
0.447134
0.432924
0.418288
0.403789
0.386484
0.324155
0.302230
0.244335
0.194295
0.139634
0.104080
0.045630
-0.027955
-0.080170
-0.108256
-0.133176
-0.142446
-0.141058
-0.095704
-0.051706
-0.019218
0.021192
0.068697
0.114795
0.146832
0.158493
0.150207
0.128434
0.084421
0.044498
-0.016075
-0.057645
-0.114209
-0.143031
-0.156488
-0.181378
-0.190847
-0.175413
-0.152800
-0.117243
-0.067453
-0.006188
0.036846
0.077547
0.099109
0.112372
0.100380
0.073396
0.063714
0.023213
-0.023448
-0.068320
-0.116776
-0.156592
-0.183950
-0.204296
-0.209995
-0.193944
-0.167636
-0.135208
-0.053862
-0.021312
0.014101
0.058115
0.132520
0.128977
0.102093
0.084733
0.062502
0.027690
-0.021800
-0.070459
-0.095775
-0.133757
-0.163109
-0.178494
-0.181530
-0.172246
-0.136773
-0.092088
-0.055574
-0.017312
0.024793
0.057233
0.083965
0.104449
0.102151
0.090814
0.058386
0.015527
-0.020090
-0.063604
-0.099778
-0.121324
-0.139859
-0.149243
-0.142438
-0.136777
-0.102529
-0.056241
-0.011927
0.022725
0.050952
0.100976
0.126284
0.110571
0.102264
0.099581
0.072469
0.038054
0.007767
-0.035472
-0.073090
-0.108592
-0.131101
-0.151427
-0.125230
-0.106446
-0.083249
-0.046124
0.012986
0.070686
0.141458
0.173558
0.168717
0.187426
0.179444
0.144646
0.094535
0.082576
0.036172
-0.012232
-0.052238
-0.084263
-0.107126
-0.119441
-0.078059
-0.059969
-0.048893
0.011358
0.065745
0.113131
0.154231
0.164822
0.187772
0.204338
0.175014
0.154392
0.131605
0.088477
0.052017
0.015891
-0.027732
-0.060596
-0.070042
-0.079970
-0.069877
-0.049046
-0.028533
0.005283
0.066319
0.108325
0.171746
0.191153
0.213513
0.219812
0.205057
0.179516
0.145370
0.105029
0.038964
-0.019147
-0.050825
-0.074880
-0.100580
-0.111454
-0.103416
-0.087153
-0.053785
0.026025
0.089820
0.137760
0.163306
0.196842
0.206428
0.215557
0.202309
0.177852
0.131923
0.083356
0.027365
-0.027946
-0.074031
-0.097878
-0.116427
-0.113982
-0.109420
-0.074540
-0.055641
-0.023271
0.056173
0.146440
0.172031
0.186215
0.184261
0.182785
0.170322
0.137840
0.086777
0.061274
0.019905
-0.045422
-0.091647
-0.126767
-0.150079
-0.165885
-0.161841
-0.136089
-0.104650
-0.047141
-0.006379
0.034082
0.094289
0.138488
0.154459
0.153930
0.135818
0.079123
0.072561
0.062293
-0.001165
-0.057009
-0.113379
-0.160735
-0.183734
-0.199158
-0.194908
-0.170227
-0.147895
-0.091967
-0.052513
-0.008233
0.038456
0.076877
0.096904
0.129566
0.122206
0.092279
0.064814
-0.005724
-0.065129
-0.102686
-0.152894
-0.203076
-0.223989
-0.227441
-0.219631
-0.195583
-0.169278
-0.134239
-0.085127
-0.010458
0.041134
0.079669
0.100328
0.109147
0.098751
0.083002
0.044336
-0.014352
-0.069415
-0.100453
-0.156332
-0.194045
-0.217040
-0.230446
-0.209316
-0.201815
-0.167094
-0.111625
-0.066833
-0.021458
-0.005118
0.048801
0.088644
0.110231
0.107849
0.069792
0.031061
-0.002583
-0.045694
-0.093068
-0.124453
-0.184050
-0.222720
-0.219902
-0.218404
-0.200606
-0.189682
-0.114197
-0.081766
-0.022722
0.028258
0.083586
0.105554
0.118333
0.105590
0.072468
0.063582
0.044597
-0.022654
-0.094815
-0.105093
-0.158382
-0.192353
-0.205718
-0.207817
-0.187399
-0.148543
-0.105040
-0.059329
-0.008075
0.045222
0.080821
0.105955
0.111657
0.113022
0.091677
0.064877
0.021937
-0.025369
-0.075084
-0.127097
-0.151084
-0.170104
-0.178517
-0.178648
-0.167806
-0.144949
-0.117813
-0.066000
-0.028124
0.020795
0.053489
0.070855
0.091439
0.085069
0.066524
0.045743
0.002030
-0.037953
-0.087446
-0.124357
-0.158815
-0.181407
-0.203038
-0.205030
-0.153330
-0.133365
-0.112003
-0.078662
-0.036383
0.040541
0.061333
0.077704
0.103838
0.094741
0.069206
0.042326
0.002204
-0.033407
-0.080016
-0.127692
-0.170582
-0.188286
-0.213780
-0.214479
-0.188392
-0.128451
-0.100965
-0.065229
-0.034434
0.015053
0.066349
0.084928
0.087938
0.077012
0.051009
0.024581
-0.015554
-0.057451
-0.106299
-0.141680
-0.170187
-0.197552
-0.214772
-0.206025
-0.194831
-0.144979
-0.091117
-0.051508
-0.010733
0.032444
0.066921
0.082770
0.090784
0.074031
0.050797
0.023672
-0.012231
-0.056753
-0.104333
-0.147514
-0.181966
-0.189315
-0.205882
-0.183404
-0.168835
-0.146651
-0.118243
-0.055410
-0.029025
0.001175
0.031173
0.044806
0.085503
0.080340
0.056211
0.014422
-0.055525
-0.091638
-0.102761
-0.154327
-0.198619
-0.218617
-0.227932
-0.216780
-0.191606
-0.155867
-0.098142
-0.052327
-0.025720
0.006616
0.022287
0.042432
0.063114
0.060736
0.034614
0.006237
-0.046672
-0.078387
-0.114653
-0.153599
-0.202960
-0.208350
-0.203498
-0.211492
-0.187872
-0.156152
-0.117885
-0.068321
-0.014925
0.032852
0.048346
0.065136
0.066100
0.053161
0.034283
-0.003710
-0.017990
-0.080757
-0.130091
-0.147375
-0.178849
-0.194779
-0.182728
-0.173186
-0.135272
-0.107054
-0.071612
-0.039197
-0.006677
0.059809
0.093580
0.115120
0.114303
0.099870
0.080168
0.056428
0.003973
-0.055757
-0.117046
-0.143455
-0.187070
-0.199436
-0.192379
-0.167155
-0.145197
-0.130105
-0.082097
-0.039389
0.007803
0.051307
0.080268
0.106250
0.108703
0.106705
0.086808
0.044759
0.003858
-0.032573
-0.080346
-0.127719
-0.169440
-0.178813
-0.185768
-0.158439
-0.149488
-0.103087
-0.048553
0.000653
0.053664
0.079568
0.117727
0.130721
0.121995
0.102654
0.073196
0.037702
-0.011773
-0.059039
-0.111320
-0.161821
-0.189454
-0.216288
-0.226257
-0.208563
-0.190159
-0.156696
-0.110464
-0.063410
-0.002553
0.043132
0.071008
0.091861
0.112788
0.081428
0.058588
0.016081
-0.038608
-0.077095
-0.119951
-0.166383
-0.208631
-0.243071
-0.270609
-0.254934
-0.232834
-0.206887
-0.139612
-0.080249
-0.038099
-0.011357
0.017284
0.050301
0.055264
0.062838
0.030796
0.011630
-0.036714
-0.096118
-0.155046
-0.195414
-0.220510
-0.234718
-0.268735
-0.276366
-0.258196
-0.223477
-0.160106
-0.112396
-0.056930
-0.026800
0.000925
0.046930
0.090004
0.069054
0.034314
-0.007320
-0.061085
-0.115705
-0.160620
-0.217028
-0.236540
-0.265782
-0.264904
-0.269354
-0.253813
-0.209499
-0.142910
-0.089881
-0.048475
-0.001002
0.044743
0.063630
0.075585
0.069830
0.033376
0.002364
-0.043445
-0.091149
-0.153159
-0.196600
-0.236189
-0.265340
-0.278005
-0.256921
-0.238907
-0.205709
-0.167518
-0.123153
-0.076527
-0.033045
0.016907
0.031223
0.045058
0.048365
0.032744
0.004735
-0.048514
-0.096570
-0.145021
-0.182948
-0.203532
-0.211480
-0.217994
-0.183851
-0.155058
-0.091819
-0.039651
0.013654
0.065758
0.116015
0.174590
0.229484
0.271967
0.302784
0.327302
0.331663
0.327147
0.286557
0.267029
0.254982
0.263416
0.263301
0.269684
0.296474
0.353050
0.399711
0.507311
0.560716
0.642823
0.750339
0.812410
0.836618
0.856644
0.842872
0.822774
0.773955
0.711085
0.652529
0.602429
0.469532
0.353551
0.258832
0.188460
0.141685
0.115715
0.105166
0.097099
0.098938
0.120181
0.135712
0.152685
0.165431
0.183120
0.159616
0.127413
0.093071
0.057448
0.007651
-0.033814
-0.084935
-0.124829
-0.149905
-0.167169
-0.175163
-0.124212
-0.107555
-0.108003
-0.075662
-0.012108
0.029326
0.069305
0.080002
0.093142
0.092448
0.074681
0.045222
0.021989
-0.013935
-0.066133
-0.126566
-0.163518
-0.179521
-0.197098
-0.211303
-0.190796
-0.180705
-0.122593
-0.035914
-0.000837
0.018377
0.042410
0.060001
0.068368
0.073386
0.052764
0.024757
-0.026856
-0.049393
-0.086833
-0.140651
-0.174036
-0.196827
-0.214217
-0.207647
-0.192517
-0.164530
-0.117095
-0.075416
-0.020585
0.030922
0.058543
0.071160
0.074922
0.051213
0.072875
0.031705
-0.019092
-0.057235
-0.082489
-0.123232
-0.131701
-0.158359
-0.181435
-0.186983
-0.159633
-0.120519
-0.069378
-0.029583
0.000601
0.053674
0.079312
0.101964
0.107895
0.094847
0.074391
0.043983
-0.006002
-0.036801
-0.044509
-0.098926
-0.128650
-0.145146
-0.143375
-0.147917
-0.131456
-0.120544
-0.086088
-0.040360
-0.006850
0.045538
0.086604
0.098182
0.115240
0.123327
0.100408
0.064908
0.020673
-0.021529
-0.068679
-0.094229
-0.118347
-0.129282
-0.149847
-0.145752
-0.136630
-0.068798
-0.036143
-0.004492
0.051797
0.087832
0.106639
0.116349
0.162719
0.203049
0.165067
0.110209
0.050542
0.022476
-0.024849
-0.063600
-0.094770
-0.105358
-0.094231
-0.093383
-0.069073
-0.029273
0.007196
0.051393
0.087880
0.127104
0.158426
0.185291
0.188370
0.178360
0.150402
0.137226
0.094381
0.038930
-0.007782
-0.039478
-0.077622
-0.110371
-0.115606
-0.105519
-0.085935
-0.044235
0.025003
0.075933
0.110654
0.134426
0.177052
0.194779
0.183655
0.179742
0.147674
0.100062
0.041961
0.016126
-0.007119
-0.028205
-0.078607
-0.115583
-0.125723
-0.116195
-0.080180
-0.044067
0.004728
0.046459
0.077074
0.118287
0.145546
0.150720
0.159810
0.173292
0.150525
0.099074
0.049272
-0.004890
-0.057309
-0.102932
-0.130521
-0.165635
-0.149220
-0.144270
-0.127344
-0.078041
-0.007827
0.043037
0.057814
0.103196
0.133376
0.141337
0.145073
0.118539
0.105096
0.053991
0.006167
-0.049114
-0.110181
-0.145006
-0.161560
-0.185678
-0.199383
-0.205356
-0.179186
-0.150112
-0.051360
0.002781
0.033852
0.087062
0.126371
0.141306
0.125856
0.115705
0.089622
0.049244
-0.000985
-0.055956
-0.112482
-0.156354
-0.204542
-0.230619
-0.235332
-0.228089
-0.201261
-0.157499
-0.104200
-0.067469
-0.022038
0.030138
0.095637
0.132650
0.118573
0.101013
0.073333
0.026814
-0.020898
-0.083044
-0.132694
-0.180215
-0.212294
-0.239994
-0.240939
-0.233785
-0.203853
-0.164726
-0.127539
-0.067419
-0.014959
0.034065
0.064487
0.087286
0.100470
0.095057
0.071533
0.031631
-0.019049
-0.070957
-0.111794
-0.155196
-0.207248
-0.230783
-0.232042
-0.236728
-0.226269
-0.182776
-0.117803
-0.076287
-0.012886
0.029114
0.072113
0.095838
0.099783
0.104755
0.086523
0.040274
-0.000238
-0.059693
-0.105376
-0.158578
-0.208894
-0.230676
-0.216920
-0.211377
-0.197639
-0.155660
-0.117656
-0.073865
-0.022627
0.024301
0.041558
0.105339
0.135474
0.114035
0.079862
0.036525
-0.016337
-0.063343
-0.096918
-0.143631
-0.190869
-0.199337
-0.191011
-0.200555
-0.189363
-0.158128
-0.114437
-0.063488
0.017161
0.067224
0.096238
0.106351
0.127122
0.123378
0.090436
0.052080
0.003577
-0.058073
-0.122183
-0.158091
-0.185884
-0.215104
-0.219782
-0.214231
-0.156478
-0.126279
-0.083900
-0.044994
-0.001308
0.048522
0.080085
0.092734
0.106137
0.109771
0.085610
0.067426
0.007883
-0.075563
-0.087897
-0.143473
-0.191833
-0.184136
-0.195549
-0.198526
-0.182911
-0.157206
-0.120076
-0.079049
-0.046487
0.009789
0.044314
0.079172
0.100899
0.099297
0.074218
0.043270
0.019390
-0.029171
-0.094737
-0.145820
-0.182089
-0.203475
-0.216032
-0.184223
-0.161615
-0.142753
-0.116993
-0.077841
-0.022793
0.030621
0.055696
0.082971
0.101035
0.105504
0.085935
0.049416
-0.002716
-0.052101
-0.097226
-0.132646
-0.165368
-0.200762
-0.222342
-0.219844
-0.192420
-0.164021
-0.127037
-0.088824
-0.034272
0.015389
0.057994
0.056396
0.071157
0.055615
0.029155
0.007826
-0.019261
-0.039822
-0.080981
-0.132170
-0.162431
-0.186533
-0.197744
-0.194842
-0.187445
-0.168263
-0.122963
-0.077169
-0.044953
-0.002513
0.046592
0.069017
0.082927
0.059959
0.047711
0.021184
-0.007292
-0.062637
-0.115718
-0.149559
-0.175955
-0.193173
-0.202276
-0.199742
-0.181631
-0.154658
-0.120875
-0.067762
-0.020091
0.032821
0.072895
0.084853
0.079444
0.086728
0.064379
0.037560
0.004544
-0.046954
-0.089482
-0.116192
-0.149434
-0.154678
-0.160429
-0.174492
-0.158251
-0.153848
-0.087854
-0.024295
0.018892
0.058635
0.080333
0.098484
0.094899
0.087414
0.064492
0.031787
0.004218
-0.036005
-0.077021
-0.108022
-0.134969
-0.158796
-0.167341
-0.155184
-0.137472
-0.109456
-0.061280
-0.017955
0.012665
0.045778
0.088562
0.129311
0.155967
0.136601
0.095931
0.053697
0.026451
-0.030519
-0.076945
-0.115367
-0.153778
-0.168388
-0.180707
-0.184871
-0.150407
-0.128586
-0.093606
-0.048640
-0.008670
0.017322
0.057030
0.077336
0.072195
0.074200
0.052289
0.010744
-0.029574
-0.069460
-0.115435
-0.158351
-0.188927
-0.205057
-0.209683
-0.217450
-0.196139
-0.168489
-0.134396
-0.073922
-0.031266
0.015401
0.050737
0.058200
0.058203
0.047315
0.032332
-0.012443
-0.065643
-0.121735
-0.172985
-0.214181
-0.249686
-0.270683
-0.265835
-0.259391
-0.213135
-0.182201
-0.145280
-0.077126
-0.038392
0.004159
0.033324
0.057827
0.055438
0.044884
0.022605
-0.007278
-0.063529
-0.118667
-0.168077
-0.216451
-0.243832
-0.237389
-0.250349
-0.258896
-0.233953
-0.206111
-0.161366
-0.110439
-0.042596
0.018483
0.055827
0.047969
0.045364
0.035210
0.021683
-0.032396
-0.071614
-0.127955
-0.177957
-0.209680
-0.242651
-0.266118
-0.285500
-0.274512
-0.246029
-0.199133
-0.123079
-0.075289
-0.042162
-0.013350
0.050033
0.071632
0.063085
0.056947
0.032907
-0.016858
-0.068173
-0.130619
-0.174258
-0.226954
-0.267533
-0.281760
-0.289007
-0.270756
-0.249701
-0.213454
-0.137219
-0.072448
-0.022232
0.031068
0.083127
0.118879
0.140768
0.166381
0.159938
0.127116
0.087558
0.052487
0.022170
0.000083
-0.007194
-0.012468
0.012208
0.037925
0.086899
0.145160
0.222974
0.302336
0.382171
0.465666
0.536352
0.601102
0.638658
0.685606
0.695697
0.681304
0.672052
0.663364
0.636685
0.609103
0.580860
0.557664
0.541525
0.522737
0.517783
0.534419
0.554307
0.570367
0.572685
0.553086
0.526002
0.491690
0.455514
0.412021
0.341406
0.258419
0.180802
0.102997
0.024618
-0.032919
-0.084003
-0.112291
-0.136787
-0.142248
-0.137386
-0.115127
-0.070016
-0.007702
0.035851
0.092664
0.123206
0.154366
0.171533
0.156789
0.115514
0.082263
0.048498
-0.008560
-0.068989
-0.118016
-0.158129
-0.174966
-0.184818
-0.191662
-0.180645
-0.148580
-0.099935
-0.045167
0.000385
0.029105
0.056461
0.083001
0.087782
0.086438
0.068344
0.040182
0.000458
-0.047853
-0.081259
-0.126784
-0.154008
-0.179527
-0.194541
-0.207749
-0.200354
-0.183172
-0.144355
-0.087445
-0.036573
-0.001506
0.034063
0.082197
0.095515
0.090721
0.082965
0.040039
-0.003523
-0.046622
-0.091346
-0.141213
-0.176416
-0.194296
-0.194312
-0.205059
-0.183377
-0.159559
-0.115389
-0.074116
-0.025208
0.005801
0.043768
0.074129
0.082113
0.087812
0.066758
0.032356
0.007732
-0.036912
-0.074822
-0.122017
-0.158837
-0.182342
-0.191262
-0.181809
-0.161446
-0.133551
-0.080287
-0.036138
0.023300
0.052342
0.089194
0.119205
0.124176
0.114150
0.091400
0.047398
0.006069
-0.030511
-0.076100
-0.118361
-0.152426
-0.159233
-0.162274
-0.151586
-0.129447
-0.103990
-0.057954
-0.010757
0.038435
0.082588
0.110212
0.135437
0.142045
0.128040
0.110376
0.089639
0.058411
0.001001
-0.032240
-0.080491
-0.109799
-0.127690
-0.140863
-0.129309
-0.105539
-0.071753
-0.028208
0.026797
0.070988
0.109585
0.146668
0.176759
0.160859
0.140781
0.125342
0.098109
0.059383
0.027307
-0.013991
-0.054613
-0.100669
-0.118221
-0.109088
-0.096848
-0.078757
-0.042489
-0.008476
0.044501
0.081809
0.113677
0.182878
0.202650
0.193711
0.170857
0.157210
0.142613
0.089236
0.026230
-0.034920
-0.062184
-0.096760
-0.114491
-0.127865
-0.114868
-0.081006
-0.041359
-0.010335
0.027655
0.068094
