-0.099455
-0.062035
-0.026288
0.015776
0.020191
0.021713
0.017722
-0.011076
-0.043745
-0.086650
-0.142987
-0.190856
-0.214802
-0.235082
-0.244646
-0.256828
-0.248382
-0.233268
-0.207085
-0.158249
-0.108769
-0.057413
-0.021137
-0.002589
0.017597
0.035692
0.029125
0.003993
-0.035628
-0.079060
-0.126901
-0.167428
-0.216508
-0.246889
-0.253525
-0.261679
-0.244498
-0.231963
-0.192133
-0.149918
-0.112477
-0.063685
-0.017663
0.007233
0.023028
0.030841
0.024466
-0.001496
-0.034333
-0.086090
-0.144811
-0.184701
-0.225328
-0.259130
-0.270703
-0.286009
-0.269494
-0.240238
-0.211411
-0.159431
-0.120938
-0.069673
-0.016262
0.010213
0.028180
0.032821
0.016586
-0.012204
-0.039047
-0.095381
-0.142208
-0.186916
-0.231168
-0.257137
-0.273644
-0.280044
-0.264750
-0.244660
-0.218645
-0.170007
-0.114005
-0.070635
-0.023663
0.003674
0.014855
0.015377
0.010277
-0.019274
-0.051175
-0.104470
-0.158914
-0.204083
-0.243144
-0.270757
-0.284441
-0.287272
-0.273335
-0.257673
-0.216484
-0.168532
-0.120665
-0.063095
-0.018841
0.005961
0.028558
0.031588
0.017098
-0.010313
-0.045163
-0.093721
-0.138465
-0.192554
-0.228590
-0.256723
-0.273740
-0.281574
-0.260390
-0.217674
-0.189301
-0.139506
-0.087350
-0.038771
0.007398
0.047176
0.066520
0.079901
0.058984
0.038184
-0.004766
-0.058554
-0.101593
-0.158041
-0.202025
-0.238189
-0.255420
-0.256439
-0.246343
-0.219565
-0.179566
-0.133724
-0.088181
-0.037292
0.000676
0.040175
0.060528
0.068855
0.061004
0.032616
0.000203
-0.051835
-0.097694
-0.144825
-0.179842
-0.214304
-0.237642
-0.245527
-0.236743
-0.211747
-0.162046
-0.117308
-0.068689
-0.008561
0.026743
0.054132
0.074168
0.084467
0.062050
0.042273
-0.002960
-0.048683
-0.101524
-0.163665
-0.213679
-0.247761
-0.272329
-0.288229
-0.276726
-0.245281
-0.212731
-0.162968
-0.103620
-0.058162
-0.018322
0.024517
0.042084
0.047834
0.028192
0.003444
-0.034946
-0.084164
-0.137930
-0.181544
-0.239345
-0.270507
-0.299180
-0.311059
-0.298943
-0.269410
-0.231635
-0.193184
-0.156862
-0.101828
-0.052915
-0.010606
0.011194
0.015625
0.006867
-0.009184
-0.057363
-0.107957
-0.159821
-0.204456
-0.255092
-0.294743
-0.320020
-0.324943
-0.318262
-0.288367
-0.253650
-0.198411
-0.141209
-0.091728
-0.045293
-0.027751
0.010534
0.019838
0.005554
-0.011300
-0.046938
-0.088212
-0.132291
-0.197588
-0.249640
-0.276692
-0.305939
-0.316671
-0.306870
-0.289149
-0.261138
-0.207973
-0.163667
-0.109171
-0.063870
-0.019107
-0.000222
0.016346
0.011976
-0.009092
-0.038163
-0.089324
-0.145672
-0.200592
-0.243197
-0.284507
-0.308011
-0.329950
-0.308232
-0.281282
-0.257908
-0.204965
-0.156298
-0.111449
-0.063956
-0.031401
-0.006200
-0.002235
-0.005671
-0.025576
-0.053766
-0.078142
-0.122399
-0.180066
-0.211808
-0.246336
-0.263872
-0.261000
-0.253886
-0.219903
-0.171842
-0.121673
-0.054906
0.021444
0.075084
0.113803
0.155051
0.191757
0.204923
0.207559
0.201095
0.191570
0.164397
0.152740
0.138441
0.151065
0.146031
0.161885
0.194963
0.239701
0.302536
0.381203
0.458960
0.556068
0.633303
0.705002
0.765420
0.809740
0.823656
0.801099
0.771556
0.712635
0.652300
0.592597
0.515639
0.455073
0.397504
0.314278
0.248069
0.195918
0.166098
0.161029
0.154396
0.160646
0.146906
0.140944
0.162531
0.155159
0.145172
0.128831
0.098560
0.042034
0.005601
-0.048662
-0.087683
-0.137634
-0.163799
-0.180484
-0.179601
-0.173020
-0.153744
-0.115725
-0.082222
-0.037321
0.001766
0.038477
0.059403
0.069391
0.064909
0.053775
0.022928
-0.017410
-0.064518
-0.111917
-0.156350
-0.175681
-0.215587
-0.217195
-0.218774
-0.205202
-0.179502
-0.135412
-0.110061
-0.063162
-0.023698
0.013218
0.030622
0.044966
0.042128
0.022581
-0.000229
-0.036496
-0.078316
-0.137002
-0.176874
-0.199447
-0.224359
-0.251777
-0.237929
-0.222666
-0.181089
-0.139861
-0.099828
-0.051999
-0.018427
0.008110
0.032890
0.044165
0.041947
0.031989
0.006603
-0.037149
-0.077227
-0.121083
-0.157094
-0.187487
-0.203407
-0.224968
-0.221941
-0.192271
-0.161875
-0.126158
-0.077754
-0.027990
-0.000639
0.029909
0.057793
0.063278
0.058100
0.043651
0.020307
-0.034843
-0.085066
-0.119497
-0.152114
-0.171339
-0.191595
-0.201498
-0.196379
-0.179402
-0.147184
-0.098628
-0.057356
-0.015876
0.030331
0.056539
0.078675
0.075570
0.081145
0.058166
0.031753
-0.006436
-0.045720
-0.085390
-0.115318
-0.144356
-0.152945
-0.150375
-0.149515
-0.128647
-0.089613
-0.051188
-0.008901
0.034377
0.073101
0.099679
0.122418
0.129649
0.119992
0.093392
0.063991
0.019464
-0.018409
-0.051584
-0.096090
-0.113577
-0.134993
-0.127404
-0.132215
-0.106985
-0.074918
-0.027818
0.017470
0.064234
0.112354
0.152793
0.166238
0.164098
0.162099
0.139117
0.108891
0.078252
0.028273
-0.024512
-0.059743
-0.100953
-0.120794
-0.114986
-0.096520
-0.064958
-0.022318
-0.008849
0.014924
0.077596
0.114120
0.152220
0.167728
0.172675
0.165003
0.133735
0.102956
0.056866
0.012253
-0.040639
-0.071741
-0.111307
-0.133976
-0.129469
-0.119968
-0.095749
-0.054476
-0.010837
0.025776
0.066606
0.102912
0.143784
0.163529
0.157754
0.158287
0.124359
0.087086
0.041474
-0.001487
-0.056993
-0.102744
-0.128633
-0.143688
-0.142735
-0.148836
-0.111976
-0.075742
-0.028137
0.005994
0.043923
0.082831
0.106920
0.129152
0.127175
0.118829
0.091122
0.044236
0.000275
-0.047603
-0.108683
-0.145447
-0.168061
-0.176662
-0.182553
-0.208997
-0.171930
-0.136702
-0.095250
-0.037263
0.011174
0.053078
0.073755
0.093277
0.090619
0.082198
0.050081
0.005847
-0.040377
-0.091609
-0.138570
-0.188294
-0.211270
-0.236118
-0.234400
-0.233647
-0.202725
-0.155163
-0.120578
-0.078425
-0.035225
0.005986
0.039226
0.069176
0.075092
0.068058
0.039861
0.006698
-0.049151
-0.101320
-0.138209
-0.190195
-0.212896
-0.246311
-0.253973
-0.230696
-0.210933
-0.175555
-0.156779
-0.089229
-0.030991
0.000004
0.037074
0.061558
0.083766
0.102049
0.060055
-0.016831
-0.079088
-0.124165
-0.166010
-0.207388
-0.242149
-0.253344
-0.249796
-0.251717
-0.226882
-0.177963
-0.134573
-0.081969
-0.021031
0.011885
0.035112
0.070124
0.087625
0.074067
0.037895
0.002029
-0.039151
-0.090131
-0.144682
-0.184003
-0.216399
-0.245022
-0.244458
-0.238344
-0.212797
-0.181582
-0.129900
-0.079058
-0.028047
0.024336
0.042731
0.077008
0.086641
0.075048
0.066962
0.034521
-0.017472
-0.090141
-0.138965
-0.190667
-0.220372
-0.229685
-0.241838
-0.228184
-0.235670
-0.184099
-0.125128
-0.060107
-0.019034
0.021509
0.053266
0.086432
0.091971
0.101277
0.077364
0.036362
-0.014474
-0.056211
-0.115138
-0.161431
-0.200896
-0.223759
-0.240252
-0.231528
-0.202461
-0.166782
-0.134270
-0.072918
-0.018145
0.026153
0.058373
0.088339
0.093997
0.085807
0.060696
0.011545
-0.034464
-0.076083
-0.116767
-0.153119
-0.191183
-0.225029
-0.241156
-0.233387
-0.211013
-0.178400
-0.137295
-0.075877
-0.014327
0.031656
0.046445
0.074230
0.098651
0.093185
0.067608
0.038761
-0.003021
-0.067542
-0.113864
-0.162525
-0.204500
-0.221973
-0.251051
-0.248802
-0.211886
-0.163080
-0.148799
-0.098081
-0.030246
0.013330
0.034480
0.060633
0.083386
0.082869
0.070788
0.022833
-0.033285
-0.074459
-0.117082
-0.167863
-0.203275
-0.240654
-0.249264
-0.249413
-0.222197
-0.188892
-0.140945
-0.084518
-0.046562
0.004108
0.040482
0.067678
0.090752
0.095638
0.067383
0.030948
-0.016574
-0.078226
-0.136045
-0.167222
-0.212952
-0.245331
-0.261534
-0.266468
-0.235265
-0.195841
-0.149699
-0.098276
-0.059435
-0.018002
0.018191
0.083453
0.106097
0.050029
0.051951
0.020125
-0.032524
-0.080936
-0.112087
-0.174291
-0.227983
-0.253402
-0.258479
-0.246603
-0.238885
-0.192829
-0.155673
-0.111900
-0.054464
-0.009438
0.024369
0.046946
0.060843
0.063206
0.043901
0.017420
-0.024931
-0.078011
-0.126517
-0.175128
-0.206552
-0.228984
-0.245087
-0.240483
-0.216298
-0.196977
-0.143460
-0.088770
-0.051370
-0.014906
0.020802
0.035697
0.047134
0.043212
0.032586
0.000739
-0.027520
-0.079478
-0.119189
-0.177512
-0.211878
-0.236088
-0.246047
-0.234565
-0.241102
-0.213217
-0.139267
-0.115292
-0.077194
-0.026425
0.016783
0.038519
0.042882
0.042038
0.017954
-0.003208
-0.031363
-0.065093
-0.112698
-0.168326
-0.203057
-0.228264
-0.232113
-0.230174
-0.224146
-0.193742
-0.138434
-0.096509
-0.055820
-0.023617
0.020217
0.038701
0.062191
0.059542
0.039547
-0.012410
-0.054702
-0.088498
-0.132162
-0.174570
-0.200372
-0.227251
-0.240252
-0.237430
-0.215221
-0.191099
-0.157747
-0.108365
-0.060736
-0.017906
0.010811
0.036490
0.050433
0.048131
0.031661
0.002186
-0.041494
-0.087702
-0.117400
-0.162221
-0.204248
-0.219490
-0.216352
-0.217745
-0.224716
-0.176758
-0.122149
-0.100264
-0.072860
-0.031097
0.010558
0.043338
0.072152
0.081381
0.065804
0.023966
-0.011352
-0.063930
-0.114266
-0.145739
-0.166257
-0.192063
-0.186902
-0.190980
-0.182030
-0.145460
-0.114859
-0.063890
-0.019517
0.018027
0.046723
0.073988
0.070488
0.063464
0.035657
-0.009105
-0.027515
-0.062371
-0.107359
-0.154423
-0.180656
-0.197945
-0.185554
-0.172412
-0.155511
-0.124913
-0.074540
-0.032007
0.000500
0.032427
0.072455
0.094164
0.105137
0.100830
0.086865
0.058518
-0.005835
-0.042916
-0.099626
-0.138710
-0.174230
-0.187263
-0.186764
-0.188913
-0.162613
-0.125381
-0.102835
-0.071306
-0.041441
0.001630
0.050071
0.056522
0.052362
0.036416
0.029763
-0.005500
-0.046589
-0.077396
-0.131405
-0.178153
-0.204602
-0.234949
-0.235594
-0.229150
-0.204300
-0.167383
-0.145965
-0.095603
-0.054181
-0.000591
0.019636
0.031871
0.037635
0.028009
0.004811
-0.038134
-0.072908
-0.112418
-0.156263
-0.192257
-0.220911
-0.246537
-0.248185
-0.242299
-0.229836
-0.200831
-0.148370
-0.101876
-0.062322
-0.037352
-0.001369
0.019843
0.017900
0.014254
0.011295
-0.027063
-0.071043
-0.095903
-0.155556
-0.218165
-0.240488
-0.231247
-0.226841
-0.225659
-0.228716
-0.208854
-0.144495
-0.098946
-0.060205
-0.014072
0.016357
0.031488
0.009393
0.003699
-0.003219
-0.054345
-0.071876
-0.117124
-0.152271
-0.205029
-0.243588
-0.257334
-0.259279
-0.245485
-0.223336
-0.196965
-0.145472
-0.101709
-0.043347
0.007363
0.021203
0.022678
0.033880
0.008178
-0.020675
-0.041057
-0.078097
-0.116982
-0.162928
-0.207577
-0.237065
-0.271357
-0.272416
-0.266366
-0.242499
-0.217812
-0.177920
-0.110158
-0.030970
0.005430
0.046149
0.070327
0.080534
0.078955
0.075307
0.047668
0.035375
-0.000321
-0.034926
-0.060727
-0.071760
-0.050874
-0.055510
-0.045502
0.012708
0.080282
0.158391
0.224641
0.303580
0.383179
0.448244
0.500690
0.539478
0.559225
0.563107
0.565561
0.569934
0.562270
0.538702
0.513185
0.532287
0.562308
0.578391
0.581655
0.602799
0.645475
0.666688
0.705438
0.716957
0.732694
0.723636
0.688702
0.607617
0.544326
0.469123
0.364659
0.259722
0.146933
0.052655
-0.017488
-0.050765
-0.096800
-0.110256
-0.097498
-0.087988
-0.056547
-0.017740
0.031845
0.072482
0.114055
0.129789
0.139040
0.157785
0.127819
0.099347
0.061116
0.005974
-0.044030
-0.090913
-0.152777
-0.178243
-0.188534
-0.205004
-0.193657
-0.172735
-0.140755
-0.082326
-0.040760
0.011876
0.058350
0.082364
0.103928
0.113216
0.117572
0.084076
0.029482
-0.031808
-0.072330
-0.113868
-0.187694
-0.215211
-0.216493
-0.219540
-0.211214
-0.203488
-0.156293
-0.112909
-0.046782
-0.015872
0.023804
0.081020
0.097029
0.108785
0.118115
0.085337
0.005979
-0.045028
-0.065850
-0.100346
-0.140792
-0.181046
-0.210832
-0.225452
-0.222280
-0.203241
-0.167213
-0.116429
-0.068084
-0.017597
0.037545
0.084495
0.104694
0.112327
0.111585
0.098031
0.056987
0.016193
-0.036711
-0.095647
-0.145268
-0.176033
-0.189158
-0.210167
-0.214182
-0.200828
-0.149798
-0.095833
-0.057130
-0.010358
0.048898
0.087209
0.113530
0.121832
0.128263
0.124948
0.067669
0.035971
-0.013343
-0.051197
-0.111265
-0.144892
-0.157357
-0.169443
-0.181310
-0.180848
-0.128961
-0.086231
-0.042135
0.016169
0.075954
0.121270
0.130756
0.144870
0.138730
0.125273
0.094479
0.058862
0.009726
-0.039879
-0.092577
-0.119629
-0.132464
-0.130763
-0.122940
-0.099825
-0.069196
-0.024355
0.015041
0.068811
0.123772
0.163279
0.196873
0.214804
0.205118
0.189227
0.154039
0.108719
0.065110
0.007843
-0.031089
-0.071620
-0.098469
-0.113712
-0.112622
-0.084162
-0.053649
-0.004460
0.034261
0.090247
0.132996
0.156795
0.215030
0.211257
0.175648
0.189863
0.196577
0.121852
0.061680
0.018193
-0.010615
-0.031377
-0.070051
-0.082282
-0.080525
-0.070763
-0.042391
-0.000031
0.054249
0.103873
0.126479
0.157464
0.186705
0.197694
0.195284
0.182477
0.157133
0.115937
0.077892
0.026203
-0.019879
-0.060087
-0.088861
-0.096083
-0.109615
-0.091112
-0.061145
-0.027217
0.022614
0.056268
0.102727
0.134646
0.157526
0.174047
0.155814
0.152663
0.117146
0.082078
0.027291
-0.019979
-0.049846
-0.094892
-0.139000
-0.147098
-0.115985
-0.110933
-0.115851
-0.070739
-0.003659
0.035881
0.053732
0.090961
0.123890
0.122556
0.130416
0.104181
0.053977
0.022018
-0.012522
-0.058759
-0.109047
-0.146494
-0.168561
-0.180829
-0.177921
-0.167492
-0.133868
-0.094252
-0.042710
-0.006603
0.031967
0.053789
0.069982
0.094840
0.078123
0.056041
0.035421
0.006606
-0.040990
-0.085566
-0.117922
-0.147125
-0.179170
-0.183540
-0.185523
-0.169377
-0.163491
-0.112219
-0.066519
-0.013588
0.008451
0.037261
0.062925
0.057930
0.060547
0.057033
0.046816
-0.001238
-0.092539
-0.117528
-0.143053
-0.173988
-0.195486
-0.203701
-0.207411
-0.192963
-0.152494
-0.127573
-0.069562
-0.023624
-0.019264
0.021635
0.058035
0.068010
0.057955
0.044371
0.015800
-0.027269
-0.060699
-0.113685
-0.151484
-0.167004
-0.182515
-0.191592
-0.194856
-0.169758
-0.151018
-0.109255
-0.060032
-0.032613
-0.002799
0.074853
0.082455
0.064481
0.054887
0.049537
0.037418
-0.009463
-0.052686
-0.102871
-0.140792
-0.171799
-0.185104
-0.191461
-0.181320
-0.152829
-0.113212
-0.065480
-0.014474
-0.011702
0.009328
0.035124
0.061042
0.083973
0.104095
0.036180
0.000691
-0.029070
-0.067073
-0.107734
-0.144385
-0.171197
-0.180270
-0.165805
-0.170477
-0.165138
-0.123818
-0.083825
-0.032709
0.022172
0.049502
0.064262
0.098194
0.099122
0.077161
0.068465
0.048518
0.001265
-0.056494
-0.099342
-0.134960
-0.162085
-0.189692
-0.194741
-0.176825
-0.163356
-0.115721
-0.087773
-0.036052
0.018328
0.049685
0.079426
0.097850
0.093599
0.084775
0.059833
0.023330
-0.006284
-0.063830
-0.107644
-0.148985
-0.169656
-0.193963
-0.203532
-0.184893
-0.151938
-0.115708
-0.066078
-0.040522
-0.001683
0.029280
0.072114
0.085746
0.088066
0.078591
0.057604
0.022205
-0.015479
-0.069104
-0.114579
-0.142063
-0.182073
-0.207052
-0.192977
-0.186328
-0.174286
-0.130207
-0.087227
-0.041118
0.004391
0.025516
0.049361
0.079323
0.103058
0.100458
0.059199
-0.001790
-0.030286
-0.049608
-0.102566
-0.137877
-0.159155
-0.232820
-0.242367
-0.208781
-0.189645
-0.141593
-0.085858
-0.046883
-0.000894
0.035085
0.075140
0.089327
0.096618
0.073182
0.045404
0.017524
0.002696
-0.057362
-0.109351
-0.155878
-0.194917
-0.209143
-0.204045
-0.205275
-0.202040
-0.154999
-0.101118
-0.044477
-0.000782
0.033475
0.087170
0.088995
0.090166
0.076274
0.053510
0.022872
-0.020730
-0.067254
-0.128343
-0.176322
-0.207206
-0.219399
-0.232357
-0.219684
-0.188500
-0.153216
-0.113067
-0.067638
-0.005610
0.028219
0.053737
0.074554
0.083944
0.072806
0.057688
0.019740
-0.036637
-0.081134
-0.137411
-0.159693
-0.203590
-0.232653
-0.224247
-0.212054
-0.196947
-0.159042
-0.111538
-0.059399
-0.020118
0.031963
0.086785
0.108932
0.104806
0.085919
0.062714
0.030705
-0.025300
-0.073786
-0.125304
-0.168959
-0.204039
-0.231771
-0.230405
-0.220236
-0.201869
-0.169907
-0.111233
-0.066137
-0.000120
0.051110
0.093903
0.086931
0.089808
0.088428
0.054454
0.027851
-0.015189
-0.051102
-0.107261
-0.206295
-0.223972
-0.232371
-0.255031
-0.237502
-0.207635
-0.166210
-0.123348
-0.066823
-0.022928
0.023248
0.069847
0.095145
0.099017
0.093447
0.068938
0.028815
-0.010341
-0.060189
-0.116350
-0.157099
-0.200067
-0.225365
-0.242415
-0.239365
-0.200906
-0.163293
-0.131556
-0.067418
0.011660
0.062562
0.072984
0.070165
0.074031
0.083577
0.069776
0.040292
-0.017937
-0.056198
-0.113009
-0.164734
-0.207205
-0.224710
-0.237756
-0.238295
-0.211945
-0.171043
-0.120459
-0.079141
-0.036350
0.018928
0.060916
0.095950
0.093098
0.084303
0.066033
0.037329
-0.009897
-0.049428
-0.105750
-0.141465
-0.180509
-0.194180
-0.204308
-0.204126
-0.175274
-0.136231
-0.090983
-0.038053
0.008517
0.050278
0.108814
0.133879
0.145993
0.145318
0.122899
0.095489
0.065714
-0.017011
-0.071710
-0.108088
-0.144409
-0.178021
-0.192310
-0.179053
-0.163086
-0.134755
-0.083521
-0.034842
0.017528
0.055610
0.096082
0.123273
0.133242
0.133381
0.130562
0.115142
0.056781
0.000322
-0.034521
-0.107087
-0.138924
-0.155476
-0.158970
-0.154197
-0.149493
-0.118881
-0.073590
-0.027218
0.011529
0.050556
0.076698
0.102877
0.118200
0.118451
0.098658
0.076113
0.034046
-0.022392
-0.070474
-0.099254
-0.147307
-0.195421
-0.187810
-0.180220
-0.153808
-0.188298
-0.132268
-0.082047
-0.031001
0.020459
0.051186
0.075717
0.085418
0.083180
0.070567
0.039924
0.005196
-0.053875
-0.081595
-0.109504
-0.146192
-0.214969
-0.237721
-0.255328
-0.186342
-0.156495
-0.127378
-0.108157
-0.075841
-0.023025
0.025855
0.048856
0.057106
0.059793
0.044820
0.022649
-0.014824
-0.051182
-0.100715
-0.149793
-0.186505
-0.201176
-0.210089
-0.212557
-0.198475
-0.180765
-0.144408
-0.093918
-0.053580
-0.014675
0.032217
0.049825
0.056554
0.066008
0.047263
0.018202
-0.020535
-0.051491
-0.107623
-0.154374
-0.184206
-0.207365
-0.221256
-0.219282
-0.203795
-0.172976
-0.129822
-0.061963
-0.014587
-0.000594
0.018578
0.046469
0.057741
0.054576
0.026736
0.012024
-0.023561
-0.087766
-0.152576
-0.171779
-0.178103
-0.196330
-0.217975
-0.213304
-0.187814
-0.165682
-0.130529
-0.091371
-0.048376
-0.005817
0.029111
0.036702
0.048127
0.040602
0.027702
0.015803
-0.028304
-0.051910
-0.085564
-0.115397
-0.131325
-0.141307
-0.127329
-0.116928
-0.075892
-0.030411
0.013968
0.060132
0.122392
0.186506
0.226947
0.280359
0.308670
0.332881
0.343487
0.344571
0.341748
0.344863
0.336192
0.325036
0.334502
0.354294
0.361079
0.400448
0.463000
0.560811
0.612764
0.705494
0.775328
0.838458
0.909876
0.918784
0.922560
0.873942
0.860729
0.825400
0.741163
0.653074
0.615198
0.510059
0.408021
0.327293
0.254789
0.206599
0.181412
0.149503
0.141373
0.161023
0.213041
0.222351
0.215346
0.229823
0.221740
0.205457
0.193418
0.163238
0.101581
0.050639
0.007190
-0.046406
-0.074278
-0.101111
-0.111492
-0.103467
-0.095377
-0.057408
-0.006604
0.024667
0.063496
0.114161
0.145441
0.152812
0.156460
0.130511
0.116198
0.080732
0.031088
-0.026042
-0.059068
-0.099901
-0.129715
-0.151843
-0.152949
-0.136818
-0.121839
-0.099285
-0.042368
-0.000144
0.037605
0.079528
0.104796
0.138979
0.146438
0.119991
0.084108
0.056208
-0.001121
-0.069438
-0.097187
-0.115655
-0.124846
-0.148469
-0.160946
-0.167100
-0.136822
-0.103576
-0.045445
-0.003609
0.037818
0.079680
0.111493
0.125787
0.133405
0.125508
0.097584
0.069925
0.023023
-0.017088
-0.066685
-0.103006
-0.130266
-0.148342
-0.153695
-0.138967
-0.108428
-0.068324
-0.013747
0.036240
0.069586
0.106664
0.135141
0.155613
0.167470
0.166951
0.144298
0.113499
0.075950
0.002599
-0.041042
-0.091491
-0.113857
-0.127339
-0.143850
-0.106991
-0.096818
-0.078536
-0.003798
0.042081
0.089924
0.129764
0.174856
0.166336
0.199226
0.187002
0.153917
0.121163
0.089198
0.048616
-0.002476
-0.048333
-0.076811
-0.097032
-0.105978
-0.090465
-0.064583
-0.037499
0.017726
0.076249
0.113454
0.159908
0.195266
0.208242
0.210658
0.220091
0.199285
0.168337
0.116665
0.067650
0.023225
-0.025782
-0.050426
-0.055649
-0.063382
-0.052516
-0.012239
0.026612
0.043482
0.089951
0.151483
0.212347
0.239389
0.245012
0.257643
0.266812
0.241122
0.215678
0.157931
0.098957
0.063778
0.012856
-0.032347
-0.041601
-0.039788
-0.029813
-0.006218
0.006311
0.061368
0.111763
0.160489
0.201083
0.248295
0.276440
0.281336
0.273518
0.245828
0.230178
0.193141
0.135269
0.096888
0.033301
-0.021188
-0.033968
-0.050194
-0.066758
-0.053707
-0.013779
0.048025
0.102008
0.152255
0.194734
0.224554
0.243842
0.238516
0.253478
0.251550
0.208759
0.161583
0.098100
0.053902
-0.004473
-0.041074
-0.065531
-0.084279
-0.071230
-0.048510
-0.026112
0.006763
0.048959
0.113754
0.157921
0.201261
0.191379
0.221179
0.205237
0.178865
0.153372
0.119512
0.059280
0.020225
-0.023673
-0.089592
-0.119883
-0.111397
-0.101568
-0.090845
-0.074015
-0.032448
0.011764
0.050046
0.094554
0.146000
0.169303
0.175472
0.167675
0.154665
0.119679
0.060448
0.029968
-0.009982
-0.081369
-0.100083
-0.140155
-0.150873
-0.159158
-0.124270
-0.113977
-0.082418
-0.023693
0.030203
0.073166
0.102652
0.132822
0.156767
0.151411
0.128411
0.093222
0.052814
0.011771
-0.049400
-0.097517
-0.132673
-0.155906
-0.185691
-0.174163
-0.144459
-0.116401
-0.077876
-0.024332
0.015293
0.050009
0.087477
0.130131
0.120393
0.109845
0.111033
0.091313
0.055876
0.009933
-0.021096
-0.075123
-0.105393
-0.132151
-0.150021
-0.155299
-0.152842
-0.118931
-0.062358
-0.006303
0.026896
0.079470
0.104402
0.140234
0.147767
0.122680
0.131775
0.113017
0.019239
-0.013318
-0.056582
-0.086317
-0.116637
-0.143303
-0.146998
-0.136937
-0.119329
-0.094840
-0.065738
-0.010604
0.027756
0.062989
0.098140
0.125447
0.137518
0.134692
0.116155
0.101523
0.053755
0.006239
-0.039242
-0.068278
-0.103382
-0.133802
-0.140936
-0.136036
-0.111718
-0.093187
-0.038798
-0.014834
0.027654
0.079663
0.111363
0.137913
0.151877
0.137791
0.111348
0.075805
0.050419
0.009394
-0.031169
-0.061617
-0.092324
-0.124605
-0.131356
-0.130973
-0.124357
-0.084924
-0.049744
0.002956
0.022540
0.088382
0.116793
0.142698
0.141614
0.137661
0.107387
0.085787
0.052066
0.019355
-0.026243
-0.074368
-0.101793
-0.131492
-0.137739
-0.130478
-0.108473
-0.079154
-0.050739
-0.006566
0.042901
0.074959
0.107855
0.119448
0.112890
0.128322
0.092630
0.066692
0.041055
-0.000160
-0.056132
-0.093668
-0.120321
-0.137048
-0.147985
-0.125317
-0.118941
-0.085276
-0.040209
-0.025195
0.032986
0.064772
0.093543
0.121775
0.166324
0.146578
0.130522
0.106217
0.060461
-0.000579
-0.031662
-0.087694
-0.118197
-0.136499
-0.133640
-0.136101
-0.109399
-0.075569
-0.045671
-0.009716
0.036897
0.066383
0.105009
0.112118
0.120671
0.127907
0.099106
0.052610
0.038779
-0.007049
-0.061106
-0.095473
-0.133254
-0.146079
-0.148428
-0.155590
-0.128065
-0.090035
-0.056133
-0.009575
0.039363
0.077311
0.096608
0.112300
0.117317
0.112367
0.101072
0.062497
0.032907
-0.018820
-0.062012
-0.084834
-0.115229
-0.144236
-0.145839
-0.143337
-0.117792
-0.082095
-0.053723
-0.017872
0.018475
0.062149
0.088330
0.103692
0.115221
0.113037
0.094865
0.055844
0.012428
-0.025610
-0.056437
-0.097326
-0.140087
-0.161578
-0.168846
-0.153912
-0.121709
-0.079336
-0.050629
-0.010022
0.037437
0.068537
0.099641
0.125844
0.128176
0.126994
0.096863
0.071340
0.031429
-0.013470
-0.052817
-0.106524
-0.166674
-0.176407
-0.162262
-0.137808
-0.113131
-0.078477
-0.049992
-0.010899
0.036731
0.060808
0.104279
0.136964
0.114391
0.118084
0.073285
0.059209
0.030155
-0.017122
-0.057016
-0.089807
-0.103063
-0.130263
-0.170785
-0.156758
-0.150258
-0.099927
-0.063441
-0.024814
0.015316
0.061471
0.091355
0.121444
0.118791
0.114454
0.097673
0.056763
0.011719
-0.030376
-0.067620
-0.109820
-0.145447
-0.162988
-0.157135
-0.152749
-0.126101
-0.090098
-0.063366
-0.018997
0.027693
0.064104
0.094603
0.107538
0.093531
0.098076
0.107902
0.069935
0.020355
-0.026961
-0.080490
-0.108343
-0.124912
-0.168898
-0.160931
-0.156990
-0.137805
-0.091331
-0.051120
-0.002956
0.038937
0.086744
0.120439
0.140011
0.142309
0.123850
0.105846
0.088734
0.046243
-0.007017
-0.049376
-0.081845
-0.104171
-0.127556
-0.126390
-0.122046
-0.094094
-0.058193
-0.031268
0.028174
0.064270
0.115461
0.144414
0.170579
0.168632
0.164661
0.145722
0.103677
0.057100
-0.000746
-0.040629
-0.080076
-0.095036
-0.102455
-0.102649
-0.102097
-0.093442
-0.047285
-0.015689
0.036679
0.064063
0.115515
0.163915
0.177399
0.175218
0.179440
0.177524
0.145568
0.098012
0.017034
-0.037260
-0.060328
-0.085587
-0.101353
-0.106662
-0.094635
-0.076235
-0.056824
-0.036666
0.028610
0.070997
0.108364
0.133789
0.149544
0.162847
0.151221
0.120586
0.090004
0.039267
-0.002503
-0.037021
-0.082806
-0.127293
-0.145438
-0.147223
-0.132285
-0.121808
-0.091846
-0.057580
-0.014295
0.031360
0.095165
0.130426
0.137004
0.135716
0.104821
0.084120
0.055156
0.016356
-0.035428
-0.082225
-0.124649
-0.157346
-0.175112
-0.165985
-0.155227
-0.130452
-0.100384
-0.069155
-0.032975
0.019727
0.054815
0.094826
0.120753
0.124308
0.098557
0.075857
0.033913
-0.013625
-0.048095
-0.117315
-0.154608
-0.174181
-0.169360
-0.180445
-0.180236
-0.140721
-0.102574
-0.068192
-0.024932
0.023755
0.060574
0.095696
0.119589
0.111084
0.105146
0.071410
0.052084
0.008914
-0.042591
-0.096452
-0.124584
-0.154114
-0.171863
-0.179356
-0.174472
-0.152124
-0.119062
-0.087289
-0.030100
0.030740
0.067265
0.101894
0.117252
0.120825
0.110753
0.089412
0.050594
0.007484
-0.042715
-0.090889
-0.136003
-0.160469
-0.180432
-0.180942
-0.179873
-0.155644
-0.117418
-0.082283
-0.017222
0.004235
0.020978
0.074471
0.100403
0.109969
0.118123
0.091429
0.059830
0.043127
-0.002858
-0.038735
-0.053152
-0.076867
-0.087252
-0.068291
-0.049069
-0.013896
0.042715
0.095413
0.177920
0.249591
0.313096
0.369721
0.416911
0.471584
0.491623
0.505294
0.507330
0.524961
0.516387
0.480199
0.453339
0.461168
0.483615
0.542090
0.616501
0.643418
0.714878
0.794435
0.856668
0.899771
0.927084
0.964718
0.920773
0.919082
0.894954
0.842459
0.778141
0.690271
0.575351
0.460564
0.355701
0.250955
0.173944
0.133784
0.093118
0.094573
0.119695
0.161447
0.194612
0.216152
0.252734
0.281903
0.281417
0.269849
0.250174
0.204378
0.156285
0.116483
0.068235
0.016446
-0.026568
-0.068328
-0.095004
-0.093439
-0.087625
-0.065781
-0.034123
-0.006191
0.040723
0.097904
0.136779
0.171487
0.185945
0.193748
0.173569
0.143783
0.114074
0.066530
0.012255
-0.033832
-0.073989
-0.113217
-0.134254
-0.133254
-0.135060
-0.113330
-0.070664
-0.018428
0.035519
0.083442
0.118260
0.154321
0.167981
0.178133
0.166286
0.136205
0.103411
0.073721
0.023916
-0.027640
-0.068091
-0.122875
-0.137619
-0.124006
-0.125030
-0.103136
-0.073366
-0.018563
0.036152
0.079991
0.140872
0.165314
0.182140
0.178064
0.175690
0.150825
0.113626
0.069052
0.018936
-0.022688
-0.052523
-0.093653
-0.109801
-0.118629
-0.097992
-0.069306
-0.025052
0.010262
0.053522
0.105267
0.156660
0.187731
0.211453
0.206826
0.148709
0.150445
0.125120
0.089741
0.038628
0.007884
-0.045069
-0.084958
-0.112713
-0.111822
-0.093767
-0.064956
-0.028592
0.024784
0.075967
0.125911
0.165602
0.200635
0.223357
0.237748
0.225796
0.207141
0.165796
0.125623
0.088695
0.034842
-0.014986
-0.045591
-0.053266
-0.073241
-0.053100
-0.031956
-0.005288
0.047250
0.133057
0.182028
0.215889
0.253513
0.273110
0.277066
0.270786
0.253005
0.210591
0.150504
0.118931
0.067268
0.028410
-0.006026
-0.023741
-0.031997
-0.010015
0.026921
0.062709
0.105815
0.140619
0.167324
0.218234
0.276662
0.275574
0.305378
0.310416
0.278848
0.244266
0.197345
0.148183
0.096450
0.056552
0.024162
0.000519
-0.007184
0.000975
0.022236
0.057974
0.095497
0.144502
0.199677
0.241118
0.274942
0.297152
0.305273
0.294957
0.275666
0.233838
0.197335
0.144119
0.096174
0.043560
0.004185
-0.021980
-0.022085
-0.010922
0.009974
0.041516
0.088543
0.133653
0.176633
0.225315
0.269301
0.287113
0.294539
0.294540
0.244258
0.204520
0.186952
0.115636
0.055950
0.024496
-0.027419
-0.042682
-0.056835
-0.044660
-0.014899
0.015569
0.056122
0.100071
0.148555
0.187893
0.212159
0.243028
0.251966
0.246325
0.216052
0.179074
0.116779
0.072679
0.025570
-0.038858
-0.078288
-0.089924
-0.101308
-0.102953
-0.077650
-0.039744
0.007698
0.061256
0.109683
0.154292
0.190737
0.203224
0.202867
0.197009
0.175349
0.136595
0.101125
0.058200
0.000318
-0.046271
-0.092223
-0.115476
-0.129561
-0.119881
-0.102985
-0.069480
-0.030051
0.019448
0.067986
0.123900
0.161608
0.189447
0.196438
0.176957
0.147175
0.130100
0.071806
0.039867
-0.020788
-0.071728
-0.112161
-0.137770
-0.147507
-0.142899
-0.114991
-0.070318
-0.034498
-0.021422
0.060741
0.086127
0.125034
0.174513
0.191733
0.184871
0.161557
0.123684
0.074166
0.028267
-0.022586
-0.070868
-0.102085
-0.121492
-0.141152
-0.136584
-0.108703
-0.076951
-0.033930
0.009962
0.062042
0.093938
0.155867
0.179094
0.179327
0.173592
0.160231
0.132522
0.085262
0.047241
-0.017154
-0.056510
-0.103758
-0.134035
-0.129995
-0.127049
-0.101200
-0.073641
-0.045938
-0.000829
0.050366
0.094906
0.139254
0.165704
0.193672
0.179001
0.152895
0.111644
0.080127
0.046805
-0.003869
-0.045719
-0.082697
-0.110874
-0.126979
-0.114171
-0.102890
-0.075539
-0.034971
0.033020
0.077963
0.113152
0.152489
0.169338
0.190694
0.173839
0.152183
0.135274
0.100575
0.068758
0.028781
-0.028937
-0.088238
-0.104212
-0.121566
-0.124326
-0.111596
-0.065959
-0.036084
0.012428
0.060480
0.093356
0.132382
0.177648
0.187510
0.185267
0.165501
0.127861
0.090526
0.049462
0.000882
-0.043167
-0.087627
-0.121694
-0.117021
-0.136962
-0.122734
-0.074414
-0.016158
0.010755
0.067939
0.106931
0.135501
0.164258
0.169600
0.167299
0.154764
0.115428
0.074353
0.039323
-0.015628
-0.053966
-0.087627
-0.116851
-0.125235
-0.119328
-0.099444
-0.075308
-0.049798
-0.001245
0.049734
0.087137
0.125761
0.157998
0.163676
0.150213
0.132052
0.113142
0.056490
0.012092
-0.022712
-0.060010
-0.099067
-0.114212
-0.130050
-0.125078
-0.104183
-0.066671
-0.026889
0.007775
0.033858
0.084703
0.139801
0.159139
0.164103
0.152507
0.132643
0.110545
0.066707
0.040679
-0.005233
-0.043261
-0.087516
-0.130662
-0.142069
-0.129003
-0.103152
-0.081592
-0.054024
-0.015306
0.027465
0.069280
0.116117
0.142075
0.154366
0.145468
0.135624
0.104046
0.062398
0.019125
-0.020118
-0.065567
-0.093092
-0.132338
-0.132968
-0.129487
-0.116593
-0.092160
-0.057155
-0.009305
0.034103
0.045155
0.085446
0.112544
0.153752
0.133705
0.101221
0.091522
0.070297
0.023164
-0.021898
-0.065467
-0.119294
-0.127855
-0.144560
-0.123733
-0.104678
-0.076313
-0.052691
-0.010315
0.028244
0.085190
0.124397
0.123565
0.129931
0.137685
0.108803
0.082215
0.045873
0.010047
-0.026973
-0.054710
-0.099039
-0.128768
-0.133577
-0.134606
-0.114518
-0.070313
-0.028815
-0.007464
0.026578
0.076203
0.114522
0.128214
0.140945
0.133353
0.118757
0.085976
0.048099
0.003941
-0.028393
-0.068469
-0.099551
-0.115849
-0.124112
-0.117091
-0.100624
-0.079214
-0.042645
0.003136
0.053749
0.089525
0.123076
0.136502
0.150347
0.136236
0.121818
0.105154
0.073121
0.036683
-0.016146
-0.046923
-0.075608
-0.095707
-0.107787
-0.098327
-0.073288
-0.042540
0.002309
0.046717
0.080461
0.123158
0.154837
0.170907
0.160935
0.167206
0.145490
0.133934
0.095274
0.043204
-0.015401
-0.045150
-0.072381
-0.088019
-0.104662
-0.093798
-0.064013
-0.027310
0.007983
0.041915
0.092309
0.128502
0.159607
0.195165
0.185576
0.160239
0.163846
0.145804
0.103865
0.053455
0.009386
-0.036887
-0.062849
-0.093941
-0.099486
-0.089171
-0.065486
-0.040571
0.001101
0.034247
0.087651
0.098766
0.114389
0.173719
0.173850
0.155103
0.129576
0.095812
0.050736
0.010561
-0.035784
-0.078062
-0.105005
-0.135023
-0.139397
-0.125230
-0.103326
-0.077919
-0.028505
0.020027
0.061251
0.084726
0.107589
0.120892
0.131947
0.112670
0.086498
0.059344
0.008293
-0.022116
-0.061804
-0.097437
-0.131480
-0.160281
-0.165439
-0.152488
-0.131982
-0.100813
-0.047467
-0.017564
0.022118
0.077829
0.097429
0.123206
0.131223
0.113530
0.095841
0.055128
0.013120
-0.035237
-0.076313
-0.114976
-0.136515
-0.158048
-0.166345
-0.159682
-0.133766
-0.100538
-0.073876
-0.012929
0.020178
0.065877
0.095569
0.122405
0.129977
0.117569
0.096118
0.055533
0.025944
-0.025283
-0.074654
-0.117362
-0.145632
-0.175234
-0.175961
-0.155643
-0.134932
-0.106261
-0.069275
-0.017987
0.037914
0.072076
0.104005
0.126634
0.121837
0.106269
0.084592
0.047033
0.000725
-0.042139
-0.074172
-0.131148
-0.146420
-0.184717
-0.191392
-0.179313
-0.160495
-0.121469
-0.086115
-0.042249
0.006448
0.070657
0.109602
0.120171
0.125700
0.121099
0.115710
0.089652
0.067305
0.037885
0.007879
-0.022608
-0.043463
-0.047475
-0.039583
-0.025358
0.012394
0.081417
0.150112
0.214210
0.295599
0.376073
0.439441
0.512672
0.560711
0.598042
0.607856
0.595022
0.590152
0.560909
0.558398
0.565329
0.570816
0.570588
0.582412
0.628410
0.674682
0.723626
0.767992
0.812802
0.850648
0.871067
0.881985
0.882836
0.873832
0.828922
0.738512
0.633674
0.517427
0.409587
0.314598
0.223467
0.135871
0.075039
0.055177
0.031499
0.043853
0.080788
0.109988
0.145558
0.182360
0.212730
0.248682
0.263753
0.256214
0.244458
0.219410
0.182413
0.142232
0.083353
0.023859
-0.025400
-0.064680
-0.088315
-0.104072
-0.099666
-0.079342
-0.058467
-0.004223
0.035287
0.078286
0.131500
0.161611
0.193355
0.189938
0.180491
0.153205
0.119452
0.083505
0.031850
-0.024088
-0.069032
-0.097137
-0.120376
-0.130837
-0.128816
-0.094923
-0.068570
-0.024323
0.024026
0.062466
0.101012
0.147452
0.168623
0.179461
0.188987
0.176530
0.134926
0.093659
0.039809
-0.003721
-0.056059
-0.095258
-0.125816
-0.135948
-0.137996
-0.106251
-0.074274
-0.022392
0.029264
0.062872
0.109174
0.139210
0.156952
0.186060
0.180218
0.171914
0.144260
0.099395
0.046870
0.003156
-0.030918
-0.069607
-0.103054
-0.119847
-0.120444
-0.089051
-0.058810
-0.021712
0.027570
0.076922
0.126748
0.166353
0.194493
0.199574
0.207082
0.187937
0.161894
0.133792
0.080049
0.028849
-0.008765
-0.048171
-0.072347
-0.075661
-0.074179
-0.062017
-0.030598
0.012248
0.052681
0.099189
0.147445
0.186937
0.217672
0.229145
0.214745
0.209784
0.178692
0.143582
0.109279
0.075161
0.028681
-0.004352
-0.043840
-0.057018
-0.048229
-0.032825
0.010162
0.044528
0.096543
0.144627
0.175941
0.229341
0.256091
0.273531
0.272807
0.254117
0.223461
0.187433
0.146833
0.103116
0.069601
0.029779
0.000483
-0.008204
0.001292
0.022660
0.031414
0.082200
0.130492
0.168592
0.211333
0.247276
0.260637
0.287333
0.287724
0.272145
0.239358
0.194804
0.147061
0.113534
0.078737
0.047964
0.026206
0.004087
0.010865
0.021259
0.054463
0.090996
0.144602
0.186613
0.211540
0.237857
0.277749
0.275247
0.283851
0.246406
0.226621
0.184772
0.151086
0.103682
0.055580
0.027447
0.012485
-0.002132
0.001214
0.002293
0.023715
0.064723
0.110241
0.150972
0.196874
0.225395
0.239502
0.252548
0.246937
0.222242
0.197409
0.150909
0.120403
0.089651
0.039524
0.015815
-0.022452
-0.035688
-0.034859
-0.013313
0.010483
0.036043
0.074931
0.111102
0.152321
0.183770
0.196201
0.208771
0.204435
0.189210
0.155709
0.112657
0.075137
0.026374
-0.011441
-0.053026
-0.074974
-0.076706
-0.081839
-0.050059
-0.026491
0.002380
0.039559
0.072535
0.112254
0.153669
0.162854
0.172037
0.163182
0.139172
0.112492
0.074335
0.023229
-0.016176
-0.054948
-0.082894
-0.103971
-0.118157
-0.103379
-0.078233
-0.048082
-0.023864
0.022315
0.054272
0.094005
0.117588
0.144348
0.138414
0.128191
0.119197
0.091540
0.050629
-0.000094
-0.029367
-0.071649
-0.098617
-0.117070
-0.132164
-0.116364
-0.098466
-0.072452
-0.027323
0.019373
0.057240
0.101390
0.121865
0.135260
0.141761
0.145415
0.131666
0.083574
0.046655
0.028818
-0.042870
-0.086723
-0.105087
-0.133760
-0.129672
-0.131205
-0.107159
-0.075277
-0.037320
0.008654
0.042411
0.076997
0.128254
0.150612
0.167945
0.160616
0.107956
0.092071
0.053336
0.009618
-0.035245
-0.065678
-0.095653
-0.114288
-0.117987
-0.107239
-0.084074
-0.050415
-0.012472
0.031656
0.073831
0.113132
0.145841
0.159847
0.167573
0.166306
0.136021
0.101926
0.058785
0.017554
-0.024921
-0.075141
-0.103522
-0.104807
-0.107711
-0.104987
-0.086089
-0.051586
-0.003788
0.035121
0.070105
0.114962
0.142013
0.165770
0.175806
0.157186
0.130530
0.102262
0.061416
0.011747
-0.025559
-0.070208
-0.110403
-0.110981
-0.130416
-0.123971
-0.087159
-0.057368
-0.015119
0.039191
0.079561
0.119531
0.150026
0.172420
0.168721
0.154973
0.127308
0.097492
0.041016
-0.008133
-0.037634
-0.075690
-0.092740
-0.102425
-0.124106
-0.117940
-0.091969
-0.056282
-0.012291
0.036405
0.071302
0.112075
0.146160
0.161447
0.171225
0.147608
0.123086
0.088972
0.044753
-0.010413
-0.055108
-0.091161
-0.102541
-0.134339
-0.140017
-0.138217
-0.102673
-0.074489
-0.032858
0.023355
0.066640
0.112326
0.148045
0.153509
0.158041
0.146320
0.117083
0.087708
0.029132
-0.020048
-0.053776
-0.097039
-0.131024
-0.143734
-0.148486
-0.132305
-0.114223
-0.068985
-0.030847
0.015637
0.063273
0.103394
0.139509
0.155515
0.162523
0.145293
0.118724
0.095058
0.059314
0.004841
-0.047194
-0.092445
-0.129475
-0.143764
-0.161957
-0.143794
-0.118191
-0.090138
-0.042289
0.007061
0.051807
0.093512
0.130337
0.153416
0.155012
0.138089
0.110916
0.069858
0.033386
-0.015237
-0.058898
-0.103898
-0.128457
-0.148252
-0.156353
-0.146942
-0.130275
-0.092638
-0.035363
0.019031
0.060558
0.094496
0.143943
0.160000
0.151359
0.140546
0.121602
0.072877
0.023986
-0.029358
-0.052480
-0.093926
-0.137315
-0.168359
-0.183004
-0.164039
-0.138650
-0.097228
-0.050706
0.015022
0.053527
0.096102
0.131882
0.147292
0.156481
0.145332
0.119765
0.086983
0.038886
-0.017410
-0.052646
-0.088224
-0.126958
-0.133016
-0.160885
-0.166565
-0.148163
-0.098851
-0.058142
-0.010254
0.032019
0.074931
0.116632
0.144873
0.149798
0.140734
0.126138
0.085971
0.043306
-0.011063
-0.057427
-0.093784
-0.105576
-0.118775
-0.130863
-0.123433
-0.106062
-0.074322
-0.031178
0.021283
0.071506
0.140900
0.168122
0.192440
0.200985
0.178165
0.151776
0.128093
0.084374
0.030268
-0.021500
-0.061031
-0.095479
-0.123916
-0.141836
-0.131179
-0.101742
-0.065129
-0.020214
0.022004
0.075889
0.110510
0.159305
0.180696
0.192452
0.189088
0.163949
0.119888
0.078161
0.032540
-0.006273
-0.042807
-0.061676
-0.091018
-0.114770
-0.105721
-0.070283
-0.035156
0.004219
0.053173
0.093855
0.137026
0.171436
0.188859
0.199478
0.187154
0.166060
0.130020
0.085013
0.036773
-0.011791
-0.053578
-0.108725
-0.141690
-0.152192
-0.142736
-0.129465
-0.093656
-0.046876
-0.003766
0.041601
0.089102
0.137005
0.166161
0.170010
0.157441
0.137211
0.106505
0.052933
0.004052
-0.039167
-0.099814
-0.146261
-0.155593
-0.167435
-0.158320
-0.139007
-0.119318
-0.074155
-0.019221
0.028383
0.068399
0.111236
0.129863
0.141726
0.129738
0.115164
0.070883
0.024506
-0.023695
-0.071141
-0.121584
-0.153637
-0.174150
-0.190852
-0.180615
-0.161843
-0.124727
-0.086147
-0.038198
0.006840
0.048611
0.096996
0.128561
0.138869
0.120272
0.104025
0.073007
0.030009
-0.011943
-0.047724
-0.108825
-0.158279
-0.176004
-0.185566
-0.190557
-0.173976
-0.121895
-0.089748
-0.037166
0.018779
0.058090
0.093059
0.112236
0.128807
0.137106
0.101378
0.069777
0.026375
-0.022331
-0.066862
-0.107726
-0.155854
-0.183949
-0.193936
-0.178258
-0.164089
-0.138532
-0.089875
-0.049729
-0.001545
0.045055
0.089287
0.112073
0.117087
0.107568
0.088128
0.060838
0.022255
-0.021762
-0.074596
-0.103586
-0.131332
-0.151177
-0.162891
-0.153574
-0.128140
-0.073111
-0.028739
0.048283
0.106602
0.173061
0.204134
0.233738
0.268194
0.281762
0.290386
0.277192
0.263828
0.262713
0.228378
0.220977
0.211314
0.217264
0.234029
0.273403
0.321537
0.383251
0.447240
0.525063
0.618187
0.689044
0.750424
0.824268
0.865576
0.894246
0.878180
0.851371
0.808444
0.776114
0.705766
0.644968
0.590625
0.533047
0.491766
0.424762
0.368357
0.339324
0.318190
0.324909
0.314803
0.317507
0.296241
0.296036
0.279510
0.257819
0.221388
0.194217
0.168850
0.114845
0.065496
0.012743
-0.025404
-0.055424
-0.068455
-0.064677
-0.053126
-0.029637
0.010298
0.049435
0.098950
0.134671
0.164239
0.175292
0.181774
0.175187
0.157061
0.127203
0.085803
0.039510
0.016669
-0.014152
-0.064845
-0.106809
-0.120551
-0.107687
-0.088929
-0.064607
-0.031996
-0.003440
0.045614
0.082488
0.120440
0.136673
0.150153
0.149658
0.145921
0.114468
0.072085
0.024708
-0.011879
-0.039057
-0.069680
-0.092973
-0.089784
-0.100129
-0.088360
-0.056677
-0.019507
0.011999
0.051990
0.087151
0.122275
0.153163
0.165285
0.153458
0.140870
0.111088
0.074933
0.033638
-0.011823
-0.041686
-0.080215
-0.103905
-0.109865
-0.099590
-0.082979
-0.045525
-0.012576
0.031844
0.061803
0.102985
0.140813
0.170414
0.170516
0.163953
0.151449
0.129584
0.079113
0.045507
0.010771
-0.034366
-0.072080
-0.083373
-0.076938
-0.068500
-0.062821
-0.043642
-0.000404
0.036144
0.103284
0.128391
0.151769
0.176709
0.203077
0.199775
0.171285
0.140239
0.103674
0.065214
0.033835
-0.001384
-0.030156
-0.056058
-0.068261
-0.053152
-0.035028
-0.011653
0.032189
0.084876
0.144074
0.172482
0.191159
0.215216
0.233966
0.232872
0.210356
0.178073
0.130089
0.096436
0.074362
0.038610
0.001286
-0.013720
-0.018833
-0.020707
0.010328
0.049616
0.091707
0.120101
0.154391
0.205734
0.239862
0.259291
0.256683
0.254564
0.231185
0.203759
0.161114
0.115580
0.081457
0.049567
0.015547
0.006640
-0.006614
0.006286
0.027974
0.062639
0.103337
0.150692
0.180868
0.217992
0.248314
0.290390
0.281192
0.238030
0.232587
0.214812
0.167340
0.106223
0.066522
0.034309
0.005265
-0.014109
-0.018069
0.003532
0.030169
0.065316
0.110423
0.143393
0.185604
0.211917
0.250475
0.271257
0.280150
0.269801
0.239337
0.201666
0.152982
0.107277
0.067383
0.023649
-0.002777
-0.026235
-0.045428
-0.036247
-0.008849
0.015992
0.042181
0.090364
0.142949
0.179971
0.208866
0.217371
0.226746
0.215386
0.182431
0.154057
0.114372
0.066621
0.011468
-0.021552
-0.044645
-0.066356
-0.066057
-0.061010
-0.050160
-0.028768
0.010691
0.056020
0.109549
0.139943
0.184875
0.185710
0.184164
0.179878
0.159652
0.113118
0.068421
0.020654
-0.028407
-0.066966
-0.096993
-0.107132
-0.119591
-0.116666
-0.094471
-0.054261
-0.010049
0.031879
0.076604
0.106951
0.138798
0.163053
0.159538
0.156662
0.121036
0.082694
0.042674
-0.002857
-0.054641
-0.083609
-0.124451
-0.151837
-0.141514
-0.126842
-0.125130
-0.083025
-0.035920
-0.006812
0.042648
0.081092
0.133216
0.152253
0.150146
0.150111
0.123960
0.086383
0.041344
-0.017918
-0.060998
-0.104533
-0.139117
-0.158386
-0.161152
-0.150113
-0.130900
-0.092751
-0.052340
-0.015306
0.048367
0.089616
0.133449
0.150593
0.150038
0.140061
0.128280
0.090956
0.035599
-0.013047
-0.056869
-0.104610
-0.128646
-0.156148
-0.144503
-0.141076
-0.121262
-0.091170
-0.044595
-0.000808
0.043533
0.110282
0.139702
0.161919
0.155780
0.150028
0.127030
0.089592
0.038812
0.001263
-0.054738
-0.096939
-0.131113
-0.154715
-0.164817
-0.147345
-0.126445
-0.087801
-0.040889
0.002499
0.062486
0.105715
0.150321
0.164620
0.165559
0.152570
0.143192
0.108132
0.051469
-0.008254
-0.043175
-0.081350
-0.116671
-0.131556
-0.152020
-0.150537
-0.127380
-0.093728
-0.042817
0.016057
0.053198
0.104783
0.132678
0.147550
0.164688
0.167227
0.130235
0.096401
0.058309
0.002365
-0.052606
-0.091147
-0.127416
-0.146631
-0.144285
-0.152207
-0.136719
-0.099304
-0.054924
-0.002676
0.041744
0.087830
0.120338
0.140562
0.146290
0.149251
0.131141
0.088423
0.047308
0.003495
-0.056209
-0.100919
-0.138795
-0.160059
-0.166791
-0.165021
-0.138305
-0.120769
-0.069830
-0.013969
0.034228
0.078447
0.110425
0.138955
0.139301
0.139069
0.120352
0.076064
0.041621
0.000180
-0.053092
-0.099991
-0.148541
-0.169792
-0.177398
-0.178221
-0.163337
-0.121557
-0.077077
-0.029206
0.025915
0.075645
0.107981
0.126892
0.130948
0.128067
0.115671
0.089755
0.053495
-0.010431
-0.053332
-0.103581
-0.134576
-0.160236
-0.163565
-0.164681
-0.145047
-0.117622
-0.078442
-0.023468
0.028674
0.065975
0.087896
0.121993
0.126727
0.126108
0.103864
0.074728
0.041202
-0.013651
-0.066014
-0.108069
-0.143272
-0.174593
-0.177721
-0.186614
-0.159283
-0.139810
-0.090388
-0.039686
0.012016
0.048818
0.088837
0.108232
0.117359
0.115790
0.094108
0.066827
0.028348
-0.017721
-0.079328
-0.116884
-0.153138
-0.177213
-0.198577
-0.180307
-0.164061
-0.137103
-0.088960
-0.049969
-0.006356
0.043553
0.076904
0.107830
0.119764
0.106958
0.095068
0.066153
0.018305
-0.032762
-0.076174
-0.114162
-0.143755
-0.170862
-0.180345
-0.189419
-0.163161
-0.127988
-0.084531
-0.036433
0.011522
0.055402
0.086937
0.122755
0.141948
0.133272
0.121143
0.086450
0.047226
-0.001212
-0.048888
-0.077463
-0.102388
-0.133088
-0.152180
-0.157273
-0.126418
-0.096266
-0.047021
-0.010904
0.033617
0.074142
0.105708
0.126410
0.149803
0.150793
0.138713
0.098843
0.043530
0.015333
-0.031788
-0.077000
-0.114478
-0.144201
-0.142880
-0.138926
-0.121331
-0.085307
-0.052156
0.003207
0.056792
0.107276
0.138040
0.153405
0.157051
0.157327
0.145212
0.116639
0.066721
0.020473
-0.034556
-0.065162
-0.092127
-0.129812
-0.153695
-0.146423
-0.137996
-0.105921
-0.068975
-0.025745
0.022852
0.067148
0.102172
0.108208
0.120933
0.110119
0.100945
0.075482
0.032658
-0.011202
-0.050484
-0.100172
-0.135702
-0.159075
-0.177110
-0.179421
-0.160238
-0.139783
-0.101070
-0.070503
-0.029102
0.012668
0.041950
0.071074
0.084830
0.072489
0.057998
0.037812
0.010105
-0.033140
-0.086749
-0.130643
-0.165894
-0.195259
-0.198662
-0.203553
-0.186428
-0.157084
-0.122836
-0.072502
-0.027304
0.022613
0.043877
0.070928
0.087371
0.071073
0.052313
0.033216
-0.012692
-0.055125
-0.100085
-0.142704
-0.160722
-0.195571
-0.209373
-0.203448
-0.189705
-0.160135
-0.119491
-0.075713
-0.037856
0.000543
0.040800
0.062188
0.062038
0.049138
0.040984
0.028227
-0.024474
-0.064370
-0.108556
-0.144846
-0.165505
-0.189969
-0.200078
-0.198731
-0.179792
-0.162994
-0.124708
-0.086234
-0.036900
-0.009381
0.026680
0.055259
0.065612
0.044996
0.051829
0.020398
-0.032261
-0.062800
-0.117538
-0.148185
-0.178910
-0.207751
-0.213288
-0.202707
-0.179393
-0.161678
-0.118913
-0.072037
-0.017547
0.030026
0.071620
0.110526
0.123411
0.142148
0.132499
0.124033
0.097116
0.063301
0.028404
0.002049
0.003960
-0.001802
0.014244
0.046409
0.101746
0.156196
0.220957
0.291923
0.356467
0.427944
0.479491
0.526639
0.546897
0.572718
0.614361
0.612469
0.606650
0.594057
0.594513
0.600721
0.601032
0.583966
0.571293
0.584383
0.599386
0.606580
0.626973
0.651856
0.656238
0.639526
0.598684
0.565791
0.516424
0.443703
0.368125
0.301959
0.214597
0.128570
0.068013
0.000609
-0.050576
-0.075104
-0.089619
-0.088055
-0.070786
-0.043450
-0.023688
0.006687
0.060795
0.102033
0.127586
0.143843
0.141185
0.120453
0.111616
0.078760
0.044568
-0.002389
-0.049258
-0.081194
-0.123284
-0.146545
-0.140569
-0.123221
-0.110696
-0.085518
-0.058197
-0.006349
0.040716
0.078073
0.094032
0.119611
0.113230
0.099409
0.074377
0.050262
0.016565
-0.035487
-0.086300
-0.116616
-0.146849
-0.151377
-0.164984
-0.154778
-0.139540
-0.107161
-0.064941
-0.027162
0.008861
0.048949
0.078330
0.095807
0.107081
0.102957
0.080371
0.044080
0.015664
-0.026365
-0.060633
-0.104972
-0.137188
-0.150464
-0.154445
-0.136714
-0.131075
-0.093004
-0.052646
-0.012801
0.036095
0.079850
0.103210
0.117531
0.123538
0.105472
0.092836
0.063359
0.036341
-0.020366
-0.060812
-0.098510
-0.114558
-0.137730
-0.131942
-0.126635
-0.109033
-0.073832
-0.031008
0.003320
0.045566
0.091298
0.123458
0.134158
0.132934
0.137201
0.109196
0.079529
0.038922
-0.013632
-0.038301
-0.088883
-0.109809
-0.116939
-0.126507
-0.108957
-0.100433
-0.068734
-0.000440
0.040535
0.072103
0.127828
0.155313
0.180638
0.191027
0.175387
0.152102
0.111300
0.077358
0.045212
-0.010445
-0.046061
-0.066264
-0.090781
-0.082510
-0.081510
-0.053131
-0.022134
0.020213
0.069370
0.113854
0.163546
0.193659
0.207723
0.211576
0.207690
0.180144
0.147235
0.100251
0.054282
0.021242
-0.008497
-0.036638
-0.065931
-0.062851
-0.047739
-0.030326
-0.000214
0.048442
0.099096
0.147018
0.186538
0.214449
0.235267
0.237762
0.225817
0.202296
0.166533
0.124120
0.080062
0.025958
-0.016493
-0.027587
-0.046235
-0.064197
-0.054934
-0.044729
-0.006164
0.032388
0.087606
0.136321
0.181830
0.213165
0.237307
0.230464
0.205282
0.197464
0.157115
0.114432
0.053066
0.009954
-0.018155
-0.041774
-0.085759
-0.086403
-0.069548
-0.047796
-0.011966
0.028150
0.073413
0.113671
0.158362
0.184011
0.196319
0.208114
0.186377
0.166668
0.135223
0.087109
0.042757
-0.005457
-0.046901
-0.088042
-0.111763
-0.125957
-0.106617
-0.081337
-0.058201
-0.020034
0.031110
0.073246
0.113511
0.145595
0.158952
0.156384
0.147967
0.125034
0.090627
0.037148
-0.010738
-0.055666
-0.111745
-0.138219
-0.148499
-0.146840
-0.135317
-0.119658
-0.112128
-0.058784
-0.005694
0.039328
0.090897
0.114990
0.134964
0.138411
0.120339
0.090937
0.054758
0.007547
-0.044251
-0.083167
-0.129784
-0.157618
-0.168704
-0.183575
-0.191903
-0.168078
-0.119535
-0.071678
-0.020787
0.014174
0.065291
0.109053
0.133894
0.131711
0.106868
0.092829
0.056018
-0.004051
-0.052336
-0.097445
-0.135140
-0.165164
-0.193480
-0.201237
-0.191740
-0.169141
-0.130742
-0.087018
-0.040806
0.016160
0.053270
0.081112
0.116084
0.122971
0.112505
0.080163
0.050369
0.000506
-0.035696
-0.079937
-0.119805
-0.161132
-0.182221
-0.181522
-0.186973
-0.157675
-0.126444
-0.089821
-0.040133
0.019275
0.061360
0.085707
0.100278
0.127716
0.118302
0.095718
0.054739
0.012849
-0.037447
-0.079517
-0.124375
-0.155310
-0.174340
-0.181578
-0.191511
-0.161931
-0.128605
-0.082539
-0.036832
0.018184
0.058300
0.096544
0.117227
0.126861
0.124720
0.109840
0.071310
0.029933
-0.019514
-0.067825
-0.115503
-0.143257
-0.165378
-0.179431
-0.174545
-0.156671
-0.116083
-0.082931
-0.034974
0.023153
0.062716
0.102917
0.126352
0.136058
0.130989
0.106840
0.069217
0.028802
-0.024395
-0.075649
-0.123174
-0.152081
-0.168446
-0.193759
-0.185944
-0.156022
-0.127902
-0.090761
-0.033976
0.032408
0.078569
0.091054
0.109513
0.117978
0.112093
0.092261
0.056476
0.015008
-0.029700
-0.074830
-0.131641
-0.162201
-0.180587
-0.186831
-0.183035
-0.161102
-0.128339
-0.077623
-0.029043
0.013653
0.054892
0.112556
0.119235
0.130930
0.097047
0.085281
0.059105
0.024104
-0.022033
-0.078629
-0.127392
-0.164338
-0.195335
-0.201970
-0.201788
-0.182398
-0.154720
-0.106379
-0.056776
0.002235
0.049266
0.086636
0.120638
0.116511
0.114657
0.091448
0.056268
0.016708
-0.026660
-0.084558
-0.120994
-0.167815
-0.190363
-0.192886
-0.178497
-0.162984
-0.140248
-0.108423
-0.056802
-0.007359
0.039267
0.073146
0.088255
0.099723
0.102852
0.079598
0.049581
-0.001093
-0.044093
-0.096839
-0.135652
-0.159708
-0.186222
-0.185307
-0.180215
-0.154150
-0.132092
-0.091963
-0.055847
-0.008945
0.041898
0.075245
0.105629
0.114831
0.107741
0.082116
0.050501
0.021601
-0.021493
-0.074540
-0.129183
-0.159121
-0.165252
-0.176411
-0.179556
-0.161985
-0.117894
-0.073899
-0.033796
0.014648
0.061863
0.104696
0.119078
0.125875
0.125569
0.104225
0.086296
0.045112
0.002167
-0.039963
-0.076630
-0.108871
-0.142069
-0.172732
-0.170632
-0.133468
-0.097337
-0.065628
-0.030822
0.013352
0.056054
0.087841
0.120438
0.130116
0.127614
0.118416
0.096478
0.057815
0.009263
-0.030575
-0.067080
-0.096265
-0.113539
-0.122072
-0.129114
-0.117793
-0.078775
-0.036287
0.005747
0.043239
0.079562
0.109519
0.145254
0.155707
0.133317
0.131654
0.101023
0.060817
-0.002228
-0.046043
-0.086551
-0.125639
-0.151699
-0.158781
-0.157616
-0.148443
-0.117238
-0.084168
-0.045807
-0.004009
0.045199
0.077617
0.096699
0.111703
0.095071
0.083703
0.056768
0.018851
-0.033913
-0.094594
-0.122854
-0.165159
-0.191321
-0.197968
-0.196835
-0.176320
-0.153791
-0.119461
-0.075877
-0.038318
0.003053
0.037433
0.056950
0.067346
0.068165
0.051668
0.031729
0.004689
-0.051051
-0.113129
-0.139372
-0.181989
-0.194217
-0.202322
-0.195961
-0.179696
-0.157216
-0.102497
-0.068776
-0.032089
0.008368
0.036991
0.053088
0.058123
0.064357
0.041570
0.013820
-0.021798
-0.067347
-0.107492
-0.145237
-0.176072
-0.187113
-0.204252
-0.203248
-0.171871
-0.151720
-0.109019
-0.068783
-0.030906
0.007072
0.040770
0.056392
0.059217
0.052494
0.035361
0.009559
-0.023574
-0.064833
-0.105142
-0.150165
-0.178532
-0.196535
-0.201942
-0.195045
-0.173457
-0.144553
-0.115509
-0.067294
-0.030391
0.001301
0.039434
0.044344
0.056009
0.035966
0.027829
-0.001109
-0.033925
-0.072761
-0.118226
-0.140828
-0.163196
-0.164553
-0.167287
-0.143766
-0.111476
-0.076792
-0.023061
0.035294
0.082376
0.155644
0.191088
0.206460
0.227845
0.247373
0.245878
0.237326
0.235574
0.214094
0.188526
0.187431
0.194083
0.208903
0.230773
0.267874
0.312114
0.386961
0.476786
0.548211
0.622043
0.675283
0.749886
0.807556
0.842679
0.858656
0.832288
0.806110
0.770993
0.710344
0.658095
0.591315
0.528039
0.478539
0.404719
0.345961
0.310673
0.281194
0.281179
0.269534
0.271338
0.264617
0.253546
0.245920
0.232364
0.216409
0.186050
0.149351
0.104442
0.050840
0.004376
-0.032097
-0.066820
-0.091144
-0.110755
-0.087175
-0.057836
-0.042308
-0.012145
0.043739
0.074906
0.111395
0.146391
0.147972
0.149919
0.133927
0.109107
0.073138
0.028679
-0.017178
-0.069054
-0.095701
-0.120729
-0.150195
-0.156736
-0.157659
-0.135879
-0.094407
-0.044841
0.000547
0.042777
0.084524
0.116999
0.119685
0.122751
0.120018
0.092211
0.058443
0.013720
-0.039311
-0.069047
-0.107745
-0.151073
-0.169264
-0.167664
-0.153229
-0.130066
-0.094721
-0.049315
-0.003449
0.045540
0.082346
0.104467
0.127564
0.124507
0.124442
0.093440
0.062994
0.023506
-0.036374
-0.084021
-0.119125
-0.141276
-0.149369
-0.150546
-0.133883
-0.112109
-0.082292
-0.030539
0.016376
0.065722
0.102172
0.138449
0.160657
0.164197
0.153741
0.125866
0.096662
0.044519
-0.006526
-0.041526
-0.091241
-0.114098
-0.138953
-0.141531
-0.133177
-0.091554
-0.049549
-0.008539
0.039364
0.088267
0.136502
0.155422
0.172450
0.175821
0.168657
0.158703
0.120881
0.079597
0.035730
-0.012652
-0.060256
-0.097237
-0.108172
-0.103753
-0.100330
-0.069749
-0.031799
0.013846
0.060255
0.111052
0.157737
0.203248
0.215905
0.223730
0.216469
0.193931
0.171154
0.114484
0.064043
0.015194
-0.023817
-0.057457
-0.078089
-0.070071
-0.064131
-0.041353
-0.013095
0.037267
0.085942
0.135456
0.180087
0.221611
0.235428
0.242015
0.234125
0.215505
0.187735
0.151368
0.093337
0.039182
0.000356
-0.034634
-0.049713
-0.060755
-0.064523
-0.026387
-0.002023
0.047592
0.091899
0.144775
0.202212
0.245570
0.259668
0.265537
0.253967
0.235137
0.203380
0.171710
0.120913
0.071589
0.019016
-0.021362
-0.051126
-0.056864
-0.055735
-0.028776
-0.006351
0.041560
0.095207
0.143972
0.182206
0.226238
0.226580
0.243315
0.238627
0.211548
0.171579
0.136553
0.097887
0.034144
-0.024023
-0.060121
-0.080090
-0.094989
-0.081386
-0.065074
-0.035403
0.001625
0.054199
0.099769
0.148676
0.187171
0.203929
0.210297
0.209949
0.183971
0.148522
0.105597
0.050742
-0.006328
-0.048490
-0.089052
-0.119261
-0.130819
-0.126656
-0.100507
-0.072102
-0.030693
0.007293
0.062011
0.101875
0.129162
0.155136
0.171971
0.164490
0.142464
0.108078
0.065905
0.018822
-0.032971
-0.081052
-0.116934
-0.139094
-0.154563
-0.154560
-0.131260
-0.109289
-0.062873
-0.009674
0.034117
0.068796
0.082064
0.122838
0.146453
0.129995
0.100055
0.067725
0.027091
-0.016387
-0.068393
-0.105790
-0.142830
-0.171288
-0.173180
-0.173548
-0.151989
-0.122061
-0.075831
-0.044883
0.004889
0.060903
0.103536
0.119123
0.138730
0.138449
0.115507
0.076997
0.041500
-0.006088
-0.048305
-0.093560
-0.124237
-0.152851
-0.166255
-0.162674
-0.147623
-0.112425
-0.073443
-0.022031
0.019697
0.071027
0.106811
0.140056
0.141633
0.112165
0.112333
0.070202
0.035261
-0.004740
-0.049911
-0.092800
-0.129283
-0.154432
-0.166755
-0.161910
-0.143675
-0.113618
-0.071056
-0.021457
0.028494
0.073961
0.099258
0.134421
0.136765
0.124456
0.106866
0.077469
0.036088
-0.009054
-0.049712
-0.082347
-0.120164
-0.151137
-0.148250
-0.140950
-0.129802
-0.098923
-0.064431
-0.013203
0.039145
0.068153
0.095736
0.125012
0.132479
0.126238
0.112121
0.077390
0.035568
0.008249
-0.045928
-0.098581
-0.125151
-0.151047
-0.146698
-0.139421
-0.121480
-0.089357
-0.061408
-0.024214
0.021845
0.061377
0.077828
0.101564
0.112989
0.115247
0.091026
0.068849
0.034305
-0.010217
-0.047804
-0.083943
-0.108315
-0.130906
-0.138092
-0.128678
-0.109304
-0.092193
-0.047035
0.002599
0.031543
0.073131
0.090748
0.113979
0.109243
0.107447
0.092498
0.062365
0.019517
-0.008304
-0.044069
-0.085951
-0.111898
-0.128210
-0.133598
-0.128851
-0.103910
-0.090461
-0.050945
-0.009925
0.027842
0.063945
0.091407
0.111744
0.106571
0.107525
0.086530
0.050868
0.019124
-0.020499
-0.061331
-0.111673
-0.141811
-0.155090
-0.150233
-0.147501
-0.131316
-0.108197
-0.065155
-0.027946
0.015099
0.056248
0.085570
0.108129
0.111428
0.109185
0.078177
0.041555
0.013995
-0.023358
-0.062200
-0.108130
-0.150010
-0.161051
-0.154279
-0.150310
-0.141732
-0.096493
-0.067176
-0.023543
0.011921
0.050872
0.079434
0.105863
0.095772
0.094735
0.072891
0.047044
-0.001321
-0.040528
-0.087415
-0.120649
-0.140911
-0.163606
-0.163225
-0.149645
-0.128095
-0.101521
-0.063360
-0.026266
0.009012
0.049233
0.083789
0.099437
0.103840
0.093612
0.069117
0.048411
-0.004183
-0.039695
-0.080080
-0.129548
-0.159283
-0.161723
-0.156440
-0.149366
-0.109234
-0.080014
-0.037685
0.002870
0.046716
0.075848
0.106430
0.129879
0.132084
0.129935
0.097033
0.074510
0.035898
-0.004537
-0.047116
-0.085797
-0.109604
-0.132653
-0.130601
-0.122873
-0.104755
-0.070867
-0.031325
0.021892
0.065784
0.093680
0.112967
0.133731
0.129920
0.137583
0.104262
0.066810
0.034489
-0.012622
-0.047250
-0.090392
-0.114870
-0.123965
-0.124661
-0.112813
-0.087777
-0.060289
-0.009344
0.036034
0.085213
0.118609
0.142533
0.156204
0.149015
0.141558
0.120681
0.083806
0.038809
0.000631
-0.051343
-0.099565
-0.131478
-0.141160
-0.137470
-0.126392
-0.101501
-0.070700
-0.042210
-0.001158
0.036116
0.091467
0.117667
0.126947
0.130596
0.116774
0.091150
0.049127
-0.001963
-0.057844
-0.084993
-0.119214
-0.153042
-0.178863
-0.176698
-0.171821
-0.149057
-0.128374
-0.087296
-0.039269
0.008805
0.048580
0.082391
0.109321
0.105644
0.087507
0.077467
0.030017
-0.033338
-0.071988
-0.120628
-0.164147
-0.185126
-0.203794
-0.203245
-0.183250
-0.155009
-0.121613
-0.092555
-0.041965
-0.001831
0.024939
0.069081
0.088996
0.098864
0.081825
0.056056
0.020665
-0.023960
-0.069006
-0.113520
-0.152204
-0.197150
-0.208871
-0.209827
-0.203154
-0.183698
-0.140191
-0.098987
-0.044403
0.005208
0.056364
0.080667
0.094587
0.083288
0.073172
0.039845
0.012020
-0.024263
-0.074279
-0.122537
-0.164708
-0.202467
-0.224438
-0.200149
-0.207285
-0.183249
-0.144824
-0.109130
-0.055260
0.000944
0.040049
0.074065
0.102510
0.096750
0.083137
0.059974
0.015760
-0.027585
-0.078075
-0.138088
-0.180215
-0.209364
-0.225452
-0.227571
-0.224347
-0.179599
-0.123030
-0.094332
-0.037111
0.022660
0.078487
0.121638
0.158907
0.183698
0.197659
0.190726
0.166856
0.135754
0.100119
0.070775
0.044486
0.023064
0.033972
0.062892
0.102092
0.165677
0.247242
0.311016
0.405169
0.494978
0.568787
0.622427
0.675329
0.725850
0.781551
0.801664
0.794727
0.768654
0.755227
0.736199
0.693270
0.635982
0.625151
0.611358
0.585798
0.590104
0.622945
0.621007
0.619927
0.591350
0.566546
0.536780
0.502341
0.456410
0.399553
0.337231
0.267274
0.212350
0.151503
0.092167
0.050367
0.008711
-0.026823
-0.050736
-0.066578
-0.049117
-0.018826
0.013068
0.047110
0.094652
0.134690
0.172934
0.192836
0.198500
0.188448
0.161417
0.116427
0.075030
0.033215
-0.039816
-0.080721
-0.128731
-0.147559
-0.158864
-0.156995
-0.134233
-0.100726
-0.063582
-0.013952
0.037432
0.086796
0.113112
0.146259
0.151516
0.130157
0.120688
0.073211
0.035419
-0.019206
-0.056898
-0.098195
-0.136672
-0.159772
-0.178423
-0.168514
-0.147245
-0.115572
-0.076907
-0.021504
0.036114
0.082549
0.126602
0.124876
0.128644
0.128564
0.121889
0.092268
0.051501
0.003919
-0.048071
-0.096294
-0.127923
-0.158206
-0.161600
-0.158245
-0.139211
-0.102578
-0.060084
-0.013533
0.039304
0.074895
0.111779
0.144787
0.154432
0.153025
0.144969
0.102201
0.070496
0.010218
-0.021255
-0.079717
-0.099422
-0.127836
-0.136720
-0.134475
-0.120268
-0.095161
-0.045975
0.009794
0.056550
0.095438
0.133879
0.164673
0.176420
0.172946
0.156815
0.136115
0.096920
0.035480
-0.003422
-0.042534
-0.073974
-0.097546
-0.098933
-0.104496
-0.095701
-0.061230
-0.029363
0.031971
0.071995
0.117081
0.153212
0.177991
0.187699
0.197318
0.193229
0.166648
0.124122
0.085188
0.041368
-0.001648
-0.042492
-0.069873
-0.065783
-0.061250
-0.044965
-0.014734
0.026812
0.064921
0.113667
0.167517
0.199709
0.233429
0.238964
0.230686
0.210080
0.183942
0.156807
0.096517
0.061399
0.012018
-0.022783
-0.023891
-0.030882
-0.031505
-0.015990
0.009533
0.029601
0.083682
0.136492
0.184639
0.234428
0.246981
0.255729
0.249533
0.231927
0.199458
0.171959
0.126522
0.081452
0.030818
-0.004852
-0.034497
-0.042658
-0.042251
-0.023078
0.008202
0.049566
0.094851
0.138361
0.174894
0.202510
0.212583
0.228988
0.231011
0.214047
0.174252
0.138695
0.100195
0.052196
0.009875
-0.030138
-0.046853
-0.061117
-0.057808
-0.042738
-0.015272
0.022678
0.066352
0.112544
0.152797
0.187454
0.192532
0.202478
0.197896
0.178911
0.150820
0.103331
0.056760
0.020159
-0.011974
-0.073014
-0.100318
-0.104556
-0.099340
-0.070632
-0.040481
-0.016322
0.018760
0.060513
0.103538
0.132733
0.147323
0.162761
0.151393
0.133809
0.099095
0.083036
0.019418
-0.039114
-0.075162
-0.110833
-0.129937
-0.132130
-0.122511
-0.103628
-0.085140
-0.058063
-0.010654
0.035360
0.078932
0.107476
0.133701
0.130902
0.113976
0.097570
0.073191
0.042237
-0.012035
-0.044232
-0.081415
-0.118747
-0.135056
-0.143908
-0.142572
-0.123484
-0.089392
-0.059251
-0.017713
0.014910
0.053999
0.090242
0.109844
0.117164
0.111758
0.091984
0.054485
0.020575
-0.027064
-0.063539
-0.103438
-0.138702
-0.164646
-0.159521
-0.163530
-0.146122
-0.119471
-0.074912
-0.037335
0.003897
0.050115
0.088150
0.114436
0.123771
0.111988
0.107395
0.069656
0.029326
0.000032
-0.039247
-0.087725
-0.128524
-0.144672
-0.155848
-0.144098
-0.133692
-0.105471
-0.063174
-0.028520
0.017514
0.056981
0.090479
0.117826
0.124436
0.122139
0.096433
0.069624
0.035882
-0.009884
-0.044884
-0.100318
-0.128746
-0.149640
-0.146755
-0.128523
-0.116865
-0.090566
-0.056470
-0.020186
0.021617
0.058425
0.100539
0.123540
0.130922
0.129279
0.103211
0.069258
0.025496
-0.022507
-0.044306
-0.074175
-0.115225
-0.130685
-0.139700
-0.125580
-0.115741
-0.084969
-0.045759
-0.002552
0.034842
0.079511
0.097147
0.115748
0.129688
0.117627
0.101183
0.081352
0.044761
-0.009946
-0.062972
-0.095627
-0.127039
-0.138697
-0.151314
-0.139723
-0.130173
-0.093924
-0.055842
-0.007806
0.028581
0.067240
0.091396
0.115775
0.131217
0.119176
0.103166
0.060571
0.024653
-0.010425
-0.048958
-0.093462
-0.114905
-0.135404
-0.139784
-0.132915
-0.116754
-0.098350
-0.067612
-0.019727
0.022060
0.059484
0.100431
0.114893
0.118475
0.107444
0.090201
0.059941
0.015786
-0.028603
-0.067400
-0.102971
-0.135786
-0.149717
-0.164059
-0.156847
-0.134279
-0.102317
-0.072268
-0.028035
0.015585
0.058233
0.083387
0.095353
0.115696
0.114020
0.086158
0.034404
-0.004018
-0.025671
-0.070500
-0.107782
-0.136406
-0.163589
-0.173365
-0.153239
-0.137155
-0.100196
-0.068450
-0.023943
0.018705
0.050079
0.078716
0.098980
0.105819
0.093606
0.068234
0.043077
-0.007339
-0.045365
-0.075567
-0.123344
-0.140070
-0.168676
-0.174094
-0.160628
-0.136290
-0.108407
-0.069839
-0.026141
0.020941
0.046002
0.089761
0.096727
0.095234
0.077895
0.062470
0.047589
0.003388
-0.040184
-0.080515
-0.117676
-0.150173
-0.157622
-0.174747
-0.170192
-0.145471
-0.116594
-0.069595
-0.034171
-0.000476
0.038188
0.072005
0.096977
0.107635
0.099260
0.073744
0.049259
0.009317
-0.031117
-0.069058
-0.110295
-0.138003
-0.157710
-0.160990
-0.144118
-0.119536
-0.085692
-0.052399
-0.003111
0.041787
0.085390
0.111740
0.124703
0.118826
0.118189
0.114927
0.073588
0.039185
-0.012997
-0.059701
-0.087944
-0.105639
-0.133514
-0.123710
-0.110697
-0.100953
-0.081981
-0.035708
-0.000568
0.049778
0.092229
0.131860
0.146809
0.144133
0.123625
0.115509
0.090619
0.046878
0.013819
-0.034965
-0.064179
-0.094611
-0.113432
-0.134236
-0.128529
-0.091085
-0.070693
-0.021619
0.023815
0.048586
0.083141
0.109059
0.126122
0.120076
0.105082
0.079341
0.050182
0.012325
-0.022422
-0.064035
-0.096494
-0.136706
-0.167465
-0.160986
-0.137986
-0.134651
-0.107916
-0.066256
-0.016536
0.013553
0.036266
0.066150
0.086532
0.096578
0.071061
0.059955
0.027045
-0.016280
-0.064396
-0.108506
-0.140844
-0.174953
-0.187711
-0.192608
-0.178693
-0.153708
-0.120880
-0.094466
-0.055922
-0.002220
0.028386
0.052727
0.069523
0.068033
0.049064
0.036839
0.002013
-0.043546
-0.077155
-0.125307
-0.154128
-0.188105
-0.195858
-0.197578
-0.187068
-0.172259
-0.145398
-0.103132
-0.053732
-0.018145
0.019544
0.041012
0.063142
0.062067
0.067924
0.043123
0.007757
-0.037677
-0.072316
-0.123447
-0.157826
-0.183708
-0.200928
-0.206126
-0.190807
-0.181704
-0.158873
-0.092456
-0.059531
-0.016875
0.032464
0.062611
0.072647
0.067317
0.046259
0.028199
0.013112
-0.029545
-0.072046
-0.120156
-0.163913
-0.186577
-0.209345
-0.205103
-0.186634
-0.168195
-0.131996
-0.100271
-0.075426
-0.029475
0.008363
0.035575
0.069923
0.065132
0.045594
0.032212
-0.003223
-0.042993
-0.082398
-0.125153
-0.139366
-0.160925
-0.170966
-0.158028
-0.120101
-0.084345
-0.044630
0.009318
0.075244
0.122529
0.174012
0.226129
0.259642
0.275357
0.307443
0.316143
0.317128
0.311776
0.301552
0.288431
0.295921
0.308980
0.322548
0.333692
0.378342
0.446770
0.528404
0.639324
0.696547
0.765658
0.839781
0.894680
0.917426
0.909870
0.900002
0.866691
0.810116
0.759078
0.688057
0.620332
0.546896
0.437622
0.355878
0.294952
0.242036
0.209398
0.191437
0.192840
0.193622
0.217059
0.234070
0.260946
0.271353
0.261952
0.237810
0.205289
0.162148
0.113852
0.055463
-0.004943
-0.049865
-0.087700
-0.093998
-0.108113
-0.092643
-0.073130
-0.039380
-0.010353
0.031553
0.075500
0.111564
0.137749
0.156395
0.139987
0.129310
0.106963
0.076732
0.031636
-0.017911
-0.069599
-0.116990
-0.141028
-0.164427
-0.164755
-0.153211
-0.130108
-0.088497
-0.041285
0.007483
0.056419
0.072035
0.104013
0.112657
0.106747
0.095897
0.084737
0.053389
0.011334
-0.039116
-0.078756
-0.119835
-0.144642
-0.158723
-0.160948
-0.152649
-0.132645
-0.096724
-0.052640
-0.008754
0.044916
0.069318
0.097023
0.112576
0.114544
0.092740
0.080561
0.050492
0.011503
-0.015912
-0.075010
-0.124640
-0.144996
-0.147234
-0.138711
-0.110374
-0.103858
-0.071934
-0.030384
0.017278
0.067890
0.105978
0.131272
0.141001
0.147078
0.137024
0.113853
0.083133
0.038306
-0.011752
-0.046010
-0.079859
-0.121660
-0.139281
-0.136618
-0.118730
-0.092767
-0.055419
-0.011135
0.030958
0.070035
0.114759
0.152417
0.182756
0.172673
0.175639
0.147058
0.108553
0.064119
0.021459
-0.022965
-0.059696
-0.085870
-0.103022
-0.097735
-0.082394
-0.057311
-0.015901
0.025182
0.072118
0.124053
0.162229
0.192189
0.213047
0.221582
0.213185
0.184244
0.139619
0.097218
0.049793
0.017314
-0.023068
-0.065267
-0.074105
-0.069280
-0.057480
-0.030887
-0.000061
0.057222
0.099761
0.138860
0.184103
0.223003
0.242510
0.245638
0.230917
0.204607
0.173067
0.127605
0.082684
0.028509
-0.006719
-0.031773
-0.039783
-0.043304
-0.037138
-0.000279
0.024818
0.056729
0.109711
0.159558
0.194817
0.229786
0.256103
0.259238
0.250545
0.211095
0.167812
0.134714
0.087311
0.034232
0.001683
-0.036977
-0.056990
-0.056801
-0.048741
-0.023482
0.017878
0.065488
0.109090
0.148709
0.179576
0.212872
0.222882
0.219209
0.208595
0.189015
0.146404
0.102465
0.050713
0.005090
-0.027924
-0.057845
-0.082445
-0.092052
-0.076644
-0.063463
-0.020913
0.021353
0.060398
0.114088
0.146389
0.174865
0.190129
0.201345
0.190747
0.166670
0.117954
0.069211
0.016296
-0.036107
-0.076660
-0.114916
-0.128474
-0.136562
-0.130963
-0.106442
-0.065875
-0.024199
0.010018
0.071599
0.117795
0.140431
0.159004
0.154522
0.128842
0.102296
0.068467
0.029570
-0.022101
-0.070793
-0.113344
-0.144006
-0.159235
-0.169111
-0.159517
-0.127763
-0.099252
-0.053030
-0.010357
0.030752
0.077539
0.121125
0.130518
0.127101
0.118111
0.095931
0.056363
0.017409
-0.036011
-0.084231
-0.123635
-0.159667
-0.172236
-0.184945
-0.176504
-0.153385
-0.124284
-0.065726
-0.022602
0.039086
0.078109
0.108800
0.127163
0.139697
0.127766
0.091725
0.053234
0.006011
-0.048723
-0.088412
-0.135562
-0.152392
-0.173071
-0.184060
-0.176825
-0.146221
-0.112652
-0.074681
-0.015621
0.045168
0.079141
0.103067
0.129912
0.133789
0.121252
0.099753
0.070978
0.016620
-0.029255
-0.075459
-0.117907
-0.154746
-0.170589
-0.186855
-0.169972
-0.144230
-0.096787
-0.060328
-0.006749
0.039053
0.086987
0.111484
0.142568
0.147087
0.127472
0.101544
0.072868
0.023664
-0.024110
-0.060115
-0.104511
-0.150769
-0.172447
-0.177108
-0.175280
-0.132239
-0.102666
-0.067407
-0.014444
0.045263
0.094474
0.127226
0.150301
0.153956
0.150118
0.121326
0.081063
0.031572
-0.026358
-0.077049
-0.129019
-0.167102
-0.183512
-0.190809
-0.168442
-0.133342
-0.124525
-0.038460
0.017447
0.050184
0.076048
0.118567
0.133239
0.150148
0.140978
0.126506
0.093001
0.045714
-0.033729
-0.089013
-0.118888
-0.135589
-0.149665
-0.147900
-0.151064
-0.126791
-0.100695
-0.062708
0.004276
0.045398
0.091226
0.117710
0.124886
0.136508
0.153569
0.122121
0.071964
0.014895
-0.034375
-0.084927
-0.124121
-0.146932
-0.169126
-0.169840
-0.156743
-0.141982
-0.105323
-0.037797
-0.015566
0.010787
0.059109
0.104238
0.122493
0.136173
0.134600
0.111394
0.067800
0.008889
-0.050602
-0.090910
-0.132162
-0.160354
-0.175526
-0.189498
-0.171767
-0.147378
-0.100635
-0.049405
0.000065
0.035785
0.077866
0.106778
0.131297
0.139310
0.133920
0.096713
0.073212
0.020330
-0.047782
-0.086344
-0.128469
-0.179298
-0.187187
-0.183852
-0.177649
-0.134681
-0.114803
-0.071657
-0.026553
0.014594
0.056073
0.097971
0.122635
0.114562
0.110153
0.079900
0.070299
0.029394
-0.044147
-0.093191
-0.130773
-0.155514
-0.182113
-0.174736
-0.172928
-0.161966
-0.124082
-0.081095
-0.034488
0.003732
0.056634
0.095545
0.110198
0.126898
0.124849
0.094287
0.062333
0.017421
-0.037619
-0.077395
-0.131590
-0.159550
-0.186325
-0.194849
-0.187532
-0.161984
-0.132661
-0.088926
-0.031698
0.013166
0.070051
0.100571
0.122523
0.126672
0.121728
0.097372
0.059955
0.027096
-0.032754
-0.078983
-0.131401
-0.169726
-0.194396
-0.197756
-0.173162
-0.134402
-0.109354
-0.060239
0.006161
0.043150
0.078356
0.104450
0.114519
0.159439
0.152137
0.124444
0.094866
0.059753
-0.020824
-0.067356
-0.086494
-0.107104
-0.135084
-0.141045
-0.142651
-0.121947
-0.098545
-0.057761
0.000080
0.046823
0.083162
0.122342
0.153530
0.151123
0.142402
0.127279
0.092918
0.051276
0.007534
-0.035287
-0.073668
-0.111996
-0.131457
-0.148739
-0.128918
-0.103709
-0.067209
-0.035685
0.012852
0.059048
0.133893
0.179047
0.180147
0.169253
0.167906
0.138423
0.103012
0.068758
0.009617
-0.035578
-0.085439
-0.130772
-0.166632
-0.174047
-0.163927
-0.146695
-0.101483
-0.056992
-0.009643
0.022322
0.061735
0.100947
0.122599
0.124148
0.124198
0.109390
0.058356
0.026358
-0.022976
-0.070065
-0.117824
-0.153349
-0.175276
-0.188539
-0.179855
-0.151145
-0.115829
-0.082692
-0.042361
-0.009764
0.035413
0.065328
0.089978
0.095101
0.094282
0.075345
0.057197
0.007900
-0.047143
-0.101855
-0.155579
-0.176859
-0.198941
-0.207649
-0.200345
-0.172217
-0.158152
-0.133639
-0.079006
-0.031553
0.019868
0.066114
0.097132
0.096646
0.070909
0.063229
0.059543
0.010387
-0.056559
-0.106116
-0.139917
-0.179377
-0.204011
-0.214646
-0.208191
-0.185432
-0.165138
-0.116164
-0.062163
-0.014504
0.031811
0.066727
0.082665
0.101287
0.100233
0.071824
0.030579
-0.012315
-0.055254
-0.099940
-0.140535
-0.159728
-0.194361
-0.205440
-0.195418
-0.178105
-0.144433
-0.102393
-0.062112
-0.015893
0.022629
0.052543
0.067019
0.081173
0.084281
0.067317
0.041972
0.015267
-0.029885
-0.092197
-0.136227
-0.176345
-0.208800
-0.229337
-0.219288
-0.185932
-0.139614
-0.099239
-0.048638
0.012233
0.054270
0.099226
0.133027
0.166436
0.166740
0.154233
0.138697
0.106524
0.073584
0.068728
0.075710
0.045611
0.037464
0.055042
0.075507
0.116255
0.184929
0.264393
0.342292
0.412817
0.506836
0.577710
0.619061
0.677206
0.713900
0.721968
0.756120
0.742679
0.739116
0.737395
0.727385
0.682672
0.641635
0.623508
0.617854
0.616618
0.636526
0.644630
0.649860
0.632513
0.616063
0.597625
0.552095
0.504731
0.453348
0.393103
0.310906
0.230603
0.172934
0.124704
0.050839
0.013106
-0.007870
-0.035759
-0.047603
-0.034435
0.011541
0.027079
0.035880
0.082924
0.131365
0.158742
0.171480
0.182774
0.151938
0.138392
0.115085
0.091312
0.047212
0.007914
-0.048537
-0.080313
-0.108158
-0.116984
-0.117095
-0.092006
-0.052915
-0.024783
0.006161
0.042069
0.078151
0.096679
0.130520
0.134693
0.133754
0.120739
0.083212
0.040807
0.001207
-0.038601
-0.071618
-0.100748
-0.129452
-0.143746
-0.140786
-0.116277
-0.079917
-0.046931
-0.011011
0.034684
0.076588
0.091546
0.113907
0.124981
0.118529
0.099296
0.072083
0.044980
0.006303
-0.038403
-0.078876
-0.105053
-0.123910
-0.141383
-0.137815
-0.114349
-0.083725
-0.051188
-0.000192
0.030166
0.067929
0.081692
0.132279
0.144569
0.138571
0.128231
0.086808
0.045187
0.006129
-0.040045
-0.079003
-0.093092
-0.110960
-0.114112
-0.107022
-0.111348
-0.075999
-0.016431
0.033140
0.068611
0.105609
0.144477
0.177829
0.186376
0.174288
0.149799
0.114881
0.074089
0.031542
-0.020324
-0.045649
-0.067099
-0.085152
-0.093442
-0.091516
-0.073445
-0.040715
-0.001797
0.053978
0.114096
0.154252
0.198125
0.208019
0.198404
0.190936
0.170683
0.150891
0.113531
0.079899
0.035494
-0.001001
-0.030493
-0.051698
-0.058075
-0.043897
-0.042570
0.005313
0.041247
0.078951
0.136986
0.185147
0.203595
0.238925
0.237836
0.234786
0.217259
0.178561
0.135555
0.097858
0.063802
0.013568
-0.014137
-0.029785
-0.038151
-0.029746
-0.008050
0.026111
0.067216
0.109827
0.149386
0.189914
0.216483
0.240666
0.242659
0.235836
0.199386
0.180544
0.151404
0.098970
0.061332
0.032881
-0.001875
-0.023348
-0.020136
-0.013935
-0.009854
0.027218
0.073929
0.118181
0.154001
0.177209
0.208077
0.240228
0.253458
0.233140
0.204727
0.153931
0.129300
0.080266
0.053717
0.005358
-0.029628
-0.049040
-0.055031
-0.041193
-0.025938
0.009409
0.050615
0.111403
0.154647
0.181220
0.207710
0.229665
0.241461
0.216962
0.164811
0.129716
0.088946
0.050500
0.001685
-0.031168
-0.064578
-0.084061
-0.091518
-0.084273
-0.065704
-0.033857
0.008578
0.068019
0.120299
0.144070
0.136327
0.183399
0.199660
0.176482
0.132147
0.100546
0.059417
0.006459
-0.049818
-0.080873
-0.097933
-0.117432
-0.122174
-0.115350
-0.093260
-0.056432
-0.016883
0.024146
0.063228
0.117429
0.152974
0.161793
0.151118
0.136068
0.106599
0.065470
0.028293
-0.038737
-0.086808
-0.138381
-0.159690
-0.145278
-0.136360
-0.120023
-0.111557
-0.073430
-0.039354
-0.000018
0.053865
0.087914
0.130608
0.151239
0.131936
0.117407
0.101203
0.055949
0.024088
-0.025397
-0.083021
-0.112702
-0.130689
-0.143727
-0.145445
-0.145362
-0.118754
-0.076068
-0.041414
-0.001165
0.045399
0.082982
0.107700
0.168493
0.149049
0.128205
0.113007
0.067211
0.012240
-0.025727
-0.094630
-0.115811
-0.145602
-0.172319
-0.167773
-0.141581
-0.118565
-0.086796
-0.049138
0.003784
0.054371
0.105166
0.121770
0.140501
0.148876
0.130759
0.105653
0.069715
0.029386
-0.010945
-0.064047
-0.100083
-0.128893
-0.153500
-0.159772
-0.147247
-0.123531
-0.061261
-0.034964
0.004550
0.056457
0.095265
0.124310
0.153895
0.156681
0.148285
0.122808
0.083843
0.049498
-0.001035
-0.058631
-0.095733
-0.131843
-0.155323
-0.145791
-0.130943
-0.105962
-0.062048
-0.031324
0.014762
0.063393
0.110708
0.142990
0.166483
0.163423
0.147641
0.116018
0.078500
0.040321
-0.001035
-0.057223
-0.101777
-0.139630
-0.144960
-0.121985
-0.121154
-0.113658
-0.087899
-0.035722
0.018532
0.062349
0.081693
0.111736
0.142006
0.151029
0.136421
0.113837
0.075979
0.008921
-0.043205
-0.071746
-0.113926
-0.134422
-0.148807
-0.148133
-0.113373
-0.093683
-0.073237
-0.036059
0.016214
0.065888
0.091709
0.125746
0.144307
0.142855
0.131524
0.108033
0.072996
0.017135
-0.022399
-0.075894
-0.113782
-0.137143
-0.149643
-0.156806
-0.152180
-0.122739
-0.079909
-0.036915
0.034222
0.078472
0.113042
0.142500
0.153738
0.145435
0.129515
0.104043
0.054503
0.023486
-0.026095
-0.071294
-0.106967
-0.145314
-0.160960
-0.167699
-0.173490
-0.135350
-0.097665
-0.043059
-0.001902
0.053832
0.087217
0.116600
0.133177
0.137548
0.126796
0.104875
0.062585
0.021289
-0.036088
-0.082683
-0.119466
-0.153327
-0.176541
-0.180055
-0.172822
-0.154416
-0.112396
-0.063567
-0.014233
0.035181
0.075334
0.100729
0.138634
0.167849
0.147362
0.110195
0.077216
0.042063
-0.008929
-0.054913
-0.101044
-0.141423
-0.153670
-0.156462
-0.145561
-0.117143
-0.065954
-0.011232
0.028121
0.070205
0.116763
0.158065
0.178185
0.168311
0.149073
0.124373
0.090728
0.051565
0.005276
-0.042186
-0.081695
-0.114316
-0.133749
-0.142823
-0.128731
-0.102608
-0.065422
-0.017130
0.021511
0.070938
0.119766
0.150927
0.169334
0.173089
0.163305
0.139346
0.110688
0.063558
0.015623
-0.034538
-0.078196
-0.096565
-0.110729
-0.123354
-0.116224
-0.084647
-0.038718
0.000141
0.037115
0.087042
0.127643
0.151913
0.171695
0.172473
0.162307
0.134825
0.097695
0.053410
0.005546
-0.036484
-0.090532
-0.136914
-0.146867
-0.153814
-0.158506
-0.141478
-0.100815
-0.049992
0.005665
0.066029
0.103631
0.108041
0.114647
0.132685
0.159402
0.122609
0.092594
0.042005
-0.021371
-0.081120
-0.133674
-0.167688
-0.190314
-0.190607
-0.180516
-0.156179
-0.119637
-0.073668
-0.033808
0.030771
0.062909
0.097224
0.107135
0.115328
0.115253
0.091915
0.061202
0.001102
-0.056945
-0.092459
-0.147592
-0.179023
-0.196966
-0.208907
-0.193927
-0.163921
-0.128674
-0.075733
-0.023380
0.011076
0.048409
0.075476
0.099459
0.120364
0.126376
0.090868
0.052728
0.006912
-0.055883
-0.083567
-0.115644
-0.162513
-0.195856
-0.200567
-0.196976
-0.178924
-0.145760
-0.090263
-0.045191
-0.002963
0.041605
0.081263
0.091949
0.103540
0.104410
0.071188
0.032382
-0.006407
-0.042471
-0.091201
-0.130169
-0.168582
-0.195798
-0.210136
-0.201251
-0.173174
-0.144246
-0.105452
-0.054686
-0.000184
0.043407
0.083447
0.092388
0.098407
0.091911
0.066245
0.031626
-0.024226
-0.071461
-0.118445
-0.165707
-0.201039
-0.217740
-0.236865
-0.159765
-0.095693
-0.067225
-0.020991
0.038256
0.100212
0.152429
0.205928
0.238554
0.260434
0.253304
0.272190
0.251279
0.219991
0.199381
0.184170
0.179886
0.160449
0.161960
0.189606
0.227903
0.288368
0.361010
0.425058
0.512473
0.596484
0.683731
0.774207
0.825333
0.876363
0.889516
0.888523
0.870926
0.816859
0.802759
0.759130
0.694482
0.617868
0.568240
0.527615
0.500594
0.454965
0.422754
0.398534
0.386597
0.385741
0.374840
0.358427
0.333705
0.323099
0.318719
0.283938
0.253173
0.193965
0.141377
0.074561
0.025747
-0.030669
-0.070636
-0.072369
-0.097486
-0.073178
-0.036438
0.004349
0.051174
0.094622
0.115090
0.145357
0.172843
0.192452
0.179893
0.157952
0.128256
0.079471
0.022800
-0.010444
-0.070408
-0.101939
-0.103203
-0.130124
-0.133370
-0.121022
-0.093639
-0.050364
-0.007668
0.049175
0.097475
0.119589
0.135790
0.141023
0.137946
0.120086
0.094647
0.040771
0.002699
-0.040882
-0.082877
-0.122392
-0.139944
-0.154763
-0.147860
-0.119720
-0.090909
-0.047858
-0.001826
0.024489
0.064832
0.110879
0.134002
0.135447
0.136703
0.111956
0.091768
0.050123
-0.005981
-0.047610
-0.097506
-0.137980
-0.131448
-0.138566
-0.132324
-0.114218
-0.087837
-0.035345
0.014070
0.061575
0.101292
0.131431
0.154658
0.158461
0.153710
0.138469
0.110385
0.074027
0.039019
-0.011538
-0.038927
-0.072587
-0.094857
-0.106924
-0.101547
-0.081861
-0.053408
-0.014447
0.025944
0.076245
0.115339
0.140870
0.178957
0.182467
0.175825
0.151269
0.131114
0.074945
0.039023
0.016274
-0.024245
-0.048786
-0.058057
-0.081360
-0.070762
-0.050486
-0.025701
0.026958
0.075631
0.114934
0.159981
0.180404
0.195175
0.208115
0.198211
0.190421
0.162091
0.123649
0.073151
0.033502
0.008483
-0.024463
-0.044536
-0.049386
-0.037111
-0.016984
0.009201
0.061806
0.106015
0.144763
0.185228
0.222320
0.234012
0.247131
0.230024
0.199455
0.176002
0.136122
0.116193
0.070263
0.030440
-0.000095
-0.018505
-0.026881
-0.029196
-0.004646
0.029932
0.074350
0.114899
0.156009
0.192620
0.226029
0.244104
0.250228
0.238261
0.210685
0.187667
0.142283
0.106526
0.058047
0.029336
-0.002330
-0.028710
-0.042469
-0.029379
0.004212
0.025852
0.062624
0.096078
0.151621
0.188456
0.207988
0.210459
0.211339
0.207731
0.182753
0.155038
0.124942
0.079504
0.019217
-0.009312
-0.032024
-0.051932
-0.046910
-0.053639
-0.039522
-0.007685
0.013609
0.066294
0.111086
0.149348
0.165399
0.189046
0.201056
0.204318
0.170713
0.136086
0.090092
0.042447
-0.000778
-0.049190
-0.076683
-0.088198
-0.106710
-0.096750
-0.074490
-0.039102
0.021274
0.065042
0.094620
0.131664
0.144237
0.162522
0.172415
0.145552
0.126510
0.101017
0.048020
-0.000417
-0.038096
-0.075241
-0.097819
-0.118017
-0.128587
-0.121363
-0.107430
-0.073768
-0.025819
0.006619
0.051907
0.089956
0.120590
0.127659
0.134488
0.121837
0.090199
0.056184
0.001701
-0.034337
-0.094107
-0.129257
-0.140089
-0.141278
-0.137201
-0.125606
-0.113382
-0.079622
-0.035348
-0.005583
0.041541
0.080304
0.100328
0.114674
0.120535
0.115631
0.093300
0.064830
0.018480
-0.022498
-0.076716
-0.113578
-0.143140
-0.157413
-0.158642
-0.143355
-0.125047
-0.074877
-0.016208
0.013887
0.049580
0.099544
0.116713
0.139652
0.143497
0.124253
0.098413
0.064497
0.024461
-0.023583
-0.055495
-0.084274
-0.117951
-0.148679
-0.163549
-0.143326
-0.105893
-0.071651
-0.031134
0.011196
0.058400
0.089761
0.123859
0.139228
0.149425
0.133105
0.108566
0.071030
0.035895
-0.019962
-0.065360
-0.112362
-0.132337
-0.142769
-0.142955
-0.134410
-0.105983
-0.074556
-0.027217
0.012535
0.056909
0.093210
0.120874
0.135632
0.141402
0.131283
0.102389
0.069243
0.024057
-0.019011
-0.068328
-0.104220
-0.128339
-0.139053
-0.138958
-0.130830
-0.110243
-0.084396
-0.038151
0.012605
0.059609
0.102885
0.128730
0.147121
0.148946
0.138581
0.119678
0.097768
0.047187
-0.000437
-0.047928
-0.109901
-0.144758
-0.145339
-0.136124
-0.142871
-0.121991
-0.089176
-0.052170
-0.012934
0.059694
0.113525
0.133091
0.142591
0.143946
0.125562
0.112272
0.078316
0.035600
-0.029234
-0.071493
-0.109770
-0.151853
-0.165431
-0.165517
-0.149789
-0.125358
-0.094923
-0.044864
0.007707
0.055090
0.100631
0.117259
0.139989
0.140063
0.119595
0.099769
0.064024
0.017039
-0.035120
-0.078801
-0.121445
-0.144212
-0.167584
-0.143511
-0.146569
-0.122819
-0.079611
-0.030341
0.019767
0.068846
0.101158
0.119296
0.142588
0.139826
0.133390
0.102825
0.077821
0.036702
-0.005641
-0.062344
-0.114167
-0.148693
-0.166621
-0.153999
-0.145822
-0.123159
-0.083494
-0.024440
0.021090
0.073610
0.116230
0.148001
0.171596
0.182151
0.165768
0.130262
0.088318
0.033317
-0.009697
-0.039901
-0.090982
-0.126985
-0.147883
-0.134716
-0.133972
-0.118588
-0.077047
-0.025336
0.026022
0.076588
0.127010
0.160999
0.184551
0.194514
0.188352
0.169982
0.109633
0.062758
0.017983
-0.024707
-0.062816
-0.100251
-0.120238
-0.136457
-0.125103
-0.109849
-0.060782
-0.019007
0.035124
0.075672
0.128660
0.152742
0.182798
0.175770
0.161751
0.141806
0.106001
0.057873
-0.005088
-0.059262
-0.107976
-0.136419
-0.166113
-0.168317
-0.163585
-0.140331
-0.091071
-0.046874
-0.011466
0.032965
0.073366
0.115224
0.138160
0.137259
0.129172
0.104425
0.062779
0.005220
-0.042760
-0.092821
-0.144751
-0.176732
-0.199616
-0.218512
-0.203077
-0.173245
-0.133093
-0.085547
-0.047052
0.006817
0.066407
0.102340
0.115353
0.117835
0.101959
0.079510
0.036583
-0.014705
-0.073247
-0.115364
-0.160255
-0.197748
-0.222678
-0.221547
-0.207994
-0.186440
-0.157052
-0.104201
-0.048274
0.007561
0.033212
0.080326
0.110968
0.111651
0.103792
0.082949
0.051551
0.007998
-0.040486
-0.098629
-0.149785
-0.176690
-0.210632
-0.233503
-0.233780
-0.183522
-0.152359
-0.109839
-0.055574
-0.002349
0.031627
0.070960
0.106594
0.115376
0.101895
0.074486
0.045516
-0.004775
-0.058499
-0.105903
-0.151493
-0.183506
-0.217535
-0.233329
-0.226250
-0.207662
-0.176980
-0.122639
-0.065241
-0.005834
0.044058
0.071620
0.093274
0.099446
0.093971
0.069801
0.048078
-0.012629
-0.065017
-0.096091
-0.129036
-0.155165
-0.164906
-0.161597
-0.165607
-0.124013
-0.069281
-0.003791
0.052669
0.116605
0.172922
0.230534
0.277443
0.305053
0.326548
0.342214
0.327183
0.317788
0.291995
0.290025
0.276761
0.278871
0.295730
0.318651
0.349229
0.403254
0.475664
0.563134
0.649045
0.739027
0.802350
0.853526
0.899158
0.902524
0.892128
0.878163
0.822613
0.759910
0.687431
0.625874
0.532693
0.433163
0.343288
0.272563
0.232361
0.197441
0.180755
0.171673
0.172514
0.209630
0.235654
0.253540
0.263504
0.276981
0.263622
0.232062
0.187695
0.133496
0.070791
0.022398
-0.032188
-0.078052
-0.095814
-0.104560
-0.107845
-0.092846
-0.073780
-0.035781
0.023272
0.062918
0.109779
0.145489
0.166433
0.164309
0.151740
0.127493
0.106124
0.065531
0.010409
-0.034260
-0.075118
-0.114696
-0.141781
-0.157191
-0.155557
-0.147083
-0.112278
-0.073783
-0.025008
0.013786
0.070244
0.103597
0.131429
0.137461
0.129375
0.109916
0.084431
0.039353
-0.012421
-0.053840
-0.096091
-0.116278
-0.125443
-0.144851
-0.150894
-0.132199
-0.114060
-0.062852
-0.031086
0.017812
0.077298
0.104575
0.126887
0.129153
0.134909
0.117301
0.078834
0.047814
0.004079
-0.038724
-0.077570
-0.117388
-0.134952
-0.143213
-0.143504
-0.125177
-0.090743
-0.049199
-0.011190
0.035024
0.082859
0.111029
0.138762
0.136315
0.142253
0.118943
0.092885
0.068559
0.023469
-0.014666
-0.057517
-0.087024
-0.105242
-0.116151
-0.113280
-0.089658
-0.054946
-0.012832
0.039156
0.067000
0.108763
0.154942
0.173505
0.173686
0.179356
0.168617
0.136648
0.102001
0.053679
0.006359
-0.030444
-0.063517
-0.078321
-0.081332
-0.067462
-0.056666
-0.030797
0.015437
0.059002
0.098246
0.154560
0.187663
0.204270
0.212829
0.199868
0.181300
0.151834
0.118498
0.062707
0.021232
-0.015607
-0.037406
-0.044675
-0.047626
-0.039999
-0.034088
0.004019
0.043356
0.094204
0.133672
0.171288
0.202205
0.226275
0.232389
0.217516
0.196406
0.166312
0.135412
0.090381
0.050961
0.012420
-0.029155
-0.035641
-0.044034
-0.051460
-0.029021
0.017980
0.071772
0.116019
0.152890
0.188229
0.220763
0.226939
0.235140
0.228123
0.203812
0.172536
0.130462
0.078498
0.040838
-0.007290
-0.047132
-0.068834
-0.065161
-0.062954
-0.029741
-0.000965
0.037759
0.082104
0.136279
0.176915
0.200668
0.217430
0.211172
0.199380
0.175437
0.138261
0.099508
0.058949
0.022867
-0.016420
-0.058379
-0.075556
-0.082213
-0.069654
-0.046169
-0.020103
0.024812
0.067629
0.117588
0.146776
0.179528
0.179921
0.181002
0.172042
0.144368
0.105856
0.058325
0.016379
-0.038447
-0.071734
-0.101849
-0.124611
-0.131102
-0.128877
-0.112801
-0.071219
-0.027090
0.019929
0.071218
0.109490
0.142288
0.148959
0.139644
0.133008
0.100298
0.064675
0.030978
-0.020622
-0.064990
-0.110224
-0.138317
-0.155570
-0.157524
-0.145694
-0.138287
-0.098163
-0.054456
0.003663
0.047650
0.083625
0.121416
0.131358
0.131190
0.110188
0.091395
0.061672
0.017340
-0.030428
-0.095848
-0.135839
-0.171517
-0.175699
-0.181939
-0.164704
-0.149495
-0.107023
-0.068660
-0.008798
0.046174
0.092058
0.105081
0.115108
0.128273
0.113125
0.076968
0.052393
0.005373
-0.050073
-0.088318
-0.137865
-0.169468
-0.183599
-0.182583
-0.168674
-0.153770
-0.119412
-0.052893
-0.011018
0.022890
0.063526
0.097952
0.103866
0.133904
0.123135
0.104844
0.069705
0.031578
-0.021745
-0.073140
-0.115137
-0.150576
-0.162378
-0.174010
-0.166280
-0.133697
-0.103615
-0.067327
-0.025831
0.052079
0.085076
0.119103
0.126855
0.129923
0.108754
0.084962
0.054107
0.002552
-0.042285
-0.087243
-0.123914
-0.151925
-0.163837
-0.159175
-0.164167
-0.140790
-0.105896
-0.065762
-0.008198
0.054806
0.102433
0.128557
0.148076
0.154248
0.139303
0.113368
0.081310
0.026655
-0.043059
-0.104095
-0.137568
-0.164106
-0.173181
-0.185622
-0.179766
-0.143852
-0.112192
-0.058861
-0.009827
0.039126
0.074557
0.111105
0.130951
0.136655
0.123981
0.100406
0.046479
0.008297
-0.051278
-0.103560
-0.140034
-0.177247
-0.184603
-0.193974
-0.182740
-0.146744
-0.106698
-0.066949
-0.001833
0.040862
0.069944
0.096281
0.114964
0.121460
0.116848
0.088129
0.048817
-0.003199
-0.056282
-0.104816
-0.141567
-0.171359
-0.191081
-0.206641
-0.191702
-0.164823
-0.131318
-0.077826
-0.033681
0.011854
0.056829
0.092732
0.108843
0.114003
0.098344
0.073288
0.041873
-0.003626
-0.051994
-0.112066
-0.158793
-0.184956
-0.201314
-0.225270
-0.199213
-0.177765
-0.148094
-0.097631
-0.042177
-0.000209
0.039017
0.072617
0.091475
0.114089
0.101917
0.082087
0.029352
-0.017142
-0.074565
-0.117857
-0.162914
-0.193153
-0.220215
-0.219797
-0.215617
-0.186763
-0.153072
-0.100077
-0.054331
-0.010787
0.042355
0.085488
0.106356
0.111247
0.100520
0.065809
0.045531
0.017434
-0.036701
-0.096610
-0.128735
-0.165156
-0.198348
-0.199419
-0.194150
-0.173321
-0.142987
-0.099625
-0.037263
0.009913
0.062743
0.101470
0.119717
0.135350
0.120317
0.091326
0.064346
0.019983
-0.030168
-0.082926
-0.142861
-0.192427
-0.219977
-0.205371
-0.200026
-0.179492
-0.123343
-0.078994
-0.034687
0.023687
0.065194
0.111042
0.127779
0.143907
0.124803
0.110372
0.084694
0.047803
-0.004035
-0.056411
-0.108403
-0.152678
-0.171813
-0.184204
-0.181669
-0.164212
-0.124963
-0.084398
-0.034928
0.015651
0.068009
0.096856
0.114840
0.117854
0.113984
0.092022
0.047500
-0.015910
-0.063914
-0.109692
-0.153385
-0.200058
-0.215699
-0.227853
-0.220787
-0.195790
-0.161101
-0.121381
-0.083256
-0.028932
0.007266
0.041785
0.057713
0.069335
0.058964
0.041343
-0.004205
-0.032594
-0.089658
-0.134190
-0.187251
-0.220479
-0.244790
-0.269763
-0.259756
-0.231464
-0.203718
-0.157252
-0.121743
-0.070490
-0.038051
0.002192
0.030550
0.032218
0.026492
0.016544
-0.010532
-0.054532
-0.096631
-0.145521
-0.200469
-0.238680
-0.271493
-0.276455
-0.264188
-0.242806
-0.212759
-0.177702
-0.129332
-0.078009
-0.042237
0.006843
0.028290
0.042018
0.033299
0.007673
-0.031940
-0.059567
-0.103780
-0.157258
-0.203870
-0.246940
-0.264653
-0.281413
-0.275084
-0.250262
-0.216262
-0.171651
-0.127936
-0.084419
-0.048518
-0.014266
0.022313
0.033822
0.020479
-0.007805
-0.027479
-0.066171
-0.112147
-0.169347
-0.205825
-0.255585
-0.274744
-0.288606
-0.285768
-0.266410
-0.237195
-0.193626
-0.138870
-0.093180
-0.057719
-0.025215
0.012837
0.028137
0.042812
0.025450
0.013901
-0.017763
-0.036144
-0.084171
-0.108825
-0.136040
-0.125027
-0.141901
-0.112859
-0.078558
-0.033887
0.021449
0.089566
0.158467
0.237716
0.299187
0.350536
0.393281
0.412780
0.431897
0.432623
0.410071
0.380255
0.370256
0.363538
0.357172
0.368484
0.400456
0.441758
0.484115
0.519610
0.564175
0.608833
0.671521
0.677024
0.705012
0.715544
0.680033
0.633519
0.548442
0.451567
0.360239
0.266541
0.180492
0.106832
0.028810
-0.045033
-0.094446
-0.105515
-0.107602
-0.105855
-0.070657
-0.029318
0.012882
0.050478
0.068807
0.094713
0.093797
0.085460
0.062013
0.032232
-0.007145
-0.053127
-0.104921
-0.138414
-0.168560
-0.197588
-0.210580
-0.203217
-0.181110
-0.150706
-0.127452
-0.090898
-0.043738
-0.018728
0.019614
0.037557
0.041101
0.032628
0.018863
-0.020768
-0.065709
-0.106129
-0.145999
-0.190394
-0.219242
-0.239450
-0.238720
-0.240477
-0.226075
-0.196761
-0.159016
-0.113397
-0.061422
-0.022128
0.005385
0.013477
0.029734
0.024711
0.007122
-0.035892
-0.072825
-0.105448
-0.155339
-0.193366
-0.218785
-0.238050
-0.247766
-0.240894
-0.227651
-0.191679
-0.157912
-0.118541
-0.069904
-0.029501
0.001639
0.026270
0.036105
0.024446
0.008145
-0.016613
-0.067370
-0.104622
-0.142174
-0.170477
-0.204025
-0.231619
-0.229295
-0.233968
-0.221314
-0.176582
-0.129132
-0.094286
-0.036544
0.013472
0.033315
0.044821
0.055595
0.038626
0.030073
0.007300
-0.035908
-0.083282
-0.129505
-0.167031
-0.184393
-0.206257
-0.220781
-0.202603
-0.173153
-0.149441
-0.115749
-0.065796
-0.018280
0.020119
0.049209
0.069315
0.076166
0.084219
0.045809
0.017685
-0.023739
-0.059754
-0.103547
-0.140638
-0.168549
-0.191279
-0.185933
-0.168616
-0.152759
-0.115138
-0.076113
-0.032576
0.015552
0.050362
0.078580
0.098359
0.104638
0.093430
0.078732
0.042471
0.006179
-0.033915
-0.074722
-0.115854
-0.145773
-0.182972
-0.171071
-0.159009
-0.137407
-0.100406
-0.062164
-0.018397
0.026107
0.071067
0.100295
0.134728
0.129827
0.113785
0.095707
0.052666
0.005042
-0.029051
-0.074564
-0.115011
-0.138145
-0.164971
-0.163091
-0.150079
-0.126695
-0.107903
-0.060170
-0.011062
0.042251
0.073398
0.106698
0.116052
0.120203
0.109257
0.070832
0.044593
0.008658
-0.040328
-0.087425
-0.145485
-0.179986
-0.198934
-0.194833
-0.182050
-0.157192
-0.109097
-0.073333
-0.042015
0.021669
0.053253
0.072741
0.090831
0.103356
0.086106
0.055326
0.017034
-0.034987
-0.092636
-0.134668
-0.177214
-0.209214
-0.224574
-0.224887
-0.220554
-0.187465
-0.154276
-0.104974
-0.061221
-0.022097
0.021578
0.053132
0.087603
0.059010
0.039381
0.015749
-0.027049
-0.063623
-0.117054
-0.169595
-0.218850
-0.249272
-0.269083
-0.279216
-0.254767
-0.234266
-0.197424
-0.145790
-0.102454
-0.048864
-0.009705
0.008308
0.034165
0.030893
0.011275
-0.009636
-0.047299
-0.103689
-0.146237
-0.207252
-0.255543
-0.277399
-0.300756
-0.306188
-0.292928
-0.266038
-0.232805
-0.185822
-0.133595
-0.078077
-0.045568
-0.008468
0.015888
0.006245
-0.009048
-0.034839
-0.074109
-0.122829
-0.163880
-0.220713
-0.265839
-0.294891
-0.312074
-0.315505
-0.311506
-0.279060
-0.234636
-0.187569
-0.143413
-0.096961
-0.045223
-0.012722
0.004014
-0.001215
-0.008167
-0.033469
-0.072449
-0.122237
-0.162884
-0.213958
-0.260102
-0.276482
-0.308230
-0.314933
-0.314902
-0.289254
-0.244621
-0.210986
-0.148314
-0.082267
-0.033182
-0.007096
0.023092
0.017945
0.002505
-0.023879
-0.058709
-0.095476
-0.150172
-0.207105
-0.235927
-0.278420
-0.310363
-0.311168
-0.310422
-0.276982
-0.245435
-0.204464
-0.150054
-0.093904
-0.048181
-0.022686
0.014940
0.016175
0.015054
-0.017503
-0.057408
-0.106083
-0.152757
-0.200277
-0.244054
-0.270187
-0.299071
-0.310705
-0.303405
-0.279638
-0.239904
-0.206818
-0.164708
-0.098708
-0.060060
-0.025557
0.014684
0.007451
0.003164
-0.018340
-0.050853
-0.095567
-0.150360
-0.208455
-0.250345
-0.292380
-0.315727
-0.321561
-0.307517
-0.288410
-0.249497
-0.199087
-0.154185
-0.117472
-0.066246
-0.025903
-0.002227
0.009367
0.009501
-0.020914
-0.059857
-0.124069
-0.163966
-0.214470
-0.262435
-0.277974
-0.311370
-0.324156
-0.319067
-0.300162
-0.261858
-0.224382
-0.188463
-0.133485
-0.083424
-0.041552
-0.033314
-0.019551
-0.016007
-0.035765
-0.072310
-0.109640
-0.163133
-0.212177
-0.261160
-0.291309
-0.317937
-0.334061
-0.333493
-0.305680
-0.276062
-0.229131
-0.176949
-0.133680
-0.090963
-0.052469
-0.020567
-0.020256
-0.020863
-0.044424
-0.082615
-0.124838
-0.163953
-0.210412
-0.268786
-0.309322
-0.335794
-0.347279
-0.327241
-0.313229
-0.283350
-0.238651
-0.196154
-0.156370
-0.098119
-0.059980
-0.030168
-0.031175
-0.028052
-0.035187
-0.075247
-0.132918
-0.182990
-0.224097
-0.259504
-0.317695
-0.328393
-0.326697
-0.333078
-0.308258
-0.269214
-0.229936
-0.194612
-0.160127
-0.097574
-0.080710
-0.055739
-0.034588
-0.043759
-0.058506
-0.074858
-0.112953
-0.153804
-0.204299
-0.251100
-0.297950
-0.306973
-0.307262
-0.311839
-0.297185
-0.256749
-0.213231
-0.155242
-0.114544
-0.077652
-0.044077
-0.015472
-0.016983
-0.021075
-0.036334
-0.073866
-0.111469
-0.162646
-0.204462
-0.245058
-0.282402
-0.305261
-0.304176
-0.301361
-0.287498
-0.261057
-0.216076
-0.169708
-0.117251
-0.070709
-0.038865
-0.017958
-0.020341
-0.015542
-0.012132
-0.030077
-0.081125
-0.124606
-0.178639
-0.226591
-0.259299
-0.287362
-0.298904
-0.288171
-0.266793
-0.249865
-0.200346
-0.156465
-0.113262
-0.072757
-0.044872
-0.023401
-0.009579
-0.016655
-0.043863
-0.080195
-0.114784
-0.174240
-0.232691
-0.269982
-0.304200
-0.322751
-0.342743
-0.338878
-0.314551
-0.288123
-0.239284
-0.201817
-0.163432
-0.115279
-0.080100
-0.063913
-0.050427
-0.055984
-0.088130
-0.108830
-0.158484
-0.195046
-0.236620
-0.283467
-0.317292
-0.341899
-0.350479
-0.353418
-0.338958
-0.311440
-0.281971
-0.241760
-0.185497
-0.141234
-0.103236
-0.091648
-0.082912
-0.096385
-0.114639
-0.145919
-0.173370
-0.213861
-0.240695
-0.289326
-0.325431
-0.355692
-0.374115
-0.354889
-0.323497
-0.310399
-0.273818
-0.240918
-0.190405
-0.150043
-0.112329
-0.094494
-0.095153
-0.092405
-0.102825
-0.132593
-0.170226
-0.210531
-0.267718
-0.307136
-0.342424
-0.365138
-0.373775
-0.361640
-0.339349
-0.311908
-0.287943
-0.239742
-0.197954
-0.151727
-0.108595
-0.094787
-0.079483
-0.089598
-0.116382
-0.147423
-0.192421
-0.227413
-0.266606
-0.305838
-0.331568
-0.356219
-0.371000
-0.363491
-0.339560
-0.315369
-0.292014
-0.240519
-0.197843
-0.161678
-0.122362
-0.092233
-0.088714
-0.070785
-0.096046
-0.127755
-0.166466
-0.191229
-0.219781
-0.242339
-0.248476
-0.262904
-0.249148
-0.226157
-0.207697
-0.166337
-0.112560
-0.039054
0.019914
0.087855
0.152915
0.199706
0.231757
0.248219
0.264455
0.256465
0.243898
0.231610
0.215137
0.195668
0.209190
0.215446
0.251582
0.291371
0.342946
0.409935
0.476485
0.535758
0.593370
0.636616
0.661122
0.663182
0.660907
0.632359
0.587324
0.513612
0.405698
0.288952
0.196794
0.094909
0.011977
-0.046718
-0.094889
-0.127375
-0.134506
-0.126206
-0.114191
-0.078594
-0.047552
-0.021416
-0.013456
0.018215
0.014898
-0.018024
-0.036561
-0.063885
-0.105512
-0.138084
-0.196910
-0.238621
-0.268101
-0.282833
-0.281046
-0.278218
-0.259732
-0.228905
-0.199748
-0.155974
-0.116215
-0.078162
-0.051795
-0.033788
-0.018348
-0.033872
-0.061578
-0.090459
-0.132754
-0.179700
-0.218896
-0.271747
-0.300836
-0.316540
-0.321221
-0.308170
-0.297989
-0.269520
-0.224824
-0.164520
-0.138149
-0.097294
-0.065059
-0.046163
-0.044932
-0.056806
-0.085573
-0.117094
-0.149620
-0.201512
-0.241495
-0.285335
-0.313309
-0.332112
-0.329746
-0.314300
-0.278253
-0.242452
-0.212734
-0.159269
-0.134209
-0.088596
-0.064285
-0.044560
-0.063166
-0.076465
-0.061036
-0.088571
-0.145954
-0.188074
-0.242709
-0.285804
-0.307944
-0.315198
-0.316613
-0.303191
-0.272773
-0.240407
-0.197294
-0.153227
-0.105992
-0.074237
-0.045688
-0.024830
-0.031263
-0.040511
-0.052098
-0.081980
-0.119977
-0.154037
-0.208184
-0.250198
-0.271936
-0.282278
-0.284994
-0.269772
-0.254256
-0.216774
-0.172119
-0.124444
-0.075924
-0.045855
-0.011941
0.004554
0.010558
0.002093
-0.019554
-0.050441
-0.084982
-0.129189
-0.177086
-0.212295
-0.245472
-0.253672
-0.260211
-0.248727
-0.222104
-0.200153
-0.144175
-0.083945
-0.046057
-0.011531
0.017636
0.032207
0.035451
0.017789
-0.002530
-0.028263
-0.057673
-0.102486
-0.154489
-0.188623
-0.213094
-0.223885
-0.234309
-0.212238
-0.191613
-0.157581
-0.110249
-0.065186
-0.024213
0.016564
0.044022
0.058979
0.074801
0.058319
0.032009
-0.019028
-0.052949
-0.103690
-0.157578
-0.193311
-0.214510
-0.230943
-0.235602
-0.220840
-0.200835
-0.166779
-0.106593
-0.056913
-0.026966
0.006509
0.036148
0.053583
0.066052
0.049604
0.013247
-0.030856
-0.061264
-0.108433
-0.144256
-0.188756
-0.217482
-0.235856
-0.254907
-0.236509
-0.217146
-0.187857
-0.136803
-0.100218
-0.053847
-0.023387
0.008165
0.027489
0.030307
0.013134
-0.004213
-0.025027
-0.063870
-0.115539
-0.172851
-0.206621
-0.250657
-0.270299
-0.270490
-0.255249
-0.233316
-0.200994
-0.154539
-0.108287
-0.069708
-0.030610
-0.000007
0.013296
0.008517
-0.017151
-0.034646
-0.069401
-0.114591
-0.165418
-0.214706
-0.267442
-0.314269
-0.318292
-0.301769
-0.293235
-0.268409
-0.241705
-0.204563
-0.162427
-0.108240
-0.077619
-0.043174
-0.025734
-0.037833
-0.030520
-0.055363
-0.102295
-0.133255
-0.184207
-0.224870
-0.267988
-0.299286
-0.331330
-0.348158
-0.327832
-0.309341
-0.271684
-0.225747
-0.179053
-0.131607
-0.084792
-0.056656
-0.045139
-0.041329
-0.063484
-0.079443
-0.111225
-0.164054
-0.215643
-0.268192
-0.293429
-0.311133
-0.350040
-0.339050
-0.326438
-0.314213
-0.262150
-0.231081
-0.171570
-0.135003
-0.096062
-0.050906
-0.034879
-0.028845
-0.042497
-0.069207
-0.114203
-0.145204
-0.197086
-0.246347
-0.295893
-0.318282
-0.337612
-0.337402
-0.319011
-0.291544
-0.256476
-0.204748
-0.152168
-0.114560
-0.079828
-0.044122
-0.015399
-0.020963
-0.039263
-0.065579
-0.106009
-0.151890
-0.202440
-0.262665
-0.298713
-0.324359
-0.342529
-0.348452
-0.310321
-0.285104
-0.264240
-0.215158
-0.164610
-0.127761
-0.064096
-0.033324
-0.020094
-0.011911
-0.025956
-0.051313
-0.090039
-0.128638
-0.183208
-0.230511
-0.271580
-0.303090
-0.332948
-0.329349
-0.305725
-0.272380
-0.231310
-0.192764
-0.152246
-0.115316
-0.090444
-0.054592
-0.037663
-0.027924
-0.027251
-0.054559
-0.102947
-0.135746
-0.181096
-0.221244
-0.259649
-0.296443
-0.319572
-0.331821
-0.322051
-0.295125
-0.247744
-0.209967
-0.168634
-0.115259
-0.070400
-0.035851
-0.016785
-0.006044
-0.022873
-0.045791
-0.098472
-0.138679
-0.177430
-0.234434
-0.283384
-0.304380
-0.323822
-0.327288
-0.316416
-0.282302
-0.256415
-0.218966
-0.158327
-0.116347
-0.073577
-0.045762
-0.021553
-0.014044
-0.032606
-0.057807
-0.108336
-0.149400
-0.199770
-0.218617
-0.268485
-0.315067
-0.334535
-0.340344
-0.330621
-0.301858
-0.285370
-0.204904
-0.162695
-0.121976
-0.077859
-0.045813
-0.017987
-0.026673
-0.033538
-0.057488
-0.093325
-0.138198
-0.200827
-0.231492
-0.282445
-0.324880
-0.353469
-0.342588
-0.327114
-0.290170
-0.251840
-0.207448
-0.156572
-0.123806
-0.070240
-0.040801
-0.013279
-0.007075
-0.010445
-0.042637
-0.089922
-0.133486
-0.175284
-0.216135
-0.254666
-0.299854
-0.319105
-0.319505
-0.295801
-0.264001
-0.232806
-0.189266
-0.131437
-0.085940
-0.047320
-0.019222
-0.014345
0.005695
-0.004836
-0.039026
-0.073928
-0.120022
-0.170348
-0.204744
-0.268408
-0.298149
-0.308593
-0.325228
-0.308281
-0.265381
-0.214780
-0.157709
-0.124547
-0.081282
-0.018935
0.018004
0.037120
0.036520
0.020949
-0.012654
-0.043591
-0.096426
-0.148795
-0.198307
-0.244698
-0.290205
-0.303129
-0.299514
-0.294735
-0.277027
-0.228358
-0.183905
-0.129716
-0.083361
-0.047644
-0.014742
-0.002001
-0.019108
-0.029440
-0.053327
-0.096227
-0.137820
-0.183405
-0.240054
-0.282737
-0.317655
-0.348500
-0.352490
-0.329409
-0.316679
-0.286568
-0.246690
-0.194922
-0.136871
-0.091179
-0.055632
-0.036880
-0.041409
-0.051958
-0.083632
-0.121918
-0.162840
-0.219023
-0.272781
-0.310591
-0.350430
-0.369227
-0.373380
-0.355024
-0.322514
-0.298417
-0.258470
-0.209400
-0.157631
-0.115019
-0.056256
-0.043789
-0.041802
-0.065458
-0.096764
-0.128615
-0.169677
-0.235964
-0.279130
-0.331764
-0.368100
-0.374083
-0.386488
-0.365258
-0.340392
-0.298949
-0.246578
-0.199774
-0.153328
-0.118771
-0.076068
-0.061960
-0.052207
-0.059476
-0.090640
-0.137613
-0.177796
-0.232710
-0.292359
-0.327041
-0.358321
-0.370364
-0.374510
-0.361570
-0.341243
-0.298580
-0.246369
-0.200064
-0.156368
-0.112628
-0.075409
-0.048213
-0.045244
-0.060567
-0.094974
-0.142214
-0.175977
-0.221365
-0.278596
-0.327318
-0.367375
-0.382980
-0.383777
-0.369320
-0.345554
-0.299646
-0.250086
-0.199686
-0.139450
-0.073371
-0.033244
-0.008094
0.011239
0.020581
0.010524
-0.013172
-0.036711
-0.074516
-0.125657
-0.159660
-0.175579
-0.192413
-0.181691
-0.136747
-0.085268
-0.008560
0.070208
0.153706
0.231863
0.302047
0.371790
0.424678
0.454310
0.463860
0.472935
0.454882
0.465609
0.458642
0.436931
0.428969
0.417635
0.435734
0.423795
0.429020
0.447261
0.495590
0.516106
0.549397
0.581648
0.585955
0.568262
0.527911
0.481782
0.403526
0.314550
0.232301
0.143577
0.059291
-0.036663
-0.124731
-0.195567
-0.223697
-0.240639
-0.248135
-0.224076
-0.184768
-0.137026
-0.094763
-0.055738
0.001174
0.029188
0.054932
0.065815
0.053123
0.023448
-0.013029
-0.078466
-0.136098
-0.179285
-0.225473
-0.261929
-0.296495
-0.316205
-0.313399
-0.286692
-0.253046
-0.201629
-0.150687
-0.094940
-0.045456
-0.017304
-0.003558
0.023749
0.021074
-0.017609
-0.050455
-0.095832
-0.154078
-0.207307
-0.253160
-0.295048
-0.308407
-0.324368
-0.316396
-0.300408
-0.279742
-0.220619
-0.166177
-0.126440
-0.074841
-0.038856
-0.013907
-0.002824
-0.006381
-0.027302
-0.055403
-0.101828
-0.147542
-0.192809
-0.244895
-0.302188
-0.318378
-0.319369
-0.310082
-0.282586
-0.232802
-0.194390
-0.138183
-0.102863
-0.054947
-0.013319
0.010375
0.022610
0.014322
-0.005271
-0.037852
-0.081860
-0.133312
-0.169303
-0.222206
-0.254801
-0.283247
-0.303456
-0.305075
-0.274409
-0.233538
-0.197495
-0.127682
-0.074196
-0.033528
0.000667
0.031101
0.042551
0.033194
0.006332
-0.019852
-0.053514
-0.107095
-0.152785
-0.197484
-0.236312
-0.249700
-0.255935
-0.259434
-0.244779
-0.196030
-0.148245
-0.098703
-0.058677
-0.016116
0.024320
0.057472
0.065402
0.079330
0.051659
0.028988
-0.019659
-0.067202
-0.119898
-0.161065
-0.200601
-0.220399
-0.239644
-0.232039
-0.209572
-0.167361
-0.134716
-0.077472
-0.033741
0.015727
0.048834
0.087354
0.098759
0.099146
0.070267
0.050230
-0.004509
-0.054660
-0.096155
-0.145337
-0.168620
-0.204433
-0.217252
-0.216933
-0.209806
-0.188058
-0.109390
-0.051448
-0.001344
0.031212
0.074094
0.099349
0.115939
0.109726
0.080898
0.047384
0.011456
-0.040837
-0.077231
-0.125255
-0.160425
-0.176233
-0.196103
-0.197994
-0.193503
-0.170301
-0.105390
-0.065800
-0.015920
0.024534
0.065118
0.087278
0.091742
0.086638
0.068744
0.054052
-0.012018
-0.051534
-0.104670
-0.139546
-0.188233
-0.209683
-0.230601
-0.220816
-0.196813
-0.157823
-0.128708
-0.084595
-0.034526
0.002994
0.037368
0.069454
0.073050
0.066897
0.053756
0.023923
-0.017073
-0.076356
-0.130299
-0.163349
-0.214643
-0.238179
-0.241631
-0.240542
-0.229585
-0.194289
-0.161178
-0.133300
-0.084126
-0.037703
0.008574
0.031830
0.034220
0.029768
0.011143
-0.005655
-0.053286
-0.108820
-0.164615
-0.205290
-0.239382
-0.266447
-0.277761
-0.276840
-0.251939
-0.221856
-0.176244
-0.135658
-0.101858
-0.052707
-0.017592
0.009784
0.017394
0.002622
-0.015711
-0.040860
-0.087282
-0.125049
-0.171339
-0.215579
-0.263473
-0.277624
-0.284059
-0.277379
-0.263208
-0.227526
-0.174902
-0.140089
-0.097474
-0.061758
-0.032102
-0.011372
0.007959
-0.003676
-0.019424
-0.055110
-0.089666
-0.133942
-0.179842
-0.218985
-0.261300
-0.288159
-0.278322
-0.271564
-0.259897
-0.233382
-0.192754
-0.143442
-0.105857
-0.063415
-0.026430
0.003826
0.016706
0.015959
-0.011766
-0.041288
-0.078055
-0.123214
-0.174650
-0.221815
-0.255391
-0.264241
-0.281729
-0.260351
-0.236124
-0.229258
-0.179024
-0.133431
-0.091712
-0.045139
-0.014923
0.006427
0.012993
0.010278
0.006668
-0.032821
-0.079851
-0.119941
-0.164244
-0.201488
-0.242738
-0.263571
-0.263947
-0.257369
-0.239214
-0.216898
-0.165256
-0.116927
-0.068135
-0.031089
0.003261
0.022864
0.028554
0.019356
-0.006618
-0.028645
-0.063594
-0.109979
-0.149568
-0.190042
-0.238131
-0.230286
-0.242661
-0.249191
-0.231120
-0.194962
-0.156460
-0.114473
-0.067595
-0.030644
-0.007699
0.010624
0.022359
0.022494
-0.000576
-0.033161
-0.075513
-0.120845
-0.151869
-0.194075
-0.226017
-0.259007
-0.265031
-0.248623
-0.222312
-0.190625
-0.146722
-0.104228
-0.068196
-0.034012
-0.010082
0.007679
0.023495
0.021994
-0.011231
-0.043379
-0.088053
-0.125377
-0.162870
-0.200244
-0.221666
-0.237518
-0.247465
-0.241313
-0.220842
-0.198272
-0.158575
-0.113123
-0.069984
-0.029855
0.001493
0.020149
0.016364
-0.002188
-0.008108
-0.042907
-0.087088
-0.129371
-0.172664
-0.208846
-0.241725
-0.263709
-0.271535
-0.263717
-0.224049
-0.193719
-0.153199
-0.110897
-0.074711
-0.057832
-0.009145
0.027551
0.015377
0.006312
-0.012477
-0.045126
-0.091699
-0.134292
-0.175174
-0.216012
-0.243865
-0.264284
-0.273609
-0.262794
-0.243624
-0.213180
-0.169823
-0.117451
-0.074710
-0.034882
-0.007193
0.016001
0.023246
0.005895
-0.015165
-0.048770
-0.080941
-0.125038
-0.160849
-0.197360
-0.222735
-0.254308
-0.248784
-0.238892
-0.212393
-0.179833
-0.127566
-0.085282
-0.039536
-0.004941
0.025086
0.042051
0.043955
0.046749
0.025393
-0.011476
-0.052428
-0.102893
-0.145754
-0.194835
-0.234430
-0.254629
-0.252377
-0.239817
-0.199200
-0.169203
-0.132447
-0.086790
-0.041446
-0.005281
0.023555
0.043963
0.060756
0.053185
0.027021
0.007322
-0.048573
-0.101628
-0.160042
-0.154927
-0.184869
-0.208631
-0.219734
-0.214102
-0.189917
-0.140071
-0.102397
-0.064022
-0.024885
0.008212
0.038284
0.065018
0.075111
0.052762
0.034040
-0.021434
-0.061173
-0.100957
-0.149449
-0.190299
-0.213092
-0.248854
-0.259773
-0.267686
-0.224884
-0.192740
-0.152551
-0.096239
-0.054778
-0.027053
0.005515
0.034387
0.035360
0.011633
-0.011128
-0.051103
-0.093894
-0.142686
-0.172726
-0.232531
-0.274908
-0.305844
-0.297361
-0.283429
-0.250132
-0.214395
-0.175905
-0.133361
-0.080889
-0.037408
-0.022708
0.003288
-0.000010
-0.013220
-0.035653
-0.072986
-0.119131
-0.164769
-0.205394
-0.249031
-0.271453
-0.299938
-0.301590
-0.283209
-0.261950
-0.226658
-0.175283
-0.144854
-0.093658
-0.054529
-0.011588
0.019095
0.015895
0.014643
-0.043474
-0.068703
-0.102634
-0.162830
-0.216559
-0.255857
-0.282812
-0.299998
-0.299394
-0.286825
-0.272129
-0.233647
-0.185822
-0.143838
-0.091783
-0.044050
-0.011419
0.013650
0.007980
0.002917
-0.032752
-0.065468
-0.109318
-0.160660
-0.207252
-0.251568
-0.294456
-0.315474
-0.308705
-0.291467
-0.274049
-0.231974
-0.188293
-0.144284
-0.091492
-0.044096
-0.019296
0.004844
-0.003896
-0.009078
-0.044211
-0.084834
-0.112522
-0.150381
-0.194005
-0.227580
-0.249766
-0.259277
-0.262897
-0.237237
-0.196961
-0.133351
-0.067467
0.004079
0.055168
0.104934
0.134264
0.176445
0.214443
0.216095
0.210867
0.203616
0.185210
0.159533
0.144321
0.129887
0.130912
0.141414
0.175297
0.224487
0.268009
0.339241
0.425533
0.521931
0.601944
0.681327
0.744683
0.803914
0.823883
0.835768
0.791250
0.746698
0.681773
0.621264
0.544819
0.474972
0.425401
0.341664
0.250089
0.196114
0.160640
0.160354
0.141011
0.153358
0.169087
0.173030
0.186663
0.183720
0.174707
0.163227
0.142112
0.091796
0.032840
-0.029422
-0.090675
-0.139207
-0.159168
-0.187669
-0.190866
-0.192945
-0.171796
-0.135036
-0.095680
-0.047042
0.011910
0.052330
0.079618
0.089547
0.093708
0.088973
0.067529
0.017345
-0.037690
-0.084651
-0.137339
-0.190941
-0.225027
-0.245007
-0.236928
-0.242751
-0.214864
-0.177081
-0.132416
-0.083046
-0.025167
0.019470
0.039147
0.066143
0.067355
0.066736
0.040881
0.001153
-0.052055
-0.104168
-0.150949
-0.199730
-0.234954
-0.259570
-0.262509
-0.252973
-0.225483
-0.183682
-0.127830
-0.072480
-0.030500
-0.000272
0.041903
0.062596
0.056805
0.069320
0.047305
0.003661
-0.040658
-0.092727
-0.150563
-0.180308
-0.217680
-0.255912
-0.248524
-0.235489
-0.215906
-0.162590
-0.120232
-0.067762
-0.008229
0.044771
0.079330
0.112123
0.107358
0.098371
0.073877
0.025289
-0.031342
-0.094225
-0.110740
-0.153935
-0.184349
-0.211817
-0.215437
-0.197124
-0.192911
-0.139889
-0.081180
-0.032073
0.008589
0.049307
0.101113
0.124500
0.127179
0.117695
0.093622
0.044462
0.004768
-0.039683
-0.088240
-0.138670
-0.167713
-0.195477
-0.186441
-0.173470
-0.151203
-0.110249
-0.062186
-0.013211
0.041373
0.077583
0.127549
0.146360
0.155820
0.147773
0.126831
0.086798
0.047973
0.001394
-0.045960
-0.089381
-0.132968
-0.161925
-0.162900
-0.143733
-0.124495
-0.080660
-0.037887
0.022787
0.068057
0.109852
0.150225
0.179387
0.180290
0.168938
0.142919
0.102145
0.053509
-0.008027
-0.044168
-0.079760
-0.108370
-0.134567
-0.130339
-0.122755
-0.109999
-0.066901
-0.015620
0.025260
0.063017
0.119017
0.161033
0.182194
0.195587
0.177170
0.139552
0.133851
0.086110
0.013205
-0.054559
-0.090117
-0.118500
-0.131737
-0.141176
-0.139501
-0.127631
-0.088910
-0.045119
0.009462
0.058095
0.105265
0.137689
0.169965
0.177428
0.161666
0.131799
0.093712
0.045620
-0.010796
-0.059230
-0.100313
-0.138145
-0.165138
-0.176845
-0.165912
-0.138981
-0.106442
-0.061073
-0.014584
0.041000
0.085812
0.116610
0.136623
0.134765
0.118383
0.104101
0.049217
0.013776
-0.029547
-0.091040
-0.142261
-0.179365
-0.210979
-0.215221
-0.198112
-0.177870
-0.143000
-0.100334
-0.058216
-0.015489
0.026960
0.072988
0.103111
0.124259
0.102953
0.076825
0.049224
-0.000012
-0.082690
-0.137891
-0.179837
-0.200200
-0.228984
-0.236823
-0.229061
-0.210269
-0.181292
-0.136209
-0.077707
-0.025349
0.018211
0.055081
0.071994
0.078898
0.062068
0.073211
0.047306
-0.014556
-0.072302
-0.126496
-0.185408
-0.217604
-0.240129
-0.247499
-0.232076
-0.212252
-0.168183
-0.126391
-0.081729
-0.034211
0.017216
0.053969
0.086996
0.094829
0.089381
0.060505
0.008616
-0.023865
-0.079162
-0.135577
-0.188065
-0.219679
-0.247146
-0.250597
-0.233272
-0.211387
-0.168443
-0.130313
-0.074115
-0.022478
0.018286
0.072775
0.093458
0.109536
0.095553
0.072435
0.033948
-0.014899
-0.066838
-0.123985
-0.173079
-0.212341
-0.226818
-0.231744
-0.219327
-0.204736
-0.173169
-0.121164
-0.055558
-0.005815
0.038812
0.074399
0.098752
0.108799
0.096991
0.085282
0.031712
-0.021748
-0.072279
-0.112065
-0.161912
-0.192122
-0.219489
-0.215489
-0.212443
-0.199452
-0.158763
-0.122082
-0.058789
-0.004200
0.046507
0.081994
0.097125
0.103829
0.105275
0.073666
0.041377
-0.005675
-0.057789
-0.112345
-0.154365
-0.191354
-0.215707
-0.228208
-0.219125
-0.198687
-0.160991
-0.108041
-0.057684
-0.009289
0.046637
0.088532
0.110117
0.115161
0.094286
0.089139
0.049970
-0.002528
-0.059113
-0.103856
-0.150891
-0.202423
-0.218431
-0.231668
-0.236537
-0.208378
-0.168434
-0.102315
-0.048846
-0.007137
0.038698
0.077267
0.097723
0.107549
0.097227
0.081495
0.039418
-0.011749
-0.065331
-0.109155
-0.157031
-0.197536
-0.216546
-0.222231
-0.218474
-0.200740
-0.168298
-0.122554
-0.058647
-0.017667
0.029373
0.063668
0.090807
0.098701
0.081615
0.075697
0.030681
-0.001175
-0.062932
-0.116131
-0.161579
-0.198179
-0.223653
-0.245769
-0.237330
-0.203670
-0.172023
-0.140284
-0.065266
-0.015033
0.021319
0.054881
0.077893
0.086010
0.077331
0.071036
0.041201
-0.010495
-0.059365
-0.135117
-0.171218
-0.204122
-0.216625
-0.233057
-0.230792
-0.213216
-0.180924
-0.129266
-0.075935
-0.029708
0.005110
0.042921
0.063918
0.077999
0.076483
0.050613
0.017789
-0.021502
-0.073409
-0.116206
-0.156136
-0.198413
-0.227374
-0.243091
-0.236740
-0.211045
-0.180428
-0.134861
-0.082079
-0.028725
0.018066
0.056453
0.073853
0.090641
0.089836
0.064707
0.031115
-0.012009
-0.069569
-0.113069
-0.162541
-0.205136
-0.227785
-0.232302
-0.232326
-0.229522
-0.195469
-0.150844
-0.097735
-0.045804
0.000541
0.050883
0.072363
0.080866
0.080140
0.052288
0.006609
-0.000973
-0.057454
-0.110137
-0.150755
-0.197246
-0.219518
-0.219164
-0.209982
-0.197756
-0.163612
-0.121685
-0.069682
-0.018810
0.028789
0.060599
0.098708
0.117273
0.107976
0.091976
0.061109
0.016264
-0.038807
-0.085290
-0.121058
-0.153826
-0.186828
-0.195890
-0.192850
-0.168624
-0.142685
-0.102588
-0.055170
-0.002973
0.042042
0.082238
0.109516
0.125096
0.106635
0.092287
0.063250
0.016608
-0.028198
-0.070877
-0.117865
-0.148777
-0.177572
-0.185862
-0.173354
-0.146917
-0.124115
-0.097419
-0.037367
0.014485
0.068894
0.110677
0.136821
0.153096
0.149622
0.130526
0.094014
0.030186
-0.016301
-0.069383
-0.118122
-0.156550
-0.192869
-0.206934
-0.200699
-0.192698
-0.141453
-0.114584
-0.065219
-0.007453
0.040861
0.070310
0.095620
0.100247
0.098500
0.090364
0.049695
-0.003659
-0.078877
-0.094623
-0.146941
-0.194338
-0.222784
-0.240553
-0.224855
-0.204996
-0.170644
-0.146843
-0.099804
-0.046392
0.000336
0.033561
0.067025
0.082856
0.073339
0.051934
0.021430
-0.013124
-0.074457
-0.126069
-0.169139
-0.212031
-0.231147
-0.263606
-0.257240
-0.228148
-0.188473
-0.143410
-0.089736
-0.044872
-0.002170
0.035462
0.053155
0.060728
0.064414
0.040479
0.016922
-0.024815
-0.068866
-0.113114
-0.157837
-0.194175
-0.226718
-0.250209
-0.253728
-0.234386
-0.192466
-0.146423
-0.096928
-0.060730
-0.031631
0.011477
0.033594
0.079548
0.067533
0.045537
0.012172
-0.033556
-0.079795
-0.119009
-0.160444
-0.200869
-0.228582
-0.238717
-0.231163
-0.208455
-0.188208
-0.142576
-0.095005
-0.049562
-0.006469
0.030007
0.055491
0.065878
0.054984
0.050280
0.015193
-0.030075
-0.069747
-0.123651
-0.171234
-0.205566
-0.232629
-0.244488
-0.233190
-0.218195
-0.188781
-0.142175
-0.084047
-0.027440
0.027180
0.068878
0.109178
0.135991
0.152115
0.149832
0.142501
0.108297
0.079574
0.045228
0.021499
0.009739
0.000054
0.007194
0.046214
0.088771
0.147084
0.227850
0.317090
0.396077
0.479213
0.552782
0.613446
0.670973
0.690071
0.710922
0.727871
0.716565
0.705122
0.700043
0.692690
0.661791
0.629975
0.615579
0.615974
0.631771
0.631515
0.647754
0.665320
0.660683
0.646751
0.614260
0.574608
0.519358
0.448873
0.380889
0.300137
0.218251
0.138132
0.085695
0.029676
-0.002598
-0.023225
-0.046265
-0.063099
-0.049754
-0.032391
-0.000653
0.035146
0.057355
0.109096
0.142247
0.167424
0.174083
0.165490
0.151222
0.116897
0.047080
0.011546
-0.033932
-0.075712
-0.108358
-0.155015
-0.172956
-0.158129
-0.138417
-0.115793
-0.079259
-0.034422
0.018237
0.040079
0.072837
0.097728
0.109621
0.103307
0.088665
0.049626
0.010766
-0.024083
-0.052675
-0.098431
-0.133118
-0.158041
-0.181848
-0.180408
-0.159149
-0.142253
-0.111393
-0.016046
0.030607
0.065518
0.082967
0.105395
0.114144
0.103334
0.078345
0.060047
0.021038
-0.021451
-0.062255
-0.103855
-0.133763
-0.156181
-0.162527
-0.151007
-0.140392
-0.113462
-0.064296
-0.016026
0.020994
0.067150
0.098359
0.116080
0.121984
0.121346
0.096662
0.073356
0.032325
-0.008298
-0.039135
-0.079194
-0.121732
-0.143005
-0.148622
-0.140047
-0.125871
-0.093509
-0.045415
-0.008621
0.047753
0.088268
0.127039
0.134903
0.146135
0.144390
0.121614
0.101212
0.069075
0.022649
-0.017652
-0.059936
-0.096147
-0.117955
-0.126782
-0.113293
-0.090281
-0.057067
-0.010904
0.029468
0.061989
0.109466
0.146110
0.169975
0.177354
0.171404
0.156797
0.126238
0.087405
0.054009
0.004782
-0.030152
-0.061397
-0.076647
-0.076001
-0.074267
-0.047932
-0.019263
0.019391
0.088560
0.120119
0.154375
0.184223
0.203025
0.223596
0.212203
0.189280
0.157578
0.115422
0.074329
0.034325
-0.007256
-0.035111
-0.048043
-0.040182
-0.027061
-0.020808
0.006835
0.043359
0.100902
0.142302
0.174130
0.197862
0.216693
0.233297
0.236422
0.212987
0.168950
0.125829
0.092373
0.052890
0.015305
-0.023497
-0.049301
-0.053578
-0.031398
-0.018791
0.011864
0.054770
0.088572
0.130177
0.168506
0.191055
0.210297
0.220891
0.214264
0.200161
0.160809
0.120276
0.072871
0.026875
-0.007110
-0.033853
-0.059422
-0.074316
-0.071687
-0.049106
-0.020959
0.022028
0.067475
0.123897
0.158344
0.180619
0.200238
0.202659
0.178786
0.164360
0.124934
0.079569
0.036283
-0.011311
-0.050041
-0.069672
-0.095552
-0.091125
-0.091662
-0.081335
-0.046087
-0.015337
0.016698
0.088383
0.128555
0.153130
0.159251
0.161040
0.154430
0.128388
0.093725
0.055867
0.007194
-0.039156
-0.075095
-0.105860
-0.130191
-0.138273
-0.137776
-0.105169
-0.072307
-0.025370
0.011851
0.044360
0.076592
0.108878
0.125228
0.124751
0.121502
0.117985
0.083563
0.040526
0.005355
-0.044836
-0.099249
-0.124313
-0.140400
-0.151864
-0.140188
-0.124592
-0.088048
-0.046314
-0.009139
0.038212
0.072357
0.092778
0.108165
0.119349
0.126411
0.098664
0.057899
0.019741
-0.020999
-0.059103
-0.101296
-0.139114
-0.159033
-0.155213
-0.156748
-0.129363
-0.093953
-0.056163
-0.022817
0.019922
0.063361
0.106122
0.136984
0.142466
0.137500
0.103089
0.066503
0.022358
0.002649
-0.052282
-0.089148
-0.127787
-0.140210
-0.142706
-0.146052
-0.130142
-0.080367
-0.038589
-0.000436
0.046791
0.088497
0.112619
0.125899
0.118148
0.105667
0.100864
0.078469
0.039029
-0.008662
-0.067381
-0.093532
-0.125867
-0.136085
-0.130962
-0.123937
-0.116035
-0.079387
-0.033852
0.014687
0.064753
0.100008
0.125614
0.147450
0.145303
0.144759
0.134055
0.095513
0.052463
0.011330
-0.033492
-0.083738
-0.114571
-0.131172
-0.123950
-0.122174
-0.110896
-0.078514
-0.082380
-0.039187
0.058739
0.104477
0.126994
0.136116
0.133883
0.131231
0.120362
0.092815
0.044747
0.000101
-0.034836
-0.070997
-0.121259
-0.132456
-0.130588
-0.125371
-0.120912
-0.078089
-0.043950
0.001557
0.034503
0.071507
0.114689
0.135752
0.144281
0.136575
0.118022
0.085651
0.043310
-0.001802
-0.048336
-0.081037
-0.109867
-0.120504
-0.131423
-0.138609
-0.111700
-0.094497
-0.052826
-0.003568
0.033189
0.067585
0.091062
0.122640
0.135790
0.135827
0.112800
0.078866
0.032066
-0.009104
-0.050057
-0.088569
-0.125517
-0.146944
-0.147927
-0.137398
-0.115470
-0.097013
-0.061155
-0.020286
0.025917
0.074094
0.106682
0.128269
0.123441
0.111997
0.099062
0.075241
0.022862
-0.028905
-0.076282
-0.070018
-0.102927
-0.135361
-0.144340
-0.149218
-0.130499
-0.099033
-0.056284
-0.017994
0.027061
0.066410
0.093552
0.121934
0.118120
0.122221
0.098463
0.075945
0.048293
-0.007794
-0.053736
-0.099072
-0.129906
-0.154436
-0.170006
-0.148037
-0.128304
-0.103381
-0.063923
-0.032941
0.016567
0.071381
0.097936
0.098221
0.109315
0.107574
0.093456
0.056015
0.025549
-0.021125
-0.059923
-0.100394
-0.136545
-0.153636
-0.163694
-0.152420
-0.131938
-0.102616
-0.060408
-0.023981
0.014391
0.054652
0.088056
0.105423
0.114788
0.100387
0.075994
0.065302
0.013094
-0.030190
-0.063331
-0.101163
-0.134415
-0.161814
-0.169418
-0.165985
-0.136248
-0.096476
-0.058319
-0.012567
0.028143
0.049569
0.069124
0.093965
0.106406
0.121916
0.084854
0.066877
0.038897
-0.008201
-0.048494
-0.101579
-0.147354
-0.135641
-0.147666
-0.147674
-0.125849
-0.092144
-0.058812
-0.020753
0.021792
0.069690
0.100917
0.120180
0.123049
0.111208
0.087720
0.059241
0.020856
-0.027300
-0.066242
-0.107861
-0.129107
-0.150715
-0.171560
-0.170805
-0.138377
-0.115466
-0.067610
-0.020405
0.022039
0.053142
0.088971
0.105229
0.109393
0.108741
0.099237
0.071601
0.038522
-0.004973
-0.052667
-0.093255
-0.118257
-0.135697
-0.137075
-0.127983
-0.103593
-0.073398
-0.030114
0.008230
0.046258
0.093146
0.129872
0.146212
0.153423
0.152776
0.124047
0.100658
0.056333
0.008872
-0.035677
-0.067774
-0.090253
-0.114776
-0.129692
-0.127050
-0.104786
-0.079936
-0.037585
0.022010
0.072164
0.103874
0.138323
0.157660
0.164690
0.156277
0.140276
0.115425
0.081298
0.037014
-0.008290
-0.046442
-0.076773
-0.105634
-0.105062
-0.106530
-0.085242
-0.043549
0.003115
0.039388
0.081096
0.106189
0.125091
0.149006
0.155272
0.142174
0.111070
0.081264
0.058140
0.002006
-0.044087
-0.095253
-0.107349
-0.114167
-0.122501
-0.126844
-0.101735
-0.077914
-0.045275
-0.010433
0.035829
0.073124
0.108942
0.118372
0.123470
0.121564
0.097005
0.063572
0.028559
-0.016935
-0.070280
-0.114457
-0.138840
-0.163630
-0.163407
-0.159910
-0.136874
-0.100949
-0.073584
-0.034562
0.012824
0.054098
0.085611
0.108406
0.114868
0.108200
0.070480
0.031508
0.003332
-0.040030
-0.078416
-0.132533
-0.168755
-0.195717
-0.192108
-0.181684
-0.153447
-0.119600
-0.071323
-0.032163
0.017172
0.051493
0.080313
0.102495
0.106037
0.097919
0.074467
0.039216
-0.002043
-0.051681
-0.092246
-0.141764
-0.164113
-0.174922
-0.184572
-0.176468
-0.145203
-0.119159
-0.084731
-0.027638
0.012891
0.050559
0.075245
0.094472
0.102502
0.097485
0.078366
0.044657
-0.003083
-0.050571
-0.098365
-0.139323
-0.171407
-0.175686
-0.176272
-0.174144
-0.146948
-0.104357
-0.067903
-0.027154
0.013257
0.042540
0.064912
0.086275
0.084961
0.084193
0.077416
0.036803
-0.010684
-0.048624
-0.097078
-0.149629
-0.151809
-0.166895
-0.147981
-0.127904
-0.085333
-0.046876
0.004449
0.058639
0.112589
0.170773
0.215856
0.238995
0.264703
0.295484
0.285328
0.273684
0.270020
0.252111
0.239951
0.237803
0.255128
0.272496
0.322225
0.367050
0.422656
0.472699
0.561399
0.654583
