0.800243
0.802216
0.831117
0.846599
0.833243
0.770008
0.693724
0.599511
0.505844
0.423418
0.319676
0.222327
0.154076
0.103493
0.065098
0.041714
0.025237
0.036682
0.056456
0.085078
0.137000
0.185622
0.214304
0.240868
0.257980
0.253254
0.250471
0.244372
0.195516
0.124245
0.083070
0.010508
-0.023399
-0.055863
-0.077720
-0.078024
-0.086467
-0.104776
-0.072495
0.004486
0.058039
0.097301
0.140208
0.175647
0.182791
0.181278
0.183061
0.191491
0.152999
0.090480
0.023898
-0.022132
-0.054806
-0.079957
-0.099932
-0.130158
-0.123382
-0.097067
-0.051018
-0.018767
0.019527
0.071087
0.120256
0.132889
0.154873
0.169116
0.171289
0.138669
0.122854
0.092008
0.052522
-0.019194
-0.058180
-0.075241
-0.103098
-0.120849
-0.122767
-0.108185
-0.069365
-0.029688
0.024359
0.081384
0.124107
0.162139
0.181297
0.184166
0.177307
0.151347
0.119379
0.083591
0.038544
-0.013491
-0.055582
-0.062973
-0.088725
-0.105136
-0.093160
-0.080387
-0.066847
-0.016919
0.045073
0.096858
0.136379
0.159112
0.186121
0.202516
0.196288
0.173309
0.157065
0.117374
0.062827
0.011822
-0.026888
-0.064076
-0.072419
-0.076991
-0.069647
-0.055930
-0.035717
0.021277
0.075818
0.145782
0.171100
0.207395
0.215126
0.212665
0.217313
0.226362
0.161535
0.138692
0.106680
0.039468
-0.010485
-0.036093
-0.064400
-0.071595
-0.051487
-0.025052
0.015053
0.055042
0.097180
0.155276
0.205198
0.236435
0.253178
0.251912
0.240409
0.231462
0.199311
0.148252
0.105146
0.071970
0.016982
-0.003290
-0.022677
-0.035565
-0.040139
-0.006275
0.044270
0.086519
0.118469
0.168542
0.206224
0.226062
0.270846
0.278547
0.267858
0.256566
0.223364
0.168918
0.113644
0.080073
0.050722
0.018334
-0.006345
-0.019262
-0.013461
-0.002325
0.002287
0.025328
0.073743
0.156532
0.213043
0.233561
0.250618
0.268623
0.261152
0.236693
0.196300
0.154568
0.122565
0.083857
0.016879
-0.004543
-0.025839
-0.047834
-0.027792
-0.024810
0.008775
0.047051
0.086220
0.121298
0.173423
0.191376
0.228814
0.250629
0.230092
0.214230
0.181195
0.130614
0.079413
0.042288
-0.014348
-0.050768
-0.073580
-0.077326
-0.061945
-0.045650
-0.026916
0.008712
0.054805
0.102243
0.135262
0.146531
0.195020
0.220732
0.214903
0.192066
0.154166
0.110359
0.053036
0.010305
-0.054919
-0.083931
-0.116228
-0.128161
-0.120248
-0.085203
-0.053839
-0.020005
0.034157
0.072233
0.079260
0.144120
0.191124
0.194108
0.175416
0.151366
0.125065
0.084328
0.034011
-0.017818
-0.074734
-0.093251
-0.116862
-0.139317
-0.139968
-0.125148
-0.082577
-0.032797
0.015995
0.071457
0.103835
0.135042
0.145213
0.149614
0.152027
0.146506
0.118168
0.071104
0.014774
-0.043813
-0.075393
-0.084129
-0.118461
-0.116009
-0.102499
-0.107976
-0.093972
-0.045471
0.017142
0.067463
0.115996
0.151141
0.182122
0.189680
0.170975
0.145155
0.097092
0.048258
0.002703
-0.023386
-0.075220
-0.099535
-0.127030
-0.141833
-0.138815
-0.132286
-0.090704
-0.027625
0.016049
0.053652
0.107274
0.155507
0.181269
0.174095
0.139431
0.151219
0.121044
0.082322
0.033151
-0.023264
-0.089546
-0.112751
-0.139537
-0.155488
-0.141283
-0.114415
-0.063329
-0.039374
0.015019
0.077178
0.121090
0.154531
0.166824
0.166607
0.172480
0.145971
0.118443
0.061943
0.020351
-0.025676
-0.073515
-0.109691
-0.120104
-0.131877
-0.139572
-0.126527
-0.085518
-0.052969
-0.000023
0.065034
0.108167
0.132984
0.153251
0.159398
0.159654
0.139096
0.106915
0.071948
0.027697
-0.025866
-0.081114
-0.108982
-0.142700
-0.166470
-0.158362
-0.148188
-0.121223
-0.061722
-0.000449
0.048224
0.091331
0.102540
0.127803
0.160539
0.150957
0.137034
0.107717
0.062725
-0.008037
-0.055969
-0.106569
-0.132025
-0.149281
-0.157097
-0.137321
-0.118952
-0.083916
-0.049613
-0.025670
0.016430
0.061755
0.093819
0.113795
0.129846
0.126123
0.109912
0.098752
0.050502
0.008192
-0.051371
-0.102481
-0.137729
-0.154876
-0.159180
-0.170407
-0.152731
-0.102589
-0.070110
-0.029524
0.031427
0.071551
0.072939
0.103239
0.119861
0.136179
0.113587
0.084844
0.046943
0.013410
-0.044584
-0.094224
-0.133443
-0.151562
-0.162814
-0.150088
-0.134212
-0.106397
-0.095477
-0.047056
0.006741
0.039253
0.095242
0.121116
0.138196
0.125231
0.107164
0.064547
0.016171
-0.024158
-0.059627
-0.122697
-0.167436
-0.158821
-0.149498
-0.142573
-0.131990
-0.126758
-0.065552
-0.007160
0.044012
0.070780
0.083686
0.118741
0.149167
0.130704
0.131780
0.095914
0.058710
0.001446
-0.050399
-0.089376
-0.107307
-0.139664
-0.164787
-0.139522
-0.127512
-0.095389
-0.033994
0.006588
0.055467
0.095166
0.133547
0.138651
0.151539
0.145049
0.128025
0.088195
0.041930
-0.017345
-0.049160
-0.090741
-0.134017
-0.159668
-0.144084
-0.124857
-0.098052
-0.064013
-0.013569
0.028565
0.059399
0.103870
0.150055
0.176071
0.196130
0.199787
0.155784
0.100222
0.070784
0.016534
-0.039121
-0.081890
-0.116629
-0.153065
-0.178455
-0.177261
-0.154849
-0.115572
-0.076448
-0.026355
0.038867
0.065174
0.094651
0.120809
0.127507
0.105817
0.105837
0.081022
0.038910
-0.029138
-0.074179
-0.115042
-0.155868
-0.182023
-0.187168
-0.191203
-0.186280
-0.138033
-0.088504
-0.058294
-0.002253
0.022595
0.039013
0.082116
0.094473
0.077162
0.071674
0.038003
-0.009227
-0.058911
-0.114948
-0.145038
-0.199948
-0.240506
-0.233363
-0.222228
-0.218044
-0.184079
-0.129297
-0.088981
-0.045747
0.005715
0.050858
0.078992
0.088099
0.070282
0.063153
0.034009
-0.019089
-0.062913
-0.109837
-0.152931
-0.181022
-0.195583
-0.212968
-0.212695
-0.218070
-0.177494
-0.129291
-0.120095
-0.052854
0.007146
0.046200
0.078252
0.078700
0.069340
0.042677
0.005419
-0.006174
-0.057433
-0.129389
-0.166349
-0.180111
-0.206043
-0.228998
-0.212473
-0.183052
-0.153051
-0.129680
-0.081684
-0.034496
0.007492
0.035313
0.049014
0.038493
0.038689
0.037366
0.000448
-0.036178
-0.103646
-0.146133
-0.187231
-0.230890
-0.243892
-0.221991
-0.227859
-0.221366
-0.150856
-0.100443
-0.054887
0.002970
0.078761
0.142391
0.166201
0.183854
0.189207
0.197832
0.163338
0.134006
0.107858
0.080342
0.069354
0.061992
0.065879
0.095627
0.132683
0.183656
0.260483
0.347201
0.420631
0.484525
0.561165
0.622037
0.692552
0.743966
0.785185
0.797647
0.795081
0.790943
0.744706
0.688883
0.637383
0.596933
0.539595
0.519404
0.499393
0.480643
0.472967
0.430679
0.417690
0.399112
0.383844
0.362303
0.359832
0.324945
0.267584
0.234923
0.220392
0.168669
0.097292
0.062977
0.012296
-0.052463
-0.091894
-0.098986
-0.091149
-0.091647
-0.069664
-0.029390
0.011626
0.060193
0.089214
0.117452
0.147401
0.172356
0.160286
0.105689
0.065957
0.048662
0.014862
-0.052970
-0.121532
-0.151311
-0.178012
-0.198084
-0.195024
-0.183736
-0.156801
-0.106610
-0.047046
-0.001047
0.051291
0.089754
0.099487
0.101990
0.095052
0.091100
0.058397
0.015800
-0.043204
-0.086150
-0.124384
-0.173421
-0.184054
-0.190799
-0.198345
-0.191109
-0.152703
-0.114662
-0.066360
-0.022733
0.031636
0.074700
0.096825
0.103128
0.098653
0.072670
0.037302
-0.004265
-0.059192
-0.090112
-0.121963
-0.170055
-0.194106
-0.195624
-0.186434
-0.172764
-0.122916
-0.091478
-0.054630
-0.012139
0.042497
0.085747
0.117844
0.108829
0.092374
0.074095
0.043933
0.001511
-0.028646
-0.075741
-0.119639
-0.147618
-0.161140
-0.159939
-0.160117
-0.139560
-0.103960
-0.085994
-0.048635
0.039407
0.087695
0.103169
0.131480
0.145096
0.132632
0.124309
0.091291
0.021514
-0.038133
-0.063360
-0.074088
-0.103021
-0.146930
-0.140078
-0.149261
-0.120157
-0.084950
-0.039849
0.015690
0.042230
0.098853
0.148375
0.180603
0.192592
0.161212
0.131123
0.101994
0.064707
0.005406
-0.031147
-0.075143
-0.104923
-0.131324
-0.127683
-0.117847
-0.093264
-0.051218
-0.009610
0.037516
0.084051
0.108562
0.145607
0.163948
0.170817
0.148733
0.138675
0.126947
0.093923
0.028464
-0.006232
-0.037964
-0.062785
-0.076823
-0.095682
-0.097920
-0.085461
-0.049844
0.005404
0.044732
0.105492
0.147641
0.170415
0.196204
0.197966
0.193976
0.177673
0.146003
0.093124
0.045238
-0.012689
-0.058338
-0.091001
-0.110111
-0.118182
-0.106682
-0.094716
-0.054187
-0.012574
0.029963
0.084359
0.121203
0.146001
0.163703
0.181838
0.174314
0.140525
0.083528
0.059240
0.026485
-0.012426
-0.067593
-0.100326
-0.126871
-0.135245
-0.119524
-0.111468
-0.088159
-0.044237
0.009816
0.058025
0.099600
0.132368
0.155683
0.161692
0.159766
0.137510
0.102216
0.050880
-0.002751
-0.049872
-0.109113
-0.140044
-0.156459
-0.190987
-0.202549
-0.188199
-0.129914
-0.096090
-0.027781
0.047425
0.073737
0.106977
0.116552
0.117600
0.107977
0.104855
0.070136
0.017038
-0.018248
-0.086579
-0.142436
-0.165761
-0.177420
-0.182415
-0.185685
-0.185010
-0.171507
-0.140646
-0.082961
-0.049666
0.039062
0.090800
0.095407
0.093032
0.087650
0.075969
0.047516
0.006500
-0.040166
-0.085017
-0.128912
-0.174868
-0.203660
-0.215099
-0.205781
-0.189691
-0.146641
-0.120254
-0.073260
-0.015209
0.032144
0.067406
0.088550
0.103161
0.089430
0.063835
0.034532
-0.008955
-0.051218
-0.114812
-0.153580
-0.181154
-0.204663
-0.206073
-0.188644
-0.184819
-0.151546
-0.129003
-0.083251
-0.024687
0.037617
0.063746
0.086933
0.087783
0.075674
0.056915
0.014078
-0.011849
-0.035020
-0.078534
-0.131347
-0.171981
-0.188479
-0.206197
-0.206500
-0.184298
-0.139635
-0.099867
-0.061124
-0.013622
0.023561
0.047505
0.066400
0.093088
0.104703
0.065090
0.039714
0.005311
-0.052694
-0.117383
-0.163257
-0.176584
-0.176228
-0.179008
-0.194100
-0.185687
-0.162272
-0.120000
-0.067125
-0.022403
0.026075
0.068784
0.077366
0.089254
0.078668
0.061277
0.020024
-0.009423
-0.068981
-0.144768
-0.180815
-0.191922
-0.184925
-0.191228
-0.204991
-0.190566
-0.159112
-0.116235
-0.061019
-0.022878
0.029789
0.058237
0.070352
0.078629
0.078705
0.061553
0.025777
-0.010019
-0.055913
-0.107692
-0.161896
-0.184335
-0.207550
-0.217722
-0.204782
-0.190199
-0.161553
-0.120614
-0.063606
-0.034046
0.014719
0.056307
0.095192
0.097143
0.059517
0.039955
0.019478
-0.026455
-0.079412
-0.123617
-0.179646
-0.211184
-0.232308
-0.252810
-0.246318
-0.206456
-0.158179
-0.118616
-0.081351
-0.033084
0.017450
0.052816
0.060098
0.065173
0.059201
0.048300
0.021012
-0.028177
-0.090408
-0.140157
-0.184471
-0.210583
-0.239706
-0.232385
-0.243443
-0.233399
-0.179173
-0.139163
-0.087717
-0.039273
0.009993
0.055894
0.078464
0.083283
0.079060
0.041560
-0.022235
-0.059483
-0.108846
-0.132762
-0.167448
-0.195643
-0.226573
-0.248794
-0.238750
-0.227094
-0.189669
-0.154857
-0.091117
-0.055587
-0.015902
0.024575
0.059067
0.076940
0.057385
0.043106
0.001498
-0.035213
-0.083521
-0.131131
-0.168066
-0.208438
-0.226349
-0.247220
-0.247484
-0.209392
-0.181037
-0.147015
-0.100503
-0.053852
-0.011105
0.032197
0.052698
0.062150
0.056124
0.034839
0.009600
-0.011666
-0.045812
-0.108419
-0.144278
-0.177871
-0.216254
-0.212820
-0.184914
-0.177782
-0.148462
-0.095815
-0.055347
-0.014230
0.012314
0.059244
0.072953
0.086373
0.088198
0.054874
0.021321
-0.025338
-0.065378
-0.117425
-0.160398
-0.181452
-0.199932
-0.194653
-0.197940
-0.193316
-0.164166
-0.106814
-0.048448
0.010250
0.055972
0.074380
0.091765
0.102063
0.081348
0.090936
0.074481
0.025969
-0.027506
-0.070273
-0.115891
-0.148740
-0.171349
-0.195342
-0.196786
-0.196247
-0.157219
-0.090018
-0.034982
-0.018210
-0.000928
0.046301
0.079540
0.084537
0.075777
0.041239
0.027351
-0.035025
-0.094289
-0.137999
-0.180946
-0.212073
-0.232525
-0.247202
-0.243685
-0.228474
-0.188511
-0.141864
-0.080803
-0.039326
-0.006920
0.026018
0.046965
0.046781
0.029370
0.006331
-0.033793
-0.077131
-0.122535
-0.165549
-0.206322
-0.238777
-0.257568
-0.254446
-0.254383
-0.255695
-0.233079
-0.193627
-0.137710
-0.090275
-0.039530
-0.003041
0.016464
0.030101
0.027808
0.007148
-0.026966
-0.079331
-0.129948
-0.178128
-0.231143
-0.270700
-0.281057
-0.291149
-0.265999
-0.266592
-0.228163
-0.186889
-0.141946
-0.088837
-0.034887
0.005478
0.029802
0.031441
0.016858
0.002107
-0.030078
-0.070766
-0.115516
-0.189346
-0.226561
-0.277614
-0.283419
-0.287641
-0.287053
-0.268220
-0.235375
-0.205672
-0.131001
-0.091965
-0.046555
-0.004097
0.019206
0.018927
0.011583
-0.003007
-0.036672
-0.093322
-0.141848
-0.176038
-0.207545
-0.226760
-0.254982
-0.288276
-0.281860
-0.265219
-0.218197
-0.190248
-0.163477
-0.123886
-0.065853
-0.015826
0.019314
0.040329
0.038634
0.027378
0.012170
-0.005241
-0.037561
-0.055359
-0.079821
-0.101752
-0.124615
-0.127992
-0.095127
-0.055909
-0.009481
0.061426
0.151401
0.227415
0.307866
0.388740
0.434913
0.463471
0.488875
0.498673
0.489194
0.500932
0.503727
0.524776
0.494389
0.509369
0.519312
0.530053
0.531064
0.533896
0.582121
0.635972
0.651588
0.661639
0.680008
0.691521
0.672245
0.608187
0.543117
0.470668
0.354153
0.259030
0.184482
0.094487
0.013449
-0.062771
-0.102411
-0.106106
-0.085994
-0.072663
-0.063130
-0.025060
0.025856
0.057337
0.100627
0.112894
0.127723
0.133856
0.099227
0.079101
0.026205
-0.007184
-0.049193
-0.098574
-0.131562
-0.166713
-0.198736
-0.206897
-0.197000
-0.183326
-0.164575
-0.121192
-0.069995
-0.034900
0.010775
0.042829
0.069778
0.080569
0.054407
0.040575
0.006419
-0.041624
-0.091192
-0.138176
-0.182264
-0.217645
-0.245461
-0.257258
-0.249374
-0.228256
-0.188281
-0.150748
-0.084820
-0.054387
-0.019568
0.025741
0.068284
0.093609
0.067447
0.032096
-0.003036
-0.043952
-0.099054
-0.143844
-0.173484
-0.211928
-0.246199
-0.253318
-0.244870
-0.223387
-0.188590
-0.131322
-0.070069
-0.031007
0.005976
0.040156
0.054021
0.053938
0.060581
0.060449
0.049776
0.013729
-0.055335
-0.121432
-0.172138
-0.211293
-0.240980
-0.234359
-0.220661
-0.204147
-0.185428
-0.132448
-0.082050
-0.035259
0.002782
0.047948
0.063238
0.088801
0.091401
0.065076
0.024327
-0.032778
-0.061518
-0.091503
-0.117746
-0.158852
-0.188448
-0.197409
-0.202065
-0.199056
-0.136564
-0.069465
-0.060805
-0.028795
0.017984
0.058905
0.070379
0.110015
0.122161
0.102912
0.075035
0.042368
-0.000520
-0.060724
-0.104210
-0.142958
-0.172277
-0.170344
-0.147558
-0.125420
-0.109153
-0.072090
-0.025203
0.026015
0.080042
0.122833
0.145141
0.148953
0.146686
0.109274
0.083481
0.050006
0.007450
-0.035388
-0.082477
-0.110181
-0.128918
-0.124821
-0.132089
-0.112890
-0.078219
-0.045571
-0.001084
0.040322
0.079992
0.125935
0.145088
0.147959
0.150838
0.122887
0.081937
0.051748
0.006498
-0.032402
-0.082003
-0.125971
-0.141773
-0.144644
-0.137525
-0.118212
-0.084773
-0.037298
0.000475
0.048538
0.094708
0.125053
0.134610
0.144351
0.139127
0.123792
0.095342
0.043747
-0.002855
-0.060709
-0.110976
-0.135151
-0.154891
-0.159539
-0.159272
-0.138875
-0.102090
-0.058277
-0.018445
0.032694
0.071786
0.100734
0.126760
0.136451
0.124914
0.103903
0.074017
0.022777
-0.031877
-0.075275
-0.098982
-0.135895
-0.170880
-0.185111
-0.190109
-0.172809
-0.144115
-0.090069
-0.039954
0.003031
0.051144
0.090296
0.087243
0.114184
0.129185
0.086703
0.039294
-0.010909
-0.073463
-0.101504
-0.153863
-0.202100
-0.232627
-0.233552
-0.225814
-0.208928
-0.172600
-0.114656
-0.076392
-0.007479
0.026206
0.042511
0.067028
0.077094
0.056729
0.053444
0.026864
-0.015376
-0.061948
-0.118146
-0.165350
-0.205022
-0.240817
-0.248264
-0.236812
-0.215928
-0.192325
-0.140578
-0.092972
-0.047988
-0.003833
0.036292
0.058690
0.070880
0.061365
0.040067
0.008001
-0.029577
-0.072545
-0.127731
-0.168865
-0.208943
-0.240462
-0.237033
-0.226348
-0.214138
-0.177794
-0.123611
-0.089940
-0.057689
0.000309
0.026734
0.047430
0.077007
0.066879
0.021315
0.009581
-0.020472
-0.069723
-0.119448
-0.160984
-0.184886
-0.202753
-0.218273
-0.210153
-0.195801
-0.172110
-0.140090
-0.072407
-0.031581
0.006611
0.037157
0.059960
0.056413
0.052186
0.010978
-0.011079
-0.043106
-0.081605
-0.108607
-0.159655
-0.191147
-0.215175
-0.219174
-0.214639
-0.195497
-0.166454
-0.133002
-0.085907
-0.033495
0.006611
0.041589
0.060283
0.065388
0.062914
0.047340
0.021252
-0.019844
-0.074229
-0.123296
-0.171633
-0.196544
-0.207494
-0.235528
-0.226910
-0.195146
-0.157942
-0.128752
-0.080720
-0.025963
0.014523
0.040079
0.057271
0.058359
0.051534
0.042960
0.010904
-0.034589
-0.089667
-0.131519
-0.161405
-0.217168
-0.228734
-0.238339
-0.240435
-0.226316
-0.178344
-0.152717
-0.106047
-0.045246
0.007894
0.052111
0.072849
0.074169
0.064601
0.031117
0.007752
-0.025653
-0.097996
-0.134677
-0.191818
-0.234514
-0.252183
-0.247514
-0.224179
-0.217935
-0.203739
-0.186207
-0.115203
-0.069973
-0.007783
0.047182
0.064677
0.070289
0.051263
0.053304
0.008004
-0.061463
-0.106285
-0.158928
-0.192311
-0.210504
-0.240605
-0.260786
-0.258528
-0.226744
-0.176727
-0.148237
-0.107676
-0.045947
-0.017461
0.021320
0.041365
0.050908
0.067670
0.054014
0.008888
-0.045844
-0.092745
-0.141100
-0.191230
-0.254217
-0.266217
-0.260296
-0.277970
-0.251153
-0.198912
-0.166626
-0.116882
-0.067192
-0.030133
0.019832
0.042748
0.054658
0.057071
0.034515
0.000591
-0.037581
-0.086048
-0.165324
-0.214853
-0.242542
-0.267771
-0.285017
-0.292376
-0.254413
-0.196784
-0.150713
-0.084004
-0.048532
-0.013270
0.026866
0.050392
0.055700
0.057922
0.036695
0.006746
-0.036850
-0.071966
-0.120438
-0.160710
-0.202278
-0.218559
-0.240275
-0.238023
-0.230855
-0.200323
-0.157627
-0.102840
-0.024543
0.024683
0.025739
0.076136
0.096186
0.089331
0.065799
0.033613
-0.008992
-0.067874
-0.126309
-0.165840
-0.181095
-0.194812
-0.216369
-0.214969
-0.202071
-0.173990
-0.125019
-0.072699
-0.037283
0.001564
0.050001
0.059513
0.081690
0.081022
0.085972
0.052967
0.010988
-0.034242
-0.083522
-0.137098
-0.166288
-0.187509
-0.184825
-0.179852
-0.154477
-0.125426
-0.097514
-0.061286
-0.008825
0.016658
0.053627
0.067775
0.069828
0.067141
0.043807
0.015054
-0.033724
-0.076336
-0.113312
-0.165517
-0.213571
-0.218883
-0.230028
-0.227698
-0.240245
-0.206641
-0.143381
-0.094544
-0.056558
-0.003371
0.017025
0.019364
0.026968
0.023761
0.012745
-0.035256
-0.091481
-0.123146
-0.165439
-0.211902
-0.263865
-0.267270
-0.282478
-0.281161
-0.261869
-0.218362
-0.180937
-0.128307
-0.069555
-0.035413
0.004223
0.021282
0.028464
0.023535
-0.002054
-0.051434
-0.092569
-0.134355
-0.172008
-0.217345
-0.246480
-0.277608
-0.282292
-0.272594
-0.255758
-0.235326
-0.191180
-0.131600
-0.094191
-0.050667
-0.013850
0.004063
0.010896
0.004491
0.006522
-0.035399
-0.084176
-0.107480
-0.162097
-0.203619
-0.253044
-0.287501
-0.296700
-0.298172
-0.271162
-0.218497
-0.199362
-0.145782
-0.078034
-0.030658
-0.001827
0.012251
0.024301
0.025010
0.006361
-0.025700
-0.102653
-0.163070
-0.186348
-0.224426
-0.260563
-0.275185
-0.279462
-0.291590
-0.281818
-0.244854
-0.204304
-0.160509
-0.106947
-0.071509
-0.028397
0.010609
0.021180
0.022590
-0.001723
-0.021002
-0.040388
-0.084748
-0.134485
-0.154662
-0.178897
-0.196110
-0.190148
-0.161911
-0.129709
-0.097794
-0.043204
0.023175
0.081432
0.143284
0.209209
0.275489
0.321488
0.351509
0.366986
0.375941
0.366051
0.327737
0.319106
0.308517
0.305670
0.317359
0.347385
0.394013
0.466034
0.520552
0.586846
0.662393
0.708086
0.755091
0.793549
0.801340
0.793590
0.770628
0.723464
0.651524
0.554278
0.425643
0.333502
0.232635
0.140605
0.055385
-0.015122
-0.048510
-0.037745
-0.010068
0.015887
0.055113
0.093413
0.129955
0.167029
0.165016
0.156722
0.145135
0.109974
0.080086
0.045625
-0.006693
-0.049031
-0.101719
-0.136934
-0.170019
-0.195221
-0.207115
-0.209094
-0.160506
-0.114487
-0.059584
-0.009113
0.018335
0.041509
0.067966
0.075239
0.074040
0.050357
0.016507
-0.020836
-0.070108
-0.137679
-0.177202
-0.214761
-0.244685
-0.237259
-0.223187
-0.212359
-0.177660
-0.145107
-0.096793
-0.054461
-0.015187
0.033856
0.065375
0.091845
0.069791
0.025209
-0.000194
-0.040339
-0.076593
-0.127400
-0.177315
-0.216554
-0.249711
-0.263198
-0.242836
-0.206754
-0.160649
-0.119016
-0.074833
-0.060111
-0.021970
0.045152
0.073255
0.077417
0.072094
0.042489
0.022863
-0.022802
-0.076138
-0.122200
-0.159146
-0.193966
-0.226602
-0.240748
-0.226660
-0.203549
-0.167379
-0.114057
-0.070054
-0.019590
0.031377
0.053323
0.082249
0.112154
0.102618
0.071127
0.029374
-0.019884
-0.049656
-0.110254
-0.137451
-0.179921
-0.202612
-0.218833
-0.208626
-0.180347
-0.147878
-0.079317
-0.052552
-0.003344
0.043294
0.070345
0.096687
0.118571
0.114823
0.098191
0.068900
0.023112
-0.032781
-0.070085
-0.104007
-0.145279
-0.159884
-0.166190
-0.152153
-0.135513
-0.115405
-0.090720
-0.029146
0.002479
0.049826
0.091598
0.147166
0.163311
0.161750
0.132315
0.093426
0.062899
0.013738
-0.028772
-0.065086
-0.112566
-0.135056
-0.133169
-0.130350
-0.117121
-0.084884
-0.035080
0.016655
0.055307
0.104566
0.136035
0.143458
0.169253
0.160308
0.155811
0.118708
0.078545
0.026555
-0.010604
-0.072747
-0.110531
-0.128990
-0.134164
-0.130544
-0.122073
-0.085323
-0.032327
0.004253
0.038848
0.077709
0.119450
0.157765
0.170658
0.163028
0.132871
0.088664
0.055216
0.013972
-0.029028
-0.070194
-0.117105
-0.131917
-0.158682
-0.138223
-0.109756
-0.081333
-0.052984
-0.002600
0.033059
0.066671
0.105607
0.129837
0.154271
0.153972
0.122148
0.096110
0.042228
-0.002671
-0.049899
-0.101549
-0.140693
-0.148657
-0.149107
-0.179110
-0.139218
-0.097046
-0.064364
-0.035691
0.006959
0.049213
0.083756
0.105384
0.117479
0.098722
0.091173
0.054495
-0.008490
-0.042763
-0.100908
-0.140996
-0.167017
-0.187235
-0.208351
-0.201107
-0.181282
-0.149094
-0.103160
-0.060579
-0.014528
0.025640
0.076494
0.094087
0.097838
0.090369
0.073674
0.020339
-0.031718
-0.058869
-0.113346
-0.155944
-0.193643
-0.226703
-0.229721
-0.213775
-0.185331
-0.164422
-0.115328
-0.072386
-0.039632
0.020683
0.049014
0.066669
0.097945
0.085574
0.048338
0.007815
-0.029547
-0.086910
-0.141317
-0.173390
-0.208209
-0.215748
-0.238714
-0.216594
-0.200330
-0.166176
-0.125665
-0.065838
-0.014531
0.020178
0.051472
0.053137
0.070704
0.045335
0.035224
0.018180
-0.008034
-0.060485
-0.108513
-0.148789
-0.196112
-0.202383
-0.221382
-0.226666
-0.209489
-0.170299
-0.137484
-0.093596
-0.019570
0.038777
0.056940
0.076212
0.080901
0.079800
0.050594
0.035967
-0.012842
-0.062758
-0.110954
-0.149985
-0.197833
-0.224299
-0.224145
-0.229288
-0.187843
-0.148867
-0.124304
-0.067122
-0.031517
0.021208
0.044847
0.070302
0.088043
0.082420
0.073646
0.041179
0.002960
-0.066178
-0.114029
-0.153188
-0.194234
-0.201281
-0.202425
-0.199201
-0.181322
-0.156269
-0.116009
-0.074287
-0.036923
0.003415
0.040496
0.077580
0.077739
0.077673
0.049510
0.017027
-0.023483
-0.070257
-0.123556
-0.167061
-0.190384
-0.215748
-0.221352
-0.216731
-0.189617
-0.162717
-0.116789
-0.083281
-0.024500
0.014905
0.044132
0.049702
0.053132
0.061905
0.041744
0.002902
-0.035950
-0.094634
-0.126095
-0.153360
-0.180216
-0.214283
-0.235072
-0.219566
-0.190674
-0.166474
-0.143786
-0.085766
-0.037399
0.014693
0.041564
0.061335
0.067637
0.053246
0.046672
0.006159
-0.037854
-0.094199
-0.148673
-0.197195
-0.224548
-0.242169
-0.241382
-0.226304
-0.217677
-0.182327
-0.136893
-0.076007
-0.026276
0.006888
0.048518
0.069745
0.076186
0.050059
0.022330
0.005054
-0.033748
-0.087708
-0.140391
-0.193666
-0.222196
-0.235335
-0.256840
-0.261324
-0.235547
-0.198867
-0.139470
-0.097077
-0.031710
0.010420
0.043398
0.040314
0.060078
0.056098
0.015682
-0.005059
-0.036958
-0.070124
-0.130977
-0.165591
-0.231634
-0.274978
-0.265599
-0.247195
-0.241660
-0.207432
-0.164300
-0.099450
-0.044813
0.006266
0.038894
0.070245
0.072308
0.063362
0.037653
-0.009624
-0.032080
-0.070411
-0.113541
-0.155668
-0.217481
-0.230504
-0.240281
-0.245052
-0.211448
-0.177251
-0.128711
-0.083900
-0.052576
-0.000402
0.052589
0.083489
0.097179
0.093948
0.059253
0.034448
0.007348
-0.055045
-0.097870
-0.142440
-0.170971
-0.197674
-0.226765
-0.232802
-0.193106
-0.148460
-0.112981
-0.070790
-0.026186
0.026652
0.055021
0.078812
0.076446
0.084801
0.083075
0.038648
0.001919
-0.043339
-0.080727
-0.119343
-0.159922
-0.177913
-0.186944
-0.181523
-0.163391
-0.130252
-0.081734
-0.046159
0.000406
0.040820
0.077884
0.098606
0.101433
0.093474
0.071174
0.032611
-0.008987
-0.076099
-0.129317
-0.160604
-0.210469
-0.220813
-0.212669
-0.222313
-0.191973
-0.158516
-0.124413
-0.076877
-0.040699
-0.007206
0.038186
0.057299
0.057129
0.043529
0.024880
-0.018360
-0.057922
-0.101197
-0.140989
-0.186567
-0.239773
-0.266015
-0.268400
-0.255995
-0.255133
-0.223033
-0.176386
-0.121428
-0.065913
-0.012771
0.017220
0.032519
-0.002412
0.016627
0.001499
-0.028580
-0.062971
-0.107798
-0.170203
-0.209145
-0.253982
-0.281403
-0.287099
-0.259936
-0.238624
-0.222230
-0.196062
-0.132642
-0.065100
-0.034987
-0.006292
0.014098
0.024017
0.015055
-0.006211
-0.047351
-0.097789
-0.152246
-0.179183
-0.208879
-0.238766
-0.276023
-0.296934
-0.272463
-0.244739
-0.210484
-0.170871
-0.120237
-0.069942
-0.024453
-0.010560
0.012711
0.020769
0.025693
0.011034
-0.036597
-0.095105
-0.135210
-0.161265
-0.199325
-0.236522
-0.287754
-0.307411
-0.292197
-0.239238
-0.224491
-0.194324
-0.115020
-0.069990
-0.041587
-0.017627
0.010544
0.024883
0.002892
-0.026900
-0.046829
-0.081651
-0.122907
-0.167053
-0.194923
-0.212396
-0.230273
-0.231354
-0.198379
-0.172139
-0.147262
-0.091107
-0.026563
0.025094
0.081057
0.140931
0.187601
0.198009
0.231234
0.236150
0.238434
0.223523
0.222115
0.196409
0.196710
0.193509
0.218379
0.243556
0.258054
0.303704
0.388531
0.474170
0.561876
0.635663
0.705532
0.771486
0.825864
0.833955
0.822020
0.811657
0.757699
0.688718
0.622034
0.558709
0.474820
0.363522
0.263031
0.199510
0.150046
0.129343
0.134283
0.123810
0.109806
0.135339
0.163508
0.181057
0.206578
0.219640
0.203624
0.162897
0.121451
0.068782
0.005578
-0.042308
-0.110826
-0.156847
-0.173592
-0.169972
-0.162850
-0.147230
-0.128751
-0.108072
-0.050791
0.001382
0.044184
0.073546
0.084389
0.081060
0.076044
0.047716
0.027001
-0.018377
-0.076690
-0.131296
-0.172081
-0.200415
-0.232718
-0.237485
-0.209134
-0.191204
-0.161793
-0.134870
-0.064213
-0.014690
0.028801
0.065020
0.084347
0.063024
0.048648
0.042424
0.014927
-0.035535
-0.095016
-0.148724
-0.190036
-0.213619
-0.242855
-0.223958
-0.232959
-0.222023
-0.185773
-0.134680
-0.080900
-0.044079
-0.002973
0.036465
0.042735
0.076091
0.091612
0.074066
0.020525
-0.015293
-0.068456
-0.121652
-0.154861
-0.188705
-0.216919
-0.237144
-0.232342
-0.215744
-0.166802
-0.119653
-0.070266
-0.033455
0.011329
0.050865
0.069629
0.068192
0.096200
0.084066
0.042236
0.012851
-0.033592
-0.091886
-0.140419
-0.181174
-0.205485
-0.220224
-0.217759
-0.181278
-0.148552
-0.112968
-0.061821
-0.006422
0.049699
0.093899
0.111194
0.114655
0.096530
0.073007
0.054639
0.011114
-0.028244
-0.064028
-0.097907
-0.129774
-0.157863
-0.149751
-0.152638
-0.163237
-0.131346
-0.072219
-0.021526
0.033974
0.088506
0.118242
0.130767
0.130460
0.130492
0.123231
0.075301
0.049358
0.008308
-0.044065
-0.077143
-0.112796
-0.137625
-0.135007
-0.131071
-0.118720
-0.097698
-0.070044
0.002622
0.060868
0.114108
0.140951
0.154040
0.160742
0.153475
0.153560
0.107318
0.057826
0.019379
-0.032061
-0.068331
-0.113148
-0.127749
-0.135812
-0.140956
-0.096301
-0.067929
-0.033121
0.024378
0.059310
0.103196
0.141756
0.157482
0.166782
0.151384
0.124479
0.083650
0.045140
-0.007965
-0.048701
-0.077883
-0.120003
-0.117326
-0.160476
-0.165301
-0.121449
-0.097415
-0.060253
0.000348
0.063329
0.083277
0.105897
0.130819
0.144008
0.163483
0.141162
0.094145
0.047571
-0.022539
-0.084083
-0.122032
-0.171771
-0.161832
-0.165405
-0.155591
-0.157587
-0.140225
-0.072947
-0.020732
0.029543
0.062036
0.101083
0.133221
0.146223
0.137724
0.105923
0.068052
0.026100
-0.025138
-0.073457
-0.119863
-0.169249
-0.205611
-0.215488
-0.198612
-0.175687
-0.135245
-0.107381
-0.058141
-0.008389
0.036961
0.072655
0.096023
0.101104
0.089240
0.063168
0.038543
0.003955
-0.053041
-0.110772
-0.148259
-0.177366
-0.198029
-0.207303
-0.225404
-0.221564
-0.178503
-0.136403
-0.091796
-0.043561
-0.001439
0.032763
0.063184
0.071450
0.070563
0.056951
0.028538
-0.007369
-0.066893
-0.113631
-0.158529
-0.194154
-0.223979
-0.222642
-0.222919
-0.206769
-0.184527
-0.134323
-0.084381
-0.032210
0.012839
0.051113
0.073158
0.079013
0.076979
0.062211
0.020042
-0.023512
-0.071092
-0.111763
-0.165756
-0.232862
-0.231104
-0.237538
-0.232582
-0.224745
-0.199873
-0.132095
-0.063106
-0.027813
0.028687
0.053362
0.072746
0.083599
0.079860
0.074415
0.044097
-0.011218
-0.062114
-0.102337
-0.144622
-0.184702
-0.217470
-0.219430
-0.206928
-0.176846
-0.151681
-0.121309
-0.073364
-0.034119
0.000506
0.041126
0.078019
0.084694
0.069887
0.051803
0.026048
-0.008340
-0.059708
-0.118142
-0.155413
-0.181909
-0.201176
-0.208032
-0.207446
-0.177214
-0.142747
-0.115844
-0.069927
-0.028286
0.010903
0.048361
0.084629
0.083975
0.077988
0.051828
0.004780
-0.037774
-0.067249
-0.101616
-0.154033
-0.198710
-0.216449
-0.228983
-0.221957
-0.206516
-0.170441
-0.121005
-0.070282
-0.016264
0.022502
0.069640
0.081695
0.072499
0.076313
0.064573
0.019359
-0.030921
-0.081165
-0.128986
-0.174842
-0.214588
-0.246388
-0.259914
-0.247991
-0.211320
-0.163378
-0.115217
-0.082500
-0.036773
0.002659
0.036495
0.069710
0.071172
0.066782
0.057014
0.017494
-0.022468
-0.078137
-0.132958
-0.182390
-0.224437
-0.226452
-0.232577
-0.235360
-0.217915
-0.178143
-0.146725
-0.098501
-0.041972
0.000801
0.033228
0.066104
0.075862
0.075241
0.066052
0.019919
-0.040053
-0.085999
-0.140898
-0.178457
-0.205081
-0.228096
-0.258692
-0.252305
-0.225340
-0.189650
-0.159953
-0.125227
-0.060554
-0.017877
0.029296
0.052952
0.065815
0.068440
0.050810
0.016468
-0.030133
-0.083507
-0.122162
-0.157933
-0.222372
-0.237277
-0.241430
-0.233608
-0.222407
-0.209291
-0.186753
-0.111889
-0.075707
-0.024952
0.027902
0.061182
0.076035
0.058696
0.038602
0.001240
-0.028811
-0.084119
-0.132802
-0.166215
-0.183943
-0.199235
-0.217556
-0.220724
-0.198229
-0.161535
-0.121172
-0.073459
-0.024714
0.010941
0.047310
0.071018
0.089558
0.089255
0.069471
0.045024
-0.009341
-0.070714
-0.114511
-0.151218
-0.156769
-0.191121
-0.185643
-0.188785
-0.178678
-0.144180
-0.121209
-0.082502
-0.043114
0.013821
0.064955
0.087186
0.085246
0.093779
0.079585
0.053055
0.023669
-0.029217
-0.076500
-0.127046
-0.163434
-0.180094
-0.182419
-0.184067
-0.161541
-0.147928
-0.092046
-0.051590
-0.000975
0.044070
0.073679
0.085581
0.080190
0.073460
0.050769
0.008396
-0.036555
-0.079550
-0.116015
-0.154783
-0.193038
-0.214087
-0.228132
-0.247042
-0.205032
-0.147143
-0.131008
-0.104777
-0.043366
-0.005941
0.030567
0.070018
0.076656
0.068591
0.022717
-0.033073
-0.071226
-0.114767
-0.159723
-0.200556
-0.235338
-0.271619
-0.286116
-0.283730
-0.253692
-0.209753
-0.162588
-0.105028
-0.064252
-0.018921
0.014377
0.030792
0.024596
0.028687
0.006926
-0.035853
-0.060385
-0.102964
-0.150215
-0.204578
-0.252372
-0.285535
-0.274393
-0.252761
-0.231671
-0.227942
-0.201636
-0.143711
-0.080632
-0.034339
0.001931
0.030354
0.032123
0.010991
-0.010819
-0.009998
-0.061603
-0.119238
-0.168577
-0.201500
-0.237919
-0.271687
-0.282650
-0.293973
-0.266737
-0.227965
-0.187123
-0.132619
-0.070560
-0.040826
0.000522
0.040556
0.036334
0.021643
0.001095
-0.018394
-0.056754
-0.112497
-0.180825
-0.206522
-0.242351
-0.275976
-0.299605
-0.301928
-0.252549
-0.224357
-0.173674
-0.131386
-0.087123
-0.063167
-0.043092
-0.009124
0.029237
0.033874
0.013413
-0.020145
-0.043751
-0.077746
-0.110626
-0.155312
-0.190605
-0.200728
-0.168983
-0.136108
-0.091299
-0.049232
0.000543
0.049898
0.103129
0.176111
0.252285
0.307843
0.334402
0.364988
0.384539
0.381703
0.364325
0.354864
0.343489
0.319308
0.313316
0.321748
0.359441
0.433701
0.491179
0.549427
0.617202
0.668317
0.735865
0.776449
0.807506
0.811859
0.779841
0.766752
0.716634
0.640096
0.552102
0.428230
0.322390
0.220029
0.146945
0.080697
0.013451
-0.022556
-0.031181
-0.009152
0.018216
0.072214
0.126033
0.154739
0.162349
0.171797
0.168793
0.156571
0.122930
0.087648
0.046710
-0.020814
-0.066918
-0.081584
-0.150280
-0.175131
-0.180906
-0.180521
-0.188257
-0.148798
-0.092163
-0.041034
0.012982
0.024960
0.059272
0.090422
0.091597
0.081599
0.055388
0.007149
-0.034173
-0.069002
-0.112701
-0.158788
-0.204010
-0.232341
-0.245963
-0.264185
-0.225265
-0.179152
-0.144036
-0.103393
-0.017797
0.026663
0.051945
0.070179
0.071636
0.077762
0.054026
0.029318
-0.016831
-0.081498
-0.130647
-0.165536
-0.211361
-0.225603
-0.225927
-0.223783
-0.206955
-0.177762
-0.127640
-0.076663
-0.015468
0.009888
0.032311
0.052955
0.062325
0.070491
0.038320
0.020627
-0.021096
-0.069599
-0.120565
-0.156229
-0.181316
-0.209207
-0.223628
-0.223062
-0.200316
-0.159645
-0.115491
-0.070594
-0.015945
0.023109
0.055956
0.096881
0.094275
0.090959
0.082299
0.050087
-0.006173
-0.051543
-0.085315
-0.114377
-0.140649
-0.172294
-0.197883
-0.219806
-0.189656
-0.145371
-0.097180
-0.039337
0.018726
0.054388
0.077546
0.112062
0.133570
0.135677
0.116964
0.069249
0.024679
-0.014168
-0.060040
-0.099466
-0.140073
-0.166580
-0.180581
-0.161210
-0.133904
-0.102968
-0.053852
-0.016808
0.032465
0.084338
0.107957
0.142742
0.153495
0.144739
0.127256
0.104870
0.071215
0.029758
-0.018504
-0.061098
-0.096208
-0.117088
-0.131461
-0.127924
-0.115749
-0.091374
-0.041565
0.011870
0.072701
0.125575
0.142402
0.146947
0.161223
0.170014
0.138061
0.114778
0.067705
0.014260
-0.043237
-0.070998
-0.086824
-0.119277
-0.124903
-0.112626
-0.107065
-0.088578
-0.045438
0.000664
0.042768
0.090555
0.139320
0.162186
0.172574
0.164583
0.144145
0.099376
0.045916
0.019655
-0.028656
-0.085565
-0.108590
-0.136430
-0.136403
-0.131558
-0.110328
-0.089399
-0.042903
0.003333
0.039435
0.080641
0.121634
0.125446
0.123863
0.133581
0.123331
0.073599
0.028171
-0.016400
-0.045065
-0.083323
-0.123630
-0.151283
-0.163721
-0.169899
-0.146757
-0.113037
-0.067163
-0.015656
0.028550
0.072650
0.102170
0.122521
0.114476
0.112015
0.096884
0.061321
0.011377
-0.042053
-0.098971
-0.118875
-0.145283
-0.193498
-0.203170
-0.198088
-0.179809
-0.154867
-0.116576
-0.049578
-0.003854
0.033894
0.066544
0.085531
0.093994
0.100182
0.073008
0.036589
-0.016206
-0.073387
-0.118049
-0.151906
-0.181185
-0.203066
-0.216142
-0.210230
-0.192778
-0.162504
-0.120096
-0.069386
-0.025495
0.023556
0.069619
0.090721
0.095962
0.085051
0.070020
0.023806
-0.020627
-0.079119
-0.125777
-0.163303
-0.195339
-0.192881
-0.201106
-0.226250
-0.197632
-0.150554
-0.102987
-0.061424
-0.010391
0.030526
0.055905
0.079060
0.081358
0.071125
0.046866
0.025700
-0.027630
-0.062453
-0.114027
-0.158375
-0.164313
-0.194833
-0.215479
-0.211520
-0.194378
-0.198491
-0.122032
-0.041446
0.004312
0.033494
0.058570
0.080800
0.088494
0.092848
0.077051
0.048038
0.008229
-0.045651
-0.098179
-0.133623
-0.172424
-0.194760
-0.203567
-0.189942
-0.186568
-0.182219
-0.144301
-0.085325
-0.023773
0.028879
0.062468
0.077720
0.096347
0.107085
0.091855
0.054430
0.006427
-0.050968
-0.101329
-0.147649
-0.184194
-0.198426
-0.211656
-0.214722
-0.180241
-0.138806
-0.103126
-0.060748
-0.026204
0.024118
0.060841
0.086401
0.079503
0.084966
0.074983
0.043915
0.012060
-0.043318
-0.109526
-0.154202
-0.173217
-0.190138
-0.203500
-0.200854
-0.183292
-0.152010
-0.122401
-0.082042
-0.035308
-0.007631
0.046416
0.063928
0.075867
0.084195
0.075713
0.030460
-0.021969
-0.062569
-0.116285
-0.151633
-0.178668
-0.194290
-0.206050
-0.210531
-0.190347
-0.160282
-0.123244
-0.067894
-0.017096
0.015024
0.051504
0.059824
0.055514
0.086940
0.056978
0.016367
-0.026144
-0.075182
-0.122284
-0.144533
-0.187731
-0.217123
-0.223919
-0.226201
-0.207552
-0.168137
-0.139968
-0.074514
-0.027915
-0.005835
0.029885
0.067331
0.078221
0.055560
0.024885
-0.005641
-0.024347
-0.066943
-0.118411
-0.162514
-0.193109
-0.219990
-0.244259
-0.240270
-0.186943
-0.155562
-0.112269
-0.069438
-0.025237
-0.000270
0.015388
0.053847
0.055592
0.068299
0.024758
-0.012450
-0.042639
-0.087868
-0.140128
-0.167535
-0.208378
-0.231924
-0.218833
-0.214072
-0.212366
-0.173883
-0.125894
-0.074365
-0.009208
0.021717
0.054682
0.078233
0.082282
0.075004
0.067066
0.026205
-0.014963
-0.074925
-0.094485
-0.150148
-0.180610
-0.193946
-0.199699
-0.218092
-0.184003
-0.145243
-0.087079
-0.049621
0.006396
0.039853
0.068819
0.090503
0.125953
0.115950
0.096540
0.054012
0.004911
-0.045917
-0.101371
-0.149255
-0.177386
-0.199945
-0.199219
-0.201688
-0.180261
-0.140905
-0.098045
-0.047045
0.014095
0.060096
0.087024
0.122196
0.125170
0.125633
0.097367
0.082708
0.039004
-0.006383
-0.043741
-0.097429
-0.135293
-0.157067
-0.190239
-0.202541
-0.178379
-0.155260
-0.120383
-0.062090
-0.010176
0.021015
0.053032
0.088952
0.090884
0.099018
0.078728
0.044216
-0.001608
-0.055412
-0.115275
-0.159909
-0.177649
-0.202206
-0.225062
-0.230848
-0.223286
-0.197664
-0.166994
-0.075804
-0.025322
-0.005828
0.019788
0.032022
0.055743
0.064760
0.035522
-0.003980
-0.044271
-0.079821
-0.132862
-0.199287
-0.223532
-0.249665
-0.257767
-0.253200
-0.228680
-0.214680
-0.173656
-0.122350
-0.064796
-0.025919
-0.002765
0.021242
0.037661
0.041212
0.043532
0.008606
-0.039836
-0.095099
-0.161061
-0.205939
-0.234652
-0.246752
-0.240038
-0.245967
-0.234358
-0.215942
-0.163796
-0.113256
-0.068574
-0.018736
0.017755
0.037444
0.045355
0.035952
-0.005151
-0.017480
-0.062135
-0.105354
-0.147026
-0.184389
-0.223316
-0.258657
-0.262689
-0.263928
-0.247132
-0.206227
-0.159062
-0.115500
-0.072186
-0.018261
0.017974
0.042497
0.049564
0.040845
0.009461
-0.045142
-0.087323
-0.128139
-0.176985
-0.209482
-0.240138
-0.275977
-0.257968
-0.264259
-0.229828
-0.194840
-0.153250
-0.103653
-0.064140
-0.014419
0.019830
0.050773
0.073335
0.087821
0.083615
0.080806
0.047368
0.028367
-0.020328
-0.059649
-0.074919
-0.076042
-0.057357
-0.041754
0.012309
0.082337
0.166427
0.251020
0.329111
0.391666
0.456573
0.473821
0.507828
0.561354
0.571680
0.561932
0.584123
0.574844
0.547925
0.538161
0.543617
0.553311
0.553111
0.546702
0.582075
0.610045
0.627059
0.633349
0.683351
0.692986
0.669906
0.616489
0.555615
0.498944
0.422855
0.342954
0.236940
0.147846
0.072113
0.004275
-0.056234
-0.076521
-0.076424
-0.087624
-0.067296
-0.028011
-0.004330
0.027930
0.061240
0.097649
0.130864
0.153229
0.160905
0.159621
0.127475
0.079897
0.025002
-0.027172
-0.068332
-0.120967
-0.167127
-0.197602
-0.198846
-0.188676
-0.179667
-0.151380
-0.107932
-0.057672
-0.004340
0.031804
0.062492
0.088193
0.086590
0.076731
0.060508
0.035389
-0.005968
-0.056642
-0.114276
-0.156687
-0.182744
-0.213921
-0.221485
-0.220905
-0.193828
-0.167811
-0.129667
-0.086346
-0.024529
0.006325
0.042451
0.075453
0.096584
0.092829
0.054442
0.018384
-0.012268
-0.068745
-0.125207
-0.150239
-0.174604
-0.206514
-0.213442
-0.217536
-0.199971
-0.173299
-0.138405
-0.075272
-0.016370
0.013887
0.064120
0.091383
0.096823
0.109428
0.083784
0.047834
0.003778
-0.051500
-0.093153
-0.130802
-0.164277
-0.183916
-0.188247
-0.178397
-0.168631
-0.149252
-0.099645
-0.046091
-0.007629
0.037536
0.060715
0.094140
0.100665
0.096288
0.084302
0.062933
0.013189
-0.027317
-0.052352
-0.106588
-0.145396
-0.163960
-0.162615
-0.158820
-0.131183
-0.094571
-0.050222
-0.031693
0.004291
0.023069
0.054917
0.109013
0.140224
0.141655
0.121219
0.081695
0.044297
0.005640
-0.029326
-0.082220
-0.108025
-0.131603
-0.130561
-0.128092
-0.110213
-0.084440
-0.028576
0.017797
0.063780
0.102829
0.131134
0.152228
0.158573
0.157993
0.142896
0.119892
0.068204
0.018922
-0.032412
-0.076822
-0.112075
-0.112408
-0.104669
-0.134411
-0.126771
-0.061108
-0.009655
0.034726
0.064572
0.104642
0.140910
0.154629
0.187666
0.180265
0.145683
0.125180
0.085025
0.042455
-0.010159
-0.052133
-0.086790
-0.111349
-0.129365
-0.116485
-0.097586
-0.073969
-0.014428
0.019819
0.067892
0.120178
0.156875
0.174306
0.183150
0.171195
0.139215
0.110764
0.072588
0.021404
-0.032320
-0.077205
-0.102353
-0.139557
-0.159186
-0.139053
-0.104946
-0.068874
-0.030734
-0.004891
0.034145
0.094749
0.134971
0.154771
0.153999
0.134824
0.107799
0.062467
0.043628
-0.002361
-0.041485
-0.096920
-0.127555
-0.163591
-0.184898
-0.196900
-0.159225
-0.115088
-0.067239
-0.016547
0.048665
0.069060
0.088817
0.110085
0.125095
0.138066
0.097673
0.042260
0.012445
-0.018975
-0.092384
-0.127721
-0.151250
-0.193464
-0.202645
-0.214219
-0.194497
-0.142492
-0.087426
-0.048663
-0.002335
0.035480
0.071042
0.095531
0.118291
0.104461
0.078418
0.044593
0.006977
-0.051247
-0.106554
-0.151528
-0.186976
-0.215038
-0.223997
-0.219936
-0.193971
-0.147402
-0.110642
-0.056727
-0.023012
0.016729
0.052056
0.078328
0.095622
0.096607
0.082026
0.047900
0.007135
-0.033712
-0.092329
-0.130186
-0.170893
-0.200768
-0.222969
-0.212256
-0.169190
-0.155780
-0.119574
-0.080675
-0.012186
0.026569
0.077542
0.100955
0.085560
0.067656
0.044977
0.024866
0.008073
-0.037302
-0.087725
-0.136760
-0.171709
-0.194308
-0.200124
-0.194990
-0.178267
-0.147366
-0.086832
-0.045964
-0.003625
0.041622
0.065262
0.075618
0.099644
0.109941
0.076909
0.040997
-0.002669
-0.043278
-0.088719
-0.135645
-0.149389
-0.178000
-0.200018
-0.188115
-0.166013
-0.131500
-0.086783
-0.044824
-0.018081
0.030185
0.045916
0.065488
0.095261
0.107845
0.083212
0.038681
-0.000527
-0.059910
-0.102744
-0.149339
-0.168035
-0.192918
-0.205434
-0.205805
-0.184794
-0.140434
-0.092063
-0.063039
-0.019260
0.015896
0.066500
0.088380
0.100811
0.111712
0.081262
0.049910
0.008103
-0.051355
-0.105200
-0.143766
-0.177970
-0.212042
-0.209162
-0.203484
-0.186680
-0.154488
-0.104252
-0.058379
-0.012454
0.031713
0.054294
0.078613
0.083268
0.084036
0.060402
0.032200
-0.004461
-0.048993
-0.110856
-0.162053
-0.191660
-0.224753
-0.226367
-0.194729
-0.194313
-0.162843
-0.118187
-0.065573
0.003411
0.034727
0.060317
0.091517
0.097966
0.077199
0.052373
0.030382
-0.015005
-0.057660
-0.101890
-0.148595
-0.183628
-0.228860
-0.239392
-0.226370
-0.228511
-0.203161
-0.136631
-0.077384
-0.024660
0.025451
0.069869
0.088881
0.075291
0.066318
0.054352
0.032128
0.000376
-0.046955
-0.100474
-0.155230
-0.196691
-0.212579
-0.228323
-0.225037
-0.192059
-0.154387
-0.131754
-0.084272
-0.034337
0.009030
0.028810
0.047799
0.072412
0.081550
0.058407
0.023060
-0.041761
-0.081500
-0.122612
-0.149108
-0.189755
-0.211192
-0.223897
-0.226785
-0.187670
-0.147213
-0.121334
-0.090300
-0.038411
0.019016
0.062133
0.078274
0.093383
0.068673
0.045763
0.028649
0.001653
-0.049114
-0.094430
-0.135055
-0.161674
-0.189016
-0.204071
-0.207298
-0.183619
-0.127643
-0.090572
-0.045743
0.014714
0.039333
0.079577
0.102765
0.117283
0.108517
0.087752
0.067811
0.023876
-0.027326
-0.086043
-0.140143
-0.161622
-0.181458
-0.179454
-0.168467
-0.155294
-0.119408
-0.082156
-0.033342
0.008708
0.042622
0.087431
0.109043
0.125994
0.122853
0.098958
0.080549
0.041694
-0.005732
-0.058195
-0.109775
-0.150948
-0.174344
-0.178750
-0.181092
-0.157596
-0.128303
-0.092370
-0.077437
-0.020725
0.033833
0.075069
0.099417
0.105597
0.102041
0.070470
0.022516
-0.029036
-0.070331
-0.132243
-0.171847
-0.189008
-0.212456
-0.221468
-0.226219
-0.200690
-0.161475
-0.125378
-0.087373
-0.043597
0.007487
0.046773
0.068693
0.059698
0.054983
0.030735
-0.003799
-0.038109
-0.073807
-0.126358
-0.182833
-0.219592
-0.260169
-0.280699
-0.278540
-0.240723
-0.201489
-0.166344
-0.128783
-0.075783
-0.017170
0.023111
0.046909
0.055408
0.054995
0.028223
-0.010225
-0.050107
-0.101302
-0.152913
-0.206458
-0.244376
-0.255659
-0.252950
-0.255926
-0.245980
-0.205082
-0.157403
-0.117924
-0.062628
-0.029371
0.016211
0.034723
0.034925
0.038915
0.036601
0.005337
-0.034312
-0.085027
-0.138019
-0.180465
-0.230221
-0.280287
-0.275010
-0.256159
-0.238248
-0.210106
-0.163121
-0.106746
-0.066103
-0.006552
0.031125
0.037129
0.032084
0.021905
0.000379
-0.010620
-0.061995
-0.109307
-0.167168
-0.222442
-0.265357
-0.240810
-0.239171
-0.247139
-0.236032
-0.204313
-0.156970
-0.106776
-0.060162
0.007978
0.040399
0.070846
0.098087
0.107174
0.086261
0.076247
0.052174
0.019993
-0.011519
-0.046989
-0.057977
-0.053191
-0.033127
0.000879
0.056629
0.107366
0.183089
0.260854
0.328014
0.380750
0.460029
0.534973
0.571620
0.598531
0.626047
0.630001
0.622619
0.613937
0.597034
0.589946
0.575598
0.560274
0.542041
0.561371
0.564094
0.561419
0.578289
0.604821
0.651249
0.650829
0.593173
0.542912
0.498015
0.431822
0.367168
0.290889
0.204343
0.106872
0.031313
-0.033537
-0.055028
-0.053725
-0.071150
-0.075317
-0.062403
-0.046278
-0.025816
0.017594
0.074903
0.111464
0.144703
0.170535
0.154157
0.136875
0.115255
0.072370
0.013849
-0.022981
-0.078541
-0.132502
-0.166329
-0.206994
-0.213052
-0.214602
-0.177059
-0.138648
-0.106470
-0.055013
-0.001331
0.027158
0.052821
0.069604
0.076627
0.087029
0.047672
0.011242
-0.017818
-0.048807
-0.095812
-0.133302
-0.180309
-0.214345
-0.219339
-0.215979
-0.192483
-0.162967
-0.113273
-0.057517
-0.013614
0.017528
0.042294
0.063375
0.082905
0.079264
0.056825
0.017050
-0.004213
-0.049764
-0.088580
-0.138196
-0.181707
-0.213848
-0.221075
-0.210993
-0.184314
-0.160666
-0.122777
-0.064985
0.000271
0.040492
0.054386
0.076103
0.087969
0.088438
0.084739
0.064978
0.015379
-0.040505
-0.087380
-0.136556
-0.162828
-0.186436
-0.193861
-0.172357
-0.148264
-0.122878
-0.094527
-0.057938
-0.000249
0.062613
0.095146
0.113369
0.131391
0.119808
0.082602
0.053222
0.003703
-0.031716
-0.055758
-0.104542
-0.137645
-0.160686
-0.167705
-0.157651
-0.142140
-0.102881
-0.052422
-0.002423
0.036436
0.066553
0.098468
0.122117
0.129068
0.109228
0.117399
0.103320
0.063370
0.007264
-0.046174
-0.074167
-0.110715
-0.148074
-0.138309
-0.126322
-0.113429
-0.081083
-0.037154
0.013830
0.045252
0.095936
0.146192
0.188097
0.177241
0.175344
0.136646
0.094677
0.065552
0.032356
0.001659
-0.041515
-0.071229
-0.093866
-0.099131
-0.094813
-0.087765
-0.051462
-0.012542
0.030339
0.082090
0.134840
0.183306
0.188284
0.185253
0.186571
0.170787
0.128707
0.085131
0.038271
-0.018626
-0.064872
-0.087132
-0.110344
-0.129024
-0.128009
-0.097589
-0.053470
-0.014270
0.026377
0.073453
0.101105
0.127899
0.180774
0.169340
0.171887
0.157981
0.124682
0.078162
0.032289
-0.046106
-0.082536
-0.093450
-0.118512
-0.139653
-0.137568
-0.104941
-0.081575
-0.039578
0.000857
0.038575
0.078095
0.112825
0.158867
0.163709
0.162280
0.132455
0.081854
0.052643
0.028111
-0.040069
-0.088090
-0.129638
-0.144343
-0.156765
-0.164540
-0.144505
-0.119079
-0.067259
-0.026841
0.028135
0.071523
0.097541
0.113805
0.113569
0.118343
0.106892
0.062137
0.017885
-0.029993
-0.072921
-0.122494
-0.151606
-0.188279
-0.205172
-0.197946
-0.176065
-0.132134
-0.097081
-0.076783
-0.011842
0.034622
0.063624
0.066713
0.084055
0.090665
0.073097
0.045171
0.009049
-0.043458
-0.084983
-0.116524
-0.139716
-0.166819
-0.188045
-0.211528
-0.190944
-0.147557
-0.100573
-0.059310
-0.010116
0.030195
0.067195
0.093799
0.092247
0.082428
0.067511
0.029610
-0.027330
-0.061839
-0.099409
-0.128217
-0.150292
-0.186523
-0.193195
-0.185790
-0.165694
-0.142743
-0.082061
-0.043540
0.008329
0.044061
0.066703
0.083405
0.084860
0.092057
0.076111
0.034751
-0.028629
-0.064399
-0.103929
-0.137582
-0.172136
-0.191748
-0.203115
-0.204879
-0.178012
-0.133872
-0.093561
-0.039764
0.011345
0.048431
0.088757
0.108532
0.119960
0.100469
0.062087
0.025274
-0.016351
-0.066203
-0.109056
-0.121330
-0.160247
-0.180559
-0.184756
-0.188063
-0.162860
-0.135777
-0.081607
-0.047419
0.003524
0.047519
0.074573
0.096000
0.121138
0.104668
0.081914
0.062635
0.004697
-0.048363
-0.101306
-0.139698
-0.172913
-0.188456
-0.195737
-0.193890
-0.173139
-0.134291
-0.110902
-0.059600
0.005576
0.050373
0.088066
0.094413
0.107148
0.102252
0.090030
0.060729
0.009804
-0.045226
-0.097992
-0.128835
-0.176326
-0.220952
-0.237315
-0.223327
-0.194958
-0.156241
-0.100123
-0.055993
-0.013228
0.020344
0.056728
0.077450
0.096860
0.083820
0.071117
0.048387
-0.010919
-0.048783
-0.097785
-0.147473
-0.189025
-0.208372
-0.203427
-0.211483
-0.189908
-0.153795
-0.129128
-0.069655
-0.015990
0.025447
0.061749
0.082221
0.094449
0.083825
0.040983
-0.001182
-0.032416
-0.073831
-0.122147
-0.164161
-0.178168
-0.196404
-0.220934
-0.215848
-0.185795
-0.162319
-0.110058
-0.061856
-0.016146
0.018988
0.048768
0.068263
0.071786
0.080614
0.055567
0.027320
-0.020818
-0.077824
-0.130349
-0.150842
-0.190833
-0.211917
-0.218645
-0.211770
-0.191155
-0.141216
-0.098809
-0.072826
-0.021604
0.001549
0.045469
0.055674
0.075162
0.085797
0.045527
0.000824
-0.027777
-0.072986
-0.124573
-0.135445
-0.170401
-0.215447
-0.231852
-0.209984
-0.187316
-0.166234
-0.095944
-0.039521
-0.002932
0.047332
0.086381
0.109969
0.113698
0.114984
0.093068
0.057081
0.003614
-0.025214
-0.064386
-0.100067
-0.147633
-0.176030
-0.200070
-0.180647
-0.139971
-0.107134
-0.068194
-0.022083
0.022426
0.050349
0.084479
0.122646
0.132893
0.127247
0.110232
0.076804
0.025547
-0.012558
-0.047228
-0.092621
-0.116333
-0.141719
-0.167916
-0.155637
-0.129060
-0.098154
-0.031738
0.016880
0.058391
0.104803
0.125575
0.137640
0.147693
0.129636
0.097167
0.056216
0.026848
-0.017635
-0.066735
-0.119049
-0.163736
-0.197241
-0.217817
-0.210636
-0.198990
-0.159141
-0.092470
-0.044507
0.007008
0.056192
0.076824
0.102125
0.109909
0.110096
0.080296
0.026503
-0.004416
-0.044367
-0.094668
-0.144150
-0.194220
-0.238373
-0.241793
-0.228566
-0.202614
-0.169924
-0.143781
-0.098335
-0.047517
0.011790
0.057705
0.077267
0.076367
0.053523
0.034944
0.014093
-0.037401
-0.093080
-0.128775
-0.164063
-0.219328
-0.233146
-0.260443
-0.255150
-0.235821
-0.185395
-0.154506
-0.117695
-0.062374
-0.006306
0.010203
0.025593
0.041511
0.056528
0.033129
0.025041
-0.031667
-0.081422
-0.115870
-0.151060
-0.198387
-0.229737
-0.238882
-0.234778
-0.209640
-0.180058
-0.151701
-0.099224
-0.049406
-0.014241
0.012297
0.014321
0.013716
0.022672
0.042464
0.016683
-0.031111
-0.084763
-0.123024
-0.168684
-0.207863
-0.237862
-0.238233
-0.241276
-0.213761
-0.183063
-0.152380
-0.100547
-0.047221
-0.013818
0.012409
0.037369
0.045670
0.033383
0.016229
-0.029367
-0.067794
-0.099291
-0.141356
-0.170224
-0.186042
-0.182905
-0.187230
-0.188528
-0.144081
-0.106212
-0.033339
0.046882
0.104517
0.144185
0.168362
0.215520
0.245406
0.242572
0.267527
0.257134
0.247343
0.243097
0.237689
0.235419
0.218942
0.226350
0.253244
0.287928
0.358459
0.432061
0.503668
0.588232
0.668815
0.752326
0.814636
0.861055
0.870210
0.853231
0.833330
0.762066
0.693853
0.640644
0.582041
0.502491
0.409362
0.293388
0.251550
0.193792
0.166985
0.152085
0.139476
0.141324
0.165653
0.203968
0.200613
0.224806
0.246851
0.223285
0.201441
0.168581
0.121545
0.061064
-0.009732
-0.068699
-0.110135
-0.138802
-0.148500
-0.141815
-0.122838
-0.087486
-0.047973
-0.009192
0.042572
0.082181
0.099804
0.118098
0.126076
0.098313
0.072922
0.029063
0.008727
-0.031427
-0.085928
-0.140962
-0.177365
-0.192064
-0.200715
-0.205708
-0.179081
-0.149222
-0.127949
-0.076565
-0.024280
0.021844
0.043938
0.066592
0.109968
0.098043
0.079897
0.037102
-0.006592
-0.070411
-0.103165
-0.129929
-0.158769
-0.187724
-0.202525
-0.196316
-0.184056
-0.178663
-0.141400
-0.077319
-0.026590
0.016846
0.058986
0.104696
0.105674
0.102704
0.087646
0.039387
0.000041
-0.043852
-0.103374
-0.145987
-0.164976
-0.179515
-0.185350
-0.188162
-0.184751
-0.152276
-0.103077
-0.051511
-0.006901
0.046455
0.078833
0.098967
0.107348
0.104090
0.080511
0.053820
0.022404
-0.025339
-0.078991
-0.124511
-0.141495
-0.153363
-0.168417
-0.163215
-0.150464
-0.110343
-0.075244
-0.025287
0.012902
0.066712
0.112190
0.134799
0.132549
0.102800
0.107801
0.074778
0.035410
-0.014299
-0.050761
-0.077661
-0.129434
-0.162664
-0.152408
-0.143599
-0.112825
-0.075312
-0.032170
-0.005465
0.037632
0.084623
0.139776
0.165835
0.178450
0.156624
0.152536
0.117463
0.080798
0.025117
-0.016315
-0.059033
-0.085035
-0.084272
-0.112205
-0.118103
-0.097167
-0.051162
-0.001744
0.035460
0.075964
0.106476
0.138826
0.165802
0.176750
0.165226
0.142388
0.108483
0.080945
0.047892
-0.008753
-0.050616
-0.069168
-0.104612
-0.117834
-0.104292
-0.085113
-0.056731
0.003567
0.027775
0.082840
0.128504
0.152853
0.173216
0.192183
0.174840
0.156130
0.116187
0.072159
0.040367
-0.018854
-0.061913
-0.103300
-0.123728
-0.138219
-0.140095
-0.117718
-0.080834
-0.035626
0.002945
0.054817
0.113973
0.133145
0.165257
0.172260
0.151835
0.140471
0.111834
0.079459
0.029466
-0.043162
-0.092975
-0.128122
-0.148044
-0.147248
-0.136746
-0.106768
-0.072906
-0.030876
-0.002988
0.027473
0.061313
0.094009
0.133048
0.147605
0.137190
0.111725
0.079027
0.033772
-0.021632
-0.073867
-0.129671
-0.151556
-0.179692
-0.189113
-0.181340
-0.168198
-0.126585
-0.082688
-0.037387
-0.008028
0.026975
0.067782
0.108128
0.115792
0.108344
0.084359
0.051342
0.014496
-0.041901
-0.108438
-0.142304
-0.177787
-0.199171
-0.223032
-0.219726
-0.183532
-0.157181
-0.117507
-0.066242
-0.022759
0.014740
0.064564
0.093489
0.088221
0.075853
0.061108
0.035096
0.000170
-0.060434
-0.133066
-0.168715
-0.172515
-0.180074
-0.192970
-0.189160
-0.165248
-0.134266
-0.099683
-0.061797
-0.011051
0.030433
0.056928
0.069684
0.088754
0.082001
0.064356
0.033833
0.004606
-0.040910
-0.097898
-0.172974
-0.171237
-0.188730
-0.193115
-0.192649
-0.189428
-0.161877
-0.125799
-0.069707
-0.014856
0.033478
0.061370
0.074976
0.084617
0.082809
0.055515
0.019307
-0.003164
-0.048325
-0.088823
-0.133657
-0.155554
-0.185383
-0.201692
-0.188223
-0.166011
-0.140574
-0.098062
-0.051785
-0.011974
0.029986
0.065179
0.084143
0.101344
0.104360
0.064266
0.036701
-0.002677
-0.044661
-0.108727
-0.150021
-0.186469
-0.216259
-0.219666
-0.197650
-0.163701
-0.122445
-0.077348
-0.037581
0.007177
0.036578
0.057301
0.078472
0.091286
0.079690
0.048315
0.029038
-0.010509
-0.059461
-0.108340
-0.124597
-0.168550
-0.194717
-0.202979
-0.203337
-0.185037
-0.153923
-0.106947
-0.054958
-0.000398
0.045431
0.075595
0.094095
0.092264
0.071058
0.037123
-0.006602
-0.030418
-0.065987
-0.130458
-0.155827
-0.168261
-0.189648
-0.191608
-0.191009
-0.182880
-0.159193
-0.126202
-0.085215
-0.013315
0.029946
0.080424
0.085388
0.091359
0.089412
0.062592
0.029756
-0.022792
-0.059109
-0.111384
-0.164809
-0.192514
-0.210947
-0.225759
-0.214505
-0.191768
-0.157106
-0.112207
-0.061116
-0.031982
-0.000826
0.050303
0.082520
0.092907
0.079436
0.046533
0.004864
-0.023154
-0.066106
-0.119723
-0.157843
-0.194250
-0.227322
-0.235887
-0.223870
-0.199000
-0.171487
-0.120754
-0.064636
-0.030454
0.010107
0.052909
0.072873
0.089116
0.086507
0.070785
0.025379
-0.011571
-0.067912
-0.128690
-0.173713
-0.198179
-0.223278
-0.246550
-0.223852
-0.197263
-0.173906
-0.112808
-0.058044
-0.011997
0.025368
0.045369
0.056360
0.078510
0.091913
0.077601
0.051648
0.019067
-0.024730
-0.071871
-0.123112
-0.168617
-0.187513
-0.198947
-0.193092
-0.167918
-0.136437
-0.095812
-0.037722
0.004408
0.029852
0.071790
0.112711
0.108197
0.101420
0.073292
0.045208
0.012958
-0.029323
-0.114633
-0.127429
-0.150113
-0.179208
-0.194989
-0.199830
-0.151550
-0.096565
-0.053471
-0.023143
0.031511
0.060343
0.097910
0.115063
0.128437
0.130878
0.111203
0.080211
0.025976
-0.028815
-0.086559
-0.134084
-0.165409
-0.191521
-0.197147
-0.186289
-0.174994
-0.137110
-0.099174
-0.070770
-0.015791
0.016362
0.036129
0.060342
0.066819
0.077556
0.072358
0.034414
-0.024783
-0.075784
-0.124895
-0.153518
-0.205780
-0.233862
-0.236925
-0.248688
-0.225982
-0.190791
-0.132177
-0.074474
-0.028657
-0.012391
0.021205
0.050047
0.079924
0.063954
0.017781
-0.032742
-0.049307
-0.102738
-0.156930
-0.182419
-0.216859
-0.242496
-0.244324
-0.246670
-0.233756
-0.202787
-0.147706
-0.107060
-0.064361
-0.011198
0.045619
0.060998
0.058144
0.032282
0.008091
-0.021825
-0.062532
-0.097825
-0.156063
-0.205489
-0.238054
-0.265307
-0.267665
-0.262027
-0.232336
-0.199008
-0.162652
-0.124021
-0.065959
-0.006359
0.034190
0.047529
0.059667
0.060380
0.025008
-0.013855
-0.072571
-0.116232
-0.157667
-0.202732
-0.234658
-0.245054
-0.262299
-0.263939
-0.249665
-0.224536
-0.169045
-0.110541
-0.060966
-0.031271
0.029665
0.051186
0.043700
0.038304
0.025571
-0.005091
-0.053999
-0.101569
-0.173093
-0.215426
-0.239972
-0.270183
-0.285096
-0.281466
-0.221196
-0.175638
-0.125874
-0.055844
0.004857
0.052836
0.099811
0.120332
0.146509
0.150026
0.173444
0.168912
0.141162
0.096511
0.076236
0.066537
0.064597
0.051776
0.068878
0.107197
0.163432
0.222646
0.300076
0.371366
0.457026
0.545597
0.652310
0.707605
0.746818
0.777039
0.781801
0.780641
0.765516
0.727071
0.670007
0.624841
0.575283
0.533735
0.493860
0.473055
0.469484
0.462190
0.437222
0.420857
0.384970
0.361660
0.348541
0.332980
0.299798
0.270987
0.233697
0.196028
0.137433
0.094169
0.020658
-0.039003
-0.085041
-0.121579
-0.136137
-0.125011
-0.100020
-0.075582
-0.032097
0.007781
0.044144
0.076923
0.093509
0.127094
0.145344
0.139961
0.124634
0.059025
-0.002943
-0.026487
-0.089766
-0.140706
-0.166928
-0.192047
-0.198209
-0.194974
-0.171117
-0.132246
-0.093167
-0.064534
-0.024271
0.021980
0.048191
0.061001
0.056847
0.042406
0.050621
0.023481
-0.022823
-0.073479
-0.112930
-0.162157
-0.201093
-0.214601
-0.220826
-0.212856
-0.178398
-0.160926
-0.121631
-0.061276
-0.004340
0.044262
0.057194
0.087199
0.088348
0.089349
0.066179
0.032209
-0.021680
-0.068485
-0.129187
-0.173579
-0.192855
-0.193295
-0.214487
-0.223060
-0.176026
-0.135447
-0.096144
-0.047891
-0.008843
0.028988
0.076683
0.097690
0.112367
0.122626
0.100953
0.060003
0.001563
-0.042532
-0.093500
-0.139551
-0.173314
-0.191799
-0.208700
-0.200044
-0.169983
-0.132108
-0.079118
-0.050990
-0.016191
0.026963
0.059611
0.120969
0.138911
0.134410
0.108389
0.068938
0.028129
-0.021279
-0.065602
-0.104889
-0.138760
-0.161492
-0.166997
-0.152167
-0.132020
-0.097433
-0.046531
-0.014327
0.035512
0.078826
0.120893
0.139165
0.157926
0.156672
0.129408
0.103716
0.056143
0.012546
-0.037563
-0.077541
-0.095948
-0.107015
-0.119793
-0.119148
-0.111000
-0.084566
-0.023016
0.013820
0.069008
0.122017
0.158543
0.180325
0.181872
0.171046
0.151329
0.113379
0.058157
0.030242
-0.006189
-0.040866
-0.076069
-0.104091
-0.114111
-0.119973
-0.103416
-0.096221
-0.049424
0.009721
0.079265
0.132811
0.156038
0.182759
0.178137
0.169858
0.150011
0.104577
0.076891
0.016250
-0.031052
-0.052366
-0.089417
-0.129576
-0.132054
-0.114012
-0.085922
-0.056190
-0.020461
0.014293
0.061291
0.102893
0.142584
0.152755
0.174461
0.173627
0.140841
0.112750
0.060938
-0.001706
-0.056617
-0.089652
-0.121777
-0.149588
-0.157901
-0.147851
-0.107611
-0.071121
-0.040779
0.013090
0.021812
0.070191
0.137089
0.161454
0.151516
0.133217
0.106983
0.069403
0.040006
-0.018888
-0.076180
-0.114935
-0.144694
-0.178546
-0.178333
-0.181640
-0.151740
-0.142994
-0.066906
-0.014064
0.017055
0.067782
0.091413
0.111535
0.119669
0.108008
0.068276
0.032263
-0.008964
-0.062902
-0.099783
-0.134395
-0.181209
-0.196173
-0.200703
-0.196248
-0.175743
-0.137169
-0.081282
-0.024777
0.018632
0.033956
0.051203
0.076596
0.079632
0.072763
0.061982
0.032436
-0.014604
-0.060422
-0.100779
-0.149900
-0.191061
-0.203404
-0.209501
-0.223312
-0.207749
-0.167864
-0.105023
-0.062413
-0.010556
0.015755
0.069719
0.106650
0.121959
0.112758
0.087985
0.054991
-0.014617
-0.071724
-0.101832
-0.150401
-0.201196
-0.215621
-0.208280
-0.199100
-0.175920
-0.128613
-0.091128
-0.063681
-0.027900
0.023967
0.066698
0.092515
0.111107
0.118346
0.086347
0.054841
0.001366
-0.064151
-0.090263
-0.150284
-0.172224
-0.196034
-0.207294
-0.190218
-0.166416
-0.146875
-0.118700
-0.050479
0.001953
0.041565
0.064876
0.086096
0.127071
0.122245
0.079575
0.040944
0.002740
-0.047966
-0.101021
-0.143549
-0.167643
-0.214544
-0.220597
-0.198084
-0.171255
-0.132999
-0.093642
-0.058278
0.005812
0.044428
0.087773
0.097068
0.101629
0.108033
0.091956
0.038565
0.001486
-0.067938
-0.100216
-0.111225
-0.151805
-0.188636
-0.199552
-0.192803
-0.190126
-0.150475
-0.086432
-0.054639
-0.014244
0.036777
0.072487
0.097392
0.103512
0.099752
0.059504
0.008273
-0.037745
-0.058887
-0.096977
-0.124253
-0.170575
-0.202048
-0.206469
-0.204430
-0.185370
-0.152293
-0.114274
-0.072561
-0.011158
0.026985
0.068602
0.078594
0.096226
0.093264
0.054722
0.033348
-0.007561
-0.072567
-0.122029
-0.147347
-0.183456
-0.222545
-0.223801
-0.207763
-0.186544
-0.150635
-0.096964
-0.046085
0.000748
0.035938
0.055633
0.079863
0.080790
0.070719
0.053181
0.010781
-0.009364
-0.039174
-0.129825
-0.164398
-0.186112
-0.210771
-0.216168
-0.219042
-0.194200
-0.147810
-0.078308
-0.031776
0.023610
0.063453
0.100127
0.118164
0.122232
0.113278
0.107365
0.071189
0.017050
-0.037480
-0.089501
-0.124475
-0.153812
-0.167184
-0.183001
-0.171165
-0.161880
-0.114207
-0.060631
-0.046692
0.007038
0.060008
0.100893
0.124080
0.141930
0.132089
0.093876
0.061055
0.007035
-0.049992
-0.083322
-0.112621
-0.163203
-0.170198
-0.163329
-0.138212
-0.105093
-0.079936
-0.044598
0.001151
0.049096
0.101875
0.122961
0.155925
0.183690
0.175864
0.152405
0.105167
0.051026
-0.003438
-0.058057
-0.106737
-0.132334
-0.152841
-0.186399
-0.188393
-0.182933
-0.158294
-0.112198
-0.045947
0.002425
0.052150
0.082786
0.092546
0.112123
0.102581
0.090186
0.067386
0.015577
-0.044382
-0.091974
-0.137423
-0.174436
-0.205803
-0.219482
-0.216737
-0.189778
-0.158605
-0.129022
-0.076064
-0.004715
0.016179
0.046325
0.059224
0.061480
0.051840
0.034391
0.034580
-0.008804
-0.059303
-0.095792
-0.149992
-0.191441
-0.230339
-0.263362
-0.244153
-0.228198
-0.205383
-0.149072
-0.095076
-0.036877
-0.008799
0.017331
0.049196
0.065684
0.063676
0.033016
0.005641
-0.041278
-0.077074
-0.114452
-0.158614
-0.208294
-0.221058
-0.237394
-0.233006
-0.210253
-0.165682
-0.121797
-0.083703
-0.037171
-0.012880
0.008498
0.034419
0.046080
0.041434
0.023382
0.004479
-0.028272
-0.091111
-0.151321
-0.181433
-0.205573
-0.235081
-0.237884
-0.219162
-0.206520
-0.183307
-0.134419
-0.088507
-0.052619
-0.016349
0.027240
0.055338
0.055521
0.041516
0.032496
-0.016673
-0.071571
-0.101431
-0.147231
-0.192073
-0.230915
-0.234131
-0.236051
-0.235679
-0.194161
-0.146212
-0.097067
-0.041798
0.013661
0.078909
0.105188
0.124805
0.181728
0.189641
0.157547
0.125895
0.112812
0.107746
0.088629
0.076041
0.062782
0.070245
0.078222
0.129646
0.202528
0.285993
0.356030
0.411602
0.499382
0.571041
0.633501
0.692271
0.760643
0.798238
0.801085
0.814184
0.787489
0.746171
0.688997
0.661804
0.616144
0.588195
0.540826
0.540553
0.515279
0.492899
0.479928
0.464700
0.463628
0.436214
0.406219
0.390898
0.343594
0.298932
0.267661
0.220601
0.174674
0.137180
0.075896
0.012553
-0.033216
-0.060322
-0.078923
-0.079296
-0.050704
-0.047069
-0.003502
0.031684
0.067593
0.118593
0.159496
0.180347
0.182832
0.163196
0.138878
0.106392
0.069214
0.012350
-0.045659
-0.114980
-0.148830
-0.170041
-0.186244
-0.182202
-0.158481
-0.127183
-0.063215
-0.004363
0.030665
0.063106
0.086989
0.103103
0.127411
0.140716
0.115675
0.061402
0.018565
-0.011406
-0.063285
-0.113220
-0.154800
-0.164632
-0.166303
-0.166283
-0.139034
-0.120746
-0.085518
-0.049168
-0.008014
0.047701
0.079014
0.093102
0.109205
0.109471
0.066482
0.056861
0.020185
-0.016995
-0.084964
-0.117651
-0.141964
-0.150056
-0.170233
-0.163748
-0.134603
-0.092447
-0.061321
-0.054418
0.003788
0.053673
0.100088
0.125993
0.130563
0.139465
0.124486
0.081569
0.031296
-0.009213
-0.049258
-0.093216
-0.132883
-0.160509
-0.148447
-0.141026
-0.117504
-0.096575
-0.049799
-0.020368
0.036372
0.088695
0.121702
0.141860
0.154847
0.163065
0.140126
0.094027
0.055176
0.011829
-0.032787
-0.074097
-0.098857
-0.111409
-0.118333
-0.111139
-0.089566
-0.066503
-0.033982
0.019037
0.055115
0.112661
0.141212
0.165287
0.172232
0.171680
0.130737
0.118711
0.100756
0.044511
-0.011023
-0.043743
-0.070909
-0.096829
-0.086301
-0.089274
-0.068786
-0.035156
0.003391
0.054847
0.113356
0.145448
0.170459
0.208850
0.200825
0.203281
0.183329
0.148612
0.098736
0.057049
0.000823
-0.022944
-0.054604
-0.077003
-0.086064
-0.076851
-0.054738
-0.006710
0.039928
0.075555
0.121490
0.169653
0.195364
0.213327
0.234690
0.228716
0.191379
0.135404
0.101293
0.039251
-0.014805
-0.041539
-0.070476
-0.108460
-0.117779
-0.103515
-0.083428
-0.056942
-0.003212
0.050715
0.087420
0.129175
0.164179
0.177364
0.212244
0.197635
0.145335
0.116825
0.077831
0.031891
-0.019224
-0.067826
-0.105119
-0.115474
-0.136432
-0.123264
-0.102640
-0.067581
-0.023535
0.016777
0.064202
0.105637
0.134642
0.157841
0.175458
0.180456
0.150913
0.096487
0.063063
0.006439
-0.026187
-0.089006
-0.140334
-0.153574
-0.164474
-0.162299
-0.136169
-0.098222
-0.057785
-0.017576
0.018934
0.071255
0.112735
0.130893
0.139506
0.143227
0.125903
0.079638
0.039856
-0.007279
-0.066421
-0.121267
-0.152719
-0.179710
-0.196988
-0.186568
-0.183423
-0.145903
-0.085553
-0.048740
-0.007881
0.033037
0.061027
0.096246
0.115580
0.116699
0.081523
0.057950
0.003978
-0.040438
-0.093392
-0.136226
-0.172381
-0.206498
-0.220391
-0.187675
-0.163771
-0.146810
-0.101477
-0.056997
0.001554
0.039448
0.079042
0.104032
0.105509
0.095683
0.083551
0.047238
0.004187
-0.050484
-0.091980
-0.139476
-0.194528
-0.206083
-0.195511
-0.182087
-0.150942
-0.130792
-0.092410
-0.050279
-0.003388
0.038911
0.074960
0.079774
0.099784
0.101848
0.057546
0.035783
0.008692
-0.016010
-0.067539
-0.116529
-0.166934
-0.188735
-0.204593
-0.199351
-0.168971
-0.144251
-0.092308
-0.051811
-0.004141
0.028777
0.064824
0.084339
0.102699
0.082571
0.070675
0.055239
-0.020293
-0.052416
-0.100713
-0.153793
-0.181066
-0.209297
-0.204429
-0.200963
-0.171744
-0.136908
-0.087562
-0.048601
-0.005443
0.043506
0.079748
0.091465
0.110366
0.095487
0.062259
0.042857
-0.006847
-0.063662
-0.126725
-0.165396
-0.184887
-0.188309
-0.188855
-0.185047
-0.166538
-0.142502
-0.096089
-0.054093
-0.018320
0.044413
0.077814
0.102772
0.122508
0.117629
0.077266
0.020636
-0.032331
-0.085437
-0.102574
-0.138412
-0.177538
-0.209620
-0.229386
-0.221841
-0.191446
-0.152440
-0.110441
-0.067138
-0.007315
0.021068
0.036165
0.081708
0.110432
0.113613
0.082866
0.047473
-0.004790
-0.054623
-0.101153
-0.149836
-0.194801
-0.213692
-0.233041
-0.229479
-0.187066
-0.141165
-0.105519
-0.059162
-0.011508
0.032656
0.067882
0.099220
0.112326
0.112708
0.079446
0.044500
0.009161
-0.029989
-0.096079
-0.150251
-0.155071
-0.184477
-0.220497
-0.226664
-0.185359
-0.135562
-0.102988
-0.040548
0.022376
0.063010
0.083328
0.113409
0.112244
0.122512
0.096721
0.050272
0.004463
-0.031625
-0.081025
-0.137320
-0.169635
-0.188485
-0.210278
-0.206200
-0.174803
-0.137392
-0.078410
-0.041795
0.010294
0.057687
0.097390
0.113851
0.129267
0.121254
0.100920
0.076796
0.026968
-0.048847
-0.082860
-0.107320
-0.139603
-0.172206
-0.186702
-0.187848
-0.174727
-0.158693
-0.118696
-0.077092
-0.034134
-0.007106
0.039993
0.049804
0.061481
0.060073
0.043009
0.005554
-0.038106
-0.078501
-0.118349
-0.167736
-0.219533
-0.246583
-0.260213
-0.238522
-0.212491
-0.190070
-0.152919
-0.128790
-0.103152
-0.075302
0.002506
0.004022
0.027439
0.017367
-0.000358
-0.017985
-0.071867
-0.133225
-0.175151
-0.240147
-0.272614
-0.287880
-0.302523
-0.300631
-0.270292
-0.224816
-0.173205
-0.143699
-0.098829
-0.067649
-0.042358
-0.018247
-0.007918
-0.021536
-0.054201
-0.069596
-0.117914
-0.157535
-0.188971
-0.248883
-0.284556
-0.306595
-0.299680
-0.304845
-0.275455
-0.234349
-0.194824
-0.140690
-0.090580
-0.049380
-0.018637
0.005984
0.013114
0.012353
-0.018832
-0.070197
-0.122038
-0.153093
-0.203434
-0.242942
-0.275800
-0.295553
-0.305761
-0.310495
-0.288378
-0.260366
-0.195413
-0.146519
-0.094241
-0.056585
-0.020092
-0.003881
0.001430
0.008085
-0.012575
-0.060770
-0.102099
-0.132903
-0.190680
-0.254069
-0.294863
-0.329743
-0.337978
-0.313682
-0.293362
-0.266153
-0.211744
-0.156004
-0.096592
-0.044311
-0.003708
0.017710
0.042738
0.055666
0.037594
0.029791
-0.004128
-0.044266
-0.088607
-0.115174
-0.116774
-0.087358
-0.049970
-0.021785
0.018217
0.068775
0.158158
0.253600
0.322123
0.380822
0.447458
0.508998
0.557608
0.596535
0.626394
0.631478
0.612800
0.611756
0.604691
0.589013
0.561918
0.548855
0.525448
0.513737
0.505619
0.517179
0.535496
0.564066
0.563138
0.501532
0.473077
0.442076
0.446418
0.374705
0.312094
0.225406
0.145272
0.089254
0.016960
-0.016211
-0.065479
-0.121824
-0.141160
-0.145763
-0.139448
-0.099420
-0.065196
-0.036659
0.011090
0.049144
0.074968
0.096288
0.100962
0.081867
0.059904
0.022551
-0.043981
-0.077062
-0.140743
-0.186404
-0.212877
-0.250305
-0.261233
-0.256417
-0.247334
-0.225908
-0.138220
-0.087965
-0.069333
-0.032847
0.011784
0.031834
0.034204
0.010036
-0.004842
-0.028780
-0.079737
-0.125612
-0.164939
-0.216810
-0.259975
-0.272858
-0.271154
-0.259578
-0.234215
-0.204658
-0.161071
-0.110107
-0.059596
-0.018775
0.000420
0.027360
0.023252
0.006437
-0.023972
-0.043964
-0.080861
-0.104662
-0.154616
-0.205510
-0.264165
-0.265839
-0.266888
-0.247186
-0.228122
-0.199647
-0.160908
-0.097787
-0.058480
-0.014513
0.009003
0.047258
0.055259
0.038726
0.021349
-0.015335
-0.062580
-0.118472
-0.166055
-0.201839
-0.226911
-0.255467
-0.256069
-0.275998
-0.244175
-0.192149
-0.160371
-0.100409
-0.033371
-0.003420
0.033843
0.065371
0.078982
0.068392
0.057423
0.019630
-0.022886
-0.066792
-0.126095
-0.178987
-0.204174
-0.224412
-0.227072
-0.227566
-0.200892
-0.170925
-0.124154
-0.068206
-0.014095
0.027374
0.060054
0.080709
0.104134
0.087413
0.055447
0.041394
0.010936
-0.048121
-0.105688
-0.159946
-0.157204
-0.177624
-0.194710
-0.184558
-0.156382
-0.146395
-0.109742
-0.054025
-0.004200
0.037274
0.073836
0.117105
0.134174
0.120470
0.094663
0.070964
0.015547
-0.016015
-0.069750
-0.144041
-0.168664
-0.175069
-0.166476
-0.168704
-0.156365
-0.118951
-0.071908
-0.030190
0.018748
0.066992
0.085074
0.110424
0.137038
0.117519
0.075553
0.038550
0.014374
-0.011994
-0.056330
-0.105866
-0.135757
-0.165672
-0.165530
-0.166360
-0.148743
-0.120784
-0.083783
-0.036997
0.012226
0.061443
0.087513
0.097617
0.108484
0.090446
0.082627
0.050789
-0.016827
-0.051778
-0.083751
-0.119667
-0.162021
-0.203137
-0.206888
-0.185276
-0.166269
-0.151838
-0.104274
-0.051752
-0.015770
0.018502
0.042429
0.069288
0.083152
0.076776
0.039658
0.016548
-0.032019
-0.076961
-0.128127
-0.170517
-0.207526
-0.195610
-0.215744
-0.231510
-0.214398
-0.170123
-0.111498
-0.061099
-0.023678
0.007591
0.040783
0.050172
0.060145
0.060391
0.034003
-0.006513
-0.070263
-0.120523
-0.169593
-0.206933
-0.236989
-0.248337
-0.236839
-0.246213
-0.239656
-0.202660
-0.178209
-0.119890
-0.053967
-0.010821
0.025372
0.044420
0.060956
0.043210
0.024758
-0.019447
-0.083293
-0.133306
-0.172338
-0.206370
-0.248970
-0.269658
-0.272339
-0.265403
-0.234922
-0.210542
-0.161864
-0.118641
-0.063249
-0.018706
0.016192
0.036851
0.050511
0.035393
0.013225
-0.026760
-0.073409
-0.103949
-0.150628
-0.209286
-0.248683
-0.292894
-0.322753
-0.259050
-0.210665
-0.189117
-0.157205
-0.104758
-0.050123
0.031776
0.034762
0.045645
0.048337
0.041057
0.031682
0.008591
-0.038593
-0.084937
-0.127234
-0.181758
-0.228984
-0.246778
-0.248902
-0.244646
-0.224587
-0.196088
-0.145239
-0.115907
-0.059052
-0.005602
0.028003
0.049089
0.042159
0.038700
0.012592
-0.008053
-0.047253
-0.103972
-0.151120
-0.181034
-0.228911
-0.219357
-0.239201
-0.230099
-0.228846
-0.195458
-0.160780
-0.098666
-0.038714
0.001005
0.035729
0.053599
0.048588
0.040018
0.008988
-0.012264
-0.055839
-0.088887
-0.116061
-0.163296
-0.206602
-0.250819
-0.271749
-0.267621
-0.229841
-0.183145
-0.135029
-0.082157
-0.056707
-0.024970
0.023856
0.050084
0.056410
0.069132
0.023828
-0.015034
-0.065620
-0.115340
-0.143806
-0.190386
-0.239187
-0.261443
-0.265592
-0.257680
-0.240189
-0.186551
-0.134664
-0.095964
-0.054124
-0.015357
0.025248
0.025235
0.033718
0.040429
0.007709
0.003020
-0.040156
-0.087144
-0.148843
-0.199788
-0.238157
-0.259719
-0.274613
-0.271525
-0.242300
-0.198715
-0.135708
-0.078589
-0.062454
-0.024073
0.007077
0.022222
0.055833
0.048397
0.016156
-0.025312
-0.091108
-0.116184
-0.146130
-0.189893
-0.223888
-0.246310
-0.267398
-0.260972
-0.239364
-0.205457
-0.152861
-0.099130
-0.060331
-0.015731
0.014255
0.039795
0.048776
0.032667
0.009709
-0.014433
-0.039420
-0.088672
-0.133968
-0.170294
-0.202138
-0.220977
-0.237299
-0.247018
-0.217757
-0.167222
-0.130423
-0.087892
-0.032223
0.030489
0.056309
0.065207
0.087482
0.066066
0.051417
0.023909
-0.027645
-0.076566
-0.112930
-0.167069
-0.219028
-0.255412
-0.276238
-0.250165
-0.202658
-0.159705
-0.123389
-0.072008
-0.005398
0.053210
0.072419
0.080447
0.101476
0.090129
0.074923
0.028258
0.006688
-0.040088
-0.072935
-0.123696
-0.174850
-0.210102
-0.235476
-0.223376
-0.200389
-0.188074
-0.150298
-0.101174
-0.046068
-0.006417
0.034188
0.068635
0.078058
0.063917
0.043702
-0.029135
-0.087438
-0.132924
-0.153912
-0.163178
-0.230057
-0.261795
-0.269507
-0.280278
-0.250017
-0.193965
-0.162248
-0.134019
-0.094491
-0.045118
-0.012264
0.014370
0.025637
0.023702
-0.002859
-0.020196
-0.070419
-0.114003
-0.153512
-0.214505
-0.240853
-0.281126
-0.294458
-0.286839
-0.281986
-0.257004
-0.191575
-0.122056
-0.081523
-0.056387
-0.024999
-0.000881
-0.010833
-0.016467
-0.020653
-0.050963
-0.090471
-0.138007
-0.196698
-0.238803
-0.259297
-0.274866
-0.292753
-0.285372
-0.265415
-0.235023
-0.208665
-0.140909
-0.085922
-0.038807
-0.005652
0.011776
0.005357
0.000098
-0.025743
-0.039261
-0.084279
-0.144900
-0.184090
-0.232864
-0.266617
-0.284503
-0.299873
-0.327452
-0.266175
-0.213323
-0.166321
-0.115877
-0.076150
-0.037295
-0.013978
0.005048
0.001881
-0.024527
-0.048626
-0.069224
-0.089088
-0.114960
-0.169288
-0.232607
-0.277657
-0.291072
-0.305346
-0.313021
-0.290309
-0.248961
-0.189283
-0.143140
-0.086470
-0.026338
0.012233
0.058823
0.073084
0.080202
0.064161
0.054329
0.040605
0.005605
-0.046599
-0.067602
-0.086096
-0.107817
-0.075772
-0.014267
0.002572
0.078873
0.164366
0.239044
0.329530
0.398935
0.468889
0.546188
0.580490
0.588135
0.594388
0.598592
0.598771
0.581551
0.574565
0.564128
0.559757
0.545510
0.511738
0.521086
0.537029
0.541992
0.565608
0.608710
0.618059
0.586882
0.544477
0.503349
0.466450
0.417737
0.332511
0.224748
0.143790
0.074453
0.009787
-0.048113
-0.077137
-0.104197
-0.125188
-0.131738
-0.107539
-0.106446
-0.066600
-0.017441
0.025030
0.070160
0.101732
0.124340
0.114555
0.115660
0.097559
0.063641
0.009426
-0.045506
-0.100312
-0.152255
-0.204399
-0.216965
-0.253301
-0.233835
-0.205685
-0.201311
-0.135526
-0.084714
-0.049878
-0.016525
0.029798
0.050008
0.059930
0.050228
0.025071
-0.009517
-0.050520
-0.088107
-0.124688
-0.181129
-0.225805
-0.248812
-0.275047
-0.259722
-0.219245
-0.194436
-0.151534
-0.111844
-0.065240
-0.019158
0.015385
0.035893
0.051711
0.043214
0.025079
0.010706
-0.021293
-0.071556
-0.122461
-0.163670
-0.199548
-0.227787
-0.233480
-0.248150
-0.230942
-0.213416
-0.147297
-0.101982
-0.039080
-0.003638
0.037896
0.057841
0.082602
0.066929
0.050415
0.009305
-0.036228
-0.065452
-0.127325
-0.162946
-0.170356
-0.215000
-0.228417
-0.215308
-0.199521
-0.157829
-0.126050
-0.081509
-0.037843
0.000358
0.043141
0.075661
0.086586
0.087132
0.072800
0.043335
-0.003748
-0.046718
-0.106245
-0.150436
-0.180190
-0.191597
-0.201815
-0.198136
-0.175819
-0.137076
-0.067889
-0.051746
-0.023068
0.044668
0.082136
0.106199
0.121842
0.116532
0.081215
0.046141
-0.000075
-0.038894
-0.070944
-0.102203
-0.127237
-0.165689
-0.160373
-0.138587
-0.132321
-0.109581
-0.067021
-0.003333
0.056449
0.099708
0.099517
0.101980
0.138577
0.136902
0.126122
0.101585
0.040464
-0.011429
-0.043800
-0.085646
-0.118490
-0.134514
-0.139676
-0.131399
-0.113354
-0.082583
-0.032477
0.025122
0.082866
0.123719
0.155106
0.178622
0.175807
0.178191
0.146497
0.105488
0.060523
0.008726
-0.035500
-0.078795
-0.111222
-0.140236
-0.158834
-0.152981
-0.128934
-0.103750
-0.042470
0.004019
0.053691
0.097969
0.125638
0.144481
0.166443
0.166039
0.141240
0.105939
0.058903
0.008721
-0.047670
-0.098498
-0.139358
-0.162764
-0.176897
-0.151197
-0.130618
-0.103316
-0.044177
-0.006803
0.029608
0.082557
0.119601
0.128663
0.138479
0.135492
0.114245
0.093248
0.025112
-0.024853
-0.085573
-0.128450
-0.169542
-0.184661
-0.193666
-0.174709
-0.155561
-0.113107
-0.075117
-0.038391
0.005702
0.049592
0.085567
0.085656
0.120768
0.125463
0.091995
0.049145
0.014769
-0.035470
-0.096683
-0.138849
-0.167838
-0.192567
-0.208006
-0.219564
-0.193008
-0.156884
-0.110210
-0.070857
-0.015692
0.021965
0.063143
0.090248
0.104218
0.080102
0.061339
0.025102
-0.015075
-0.055152
-0.104509
-0.152670
-0.183782
-0.215960
-0.239173
-0.212832
-0.174402
-0.158642
-0.140226
-0.089903
-0.030023
0.013069
0.050165
0.072521
0.077884
0.075130
0.070647
0.032687
-0.017956
-0.062586
-0.095397
-0.139603
-0.181190
-0.218918
-0.225439
-0.223820
-0.209913
-0.163997
-0.101463
-0.039704
0.000620
0.047809
0.083400
0.090457
0.105171
0.087926
0.073099
0.047399
-0.016055
-0.070798
-0.118420
-0.153934
-0.167167
-0.187378
-0.202433
-0.199573
-0.171790
-0.138093
-0.095965
-0.047829
0.003340
0.031858
0.045712
0.080416
0.100954
0.086456
0.068460
0.044893
0.000957
-0.047954
-0.096522
-0.127759
-0.163970
-0.193908
-0.201616
-0.187910
-0.166699
-0.135316
-0.087277
-0.048012
-0.009137
0.030007
0.062626
0.104139
0.106191
0.112360
0.093034
0.057954
-0.004584
-0.070940
-0.099955
-0.132024
-0.167453
-0.166974
-0.175521
-0.186992
-0.181866
-0.153140
-0.094046
-0.052167
-0.004025
0.056938
0.076842
0.075204
0.088911
0.085309
0.064679
0.026731
-0.002713
-0.043098
-0.071036
-0.125768
-0.173067
-0.207903
-0.231686
-0.200141
-0.168333
-0.129680
-0.085914
-0.035004
0.032925
0.069535
0.063591
0.079747
0.099374
0.096696
0.081781
0.045753
0.012075
-0.030534
-0.105797
-0.144534
-0.169855
-0.196345
-0.211640
-0.205264
-0.168999
-0.152621
-0.104280
-0.049809
-0.008401
0.035209
0.070232
0.105787
0.111542
0.090258
0.066920
0.038016
0.016058
-0.043561
-0.108338
-0.143569
-0.168939
-0.203178
-0.216675
-0.204360
-0.174751
-0.145125
-0.103821
-0.055218
-0.009415
0.040114
0.071229
0.100651
0.113510
0.090297
0.063251
0.039797
-0.010298
-0.052804
-0.106632
-0.139735
-0.153121
-0.190497
-0.188933
-0.177209
-0.166818
-0.165266
-0.128978
-0.059845
0.009642
0.039392
0.068101
0.099678
0.108414
0.095442
0.077340
0.047387
0.006203
-0.046532
-0.077968
-0.119230
-0.159910
-0.173517
-0.201994
-0.201695
-0.178205
-0.144428
-0.097924
-0.057697
0.005548
0.057979
0.094497
0.119312
0.120654
0.109638
0.096776
0.073934
0.033344
-0.009202
-0.056032
-0.093741
-0.127382
-0.150103
-0.148910
-0.155404
-0.123859
-0.084441
-0.041543
0.000142
0.030557
0.068066
0.108148
0.136803
0.134775
0.129679
0.120753
0.101753
0.052172
-0.002959
-0.057585
-0.094620
-0.132993
-0.161522
-0.159237
-0.154624
-0.123309
-0.080698
-0.028088
0.023775
0.063290
0.101821
0.155637
0.180359
0.189916
0.177215
0.161523
0.129063
0.060519
0.015811
-0.005087
-0.049147
-0.105805
-0.127647
-0.153954
-0.147713
-0.118698
-0.081654
-0.034246
0.003198
0.049900
0.084734
0.099747
0.114975
0.138198
0.140100
0.114290
0.070833
0.014933
-0.017913
-0.061929
-0.113544
-0.129163
-0.160792
-0.189003
-0.179602
-0.138202
-0.116748
-0.081461
-0.038739
0.014533
0.063087
0.080442
0.101112
0.104252
0.102940
0.082071
0.055604
0.000723
-0.057448
-0.103224
-0.139766
-0.195839
-0.252221
-0.241143
-0.216061
-0.172812
-0.146946
-0.092800
-0.053574
-0.019903
0.018666
0.076119
0.091207
0.099777
0.100187
0.066725
0.012963
-0.005695
-0.049072
-0.102086
-0.142896
-0.192484
-0.208354
-0.209019
-0.192727
-0.186404
-0.168272
-0.108193
-0.055562
-0.010638
0.032101
0.082327
0.095875
0.120016
0.097154
0.063686
0.041118
-0.002597
-0.045864
-0.081046
-0.151959
-0.184396
-0.202946
-0.217525
-0.211879
-0.179753
-0.147760
-0.102041
-0.070832
-0.028479
0.014168
0.070622
0.066929
0.082106
0.084451
0.083603
0.038908
-0.006215
-0.051784
-0.094154
-0.150829
-0.193295
-0.221061
-0.226162
-0.217124
-0.198133
-0.169408
-0.110397
-0.056794
0.006442
0.057095
0.093673
0.127707
0.163715
0.186825
0.183237
0.156991
0.111626
0.073735
0.043158
0.022206
0.002489
-0.004713
-0.001726
0.042431
0.103694
0.166717
0.237911
0.331755
0.426857
0.505630
0.561994
0.604402
0.654859
0.681519
0.681280
0.719818
0.721209
0.709677
0.699862
0.678258
0.646765
0.620088
0.591041
0.592147
0.591576
0.601915
0.648193
0.653376
0.650496
0.609444
0.584254
0.531655
0.494301
0.436109
0.367435
0.274466
0.196876
0.153281
0.104455
0.071576
0.025174
-0.034215
-0.058365
-0.042980
-0.035727
0.002391
0.041174
0.075515
0.117198
0.153011
0.175192
0.207133
0.210162
0.191933
0.161936
0.111281
0.043476
0.011890
-0.041489
-0.079196
-0.104815
-0.136189
-0.146917
-0.138820
-0.127004
-0.103098
-0.046836
-0.012989
0.030744
0.082666
0.121633
0.130258
0.136470
0.128100
0.100613
0.073270
0.020147
-0.028180
-0.084947
-0.094180
-0.107025
-0.133862
-0.164459
-0.157915
-0.144590
-0.100368
-0.052400
-0.001074
0.041991
0.088308
0.112333
0.134620
0.143080
0.121756
0.092116
0.074338
0.023009
-0.020871
-0.059902
-0.113105
-0.155314
-0.164214
-0.173081
-0.182563
-0.155432
-0.120861
-0.063813
0.017448
0.069175
0.104072
0.123548
0.155554
0.161682
0.147999
0.134403
0.109856
0.080474
0.018842
-0.047268
-0.099794
-0.134397
-0.140247
-0.147180
-0.140412
-0.113725
-0.087869
-0.036355
0.003677
0.044286
0.101843
0.144091
0.170921
0.187151
0.188021
0.165428
0.139387
0.076315
0.024854
-0.031033
-0.070565
-0.093267
-0.135365
-0.139737
-0.119723
-0.094639
-0.053702
-0.005412
0.028136
0.080913
0.129914
0.158509
0.171183
0.187604
0.190707
0.197008
0.183377
0.134411
0.078349
0.019393
-0.021571
-0.044631
-0.080015
-0.105093
-0.083956
-0.060286
-0.012456
0.029788
0.066661
0.109431
0.157234
0.201671
0.239583
0.255147
0.265456
0.220318
0.161002
0.121069
0.077597
0.039669
0.006668
-0.030198
-0.056160
-0.073342
-0.060676
-0.038056
-0.009120
0.038860
0.091958
0.135263
0.186521
0.216347
0.224644
0.246669
0.228457
0.219457
0.186617
0.147730
0.091549
0.056290
0.006160
-0.033295
-0.054399
-0.066654
-0.063622
-0.039280
-0.009821
0.021999
0.090269
0.146846
0.181286
0.200685
0.215639
0.228008
0.227195
0.207489
0.169808
0.105898
0.079664
0.048142
0.005033
-0.046196
-0.076007
-0.076921
-0.066416
-0.046899
-0.013545
0.020273
0.056873
0.105232
0.135174
0.164667
0.187141
0.206125
0.194504
0.174711
0.133869
0.090236
0.041352
-0.000959
-0.039379
-0.069440
-0.090189
-0.112624
-0.106411
-0.077518
-0.047463
-0.000692
0.038878
0.085684
0.127754
0.164313
0.180902
0.200293
0.185745
0.154644
0.118206
0.062836
0.017870
-0.020569
-0.083712
-0.110454
-0.130815
-0.152680
-0.148628
-0.132992
-0.089474
-0.044468
0.004494
0.047273
0.097635
0.133520
0.146063
0.161167
0.155199
0.127999
0.086943
0.043825
-0.003188
-0.050036
-0.093506
-0.127001
-0.165644
-0.175085
-0.154097
-0.118889
-0.084249
-0.045689
0.009834
0.049219
0.099437
0.140982
0.149721
0.161699
0.159079
0.143255
0.112059
0.063800
0.015352
-0.034528
-0.090737
-0.126531
-0.152417
-0.165843
-0.152494
-0.131647
-0.106816
-0.050886
-0.006126
0.040763
0.099916
0.143814
0.158052
0.151506
0.154399
0.124599
0.081115
0.045764
0.008687
-0.022224
-0.075544
-0.111748
-0.115927
-0.133947
-0.138803
-0.114590
-0.072530
-0.040669
-0.003370
0.043010
0.085845
0.124620
0.160902
0.170629
0.162846
0.141248
0.110375
0.076611
0.022006
-0.032465
-0.065314
-0.106426
-0.126533
-0.139176
-0.136415
-0.115806
-0.091129
-0.053680
-0.010427
0.023829
0.061163
0.118895
0.165874
0.172525
0.155270
0.115284
0.108800
0.065311
0.017359
-0.037230
-0.081473
-0.121338
-0.129260
-0.135959
-0.112844
-0.085758
-0.069270
-0.068579
-0.004368
0.040594
0.095543
0.119448
0.115278
0.154925
0.158680
0.132410
0.098306
0.057943
-0.007238
-0.044978
-0.086154
-0.117705
-0.148977
-0.166473
-0.158643
-0.117826
-0.092242
-0.056433
0.001796
0.045160
0.092213
0.134834
0.147012
0.165946
0.151516
0.125026
0.083315
0.032551
-0.016885
-0.063441
-0.101445
-0.104960
-0.135025
-0.171353
-0.160613
-0.133275
-0.108673
-0.049117
-0.010346
0.038797
0.090480
0.109745
0.129527
0.138861
0.121482
0.108311
0.078272
0.045790
-0.006438
-0.063262
-0.107747
-0.141114
-0.160628
-0.169940
-0.170444
-0.142962
-0.098771
-0.049755
-0.001258
0.047611
0.092667
0.132699
0.130753
0.135712
0.138029
0.113944
0.086721
0.036826
-0.018212
-0.064185
-0.100473
-0.142922
-0.167386
-0.168457
-0.169665
-0.152062
-0.107119
-0.059229
-0.012837
0.023139
0.064875
0.101385
0.124903
0.125763
0.119032
0.101761
0.049501
0.012824
-0.007484
-0.050450
-0.114932
-0.148203
-0.176922
-0.172976
-0.159793
-0.147462
-0.124619
-0.070164
-0.029977
0.008057
0.063914
0.104340
0.126974
0.155399
0.139263
0.111210
0.097521
0.030235
-0.039949
-0.054404
-0.100484
-0.138418
-0.160405
-0.187483
-0.188486
-0.154247
-0.115883
-0.075663
-0.039038
-0.003697
0.046412
0.114942
0.153839
0.142331
0.122520
0.107936
0.083187
0.030085
-0.011397
-0.063300
-0.113599
-0.154584
-0.178465
-0.175643
-0.169564
-0.160435
-0.138126
-0.082957
-0.025219
0.009953
0.060074
0.094790
0.113549
0.132666
0.133065
0.113996
0.088971
0.055617
0.005504
-0.043664
-0.092065
-0.120526
-0.137455
-0.153070
-0.146215
-0.122154
-0.090073
-0.052517
-0.008302
0.051743
0.090962
0.113930
0.137791
0.155673
0.153841
0.131050
0.118353
0.076048
0.017031
-0.028994
-0.070390
-0.109402
-0.147711
-0.147684
-0.157469
-0.124936
-0.088502
-0.055202
0.009799
0.062631
0.095176
0.137022
0.153210
0.157049
0.160879
0.142755
0.115245
0.076942
0.040134
-0.014161
-0.060359
-0.096801
-0.119981
-0.116277
-0.133084
-0.113647
-0.087222
-0.037102
0.004873
0.064516
0.127889
0.151821
0.164594
0.167341
0.139225
0.110164
0.084579
0.047499
-0.007018
-0.042481
-0.080699
-0.119342
-0.148043
-0.167751
-0.141857
-0.132731
-0.092346
-0.056741
-0.036632
0.031617
0.081695
0.105847
0.128664
0.123478
0.121878
0.106757
0.076115
0.022424
-0.044223
-0.093963
-0.145707
-0.176664
-0.186903
-0.194804
-0.186179
-0.165006
-0.151404
-0.102923
-0.055394
0.009157
0.052226
0.086490
0.104695
0.129810
0.097905
0.073383
0.060998
0.015307
-0.050154
-0.107506
-0.162373
-0.177388
-0.198340
-0.218738
-0.198484
-0.178818
-0.154940
-0.104553
-0.046988
-0.007470
0.054903
0.082038
0.100346
0.117000
0.116190
0.077748
0.034097
0.008419
-0.040029
-0.095021
-0.146490
-0.173977
-0.205602
-0.214819
-0.203819
-0.177694
-0.151390
-0.124147
-0.077902
-0.018654
0.024018
0.043186
0.087949
0.112638
0.109283
0.077917
0.059432
0.010174
-0.053483
-0.096015
-0.140384
-0.176289
-0.193868
-0.215024
-0.210921
-0.179692
-0.149337
-0.115439
-0.077696
-0.020205
0.008762
0.026918
0.084898
0.107507
0.106692
0.089868
0.073340
0.030316
0.001892
-0.024257
-0.048649
-0.076352
-0.084179
-0.088810
-0.065980
-0.044538
0.021619
0.074745
0.131273
0.201642
0.285453
0.332366
0.380421
0.435943
0.472898
0.482695
0.496525
0.479478
0.447402
0.427487
0.425488
0.424083
0.458440
0.507144
0.541491
0.594021
0.656606
0.707205
0.748067
0.795035
0.846943
0.854684
0.840287
0.823329
0.794108
0.747876
0.656559
0.540323
0.429277
0.319385
0.207181
0.123224
0.058357
0.009345
-0.006860
0.009691
0.042621
0.091198
0.152346
0.201673
0.197698
0.188658
0.196692
0.238783
0.225725
0.206798
0.154169
0.096716
0.054869
0.003127
-0.042859
-0.082570
-0.121166
-0.144344
-0.120263
-0.101148
-0.078088
-0.027248
0.016130
0.044254
0.092253
0.123102
0.143571
0.151456
0.148996
0.131502
0.100233
0.057022
-0.002711
-0.064773
-0.103638
-0.139832
-0.172187
-0.184631
-0.158462
-0.144841
-0.113844
-0.086464
-0.018818
0.046162
0.083973
0.112369
0.135370
0.147749
0.149067
0.125977
0.086423
0.032744
-0.020863
-0.065916
-0.118683
-0.158537
-0.179628
-0.184660
-0.165407
-0.144038
-0.103344
-0.071693
-0.019374
0.040392
0.067251
0.096002
0.114429
0.151417
0.151965
0.126545
0.100389
0.050054
0.018931
-0.028276
-0.089745
-0.125445
-0.147279
-0.153201
-0.146099
-0.115373
-0.078904
-0.032681
-0.007353
0.055325
0.112499
0.113599
0.127159
0.155169
0.161151
0.146080
0.116229
0.055567
0.019303
-0.033933
-0.063005
-0.096968
-0.123894
-0.128511
-0.115818
-0.101502
-0.062584
-0.003783
0.025749
0.066578
0.110755
0.150747
0.181448
0.193401
0.179997
0.160855
0.130837
0.096290
0.061157
0.018202
-0.010443
-0.068044
-0.095919
-0.095555
-0.071803
-0.066268
-0.034273
0.011424
0.038446
0.088062
0.142114
0.197265
0.215811
0.226063
0.226513
0.204463
0.167619
0.118599
0.072926
0.044467
0.000438
-0.053468
-0.085999
-0.087484
-0.066612
-0.040798
-0.017583
0.042709
0.088807
0.128736
0.166439
0.207342
0.226526
0.247742
0.229456
0.217486
0.182734
0.136204
0.088765
0.044949
0.004014
-0.034613
-0.058699
-0.069516
-0.062747
-0.049836
-0.004125
0.053406
0.103852
0.140303
0.172000
0.217167
0.230673
0.238225
0.237055
0.211950
0.170127
0.135402
0.079583
0.033213
0.001658
-0.043108
-0.073578
-0.088392
-0.066730
-0.042201
-0.011325
0.031956
0.069734
0.113626
0.161519
0.194863
0.216127
0.228268
0.231540
0.207130
0.161879
0.107642
0.059321
0.011859
-0.062185
-0.090439
-0.110643
-0.118478
-0.099383
-0.080306
-0.063100
0.015663
0.070535
0.097041
0.137631
0.183206
0.188000
0.184792
0.173100
0.169358
0.136096
0.073234
0.043324
-0.009820
-0.059473
-0.097520
-0.136630
-0.148479
-0.133530
-0.102668
-0.063687
-0.041668
0.000673
0.056657
0.112447
0.142440
0.152299
0.167207
0.156218
0.137991
0.097210
0.049795
0.004523
-0.031450
-0.076268
-0.115747
-0.145868
-0.161364
-0.159485
-0.138968
-0.106671
-0.048239
0.001108
0.023491
0.069856
0.123004
0.141685
0.161489
0.161324
0.133936
0.096721
0.055637
-0.001382
-0.031006
-0.070314
-0.102432
-0.117080
-0.130194
-0.138335
-0.123121
-0.127949
-0.073783
-0.025430
0.027326
0.071620
0.116359
0.151527
0.160457
0.143566
0.122464
0.095322
0.059370
0.009227
-0.035060
-0.090144
-0.127563
-0.143338
-0.163361
-0.149565
-0.125383
-0.097071
-0.043104
0.006651
0.051523
0.097301
0.116165
0.140583
0.154196
0.149015
0.135244
0.107126
0.056561
-0.003639
-0.037816
-0.083862
-0.118645
-0.136993
-0.150209
-0.133357
-0.107704
-0.076551
-0.040286
0.016441
0.065789
0.112180
0.138423
0.150010
0.156964
0.151906
0.124275
0.091299
0.043195
0.005690
-0.029957
-0.077294
-0.094822
-0.137681
-0.157674
-0.145717
-0.122004
-0.082489
-0.032582
-0.001171
0.046498
0.109840
0.151517
0.170041
0.172985
0.145853
0.130948
0.125509
0.062507
-0.022667
-0.054069
-0.068671
-0.120124
-0.136523
-0.152979
-0.141710
-0.119845
-0.078472
-0.024392
0.031238
0.079133
0.097040
0.139544
0.156490
0.157133
0.149285
0.123607
0.103415
0.064146
-0.008576
-0.056162
-0.103137
-0.132313
-0.141841
-0.165852
-0.168262
-0.122494
-0.091090
-0.036314
-0.004701
0.036466
0.070851
0.113291
0.141486
0.169574
0.155550
0.127540
0.086340
0.027473
-0.008515
-0.075973
-0.139811
-0.136151
-0.143924
-0.156107
-0.143844
-0.133952
-0.105822
-0.054966
-0.007378
0.018978
0.063514
0.107602
0.132297
0.149617
0.143163
0.117519
0.079107
0.038714
0.005611
-0.065697
-0.111411
-0.145673
-0.157188
-0.169511
-0.174964
-0.144101
-0.108447
-0.073976
-0.031085
0.036827
0.082089
0.122494
0.134111
0.129275
0.123481
0.123007
0.097723
0.051855
0.001380
-0.064032
-0.115514
-0.154342
-0.160734
-0.165923
-0.158624
-0.153751
-0.116928
-0.060939
-0.015836
0.015573
0.060888
0.117620
0.141216
0.149605
0.138139
0.107118
0.077703
0.040268
-0.010115
-0.058623
-0.101334
-0.127917
-0.162408
-0.178915
-0.184082
-0.147117
-0.107693
-0.086566
-0.036365
0.016086
0.057873
0.097258
0.110200
0.121620
0.133808
0.129892
0.087619
0.033373
-0.007058
-0.048817
-0.108921
-0.152832
-0.173436
-0.179733
-0.170560
-0.170551
-0.127332
-0.074389
-0.028736
0.004339
0.042979
0.091682
0.122449
0.132451
0.118549
0.102098
0.085217
0.043396
-0.001318
-0.055858
-0.094069
-0.121851
-0.161460
-0.149909
-0.137123
-0.107930
-0.107326
-0.072021
-0.011594
0.044089
0.090736
0.133362
0.145382
0.145436
0.143446
0.130189
0.082582
0.054475
0.005332
-0.028261
-0.064258
-0.098811
-0.115990
-0.138930
-0.139616
-0.112242
-0.069866
-0.033365
0.012390
0.042796
0.101216
0.140351
0.146640
0.164040
0.153745
0.136967
0.127726
0.082402
0.039502
-0.006925
-0.042314
-0.080673
-0.112692
-0.133377
-0.112541
-0.094116
-0.065210
-0.002314
0.018283
0.057235
0.116470
0.152975
0.166523
0.165758
0.157384
0.136159
0.097246
0.045586
0.004399
-0.045485
-0.083196
-0.119178
-0.135736
-0.154101
-0.144704
-0.123573
-0.107871
-0.050379
0.004689
0.045719
0.078277
0.121385
0.136241
0.145825
0.120113
0.099998
0.064342
0.020926
-0.041360
-0.087146
-0.127422
-0.154139
-0.186071
-0.191918
-0.194897
-0.175865
-0.151716
-0.119453
-0.046137
0.013684
0.062492
0.105468
0.113003
0.111521
0.119468
0.105085
0.064515
0.006998
-0.045147
-0.095931
-0.135004
-0.167034
-0.203571
-0.207781
-0.194057
-0.162574
-0.125563
-0.093948
-0.033039
0.007719
0.045094
0.077802
0.101034
0.114572
0.103883
0.085640
0.038684
0.019923
-0.023202
-0.079264
-0.124900
-0.155611
-0.178674
-0.202533
-0.202557
-0.183954
-0.154095
-0.097048
-0.048739
-0.025498
0.029041
0.070991
0.097325
0.105009
0.112491
0.061125
0.045133
0.002654
-0.050672
-0.090401
-0.130911
-0.158576
-0.179765
-0.196026
-0.195464
-0.172022
-0.131578
-0.076446
-0.046106
-0.015215
0.025392
0.072349
0.084731
0.088751
0.072235
0.062456
0.048613
0.008607
-0.039990
-0.070917
-0.109365
-0.138004
-0.146600
-0.142242
-0.135758
-0.086264
-0.028570
0.020792
0.047488
0.099794
0.192450
0.245035
0.283009
0.321045
0.339867
0.356237
0.362194
0.343763
0.339881
0.315727
0.294821
0.301986
0.309970
0.332693
0.369901
0.446728
0.527789
0.609022
0.694298
0.766134
0.858931
0.885766
0.891922
0.909820
0.908647
0.876004
0.821822
0.753175
0.675151
0.592947
0.489614
0.384821
0.300154
0.228393
0.187467
0.160552
0.150636
0.160783
0.169454
0.202039
0.225062
0.253958
0.272900
0.301865
0.281682
0.228170
0.190126
0.143683
0.078812
0.020072
-0.026181
-0.067981
-0.087576
-0.101611
-0.102981
-0.092197
-0.063305
-0.006031
0.037427
0.081636
0.120941
0.166096
0.187309
0.193881
0.173371
0.141509
0.108436
0.067488
0.007100
-0.044745
-0.087426
-0.120801
-0.161129
-0.185270
-0.173215
-0.138443
-0.086858
-0.046979
-0.014782
0.039338
0.095386
0.124731
0.152202
0.150479
0.162144
0.131795
0.107174
0.067838
0.018243
-0.028101
-0.079803
-0.110781
-0.137458
-0.150455
-0.144779
-0.136522
-0.089006
-0.047298
-0.004296
0.057031
0.103282
0.130335
0.149457
0.164057
0.146823
0.127352
0.104750
0.064492
0.020339
-0.037101
-0.084267
-0.113504
-0.114292
-0.128536
-0.123125
-0.101540
-0.089776
-0.037554
0.004022
0.028195
0.081147
0.137216
0.174774
0.180522
0.174948
0.158477
0.119631
0.068598
0.029385
-0.009857
-0.044069
-0.070377
-0.090701
-0.114779
-0.109658
-0.089117
-0.059655
-0.017567
0.030631
0.069737
0.125134
0.172820
0.195009
0.185852
0.174356
0.152423
0.146469
0.115798
0.057693
0.011576
-0.026739
-0.074281
-0.081492
-0.095603
-0.106659
-0.076183
-0.027155
0.029479
0.077930
0.135092
0.189762
0.220129
0.211433
0.214708
0.216253
0.205583
0.165411
0.127945
0.083081
0.044385
-0.001276
-0.041440
-0.062539
-0.061625
-0.060880
-0.034371
-0.001347
0.048766
0.101735
0.151340
0.193722
0.227061
0.252574
0.260730
0.250226
0.231376
0.191165
0.141816
0.089099
0.038309
0.009257
-0.027513
-0.055622
-0.061197
-0.058858
-0.023155
0.002406
0.047517
0.095915
0.133260
0.175024
0.213256
0.249159
0.273965
0.244477
0.210262
0.188639
0.139334
0.091358
0.039816
-0.005001
-0.044691
-0.069853
-0.088507
-0.064261
-0.045023
-0.017219
0.041939
0.082300
0.134407
0.180474
0.215694
0.242417
0.243932
0.233031
0.212908
0.183504
0.143157
0.090479
0.028837
-0.027889
-0.050911
-0.074482
-0.091369
-0.073268
-0.050492
-0.030416
0.021840
0.064736
0.090100
0.143659
0.199735
0.190334
0.203862
0.198900
0.163575
0.116082
0.059339
0.031103
0.015302
-0.021284
-0.065140
-0.093074
-0.111021
-0.110267
-0.093643
-0.073437
-0.029560
0.021326
0.058607
0.097432
0.153831
0.159271
0.169886
0.160156
0.148248
0.128038
0.076500
0.024559
-0.014256
-0.054735
-0.106281
-0.136802
-0.147614
-0.130912
-0.115805
-0.088936
-0.042051
0.007363
0.049977
0.092481
0.143066
0.151196
0.143564
0.151062
0.140348
0.105682
0.062601
0.031046
-0.038192
-0.106408
-0.132889
-0.136801
-0.150686
-0.136704
-0.121410
-0.092590
-0.036353
0.016075
0.059118
0.098235
0.132889
0.155827
0.169454
0.146279
0.126580
0.101165
0.058489
0.018187
-0.035632
-0.082882
-0.110097
-0.134147
-0.143423
-0.139377
-0.119640
-0.095693
-0.046852
0.004040
0.048988
0.089312
0.130394
0.141811
0.146811
0.159606
0.152117
0.105014
0.049221
0.013769
-0.035249
-0.088282
-0.116444
-0.137045
-0.139259
-0.117860
-0.106822
-0.079335
-0.012861
0.040734
0.073722
0.108507
0.144826
0.168614
0.178798
0.172972
0.152147
0.112896
0.056774
0.007187
-0.033003
-0.088350
-0.130147
-0.136526
-0.151077
-0.139948
-0.130660
-0.093470
-0.042936
0.025517
0.075564
0.101135
0.138537
0.172256
0.185149
0.178614
0.167359
0.120965
0.056622
0.027309
-0.016519
-0.067432
-0.102592
-0.129806
-0.129536
-0.131336
-0.140169
-0.104983
-0.058714
0.003047
0.055289
0.107504
0.132811
0.160511
0.173788
0.183699
0.174582
0.126218
0.067857
0.002163
-0.044405
-0.074211
-0.117069
-0.154906
-0.164467
-0.169707
-0.151846
-0.112666
-0.058250
-0.007225
0.021087
0.068364
0.104247
0.149066
0.171014
0.148913
0.138973
0.102610
0.054418
0.011028
-0.042419
-0.088554
-0.116372
-0.128275
-0.137327
-0.129057
-0.107441
-0.085799
-0.044440
-0.006111
0.029363
0.073157
0.105043
0.128761
0.145159
0.135482
0.136694
0.099031
0.040050
-0.005476
-0.048447
-0.102362
-0.122239
-0.143846
-0.152486
-0.145366
-0.125250
-0.095098
-0.055018
-0.014182
0.036297
0.086853
0.115800
0.122011
0.130231
0.120970
0.101564
0.055445
0.030041
-0.018348
-0.043794
-0.098541
-0.131178
-0.153903
-0.166224
-0.124707
-0.129337
-0.100402
-0.056287
-0.004406
0.027835
0.056628
0.096952
0.126868
0.126547
0.134693
0.105380
0.084047
0.035474
-0.017135
-0.069187
-0.092993
-0.127965
-0.156284
-0.172798
-0.159400
-0.130692
-0.098088
-0.061806
-0.014599
0.034452
0.084633
0.114542
0.139245
0.149583
0.129289
0.093412
0.075878
0.033561
-0.022592
-0.076009
-0.116632
-0.149716
-0.179691
-0.190415
-0.180454
-0.145413
-0.109007
-0.065404
-0.018574
0.026950
0.077363
0.112087
0.111662
0.130695
0.146013
0.135633
0.100685
0.046852
-0.009548
-0.053165
-0.096248
-0.123254
-0.147692
-0.175118
-0.164783
-0.129870
-0.095222
-0.046358
0.004311
0.048845
0.081272
0.125684
0.149690
0.172844
0.166826
0.135753
0.119277
0.095019
0.042370
-0.029392
-0.066368
-0.107007
-0.119240
-0.147582
-0.138290
-0.110537
-0.071996
-0.027402
0.022139
0.066418
0.104573
0.139063
0.160332
0.182908
0.175555
0.159915
0.134812
0.079789
0.029445
-0.005588
-0.025450
-0.062532
-0.077240
-0.120799
-0.120942
-0.093260
-0.043007
-0.013720
0.018550
0.076727
0.110991
0.150157
0.183316
0.200187
0.179303
0.150514
0.103243
0.060927
0.001073
-0.038632
-0.082772
-0.124809
-0.148932
-0.153088
-0.151306
-0.119525
-0.116158
-0.054792
-0.015441
0.027004
0.072369
0.102379
0.122391
0.129551
0.116457
0.101225
0.076286
0.023736
-0.026942
-0.059109
-0.105590
-0.149443
-0.159513
-0.167123
-0.165718
-0.163851
-0.137663
-0.099364
-0.042047
0.029374
0.062448
0.092296
0.110073
0.127418
0.109131
0.085113
0.040911
0.004837
-0.038557
-0.080632
-0.130217
-0.160065
-0.190646
-0.201066
-0.196518
-0.173741
-0.139028
-0.082018
-0.041752
-0.005787
0.039739
0.078229
0.108543
0.120687
0.108181
0.085605
0.048021
0.000825
-0.037542
-0.087075
-0.140961
-0.170964
-0.192550
-0.198545
-0.184387
-0.160215
-0.145771
-0.099965
-0.043825
-0.001139
0.049310
0.085574
0.106524
0.118491
0.097247
0.067457
0.045042
-0.002459
-0.048878
-0.085962
-0.124016
-0.146287
-0.175064
-0.210860
-0.195692
-0.192903
-0.161237
-0.106471
-0.045833
0.014883
0.061542
0.096048
0.093656
0.082878
0.075659
0.061651
0.031206
0.001185
-0.045247
-0.088208
-0.134889
-0.154961
-0.177051
-0.158456
-0.116702
-0.083279
-0.077838
-0.032263
0.033790
0.113578
0.187486
0.234305
0.267508
0.299762
0.307919
0.320724
0.322799
0.307362
0.297368
0.271296
0.263347
0.281803
0.287305
0.294173
0.335608
0.395865
0.463263
0.548681
0.630139
0.695432
0.781540
0.863203
0.931963
0.943693
0.925101
0.906797
0.866034
0.793954
0.722366
0.673889
0.604122
0.518248
0.418935
0.320125
0.266608
0.240231
0.213416
0.208015
0.217069
0.230328
0.254010
0.285736
0.298504
0.315088
0.288660
0.245508
0.198263
0.156848
0.089635
0.028089
-0.015649
-0.043872
-0.067099
-0.087422
-0.088293
-0.075643
-0.045730
-0.014065
0.027245
0.074973
0.114383
0.142658
0.162609
0.169151
0.173793
0.153797
0.118402
0.051574
-0.019995
-0.056852
-0.092886
-0.119819
-0.134376
-0.148002
-0.131404
-0.106474
-0.075145
-0.041612
-0.014337
0.039524
0.082813
0.129510
0.164116
0.168716
0.137674
0.116614
0.090713
0.047317
0.001129
-0.048993
-0.091835
-0.120850
-0.145371
-0.150900
-0.141300
-0.133658
-0.099905
-0.058521
-0.012409
0.033152
0.068597
0.107498
0.132634
0.147802
0.146205
0.119113
0.090868
0.046076
-0.005649
-0.040193
-0.068534
-0.100981
-0.131736
-0.142971
-0.138407
-0.108450
-0.079194
-0.035194
0.016961
0.069417
0.115822
0.133627
0.150525
0.181246
0.162564
0.145741
0.117768
0.073976
0.021263
-0.030847
-0.069251
-0.096377
-0.119324
-0.132972
-0.128730
-0.110188
-0.077894
-0.035319
0.032045
0.082495
0.116916
0.170005
0.198635
0.219069
0.206142
0.188530
0.154777
0.094565
0.033901
-0.017637
-0.062644
-0.073165
-0.094186
-0.116439
-0.104403
-0.062567
-0.033348
0.003664
0.044826
0.097623
0.174471
0.214655
0.212645
0.214343
0.198286
0.189661
0.164104
0.122181
0.063756
0.047177
-0.001764
-0.034474
-0.060123
-0.075903
-0.065307
-0.045569
-0.019449
0.032517
0.072077
0.125597
0.175803
0.216663
0.244947
0.253109
0.239880
0.222468
0.198103
0.149710
0.119248
0.071280
0.017990
-0.014025
-0.037454
-0.045115
-0.051113
-0.035621
0.001760
0.046829
0.064035
0.137857
0.186913
0.219498
0.227073
0.236010
0.239152
0.220825
0.192224
0.165878
0.096862
0.050670
0.013197
-0.016392
-0.038408
-0.049709
-0.056593
-0.035201
-0.009403
0.036003
0.090369
0.129077
0.165121
0.202993
0.216444
0.232993
0.222695
0.201139
0.167156
0.117412
0.058696
0.015343
-0.014969
-0.052717
-0.081849
-0.092742
-0.102786
-0.089421
-0.044387
0.007905
0.057777
0.124550
0.156263
0.178768
0.198450
0.212921
0.207397
0.166762
0.124283
0.084855
0.047960
-0.003974
-0.043395
-0.072069
-0.095198
-0.128247
-0.117426
-0.097872
-0.066486
-0.026321
0.030760
0.072304
0.113722
0.141666
0.170062
0.180592
0.157856
0.137415
0.119070
0.085667
0.033110
-0.022628
-0.066223
-0.111743
-0.141084
-0.152401
-0.145588
-0.124769
-0.086562
-0.059604
-0.016896
0.059918
0.101242
0.124788
0.154359
0.168616
0.150004
0.127057
0.090055
0.046308
0.002826
-0.038786
-0.091553
-0.133663
-0.149098
-0.163852
-0.148423
-0.134796
-0.105887
-0.058471
-0.002060
0.053649
0.095447
0.133854
0.159426
0.168795
0.150626
0.125583
0.108646
0.062836
0.019765
-0.027148
-0.072716
-0.113747
-0.142864
-0.164960
-0.158043
-0.127609
-0.095859
-0.055814
-0.009612
0.039522
0.090603
0.139309
0.151757
0.157340
0.153470
0.126477
0.099325
0.058846
-0.000132
-0.031963
-0.056290
-0.086360
-0.114547
-0.125925
-0.113555
-0.124262
-0.103606
-0.051329
-0.005890
0.028653
0.082397
0.132902
0.146240
0.165329
0.162918
0.151942
0.114969
0.069308
0.020927
-0.018669
-0.069127
-0.092109
-0.120236
-0.142467
-0.153659
-0.147140
-0.097668
-0.042790
0.002833
0.056885
0.091545
0.139294
0.152135
0.152379
0.138418
0.129070
0.096889
0.063351
0.014966
-0.019967
-0.076160
-0.123162
-0.131497
-0.132579
-0.122591
-0.105219
-0.072727
-0.032350
0.007357
0.047909
0.086682
0.127337
0.148508
0.156277
0.149737
0.129991
0.090240
0.045977
0.003890
-0.038771
-0.089131
-0.122582
-0.151289
-0.151103
-0.138371
-0.125181
-0.084065
-0.035082
0.027119
0.059864
0.101596
0.141965
0.165984
0.150917
0.129523
0.100419
0.075038
0.035535
-0.015760
-0.057921
-0.099037
-0.136883
-0.140316
-0.159816
-0.147508
-0.129229
-0.094990
-0.068383
-0.012666
0.041908
0.093836
0.121214
0.153270
0.163588
0.154356
0.122458
0.080941
0.030127
-0.041812
-0.078648
-0.147069
-0.158189
-0.167394
-0.166756
-0.143955
-0.122237
-0.105566
-0.061527
-0.012044
0.038437
0.078685
0.110253
0.125766
0.142074
0.149593
0.129801
0.090393
0.048352
-0.006171
-0.053286
-0.096331
-0.133629
-0.149036
-0.167506
-0.162235
-0.150951
-0.117299
-0.071076
-0.030931
0.017543
0.066433
0.108098
0.142025
0.169543
0.142927
0.119871
0.080917
0.018995
-0.023243
-0.058519
-0.113371
-0.136924
-0.144446
-0.179838
-0.188383
-0.151086
-0.115617
-0.082068
-0.033271
0.022730
0.067091
0.110235
0.130710
0.146678
0.127467
0.111553
0.081375
0.029200
-0.025938
-0.070597
-0.111155
-0.149339
-0.173491
-0.177704
-0.178957
-0.153992
-0.114345
-0.069716
-0.025008
0.020583
0.062846
0.116418
0.139245
0.141419
0.143515
0.115874
0.087332
0.041910
0.006336
-0.040072
-0.080757
-0.115850
-0.126932
-0.142119
-0.140085
-0.125829
-0.091685
-0.050397
-0.022206
0.045701
0.097350
0.136837
0.157966
0.175466
0.168830
0.155737
0.102587
0.058777
0.022210
-0.023472
-0.067913
-0.107547
-0.126861
-0.150331
-0.150002
-0.114542
-0.074076
-0.023365
0.027223
0.075137
0.098350
0.124699
0.166711
0.176911
0.175657
0.150541
0.133690
0.092389
0.047689
-0.001187
-0.041860
-0.080551
-0.100949
-0.123542
-0.116902
-0.074682
-0.037990
0.001570
0.034824
0.081264
0.118794
0.143500
0.169562
0.180571
0.153016
0.135083
0.099429
0.059589
0.018548
-0.021048
-0.080477
-0.128910
-0.168639
-0.168506
-0.155587
-0.142949
-0.103955
-0.062900
-0.018907
0.031016
0.082876
0.115120
0.127883
0.133624
0.123682
0.100603
0.068896
0.026510
-0.032175
-0.086639
-0.128679
-0.162408
-0.184490
-0.197391
-0.180345
-0.146089
-0.113015
-0.072720
-0.032493
0.002875
0.043695
0.072650
0.101062
0.116276
0.102363
0.077527
0.045788
0.004179
-0.051207
-0.094872
-0.135362
-0.177466
-0.199008
-0.205404
-0.194362
-0.173709
-0.127616
-0.085119
-0.037084
-0.000653
0.044663
0.078277
0.098888
0.093993
0.092835
0.080183
0.062097
0.015413
-0.038151
-0.085757
-0.123659
-0.164104
-0.189149
-0.196111
-0.204366
-0.166547
-0.135486
-0.102160
-0.055191
-0.007166
0.033671
0.079484
0.107976
0.111734
0.114174
0.104297
0.077684
0.023500
-0.032500
-0.084941
-0.121192
-0.143154
-0.188069
-0.216517
-0.210772
-0.181188
-0.155270
-0.111954
-0.063455
-0.012257
0.011341
0.044215
0.090050
0.091995
0.102265
0.089739
0.071183
0.042973
-0.005240
-0.063110
-0.095050
-0.105049
-0.100911
-0.106956
-0.067950
-0.042784
-0.005195
0.052893
0.125942
0.184877
0.243902
0.305778
0.357911
0.401025
0.430490
0.448300
0.461990
0.453275
0.437036
0.426661
0.413421
0.398764
0.411432
0.431970
0.476706
0.547486
0.625433
0.709874
0.768907
0.811637
0.856485
0.901473
0.904683
0.885591
0.841555
0.826247
0.751611
0.635467
0.523431
0.435333
0.325525
0.234965
0.162797
0.097209
0.063271
0.053798
0.074497
0.107424
0.156099
0.202810
0.234555
0.248465
0.246732
0.240483
0.230195
0.198798
0.151582
0.103493
0.059006
0.009434
-0.037991
-0.074542
-0.101442
-0.112637
-0.109572
-0.089819
-0.057334
-0.014346
0.025800
0.058696
0.097281
0.127621
0.158415
0.167966
0.144981
0.120772
0.094515
0.055551
0.010699
-0.040991
-0.089675
-0.116302
-0.139963
-0.163392
-0.147542
-0.127933
-0.092990
-0.051540
-0.008691
0.040160
0.085396
0.119783
0.141982
0.162821
0.172274
0.121978
0.039788
0.019399
-0.007977
-0.065933
-0.112280
-0.144888
-0.154550
-0.162238
-0.139125
-0.125268
-0.101467
-0.053251
0.007705
0.046423
0.098169
0.142096
0.163291
0.162415
0.138318
0.106830
0.086883
0.049407
0.004769
-0.038789
-0.077297
-0.118970
-0.141638
-0.153948
-0.148437
-0.127011
-0.083896
-0.033312
0.024706
0.063666
0.112220
0.136577
0.157484
0.196547
0.170157
0.140419
0.103472
0.052889
0.007336
-0.009141
-0.069334
-0.088190
-0.110530
-0.120978
-0.109892
-0.093095
-0.067800
-0.030524
0.038112
0.083470
0.131413
0.165159
0.180384
0.201301
0.193172
0.166921
0.143050
0.102118
0.070141
0.037148
-0.020748
-0.056107
-0.071196
-0.083922
-0.080989
-0.062470
-0.034290
-0.002262
0.045780
0.095826
0.149531
0.199978
0.232147
0.241020
0.231681
0.205539
0.169559
0.127352
0.084500
0.043505
-0.005914
-0.038446
-0.063315
-0.064108
-0.061693
-0.038852
-0.001254
0.045619
0.089742
0.139953
0.194789
0.232067
0.234937
0.250828
0.255100
0.228888
0.183115
0.134303
0.095692
0.064460
0.023040
-0.017583
-0.033785
-0.054694
-0.034908
-0.018595
0.006271
0.049519
0.102526
0.156621
0.193046
0.211688
0.213508
0.241087
0.250086
0.223973
0.174450
0.133359
0.097411
0.053061
0.004216
-0.023855
-0.059341
-0.073190
-0.062250
-0.032473
-0.001242
0.042464
0.087798
0.119964
0.151347
0.199200
0.224365
0.231222
0.210045
0.185811
0.165568
0.120612
0.066349
0.022158
-0.027966
-0.073647
-0.088326
-0.099221
-0.091781
-0.057427
-0.023404
0.020064
0.064505
0.095684
0.141828
0.176770
0.188235
0.193430
0.175862
0.150435
0.131517
0.090246
0.027431
-0.038840
-0.071232
-0.098218
-0.108350
-0.128891
-0.124998
-0.106193
-0.070083
-0.031588
0.013478
0.059079
0.100741
0.145538
0.159465
0.164916
0.159331
0.149605
0.108465
0.056748
0.003922
-0.036165
-0.088318
-0.120243
-0.143268
-0.151363
-0.145334
-0.121258
-0.107524
-0.059404
0.004548
0.041457
0.092605
0.120599
0.136270
0.151354
0.131905
0.111361
0.079880
0.034271
-0.017083
-0.061754
-0.104355
-0.134502
-0.147964
-0.157930
-0.155539
-0.136218
-0.095639
-0.050159
0.005821
0.044386
0.088736
0.128591
0.146804
0.152049
0.155252
0.133733
0.106104
0.044117
0.002039
-0.030307
-0.068338
-0.123020
-0.153791
-0.164614
-0.147224
-0.146858
-0.117213
-0.060370
-0.006483
0.049300
0.089050
0.111429
0.138985
0.159083
0.154306
0.123034
0.091713
0.042112
0.003440
-0.036535
-0.060644
-0.102678
-0.146256
-0.157253
-0.143474
-0.122070
-0.094615
-0.051913
-0.023091
0.040810
0.104488
0.146926
0.146767
0.152884
0.153052
0.130625
0.107864
0.058586
0.013634
-0.026225
-0.089751
-0.120540
-0.152365
-0.156203
-0.140897
-0.122038
-0.107599
-0.033262
0.013002
0.048992
0.094758
0.109261
0.131641
0.153674
0.144199
0.127887
0.097095
0.055975
0.011713
-0.043164
-0.087940
-0.122240
-0.132826
-0.155142
-0.150508
-0.123596
-0.087240
-0.047550
0.012695
0.052032
0.087695
0.112992
0.132783
0.149781
0.145985
0.121856
0.091999
0.040974
-0.008268
-0.049234
-0.096232
-0.127436
-0.157746
-0.168139
-0.147641
-0.129147
-0.104627
-0.039126
-0.000185
0.053409
0.090253
0.099908
0.127381
0.137465
0.130371
0.109186
0.086135
0.037145
-0.013909
-0.059132
-0.096193
-0.132984
-0.166053
-0.180546
-0.167289
-0.143452
-0.100775
-0.060030
-0.020741
0.048194
0.081186
0.119583
0.146344
0.143094
0.101807
0.077245
0.047414
0.009644
-0.038216
-0.076331
-0.106021
-0.144442
-0.167282
-0.184244
-0.169226
-0.147006
-0.112394
-0.067824
-0.018637
0.013846
0.049439
0.090435
0.129336
0.149693
0.141786
0.108679
0.071202
0.033380
-0.023003
-0.073065
-0.113862
-0.161924
-0.179462
-0.183039
-0.161370
-0.149087
-0.119402
-0.067858
-0.021110
0.009920
0.060604
0.096619
0.120750
0.120982
0.117390
0.099413
0.074702
0.033673
-0.016290
-0.067884
-0.115823
-0.152372
-0.176526
-0.195355
-0.187857
-0.175082
-0.132456
-0.065929
-0.024791
0.008212
0.049323
0.086465
0.121284
0.135264
0.119447
0.103971
0.069649
0.025850
-0.027676
-0.078627
-0.125637
-0.161349
-0.173991
-0.183633
-0.173721
-0.144084
-0.113581
-0.080767
-0.028101
0.024781
0.071567
0.104324
0.125591
0.134637
0.152208
0.135694
0.104731
0.064689
0.023332
-0.023574
-0.092435
-0.136162
-0.155955
-0.163035
-0.150754
-0.122216
-0.098783
-0.054746
0.001679
0.051059
0.104075
0.143911
0.147117
0.159321
0.160575
0.131049
0.091226
0.052150
0.013286
-0.032889
-0.085163
-0.110705
-0.131427
-0.144725
-0.131335
-0.111473
-0.078130
-0.035859
-0.002347
0.046309
0.104146
0.133452
0.179423
0.194763
0.181276
0.161836
0.131084
0.090093
0.042985
0.002616
-0.046675
-0.102719
-0.129369
-0.155704
-0.132903
-0.114484
-0.088118
-0.042127
0.000448
0.038668
0.079454
0.121146
0.144600
0.149965
0.142958
0.099817
0.077578
0.039105
-0.010225
-0.064245
-0.105691
-0.138093
-0.152472
-0.175596
-0.175207
-0.157255
-0.122911
-0.092446
-0.038802
0.011485
0.044683
0.074701
0.094079
0.102090
0.103396
0.074521
0.054847
0.001058
-0.059677
-0.091435
-0.122130
-0.168536
-0.204205
-0.210312
-0.195493
-0.170521
-0.137621
-0.089606
-0.044515
-0.005238
0.035595
0.072945
0.076036
0.092831
0.085602
0.066294
0.035433
-0.000280
-0.054274
-0.100241
-0.142159
-0.175963
-0.192150
-0.209540
-0.209402
-0.183730
-0.148174
-0.103924
-0.057068
0.000705
0.035247
0.079730
0.089523
0.098573
0.081245
0.071716
0.045686
0.007315
-0.051327
-0.115597
-0.154371
-0.172250
-0.201147
-0.221162
-0.208963
-0.162522
-0.135916
-0.093786
-0.040051
0.008606
0.034398
0.052667
0.083367
0.093070
0.090772
0.066606
0.035857
-0.000227
-0.053128
-0.095558
-0.143732
-0.188996
-0.205759
-0.226529
-0.222654
-0.210017
-0.177752
-0.121119
-0.065603
-0.019098
0.025733
0.089895
0.109336
0.137409
0.155702
0.149160
0.120585
0.093434
0.075594
0.035434
-0.001347
-0.025824
-0.019939
-0.018270
0.004036
0.062100
0.123041
0.197851
0.280596
0.360067
0.428847
0.501321
0.572717
0.625892
0.638209
0.645212
0.664893
0.658071
0.661646
0.665645
0.644012
0.636852
0.607830
0.604210
0.607608
0.628432
0.638675
0.679262
0.712441
0.720905
0.718410
0.683975
0.647561
0.597039
0.527233
0.454673
0.375101
0.288621
0.199640
0.138761
0.086671
0.039191
0.014481
-0.012114
-0.030436
-0.018242
0.003793
0.020718
0.071953
0.118561
0.152969
0.178829
0.201508
0.206187
0.184987
0.155721
0.114436
0.086782
0.039212
-0.016778
-0.076276
-0.104210
-0.121119
-0.142808
-0.129930
-0.120174
-0.096068
-0.041922
0.008565
0.039581
0.092788
0.110830
0.104040
0.136345
0.140072
0.110408
0.070683
0.021286
-0.000801
-0.050040
-0.105053
-0.143418
-0.158147
-0.166902
-0.156526
-0.141775
-0.110781
-0.063379
-0.009392
0.033007
0.076406
0.103686
0.125814
0.140458
0.129231
0.084279
0.076284
0.053034
0.002311
-0.047710
-0.087872
-0.121739
-0.142053
-0.159891
-0.156032
-0.146304
-0.111800
-0.053926
-0.002511
0.046880
0.085025
0.127838
0.150898
0.187963
0.149093
0.122223
0.093502
0.052853
0.003514
-0.035065
-0.086664
-0.119502
-0.143401
-0.148726
-0.130565
-0.128915
-0.109137
-0.048348
0.019952
0.072054
0.097177
0.135465
0.168452
0.175437
0.172612
0.166381
0.124910
0.068258
0.023256
-0.014954
-0.064781
-0.096419
-0.110539
-0.116770
-0.108703
-0.094372
-0.058497
-0.015289
0.033253
0.087887
0.128176
0.171426
0.197489
0.205273
0.190034
0.171203
0.151035
0.101849
0.050732
0.007710
-0.028298
-0.058582
-0.081122
-0.084128
-0.078580
-0.057878
-0.013980
0.022011
0.056288
0.087369
0.136697
0.182096
0.227164
0.247575
0.233587
0.220002
0.188045
0.147093
0.095740
0.042248
0.005677
-0.029453
-0.054263
-0.065817
-0.055011
-0.035350
-0.021384
0.020956
0.073134
0.129312
0.177674
0.194893
0.204897
0.242687
0.222209
0.215575
0.183682
0.146462
0.112191
0.055361
0.002506
-0.033473
-0.035841
-0.056893
-0.045767
-0.025922
-0.010634
0.032030
0.087147
0.123741
0.163165
0.196439
0.211669
0.231729
0.215716
0.206140
0.169567
0.118094
0.070983
0.025984
-0.012490
-0.047333
-0.072460
-0.093205
-0.080187
-0.047775
-0.007339
0.008959
0.056772
0.100564
0.137762
0.163214
0.182875
0.199871
0.183497
0.179256
0.147774
0.102275
0.048905
0.006591
-0.045142
-0.086982
-0.111210
-0.116789
-0.096393
-0.088461
-0.065073
-0.034416
0.014596
0.077928
0.107394
0.135128
0.155266
0.166156
0.142951
0.136466
0.098547
0.064894
0.016355
-0.036907
-0.089111
-0.113257
-0.147802
-0.166981
-0.156949
-0.128060
-0.093434
-0.054099
0.005659
0.042550
0.077064
0.119070
0.139288
0.133806
0.138968
0.117005
0.070328
0.032037
-0.019975
-0.071503
-0.102876
-0.148227
-0.171624
-0.181168
-0.170575
-0.150440
-0.123225
-0.080974
-0.030952
0.026034
0.068072
0.103896
0.134862
0.147840
0.141953
0.117210
0.084304
0.034497
-0.023514
-0.078931
-0.143446
-0.188154
-0.183813
-0.184559
-0.160614
-0.130020
-0.113443
-0.065581
-0.012553
0.036653
0.082167
0.100426
0.132064
0.147700
0.128847
0.109477
0.073979
0.040903
0.000456
-0.047036
-0.092605
-0.118733
-0.152982
-0.182592
-0.166962
-0.144456
-0.132554
-0.080876
-0.006341
0.029430
0.084644
0.125048
0.137507
0.149143
0.155101
0.098904
0.066477
0.040948
0.003820
-0.035356
-0.088635
-0.132117
-0.156189
-0.165831
-0.153196
-0.121974
-0.094618
-0.047663
-0.000970
0.036456
0.076303
0.097668
0.132923
0.148972
0.131402
0.106799
0.073485
0.039365
-0.002386
-0.031403
-0.070160
-0.130059
-0.152739
-0.143951
-0.148305
-0.137478
-0.102298
-0.049677
-0.021063
0.025594
0.075055
0.097816
0.126743
0.137561
0.131733
0.120719
0.080092
0.050751
0.006414
-0.035880
-0.089248
-0.124997
-0.137510
-0.154484
-0.148765
-0.136723
-0.102199
-0.060868
-0.021255
0.036950
0.087104
0.123654
0.122282
0.138910
0.136960
0.118714
0.092771
0.046043
-0.037301
-0.077827
-0.109025
-0.132251
-0.151799
-0.174082
-0.158379
-0.141408
-0.110152
-0.061365
-0.006487
0.022578
0.063332
0.102510
0.123431
0.106254
0.083915
0.088838
0.078691
0.032701
-0.015199
-0.063701
-0.095493
-0.127417
-0.152830
-0.160798
-0.159886
-0.141196
-0.121469
-0.082094
-0.026351
0.018842
0.067023
0.106290
0.126241
0.135427
0.131412
0.118077
0.072579
0.021804
-0.027147
-0.073346
-0.109005
-0.134803
-0.162138
-0.177756
-0.176745
-0.158577
-0.113487
-0.060752
-0.018256
0.034120
0.066391
0.108619
0.146566
0.122296
0.102862
0.087236
0.044784
0.008245
-0.039411
-0.084225
-0.121428
-0.150342
-0.168138
-0.191123
-0.182497
-0.160039
-0.126630
-0.085476
-0.031917
0.017191
0.074412
0.100284
0.112197
0.135721
0.109156
0.089987
0.042850
0.010071
-0.037110
-0.067158
-0.105868
-0.147986
-0.175275
-0.181975
-0.176243
-0.163062
-0.137793
-0.086511
-0.026902
0.009807
0.053067
0.105877
0.120902
0.140254
0.133592
0.115958
0.089609
0.046796
-0.032411
-0.082136
-0.115886
-0.156458
-0.184772
-0.192355
-0.177845
-0.154258
-0.116298
-0.075289
-0.026494
0.024015
0.067705
0.125082
0.158109
0.162954
0.151187
0.140418
0.107615
0.059048
-0.004277
-0.042905
-0.073097
-0.108281
-0.136208
-0.139544
-0.120972
-0.126432
-0.111264
-0.069497
-0.005901
0.050154
0.096061
0.143480
0.155661
0.157419
0.143578
0.115677
0.097790
0.059181
0.006227
-0.031816
-0.077768
-0.108943
-0.118778
-0.132174
-0.138422
-0.100078
-0.067751
-0.038986
0.025364
0.079462
0.123696
0.160104
0.182674
0.191929
0.179162
0.147270
0.106085
0.059636
0.014276
-0.056584
-0.110599
-0.125025
-0.127967
-0.150627
-0.150029
-0.128124
-0.097174
-0.058952
0.001343
0.035582
0.071601
0.108523
0.130558
0.137280
0.134215
0.111753
0.077835
0.028155
-0.025892
-0.092099
-0.135207
-0.167519
-0.182564
-0.185719
-0.175007
-0.157895
-0.134637
-0.075604
-0.029250
0.004117
0.029566
0.050895
0.074871
0.108756
0.087519
0.083512
0.059443
-0.000809
-0.048052
-0.094338
-0.147295
-0.184028
-0.203703
-0.201830
-0.191815
-0.163744
-0.137432
-0.098814
-0.050445
-0.017772
0.024939
0.055441
0.092911
0.090947
0.076482
0.063536
0.037753
-0.010073
-0.061537
-0.099713
-0.153133
-0.186212
-0.203416
-0.211860
-0.204518
-0.177501
-0.146186
-0.105726
-0.057999
-0.015303
0.024119
0.064864
0.101518
0.107560
0.081522
0.048205
0.016794
-0.009777
-0.060617
-0.109721
-0.147151
-0.193702
-0.207239
-0.228402
-0.228299
-0.197740
-0.157045
-0.118466
-0.054513
-0.011302
0.024457
0.079725
0.096714
0.102080
0.085030
0.051224
0.012750
-0.021163
-0.087054
-0.136058
-0.189980
-0.199565
-0.221721
-0.237731
-0.204418
-0.172693
-0.148187
-0.095354
-0.029955
0.043717
0.096393
0.140094
0.174724
0.192155
0.208204
0.205986
0.188352
0.164634
0.143447
0.124425
0.105733
0.098013
0.090904
0.113692
0.171909
0.217455
0.279719
0.358222
0.447637
0.532560
0.604852
0.679531
0.741607
0.802965
0.831154
0.833141
0.836560
0.813479
0.741627
0.714037
0.657262
0.593354
0.547208
0.502524
0.491704
0.450796
0.416300
0.404765
0.385945
0.378884
0.378947
0.362017
0.341396
0.322444
0.290050
0.270873
0.222596
0.172542
0.116569
0.052906
-0.002528
-0.046175
-0.089918
-0.100962
-0.102181
-0.077470
-0.058311
-0.025431
0.021554
0.055355
0.106393
0.131897
0.146650
0.142737
0.140688
0.115891
0.092901
0.031768
-0.018220
-0.073878
-0.125806
-0.165581
-0.152073
-0.165694
-0.161710
-0.158570
-0.125513
-0.080706
-0.041399
-0.000081
0.052639
0.091793
0.122149
0.126172
0.108723
0.075970
0.043605
-0.011652
-0.051284
-0.095393
-0.125141
-0.160544
-0.169047
-0.183728
-0.182721
-0.153707
-0.139969
-0.098074
-0.046218
0.002139
0.042100
0.080462
0.104744
0.130683
0.123233
0.079200
0.049740
0.016476
-0.034141
-0.081142
-0.120535
-0.156043
-0.176824
-0.188565
-0.183758
-0.154596
-0.106686
-0.075845
-0.026922
0.014831
0.073385
0.103442
0.121542
0.128438
0.130323
0.102472
0.072721
0.031695
-0.021851
-0.068017
-0.107319
-0.140611
-0.159310
-0.177567
-0.155776
-0.124805
-0.103384
-0.061634
-0.011060
0.034634
0.086741
0.121446
0.143525
0.158293
0.147971
0.119815
0.100848
0.047346
0.002643
-0.040232
-0.069365
-0.090478
-0.142812
-0.151422
-0.149055
-0.131765
-0.078659
-0.036601
0.002903
0.057046
0.109400
0.153296
0.148485
0.174942
0.184384
0.169796
0.126638
0.095698
0.022969
-0.041307
-0.050567
-0.080034
-0.093075
-0.096488
-0.097617
-0.070506
-0.051905
-0.014255
0.044926
0.104070
0.152064
0.190669
0.202559
0.216477
0.206450
0.187847
0.153098
0.114569
0.074381
0.018001
-0.027902
-0.072298
-0.091585
-0.103837
-0.086089
-0.060522
-0.015832
0.013284
0.074946
0.113220
0.159780
0.192151
0.200833
0.208310
0.208917
0.192969
0.164924
0.125744
0.076679
0.032889
-0.025133
-0.068837
-0.079980
-0.105653
-0.092270
-0.072832
-0.051998
-0.014564
0.056029
0.096211
0.136055
0.183361
0.201293
0.209039
0.198883
0.179941
0.146905
0.098281
0.039052
-0.005923
-0.039105
-0.072378
-0.100951
-0.118491
-0.114969
-0.095989
-0.060251
-0.029039
0.016577
0.070228
0.115707
0.151893
0.156952
0.168973
0.172287
0.153157
0.136369
0.082617
0.005473
-0.030319
-0.066095
-0.089440
-0.126904
-0.157015
-0.148771
-0.135367
-0.096754
-0.046902
-0.002362
0.047968
0.087417
0.121760
0.127325
0.144140
0.141926
0.114701
0.071676
0.035670
-0.014267
-0.054820
-0.110585
-0.150770
-0.187631
-0.203034
-0.182140
-0.145299
-0.114420
-0.080221
-0.036094
0.008774
0.057479
0.089265
0.106650
0.129806
0.112859
0.081020
0.049775
0.011984
-0.045997
-0.099749
-0.136072
-0.164210
-0.180548
-0.202097
-0.190260
-0.164990
-0.133280
-0.098657
-0.045254
0.021883
0.070795
0.097914
0.118498
0.123643
0.120742
0.092866
0.047294
-0.003604
-0.046064
-0.082090
-0.121792
-0.162973
-0.178176
-0.205920
-0.196173
-0.170024
-0.135475
-0.101871
-0.044698
0.004436
0.052761
0.091147
0.120967
0.124317
0.095548
0.083233
0.053360
-0.002521
-0.055571
-0.083123
-0.105232
-0.163109
-0.172324
-0.172922
-0.189556
-0.168714
-0.132998
-0.086593
-0.040290
0.016953
0.060311
0.092401
0.107564
0.127988
0.127891
0.101222
0.061646
0.020484
-0.023707
-0.074383
-0.119404
-0.156037
-0.175656
-0.182481
-0.162230
-0.138464
-0.112001
-0.079741
-0.029899
0.010314
0.035528
0.088890
0.122022
0.127519
0.117501
0.099489
0.051412
0.017436
-0.020435
-0.079172
-0.105479
-0.143759
-0.170596
-0.176094
-0.182760
-0.160265
-0.141406
-0.096970
-0.048212
-0.002338
0.044118
0.082872
0.112808
0.133369
0.119777
0.103193
0.057504
