-0.037359
0.002474
0.043689
0.081364
0.113433
0.118532
0.114428
0.096642
0.058831
0.008736
-0.031092
-0.081793
-0.129691
-0.162066
-0.176440
-0.180584
-0.178262
-0.168585
-0.137464
-0.080852
-0.042083
0.000936
0.043503
0.085460
0.108413
0.118857
0.107284
0.085641
0.044844
0.020241
-0.016650
-0.058575
-0.103263
-0.148880
-0.165219
-0.177591
-0.147972
-0.125583
-0.090078
-0.056679
-0.028974
0.003078
0.058080
0.100725
0.139057
0.154088
0.147263
0.121053
0.087540
0.043512
-0.008979
-0.052894
-0.105910
-0.127743
-0.145571
-0.145075
-0.128191
-0.111588
-0.077782
-0.035481
0.010841
0.069267
0.113937
0.143102
0.163285
0.179796
0.161550
0.145405
0.103226
0.063682
0.032910
-0.003055
-0.046463
-0.072532
-0.100190
-0.108793
-0.106728
-0.091187
-0.048166
0.005177
0.049551
0.088607
0.131034
0.172152
0.188849
0.209143
0.203171
0.199574
0.154453
0.110321
0.080410
0.028443
-0.004255
-0.040487
-0.063095
-0.087209
-0.073873
-0.052116
-0.016018
0.017526
0.048878
0.106727
0.161845
0.205029
0.238060
0.241916
0.230089
0.205710
0.167642
0.125836
0.087561
0.033637
-0.020807
-0.043170
-0.058311
-0.063844
-0.068019
-0.050493
-0.010147
0.042152
0.078151
0.126281
0.161861
0.188552
0.210893
0.223518
0.203461
0.195623
0.170795
0.143108
0.101170
0.039984
-0.011863
-0.050802
-0.064097
-0.061580
-0.063132
-0.049125
-0.024549
0.015711
0.069474
0.115496
0.158893
0.182577
0.183529
0.194028
0.193042
0.170346
0.134877
0.089073
0.039728
-0.027586
-0.066954
-0.080313
-0.095190
-0.115850
-0.106670
-0.087263
-0.078538
-0.045526
0.006796
0.072314
0.115009
0.148364
0.167557
0.170472
0.163514
0.132936
0.098333
0.045919
-0.003463
-0.061549
-0.096642
-0.142047
-0.163825
-0.174917
-0.159037
-0.141723
-0.118293
-0.063188
-0.025650
0.023148
0.066381
0.101269
0.114637
0.131184
0.144575
0.120185
0.068320
0.003912
-0.031856
-0.081830
-0.128654
-0.141282
-0.181387
-0.201473
-0.179211
-0.159566
-0.129339
-0.098071
-0.078981
-0.028666
0.029844
0.055675
0.087105
0.099410
0.089449
0.071316
0.033308
-0.000848
-0.047576
-0.090301
-0.146207
-0.165582
-0.197135
-0.209045
-0.212104
-0.195040
-0.143953
-0.096775
-0.059307
-0.008876
0.020309
0.052772
0.078925
0.080850
0.070473
0.060311
0.030543
-0.015801
-0.062414
-0.096746
-0.138450
-0.172112
-0.202847
-0.204487
-0.199593
-0.167560
-0.139832
-0.098112
-0.055464
-0.007623
0.026280
0.063740
0.089771
0.096215
0.095985
0.069593
0.042519
0.006351
-0.034000
-0.085490
-0.138845
-0.176707
-0.200026
-0.209865
-0.187905
-0.156922
-0.118709
-0.090100
-0.052659
-0.008282
0.030874
0.054401
0.083564
0.106269
0.097097
0.076770
0.041915
-0.004154
-0.043693
-0.107640
-0.156141
-0.193030
-0.209509
-0.208386
-0.202250
-0.160255
-0.119762
-0.084204
-0.068580
-0.034905
0.029359
0.069477
0.103592
0.113023
0.118419
0.099415
0.058272
0.016763
-0.039267
-0.077891
-0.127621
-0.158403
-0.186460
-0.180737
-0.173469
-0.160201
-0.122757
-0.081108
-0.049136
-0.006399
0.047426
0.073169
0.102348
0.103086
0.096746
0.084806
0.059330
0.016377
-0.034594
-0.084438
-0.136633
-0.165028
-0.185629
-0.205595
-0.194710
-0.170386
-0.149363
-0.114188
-0.070200
-0.024499
0.023114
0.062824
0.095335
0.115598
0.106756
0.077075
0.048509
-0.004466
-0.065698
-0.107531
-0.151616
-0.174772
-0.186516
-0.189283
-0.185559
-0.146393
-0.109974
-0.089774
-0.071019
-0.027287
0.027167
0.061664
0.078475
0.087977
0.075421
0.060945
0.019506
-0.023548
-0.049407
-0.095924
-0.138307
-0.165606
-0.174028
-0.186022
-0.195929
-0.173719
-0.152641
-0.105861
-0.055042
-0.022864
0.020066
0.045643
0.072983
0.081611
0.061784
0.023569
0.005388
-0.020164
-0.050097
-0.106146
-0.141506
-0.186871
-0.218582
-0.224770
-0.204155
-0.159237
-0.121586
-0.086779
-0.059085
-0.026673
0.026888
0.051672
0.078690
0.082284
0.075328
0.055694
0.022112
-0.011216
-0.048158
-0.098935
-0.140566
-0.171608
-0.207625
-0.214504
-0.211000
-0.191041
-0.149373
-0.110241
-0.059964
-0.012284
0.020508
0.047103
0.068149
0.075992
0.080514
0.059771
0.030657
-0.022029
-0.054902
-0.089014
-0.137770
-0.169619
-0.195538
-0.224449
-0.223397
-0.208665
-0.172276
-0.140596
-0.106064
-0.056651
-0.003027
0.035860
0.062794
0.080658
0.080215
0.077617
0.039258
-0.003107
-0.065334
-0.123926
-0.169210
-0.201465
-0.227747
-0.232690
-0.231496
-0.197283
-0.146403
-0.103350
-0.065546
-0.036863
0.000861
0.030551
0.080322
0.099658
0.086811
0.055020
0.015228
-0.032985
-0.068016
-0.112842
-0.154948
-0.176477
-0.208987
-0.223209
-0.221464
-0.192587
-0.160266
-0.129428
-0.086473
-0.029350
0.005944
0.050187
0.093412
0.087740
0.069278
0.045214
0.005442
-0.025959
-0.071739
-0.117892
-0.156248
-0.185071
-0.214403
-0.220894
-0.214388
-0.180413
-0.161338
-0.118835
-0.078450
-0.036911
0.004704
0.035591
0.073332
0.080873
0.063420
0.053335
0.019482
-0.022478
-0.070412
-0.119962
-0.171599
-0.188263
-0.205363
-0.215975
-0.214745
-0.191819
-0.154927
-0.118582
-0.077086
-0.031075
0.025052
0.065398
0.092843
0.100976
0.081227
0.061265
0.013808
-0.022192
-0.061427
-0.116186
-0.152416
-0.180468
-0.200198
-0.207324
-0.194744
-0.168673
-0.118863
-0.080636
-0.045377
0.000373
0.052247
0.095183
0.126391
0.129892
0.104124
0.085907
0.060192
0.025511
-0.019045
-0.070376
-0.106882
-0.133371
-0.153630
-0.165720
-0.151958
-0.122031
-0.106408
-0.058639
-0.028304
0.028055
0.074202
0.104929
0.143457
0.149990
0.131750
0.116455
0.088441
0.051381
-0.007986
-0.061338
-0.094614
-0.123759
-0.163515
-0.166356
-0.171962
-0.150848
-0.113894
-0.071532
-0.032301
0.005918
0.028572
0.066986
0.076444
0.095107
0.097705
0.096408
0.047066
0.017633
-0.035260
-0.087629
-0.144763
-0.183976
-0.200929
-0.203174
-0.190905
-0.168789
-0.140289
-0.103191
-0.070078
-0.023686
0.014671
0.041235
0.064051
0.069248
0.059614
0.037403
0.010356
-0.026606
-0.058336
-0.113901
-0.168222
-0.209820
-0.217011
-0.217968
-0.224259
-0.208199
-0.191654
-0.152616
-0.103030
-0.066222
-0.015584
0.033547
0.068984
0.067653
0.049356
0.016835
-0.023600
-0.046151
-0.066294
-0.114290
-0.171818
-0.210214
-0.235959
-0.246336
-0.230504
-0.213040
-0.178157
-0.135537
-0.097422
-0.042505
0.007218
0.038369
0.068151
0.074130
0.068575
0.036040
-0.003830
-0.032827
-0.092184
-0.136435
-0.169470
-0.197283
-0.230646
-0.232359
-0.223306
-0.195276
-0.164884
-0.127003
-0.111152
-0.075573
-0.013375
0.022771
0.060765
0.062397
0.048701
0.027741
-0.013838
-0.056906
-0.086962
-0.139291
-0.170338
-0.194491
-0.216939
-0.240411
-0.235202
-0.219061
-0.186492
-0.141868
-0.105069
-0.050480
0.014607
0.039462
0.068140
0.081714
0.085562
0.096765
0.075888
0.046934
0.009351
-0.030726
-0.052564
-0.080568
-0.107366
-0.097462
-0.083933
-0.042379
0.015005
0.092396
0.156294
0.218811
0.302448
0.379418
0.434469
0.464591
0.473929
0.505492
0.503345
0.493713
0.478342
0.457957
0.482279
0.493922
0.508138
0.514769
0.533789
0.555886
0.565992
0.621793
0.662205
0.705999
0.715071
0.720778
0.703299
0.657589
0.593857
0.513151
0.414378
0.337089
0.271112
0.172123
0.065963
-0.015130
-0.054504
-0.086107
-0.074660
-0.064881
-0.035153
0.006894
0.038654
0.063953
0.095977
0.127328
0.150467
0.144817
0.129844
0.108639
0.080649
0.039587
0.001589
-0.039053
-0.094084
-0.135695
-0.163540
-0.156684
-0.154451
-0.147633
-0.117287
-0.073326
-0.029261
0.025491
0.063719
0.095949
0.112285
0.116402
0.103854
0.091011
0.064747
0.025693
-0.032545
-0.070474
-0.116299
-0.157271
-0.184746
-0.198436
-0.198962
-0.172120
-0.151562
-0.127287
-0.075201
-0.014558
0.017535
0.051410
0.073565
0.089032
0.090988
0.071069
0.032020
-0.009019
-0.048281
-0.087195
-0.132403
-0.151669
-0.164994
-0.158613
-0.167411
-0.144512
-0.107807
-0.083072
-0.039631
0.026590
0.072531
0.098055
0.115325
0.107953
0.100672
0.086697
0.057597
0.026677
-0.002851
-0.052235
-0.103373
-0.130268
-0.147437
-0.168410
-0.165579
-0.141215
-0.097140
-0.058238
0.001885
0.045884
0.095152
0.116642
0.134719
0.142838
0.133897
0.122147
0.093901
0.045075
0.015374
-0.036307
-0.085965
-0.104059
-0.135621
-0.136555
-0.124893
-0.108825
-0.074867
-0.036310
0.009920
0.057580
0.111249
0.141939
0.167166
0.175491
0.159228
0.136081
0.101926
0.064500
0.034358
-0.006206
-0.040234
-0.067131
-0.087231
-0.093047
-0.083992
-0.060537
-0.025884
0.018633
0.063938
0.106368
0.145464
0.181885
0.215532
0.218284
0.218825
0.197274
0.156537
0.107399
0.063657
0.007760
-0.043068
-0.071478
-0.093257
-0.097699
-0.096509
-0.083489
-0.049732
-0.002513
0.059697
0.118828
0.164970
0.219851
0.259490
0.267755
0.250988
0.212052
0.183824
0.140682
0.097922
0.040479
-0.008726
-0.046850
-0.056622
-0.057177
-0.031095
-0.016378
-0.004544
0.034906
0.079272
0.129065
0.173417
0.198628
0.222211
0.214759
0.219878
0.207126
0.170942
0.122937
0.071134
0.022657
-0.004764
-0.021688
-0.061431
-0.086864
-0.070032
-0.051842
-0.024946
0.011865
0.054825
0.104624
0.139145
0.160238
0.185002
0.184355
0.171044
0.162670
0.121406
0.081082
0.038109
-0.024195
-0.063895
-0.096432
-0.122770
-0.132790
-0.126608
-0.106388
-0.091779
-0.042160
-0.003304
0.041312
0.079098
0.116943
0.126232
0.137240
0.124250
0.115357
0.083812
0.035272
0.006257
-0.042407
-0.091571
-0.147382
-0.179641
-0.196537
-0.187840
-0.166798
-0.124267
-0.092646
-0.052046
-0.012167
0.032323
0.062914
0.083458
0.088264
0.088161
0.070559
0.044983
0.003637
-0.050952
-0.098839
-0.138720
-0.169572
-0.203979
-0.218744
-0.213809
-0.193701
-0.151444
-0.112341
-0.088140
-0.060319
-0.010047
0.038059
0.069110
0.070412
0.071196
0.062854
0.015109
-0.025076
-0.052504
-0.089898
-0.143831
-0.166980
-0.193879
-0.193818
-0.216562
-0.194631
-0.151926
-0.112563
-0.085300
-0.015908
0.039087
0.067805
0.070010
0.091161
0.096151
0.069728
0.014682
-0.037592
-0.056924
-0.103136
-0.145469
-0.163716
-0.194758
-0.202967
-0.213075
-0.187646
-0.159261
-0.107899
-0.063696
-0.017722
0.020630
0.055465
0.068425
0.077978
0.070591
0.058599
0.018635
-0.030447
-0.060571
-0.095250
-0.137791
-0.166261
-0.193122
-0.210191
-0.198879
-0.179730
-0.140033
-0.097025
-0.062743
-0.016875
0.014567
0.051240
0.088026
0.097007
0.085579
0.056094
0.022916
-0.004731
-0.045313
-0.081758
-0.142600
-0.169492
-0.208725
-0.218802
-0.219396
-0.196743
-0.161225
-0.113835
-0.063469
-0.019718
0.019532
0.064922
0.091928
0.102471
0.094251
0.065427
0.032682
-0.021656
-0.069102
-0.115181
-0.153260
-0.178160
-0.184209
-0.176448
-0.174945
-0.174862
-0.143149
-0.096568
-0.051271
-0.009045
0.032922
0.065627
0.102928
0.099106
0.098502
0.073487
0.044177
0.004375
-0.030331
-0.089508
-0.128924
-0.163841
-0.186233
-0.200868
-0.190923
-0.177925
-0.150157
-0.104543
-0.054109
-0.015694
0.018855
0.048187
0.075920
0.074377
0.081411
0.084399
0.047290
-0.010824
-0.056396
-0.105040
-0.138084
-0.161148
-0.207217
-0.205254
-0.212885
-0.195173
-0.151182
-0.106106
-0.074481
-0.011053
0.032408
0.056163
0.084953
0.095243
0.097438
0.082316
0.024821
-0.006419
-0.052545
-0.104155
-0.137333
-0.171271
-0.214831
-0.220717
-0.218346
-0.190172
-0.155677
-0.127262
-0.095371
-0.036037
0.004969
0.041961
0.062649
0.077388
0.060865
0.038491
0.009325
-0.027962
-0.082816
-0.105574
-0.153226
-0.185913
-0.187500
-0.200956
-0.202467
-0.184774
-0.143523
-0.120438
-0.088036
-0.041772
0.002031
0.045192
0.074756
0.078392
0.068013
0.037890
-0.005749
-0.012139
-0.064041
-0.113201
-0.151261
-0.189650
-0.225598
-0.231503
-0.216645
-0.183727
-0.148011
-0.118256
-0.081678
-0.028085
0.026206
0.051925
0.079983
0.089383
0.084276
0.059645
0.021513
-0.026519
-0.068265
-0.113420
-0.162107
-0.195475
-0.205465
-0.229763
-0.240979
-0.214068
-0.179047
-0.148742
-0.104175
-0.050870
-0.009595
0.013480
0.046207
0.070145
0.063697
0.037933
-0.001519
-0.045451
-0.088305
-0.139655
-0.158257
-0.171897
-0.193887
-0.217232
-0.220825
-0.216804
-0.170083
-0.122096
-0.075034
-0.027890
0.002759
0.019987
0.069129
0.088373
0.086286
0.072657
0.029295
-0.024690
-0.067665
-0.110937
-0.153316
-0.199617
-0.223548
-0.222076
-0.220221
-0.207600
-0.162548
-0.115699
-0.075982
-0.026393
0.020766
0.069896
0.119527
0.133135
0.117019
0.072335
0.043335
-0.000082
-0.035821
-0.066364
-0.130447
-0.175577
-0.185440
-0.190189
-0.200238
-0.165024
-0.122344
-0.096419
-0.065498
-0.012784
0.029174
0.071794
0.098775
0.107663
0.106486
0.089290
0.058510
0.028041
-0.007232
-0.069789
-0.133546
-0.169506
-0.203404
-0.153457
-0.155749
-0.140807
-0.107805
-0.058997
-0.013742
0.031770
0.063442
0.068576
0.095266
0.117036
0.125891
0.113383
0.069269
0.018797
-0.025872
-0.080622
-0.130766
-0.165748
-0.190313
-0.197033
-0.179443
-0.160958
-0.138323
-0.100010
-0.047075
-0.008154
0.017303
0.049272
0.075090
0.085505
0.096707
0.081855
0.031602
-0.010142
-0.045823
-0.101798
-0.161662
-0.220403
-0.263982
-0.284244
-0.224462
-0.199157
-0.184489
-0.151166
-0.110548
-0.047563
-0.007091
0.021780
0.046171
0.055916
0.069876
0.046065
0.000214
-0.041035
-0.082122
-0.134172
-0.188823
-0.225579
-0.237002
-0.231971
-0.235605
-0.210973
-0.187287
-0.138337
-0.093953
-0.054107
-0.015530
0.021597
0.038484
0.041743
0.032275
0.019229
0.002866
-0.039343
-0.084860
-0.146351
-0.194701
-0.224390
-0.252034
-0.248038
-0.245781
-0.229598
-0.192797
-0.150038
-0.110488
-0.064877
-0.031895
0.013410
0.045499
0.054024
0.045566
0.027990
-0.009635
-0.056210
-0.098580
-0.154278
-0.205760
-0.231492
-0.237399
-0.253778
-0.253873
-0.229662
-0.213151
-0.165282
-0.077729
-0.030975
-0.011769
0.000875
0.018801
0.038578
0.026443
0.008521
-0.028907
-0.079615
-0.132508
-0.190547
-0.222961
-0.259955
-0.254282
-0.257159
-0.243520
-0.219491
-0.189223
-0.122515
-0.076415
-0.011094
0.062400
0.110391
0.142133
0.174403
0.189045
0.179249
0.167861
0.136559
0.103055
0.074633
0.057645
0.041053
0.052707
0.073102
0.101473
0.158601
0.211654
0.284041
0.353493
0.422878
0.505971
0.600387
0.677333
0.709574
0.719668
0.753411
0.759662
0.742432
0.677466
0.614238
0.590666
0.564497
0.498898
0.455367
0.418527
0.384426
0.412419
0.416946
0.381933
0.349012
0.343100
0.333236
0.305302
0.271450
0.220597
0.193594
0.158515
0.100676
0.036708
-0.015771
-0.066317
-0.121500
-0.154025
-0.167226
-0.154282
-0.126843
-0.100249
-0.083277
-0.036333
0.027395
0.070727
0.089976
0.117861
0.110835
0.105108
0.082752
0.046174
-0.001734
-0.050043
-0.106336
-0.142269
-0.163755
-0.187450
-0.185829
-0.175243
-0.170922
-0.145056
-0.104209
-0.074273
-0.030215
0.018710
0.081876
0.082043
0.096084
0.100363
0.065746
0.031942
-0.018045
-0.056688
-0.100157
-0.154035
-0.189708
-0.205760
-0.199209
-0.195613
-0.182207
-0.158453
-0.117007
-0.076243
-0.033783
0.009197
0.045175
0.075140
0.085622
0.089159
0.061063
0.032320
0.007254
-0.038644
-0.082853
-0.123673
-0.160625
-0.192164
-0.203581
-0.198053
-0.178751
-0.155173
-0.123937
-0.082182
-0.042661
-0.005857
0.059407
0.100643
0.103580
0.092155
0.086896
0.070771
0.038691
-0.013374
-0.059943
-0.101723
-0.146062
-0.157979
-0.158605
-0.163273
-0.146631
-0.123402
-0.080314
-0.036216
0.006146
0.050122
0.104680
0.129657
0.137111
0.103260
0.067337
0.038891
0.008032
-0.032462
-0.079728
-0.101151
-0.107699
-0.126241
-0.135750
-0.125377
-0.108619
-0.080319
-0.031196
0.024096
0.078105
0.118297
0.147596
0.175153
0.184389
0.187769
0.168256
0.137437
0.100404
0.036996
-0.024121
-0.065798
-0.093126
-0.103185
-0.110843
-0.115462
-0.081560
-0.050523
-0.009829
0.047038
0.091629
0.122413
0.166143
0.204830
0.202859
0.201970
0.175508
0.145939
0.121813
0.085800
0.031081
-0.010713
-0.060656
-0.075293
-0.090906
-0.077508
-0.042902
-0.001034
0.046495
0.062670
0.102020
0.136947
0.161719
0.200837
0.218015
0.193802
0.179739
0.151848
0.114814
0.065022
0.019215
-0.028073
-0.056368
-0.087026
-0.097195
-0.090136
-0.049872
-0.041977
-0.013952
0.027947
0.082606
0.126727
0.168887
0.192118
0.193807
0.181410
0.140279
0.113191
0.101643
0.059294
0.006527
-0.060170
-0.091769
-0.110899
-0.117233
-0.123847
-0.112872
-0.092511
-0.014141
0.020607
0.071807
0.120057
0.148450
0.151276
0.160733
0.153345
0.114651
0.066979
0.032614
0.012556
-0.041090
-0.105903
-0.138383
-0.163449
-0.169089
-0.166947
-0.161733
-0.123259
-0.067337
-0.027307
0.009626
0.043429
0.076598
0.108840
0.114045
0.111687
0.085920
0.049268
0.009235
-0.037321
-0.092773
-0.124181
-0.170550
-0.204251
-0.207929
-0.222461
-0.200710
-0.165469
-0.131382
-0.103264
-0.037767
0.004014
0.038733
0.065784
0.090008
0.084016
0.055010
0.017485
-0.019495
-0.075768
-0.127363
-0.170921
-0.197137
-0.216393
-0.235074
-0.229935
-0.208289
-0.180343
-0.145938
-0.097049
-0.051273
-0.010075
0.016588
0.042503
0.042259
0.052709
0.031318
0.003614
-0.031639
-0.071690
-0.122846
-0.169589
-0.202130
-0.247158
-0.267414
-0.264626
-0.227265
-0.184043
-0.159254
-0.080895
-0.022780
0.017365
0.063103
0.072427
0.085533
0.069958
0.039109
-0.006823
-0.012762
-0.049517
-0.103471
-0.143104
-0.188820
-0.219834
-0.227947
-0.214804
-0.185943
-0.153744
-0.119614
-0.077688
-0.025699
0.038495
0.059644
0.072842
0.080221
0.067695
0.062315
0.040701
-0.000512
-0.039080
-0.096822
-0.155591
-0.188232
-0.218554
-0.217274
-0.209100
-0.181431
-0.151177
-0.104410
-0.050914
-0.012006
0.028693
0.057369
0.075685
0.085707
0.077414
0.061119
0.022489
-0.024111
-0.057812
-0.098181
-0.148979
-0.197525
-0.221691
-0.225102
-0.220349
-0.211987
-0.154833
-0.095263
-0.064845
-0.010232
0.031300
0.040216
0.039380
0.049221
0.051272
0.042919
0.018956
-0.033972
-0.071430
-0.112272
-0.154109
-0.165125
-0.184358
-0.199504
-0.209355
-0.203941
-0.175182
-0.126517
-0.085553
-0.035219
-0.000244
0.027945
0.060188
0.077345
0.065171
0.042286
0.019208
-0.030260
-0.061627
-0.097424
-0.138738
-0.173211
-0.197560
-0.216145
-0.195423
-0.168601
-0.129790
-0.097402
-0.066206
-0.018733
0.035698
0.053454
0.076609
0.094794
0.074447
0.046442
0.017907
-0.028365
-0.075958
-0.123997
-0.156079
-0.185958
-0.216659
-0.207258
-0.208182
-0.198831
-0.157045
-0.111536
-0.071080
-0.016948
0.034994
0.066451
0.081649
0.088508
0.078496
0.066884
0.035540
-0.024950
-0.075567
-0.131282
-0.160592
-0.196669
-0.227845
-0.238033
-0.224644
-0.219844
-0.209495
-0.153808
-0.097670
-0.024219
0.029468
0.045282
0.061714
0.068402
0.054178
0.011460
0.001087
-0.054532
-0.101107
-0.140007
-0.172004
-0.206793
-0.229674
-0.229142
-0.217336
-0.201110
-0.174055
-0.137529
-0.089121
-0.031605
0.027823
0.042139
0.066356
0.090038
0.067903
0.033319
0.000371
-0.055582
-0.093091
-0.135090
-0.163958
-0.193066
-0.217155
-0.234503
-0.227432
-0.200784
-0.164971
-0.136421
-0.094901
-0.054987
-0.011163
0.023864
0.050058
0.062847
0.064209
0.047977
0.008832
-0.018484
-0.047362
-0.130350
-0.189998
-0.221305
-0.243071
-0.244327
-0.236531
-0.212565
-0.175909
-0.142986
-0.104213
-0.052987
-0.003381
0.018535
0.052226
0.056840
0.042956
0.019705
-0.010955
-0.069046
-0.116471
-0.156312
-0.192940
-0.207018
-0.214556
-0.198834
-0.199590
-0.182862
-0.161404
-0.119718
-0.094785
-0.058718
-0.008363
0.037609
0.063132
0.081388
0.077914
0.052435
0.021814
-0.034084
-0.088774
-0.134962
-0.171013
-0.210254
-0.231029
-0.228862
-0.230306
-0.204106
-0.172481
-0.115217
-0.043722
0.004242
0.038465
0.072782
0.091827
0.103706
0.097466
0.071019
0.040825
-0.004839
-0.057458
-0.099103
-0.158296
-0.173872
-0.209888
-0.202024
-0.187921
-0.152637
-0.134105
-0.103255
-0.053648
0.004906
0.041501
0.057649
0.073148
0.084560
0.081900
0.082661
0.055554
0.017793
-0.027621
-0.085042
-0.123494
-0.148089
-0.176246
-0.186465
-0.175600
-0.149954
-0.118188
-0.080283
-0.030478
0.008478
0.052331
0.083957
0.109663
0.109527
0.101571
0.071785
0.024884
-0.007386
-0.046918
-0.094919
-0.137390
-0.172312
-0.209051
-0.209548
-0.190775
-0.174906
-0.150721
-0.112643
-0.053867
-0.021559
0.018378
0.050712
0.082577
0.083277
0.062739
0.035157
-0.003621
-0.036167
-0.073535
-0.111751
-0.164961
-0.215000
-0.227648
-0.236407
-0.232156
-0.227097
-0.192628
-0.157678
-0.115465
-0.073653
-0.013699
0.018932
0.033126
0.043498
0.047283
0.053432
0.011390
-0.038100
-0.108960
-0.167367
-0.222617
-0.247388
-0.266760
-0.268735
-0.249617
-0.217889
-0.194081
-0.160241
-0.123361
-0.049274
-0.023195
0.001574
0.038822
0.055714
0.043966
0.019431
-0.017849
-0.060347
-0.088995
-0.128502
-0.181655
-0.228425
-0.245164
-0.262236
-0.256976
-0.239668
-0.210625
-0.166347
-0.133804
-0.094595
-0.035252
0.004168
0.046896
0.067438
0.054330
0.014038
-0.010501
-0.059065
-0.113381
-0.162946
-0.203849
-0.236988
-0.259474
-0.283388
-0.280182
-0.257790
-0.222495
-0.180536
-0.129110
-0.074542
-0.027644
0.011621
0.030186
0.041233
0.024957
-0.002188
-0.039326
-0.076187
-0.125470
-0.183511
-0.231803
-0.254735
-0.249207
-0.271199
-0.249545
-0.197632
-0.154354
-0.101656
-0.027595
0.044393
0.107056
0.135981
0.165736
0.173432
0.192435
0.203506
0.188988
0.179503
0.171732
0.150723
0.144836
0.129517
0.135460
0.145662
0.170389
0.228412
0.280964
0.352346
0.442434
0.540517
0.627575
0.691881
0.749109
0.805331
0.831890
0.825099
0.797600
0.740095
0.700806
0.619710
0.559237
0.482125
0.426901
0.377018
0.318884
0.266557
0.232504
0.228305
0.233329
0.231793
0.240081
0.227240
0.214784
0.195930
0.181948
0.151137
0.112561
0.058285
0.010541
-0.050406
-0.099071
-0.132146
-0.165510
-0.170823
-0.172616
-0.156674
-0.121349
-0.078044
-0.045988
0.000125
0.037478
0.076620
0.084978
0.087413
0.080470
0.069286
0.025083
-0.019370
-0.062678
-0.103145
-0.158428
-0.175746
-0.193940
-0.207815
-0.197449
-0.190823
-0.166951
-0.118545
-0.083189
-0.030428
0.006757
0.033324
0.076435
0.106247
0.104413
0.056340
0.009077
-0.031732
-0.071826
-0.129005
-0.161899
-0.199076
-0.214128
-0.220984
-0.211032
-0.194862
-0.165682
-0.119783
-0.079486
-0.030711
0.014908
0.043406
0.064808
0.071256
0.085294
0.073420
0.022660
-0.029067
-0.054688
-0.098011
-0.151737
-0.177825
-0.203808
-0.203348
-0.191375
-0.172896
-0.132000
-0.092126
-0.049929
0.005394
0.045753
0.067294
0.096901
0.113283
0.090124
0.067477
0.046106
-0.001639
-0.047550
-0.103109
-0.140549
-0.149126
-0.167059
-0.178859
-0.164255
-0.150802
-0.114568
-0.077641
-0.029333
0.025521
0.050911
0.080347
0.119335
0.136658
0.126877
0.101429
0.065449
0.062655
0.025122
-0.049511
-0.106809
-0.135335
-0.152789
-0.162838
-0.158100
-0.129965
-0.092404
-0.053163
0.002747
0.053631
0.107528
0.134993
0.147586
0.162635
0.155738
0.141030
0.116184
0.059534
0.011231
-0.006729
-0.042249
-0.089222
-0.122191
-0.120123
-0.110835
-0.086344
-0.067704
-0.038402
0.020370
0.070408
0.112727
0.144404
0.182015
0.166440
0.173989
0.171179
0.144602
0.099956
0.049026
-0.012189
-0.032216
-0.066379
-0.074812
-0.053742
-0.043173
-0.029760
-0.012190
0.022291
0.075965
0.108717
0.133688
0.175723
0.187397
0.196815
0.189960
0.158491
0.127139
0.093234
0.065585
0.039988
-0.019717
-0.063851
-0.094601
-0.096807
-0.084755
-0.060524
-0.031426
0.018248
0.058578
0.098183
0.133695
0.171637
0.182128
0.183629
0.173472
0.150913
0.108461
0.063464
0.020834
-0.027293
-0.069254
-0.095169
-0.109460
-0.137528
-0.132348
-0.107134
-0.107579
-0.081040
-0.001301
0.049906
0.086315
0.111724
0.146924
0.160305
0.139849
0.101236
0.068535
0.031731
-0.016153
-0.073547
-0.108118
-0.142435
-0.190748
-0.205779
-0.201190
-0.172670
-0.140855
-0.098436
-0.069246
-0.016275
0.034151
0.053728
0.077958
0.076162
0.075448
0.048820
0.019207
-0.011825
-0.049504
-0.092186
-0.145911
-0.195287
-0.233163
-0.238739
-0.227039
-0.201096
-0.167489
-0.131172
-0.081223
-0.055744
-0.010485
0.034217
0.061446
0.079608
0.047173
0.027458
-0.011012
-0.043908
-0.069551
-0.114087
-0.170177
-0.205880
-0.233041
-0.251577
-0.242829
-0.206442
-0.170384
-0.130242
-0.092840
-0.037171
0.000424
0.025803
0.048100
0.063325
0.051166
0.009249
-0.015039
-0.050020
-0.089223
-0.150379
-0.193692
-0.231761
-0.251903
-0.263875
-0.248199
-0.232060
-0.198676
-0.148950
-0.095822
-0.030083
0.004096
0.042949
0.074028
0.066152
0.045126
0.024465
-0.004240
-0.053749
-0.078487
-0.129378
-0.183304
-0.205940
-0.230076
-0.236220
-0.232825
-0.186318
-0.162769
-0.131703
-0.101224
-0.043004
-0.012054
0.017226
0.050475
0.067188
0.050298
0.020906
0.015514
-0.030452
-0.074406
-0.120923
-0.153552
-0.189012
-0.221390
-0.231821
-0.225858
-0.197916
-0.169652
-0.133696
-0.083101
-0.031671
0.004271
0.020325
0.038872
0.043730
0.042470
0.033114
0.005366
-0.031590
-0.075337
-0.125790
-0.164263
-0.197502
-0.229486
-0.237046
-0.232950
-0.218769
-0.181150
-0.140635
-0.101434
-0.054398
-0.005070
0.021611
0.046753
0.051993
0.055398
0.031673
-0.011028
-0.048191
-0.091748
-0.134244
-0.179970
-0.186381
-0.210337
-0.225161
-0.208435
-0.193393
-0.168671
-0.124613
-0.081923
-0.041273
-0.016575
0.021941
0.057907
0.078544
0.086073
0.066144
0.023114
-0.022367
-0.074130
-0.137335
-0.180842
-0.220175
-0.237599
-0.236943
-0.232588
-0.216786
-0.185112
-0.137598
-0.098050
-0.034748
0.019007
0.054957
0.078655
0.086391
0.057760
0.031554
0.002090
-0.041119
-0.074741
-0.126446
-0.174951
-0.200612
-0.226350
-0.235100
-0.227279
-0.213304
-0.185834
-0.150363
-0.108961
-0.065595
-0.012108
0.022249
0.049843
0.060493
0.040728
0.027566
0.007547
-0.034878
-0.087144
-0.139728
-0.174280
-0.210493
-0.245544
-0.269288
-0.262131
-0.211033
-0.154044
-0.133776
-0.110831
-0.060474
-0.014020
0.019917
0.064955
0.059894
0.025870
-0.004847
-0.035501
-0.070230
-0.109518
-0.155457
-0.223040
-0.274572
-0.273230
-0.260212
-0.249552
-0.220201
-0.182520
-0.151501
-0.118970
-0.067786
-0.028080
0.019030
0.076940
0.081676
0.066351
0.054469
0.001242
-0.046554
-0.097369
-0.146287
-0.173358
-0.202372
-0.237321
-0.255006
-0.239277
-0.201047
-0.168739
-0.137550
-0.099932
-0.059662
-0.017516
0.017881
0.041991
0.046362
0.037483
0.020483
-0.003747
-0.045864
-0.088500
-0.155262
-0.206702
-0.238348
-0.256820
-0.256536
-0.254874
-0.236043
-0.201760
-0.156306
-0.101589
-0.041769
0.000581
0.048259
0.067062
0.050968
0.024596
0.052828
0.032056
-0.034741
-0.082447
-0.124065
-0.166721
-0.204120
-0.196744
-0.193939
-0.200557
-0.185271
-0.174760
-0.133233
-0.086394
-0.037964
-0.003385
0.036463
0.070391
0.079267
0.088769
0.057839
0.003833
-0.033834
-0.087050
-0.135553
-0.171953
-0.198578
-0.222421
-0.233412
-0.215729
-0.184675
-0.149324
-0.127686
-0.078821
-0.015417
0.013002
0.059472
0.075854
0.097625
0.130316
0.113371
0.092201
0.043609
-0.026742
-0.084459
-0.126321
-0.159812
-0.194651
-0.213963
-0.202983
-0.182240
-0.144104
-0.079736
-0.042414
-0.034903
0.005255
0.043543
0.069665
0.080219
0.072901
0.035962
-0.000694
-0.047186
-0.095541
-0.145510
-0.176393
-0.204496
-0.240571
-0.250489
-0.218411
-0.212723
-0.196850
-0.176709
-0.125259
-0.077826
-0.020658
0.024229
0.053931
0.043534
0.033720
-0.003961
-0.032068
-0.072176
-0.105894
-0.150065
-0.175441
-0.221013
-0.254228
-0.268730
-0.263491
-0.240427
-0.218137
-0.181691
-0.152150
-0.091595
-0.036505
-0.006273
0.015857
0.017405
-0.001236
-0.014031
-0.039882
-0.100560
-0.122822
-0.161687
-0.196237
-0.212517
-0.247467
-0.282904
-0.280770
-0.261503
-0.237093
-0.194488
-0.154141
-0.086732
-0.046148
-0.004163
0.010393
0.010595
0.012929
-0.021804
-0.069483
-0.111881
-0.166512
-0.206025
-0.233701
-0.261834
-0.276638
-0.266572
-0.252399
-0.237830
-0.211384
-0.167439
-0.122969
-0.074137
-0.038138
-0.015043
0.017309
0.016864
-0.004522
-0.023062
-0.051566
-0.101601
-0.144899
-0.190126
-0.217710
-0.247193
-0.288352
-0.308252
-0.269559
-0.262591
-0.236347
-0.174095
-0.144847
-0.093125
-0.029184
0.021632
0.074466
0.102819
0.104811
0.085966
0.060472
0.027320
0.000630
-0.024677
-0.057054
-0.081654
-0.084381
-0.069833
-0.051644
-0.000243
0.047016
0.115166
0.184154
0.243149
0.361553
0.421354
0.463369
0.503749
0.506726
0.518285
0.524959
0.524245
0.531083
0.513490
0.512231
0.513004
0.504881
0.488552
0.479333
0.504902
0.534494
0.569746
0.597034
0.619156
0.615544
0.591053
0.529243
0.463306
0.403875
0.337335
0.266316
0.156728
0.062857
-0.020315
-0.076932
-0.144279
-0.175532
-0.185111
-0.168439
-0.143636
-0.104791
-0.079663
-0.082041
-0.020110
0.040260
0.072878
0.099480
0.107635
0.094938
0.073712
0.038656
-0.022245
-0.066281
-0.118177
-0.168934
-0.193689
-0.215500
-0.222369
-0.235551
-0.201267
-0.175783
-0.132346
-0.090735
-0.063585
-0.018827
0.031270
0.047559
0.057842
0.059244
0.053736
0.016181
-0.030978
-0.078077
-0.136344
-0.176432
-0.198977
-0.224818
-0.233351
-0.228006
-0.215528
-0.177791
-0.132656
-0.087438
-0.038533
0.002935
0.026543
0.058088
0.065961
0.052467
0.026027
-0.013471
-0.060726
-0.097130
-0.137720
-0.184999
-0.217372
-0.242858
-0.239428
-0.223050
-0.214040
-0.167814
-0.107894
-0.080074
-0.048368
-0.009915
0.029608
0.075420
0.082813
0.084086
0.065309
0.016630
-0.032113
-0.082622
-0.126806
-0.162300
-0.181381
-0.201075
-0.221301
-0.218042
-0.174762
-0.149659
-0.111584
-0.067417
-0.033248
0.013594
0.052611
0.070160
0.074605
0.073607
0.057819
0.042775
0.005224
-0.031603
-0.070141
-0.118513
-0.151321
-0.179713
-0.201268
-0.185636
-0.144868
-0.117450
-0.080771
-0.032009
0.008942
0.037727
0.083751
0.113448
0.127825
0.133004
0.123552
0.092450
0.066630
0.003963
-0.057236
-0.097709
-0.113522
-0.136401
-0.145786
-0.134772
-0.125497
-0.093263
-0.033433
0.013220
0.067772
0.109431
0.147708
0.161875
0.178499
0.178668
0.154989
0.116840
0.059975
0.042878
-0.013316
-0.050304
-0.074918
-0.100079
-0.108433
-0.089236
-0.085475
-0.051938
-0.013134
0.041006
0.093624
0.122464
0.153529
0.186008
0.190594
0.186060
0.164307
0.131944
0.089996
0.038944
-0.006734
-0.052740
-0.082398
-0.094928
-0.106253
-0.108929
-0.084088
-0.050777
-0.019109
0.015154
0.073446
0.124282
0.154144
0.170531
0.179575
0.172563
0.147177
0.105676
0.074656
0.029076
-0.023201
-0.066298
-0.096348
-0.136791
-0.151322
-0.150166
-0.125509
-0.099772
-0.061585
-0.023487
0.031058
0.078616
0.107657
0.144463
0.150486
0.151648
0.109040
0.075976
0.054268
0.007922
-0.049255
-0.112073
-0.139257
-0.174344
-0.181401
-0.182459
-0.161993
-0.129143
-0.093864
-0.058846
0.000881
0.052103
0.066476
0.093108
0.084933
0.091291
0.067224
0.039857
-0.016143
-0.064696
-0.114697
-0.145198
-0.178830
-0.202585
-0.216511
-0.215415
-0.199098
-0.180246
-0.150290
-0.096259
-0.033571
0.005114
0.028839
0.055184
0.075209
0.069084
0.035776
-0.013871
-0.052541
-0.107762
-0.145111
-0.185670
-0.219845
-0.246805
-0.261678
-0.254533
-0.223071
-0.198022
-0.167500
-0.120541
-0.065157
-0.018266
0.015406
0.040841
0.047074
0.036141
0.013681
-0.026268
-0.073273
-0.105699
-0.151677
-0.201395
-0.241404
-0.286474
-0.293561
-0.270430
-0.227415
-0.204476
-0.179579
-0.131676
-0.076800
-0.035272
-0.005936
0.020964
0.030745
0.022558
0.004386
-0.011677
-0.038947
-0.082756
-0.144181
-0.183078
-0.210600
-0.252682
-0.260488
-0.245335
-0.233653
-0.203993
-0.149947
-0.113029
-0.064199
-0.016320
0.022853
0.049904
0.043705
0.029188
0.001777
-0.005144
-0.052311
-0.104124
-0.161342
-0.189945
-0.208072
-0.239876
-0.230427
-0.237698
-0.223064
-0.199604
-0.159348
-0.125938
-0.072407
-0.022031
0.012629
0.054362
0.044671
0.033367
0.017196
-0.013144
-0.053856
-0.071766
-0.111663
-0.173297
-0.220467
-0.235096
-0.239703
-0.239000
-0.219657
-0.180189
-0.142102
-0.098313
-0.052316
-0.000566
0.023716
0.037537
0.047436
0.031452
0.016426
-0.018904
-0.046720
-0.081024
-0.124897
-0.159729
-0.194066
-0.225682
-0.239611
-0.236520
-0.225722
-0.189637
-0.143042
-0.106797
-0.061722
-0.007038
0.021789
0.039784
0.050389
0.034474
0.017282
-0.016101
-0.066083
-0.106852
-0.133637
-0.195324
-0.221411
-0.239158
-0.240791
-0.215576
-0.202152
-0.173145
-0.139598
-0.113580
-0.074625
-0.014005
0.041358
0.068061
0.071623
0.059499
0.027202
-0.007943
-0.060661
-0.103248
-0.159899
-0.191483
-0.200093
-0.233619
-0.250783
-0.229336
-0.218053
-0.193316
-0.148976
-0.109226
-0.065005
-0.017815
0.005440
0.025817
0.034936
0.026926
0.017903
-0.016156
-0.061817
-0.112135
-0.158588
-0.206091
-0.235707
-0.261866
-0.250917
-0.240673
-0.224743
-0.200116
-0.150105
-0.094452
-0.043047
-0.011350
0.014302
0.035616
0.043261
0.026048
0.006250
-0.020717
-0.062785
-0.104050
-0.168011
-0.214656
-0.251830
-0.272917
-0.301902
-0.289246
-0.260427
-0.226636
-0.189826
-0.145287
-0.090034
-0.037914
-0.002060
0.013510
0.059078
0.049250
0.012013
-0.016101
-0.062309
-0.101608
-0.159891
-0.195103
-0.214318
-0.253825
-0.257965
-0.263396
-0.248019
-0.214425
-0.183898
-0.111605
-0.043618
-0.000133
0.026933
0.045333
0.035983
0.020326
0.003039
-0.037771
-0.064865
-0.103857
-0.139237
-0.194043
-0.234053
-0.248155
-0.240555
-0.247551
-0.246271
-0.218868
-0.171435
-0.125209
-0.071659
-0.034652
0.000947
0.032977
0.043939
0.025726
0.021220
-0.002769
-0.045593
-0.092206
-0.139365
-0.180286
-0.207653
-0.226484
-0.243914
-0.229454
-0.207702
-0.172066
-0.137908
-0.095214
-0.048140
-0.008826
0.006124
0.078118
0.088358
0.059941
0.025759
0.005578
-0.014223
-0.057166
-0.123830
-0.171811
-0.206053
-0.226791
-0.248695
-0.247938
-0.235725
-0.204828
-0.159785
-0.122571
-0.060331
-0.007326
0.024867
0.047197
0.056889
0.057670
0.039580
0.028824
-0.005629
-0.063172
-0.110396
-0.150281
-0.147316
-0.179000
-0.208104
-0.206826
-0.186201
-0.144233
-0.112140
-0.073616
-0.016944
0.018949
0.033636
0.052019
0.066121
0.051020
0.034740
0.000961
-0.053033
-0.103300
-0.156361
-0.208386
-0.232255
-0.264204
-0.265038
-0.252138
-0.211486
-0.188918
-0.163876
-0.129635
-0.077443
-0.044876
-0.018348
0.028478
0.047602
0.038425
0.018876
-0.015798
-0.052550
-0.103827
-0.165691
-0.197310
-0.235910
-0.268924
-0.257192
-0.252673
-0.255125
-0.225162
-0.187549
-0.142067
-0.087796
-0.063582
-0.032456
0.011359
0.005778
-0.021219
-0.044540
-0.079942
-0.106400
-0.146759
-0.202628
-0.236316
-0.273739
-0.289285
-0.306683
-0.296065
-0.264669
-0.217752
-0.175372
-0.125024
-0.092318
-0.057475
-0.040132
-0.009721
-0.001452
0.007834
-0.026602
-0.073802
-0.124400
-0.169209
-0.215267
-0.246502
-0.261727
-0.296340
-0.319772
-0.305174
-0.267535
-0.222297
-0.185847
-0.142126
-0.105465
-0.072117
-0.032301
-0.006804
-0.019183
-0.025745
-0.046440
-0.071727
-0.118382
-0.155273
-0.191469
-0.241938
-0.241518
-0.288482
-0.298515
-0.294831
-0.266223
-0.241307
-0.199585
-0.157681
-0.096250
-0.058511
-0.046793
0.007972
0.023330
0.027498
0.020811
0.016400
-0.029348
-0.070393
-0.100344
-0.131631
-0.137905
-0.121805
-0.121315
-0.113947
-0.097663
-0.047636
0.012721
0.078851
0.158550
0.225999
0.283041
0.339395
0.393450
0.421319
0.429695
0.424373
0.420217
0.405587
0.394629
0.383183
0.388499
0.402051
0.434761
0.463662
0.512744
0.558879
0.590781
0.627084
0.684702
0.707283
0.714132
0.733963
0.714354
0.676378
0.591481
0.483578
0.389896
0.277074
0.170215
0.085783
0.004304
-0.081464
-0.117056
-0.121271
-0.120821
-0.113053
-0.071255
-0.014705
0.027292
0.055470
0.077017
0.086278
0.089688
0.072998
0.050453
-0.004435
-0.032648
-0.058902
-0.101094
-0.152440
-0.199349
-0.223324
-0.227156
-0.222304
-0.213926
-0.179065
-0.132106
-0.095422
-0.035188
0.016345
0.044885
0.061470
0.092637
0.077531
0.048338
0.006240
-0.044076
-0.082643
-0.139607
-0.173000
-0.200395
-0.233812
-0.247013
-0.230110
-0.205823
-0.163321
-0.133998
-0.089607
-0.049643
-0.013811
0.006000
0.022147
0.054187
0.051785
0.019391
-0.006492
-0.042323
-0.078185
-0.126399
-0.170495
-0.210178
-0.243383
-0.258624
-0.253074
-0.242549
-0.210688
-0.159492
-0.095401
-0.043883
-0.011749
0.014419
0.033454
0.034407
0.056100
0.029060
-0.021104
-0.053488
-0.082536
-0.125394
-0.149095
-0.145724
-0.182674
-0.210126
-0.212925
-0.184643
-0.152133
-0.115932
-0.070732
-0.021202
0.022667
0.059711
0.085653
0.080756
0.070824
0.062525
0.036682
-0.012250
-0.058253
-0.117996
-0.150008
-0.173893
-0.202278
-0.204628
-0.190447
-0.179237
-0.144755
-0.098912
-0.054696
0.011504
0.069315
0.102364
0.134505
0.125692
0.108287
0.096731
0.049902
0.009161
-0.010132
-0.047258
-0.081965
-0.119797
-0.148943
-0.145335
-0.148821
-0.132933
-0.095722
-0.041697
0.003563
0.047333
0.086922
0.127737
0.160194
0.165736
0.151067
0.126854
0.078062
0.068811
0.053199
-0.005011
-0.056811
-0.070671
-0.100502
-0.118033
-0.112439
-0.109101
-0.081520
-0.041740
0.032876
0.087293
0.112420
0.127922
0.145883
0.188793
0.205428
0.175741
0.114343
0.120496
0.048589
-0.002051
-0.034911
-0.083847
-0.109559
-0.115887
-0.112233
-0.087198
-0.052891
-0.019768
0.017778
0.060822
0.104290
0.140495
0.154530
0.170616
0.137742
0.110217
0.075736
0.050530
0.032832
0.008351
-0.058615
-0.120723
-0.106172
-0.120388
-0.127917
-0.118554
-0.092367
-0.039054
0.012019
0.084779
0.122945
0.134476
0.139811
0.150799
0.145544
0.152432
0.111181
0.042945
0.009141
-0.037473
-0.100829
-0.129944
-0.163097
-0.170947
-0.160452
-0.147314
-0.115230
-0.080350
-0.027839
0.009874
0.039210
0.062687
0.083039
0.091521
0.087345
0.070059
0.038646
-0.006235
-0.053305
-0.099742
-0.161969
-0.189531
-0.197478
-0.188886
-0.181617
-0.168570
-0.162308
-0.129705
-0.072642
-0.030353
-0.001087
0.024763
0.042264
0.059720
0.065542
0.035336
-0.008570
-0.011145
-0.064417
-0.138945
-0.188730
-0.226403
-0.252979
-0.251639
-0.235337
-0.222349
-0.187434
-0.149359
-0.102136
-0.048066
-0.021489
0.001561
0.049763
0.063338
0.040846
0.010891
-0.025573
-0.089610
-0.106209
-0.160230
-0.204383
-0.234846
-0.267711
-0.268667
-0.251421
-0.206713
-0.168224
-0.116095
-0.075973
-0.032126
-0.004793
0.017876
0.052932
0.067998
0.053638
0.031422
-0.016117
-0.065962
-0.127476
-0.165000
-0.196746
-0.239811
-0.273244
-0.268625
-0.244738
-0.244349
-0.203546
-0.135264
-0.093990
-0.031840
0.003968
0.040486
0.063070
0.075610
0.065838
0.033685
0.005478
-0.032754
-0.075951
-0.128004
-0.171272
-0.194189
-0.207498
-0.237901
-0.233246
-0.218708
-0.155232
-0.128357
-0.089890
-0.034384
0.015083
0.043957
0.052123
0.072028
0.043674
0.020095
-0.021184
-0.046793
-0.048269
-0.093047
-0.149607
-0.190454
-0.236152
-0.248081
-0.231557
-0.184732
-0.134019
-0.130290
-0.112168
-0.062622
-0.003182
0.011760
0.069558
0.057841
0.036952
0.020075
-0.014984
-0.064790
-0.093735
-0.146973
-0.189607
-0.216801
-0.262925
-0.280812
-0.237954
-0.202516
-0.167552
-0.110491
-0.026097
0.007803
0.030778
0.054320
0.083393
0.080820
0.063037
0.032489
0.004710
-0.035704
-0.094623
-0.103973
-0.131447
-0.181177
-0.215035
-0.221157
-0.217500
-0.185938
-0.163709
-0.127347
-0.090094
-0.047143
0.005227
0.029141
0.052059
0.060247
0.056110
0.038016
0.001730
-0.025866
-0.072094
-0.124125
-0.163146
-0.209022
-0.218658
-0.235368
-0.233184
-0.222110
-0.180188
-0.128835
-0.082697
-0.066133
-0.055155
0.032242
0.082881
0.083264
0.047565
0.025161
0.014372
0.004991
-0.035534
-0.102951
-0.160690
-0.206187
-0.229177
-0.239239
-0.235371
-0.212932
-0.172430
-0.144050
-0.115680
-0.067107
-0.013403
0.019643
0.045012
0.062531
0.064974
0.061357
0.013716
-0.029536
-0.097047
-0.183182
-0.179867
-0.199391
-0.253673
-0.233320
-0.190925
-0.181099
-0.187264
-0.162610
-0.108784
-0.079219
-0.032875
-0.030164
0.063883
0.092458
0.067179
0.042771
0.016361
-0.004273
-0.045129
-0.110592
-0.167372
-0.210322
-0.231180
-0.232764
-0.219227
-0.203525
-0.185740
-0.132414
-0.088126
-0.034124
0.007722
0.032212
0.062905
0.052014
0.035162
0.006455
-0.024206
-0.097251
-0.089877
-0.116642
-0.137507
-0.172404
-0.210808
-0.232548
-0.219311
-0.209199
-0.178223
-0.131089
-0.086408
-0.037219
0.012935
0.058142
0.089945
0.085331
0.073589
0.057885
0.030214
-0.018203
-0.063956
-0.102308
-0.127236
-0.147757
-0.168068
-0.198546
-0.220268
-0.200654
-0.164278
-0.124000
-0.061534
0.011712
0.087237
0.103865
0.103003
0.119317
0.103764
0.077891
0.048518
0.005450
-0.051134
-0.095584
-0.139413
-0.181137
-0.208428
-0.203068
-0.195232
-0.183056
-0.159341
-0.119334
-0.066328
-0.004563
0.046728
0.067696
0.139226
0.155025
0.135929
0.082469
0.076849
0.027076
-0.022463
-0.055905
-0.095067
-0.144056
-0.171090
-0.182081
-0.181031
-0.160754
-0.131409
-0.111716
-0.076256
-0.013800
0.025426
0.058188
0.076276
0.082033
0.102119
0.097168
0.047174
-0.012937
-0.057383
-0.110223
-0.147957
-0.175726
-0.206623
-0.233247
-0.246928
-0.192776
-0.184582
-0.091414
-0.049322
-0.033863
-0.000711
0.030241
0.045867
0.055874
0.050586
0.028850
-0.009322
-0.050816
-0.101302
-0.148152
-0.206881
-0.220105
-0.239947
-0.261759
-0.265376
-0.229328
-0.185066
-0.139710
-0.113798
-0.060066
-0.015373
0.011646
0.035729
0.031663
-0.001166
0.001918
-0.013889
-0.040786
-0.095398
-0.145256
-0.203233
-0.247235
-0.276357
-0.271421
-0.258152
-0.264299
-0.132442
-0.083991
-0.086641
-0.062183
-0.020579
0.014268
0.033077
0.025222
0.003360
-0.007635
-0.022323
-0.064761
-0.111363
-0.127841
-0.177464
-0.212367
-0.242325
-0.249593
-0.240088
-0.223749
-0.198341
-0.144168
-0.120091
-0.067190
-0.016438
0.026891
0.058226
0.065616
0.073962
0.044995
0.008409
-0.030919
-0.088889
-0.144262
-0.189786
-0.224212
-0.248899
-0.263388
-0.255310
-0.234640
-0.202657
-0.167738
-0.116104
-0.065439
-0.006119
0.036261
0.077277
0.095703
0.109905
0.115133
0.091997
0.081461
0.052492
0.028152
-0.015067
-0.037635
-0.058865
-0.063763
-0.024733
0.025499
0.077716
0.156713
0.243054
0.339230
0.418503
0.480744
0.554672
0.601567
0.620581
0.632424
0.639059
0.649751
0.638291
0.620221
0.606856
0.603934
0.573285
0.557231
0.565061
0.592703
0.603256
0.624239
0.628435
0.643928
0.636036
0.605281
0.550549
0.492768
0.430705
0.359633
0.281402
0.188229
0.102764
0.035454
-0.002260
-0.038149
-0.077966
-0.089795
-0.089083
-0.088619
-0.067419
-0.038748
-0.001138
0.054425
0.104502
0.157067
0.194251
0.170833
0.127723
0.109470
0.113792
0.071530
0.032660
-0.048413
-0.103370
-0.121849
-0.143617
-0.175179
-0.177238
-0.152536
-0.140049
-0.098889
-0.062899
-0.034761
0.043533
0.059824
0.096456
0.133525
0.125266
0.084767
0.035061
0.009742
-0.033611
-0.101468
-0.147554
-0.170984
-0.208115
-0.196589
-0.158083
-0.135286
-0.117212
-0.080268
-0.048262
-0.031296
0.025037
0.076041
0.105021
0.087848
0.075777
0.050323
0.039967
0.009913
-0.038787
-0.090822
-0.120459
-0.128604
-0.153206
-0.181206
-0.182185
-0.153923
-0.112542
-0.073414
-0.032327
0.015576
0.054996
0.093601
0.117188
0.120155
0.124560
0.087061
0.059203
0.027339
-0.013586
-0.065169
-0.111777
-0.139456
-0.163240
-0.188334
-0.176338
-0.151402
-0.096144
-0.040491
-0.004450
0.031164
0.078018
0.120737
0.145372
0.153316
0.131646
0.114168
0.083991
0.050262
0.017277
-0.012407
-0.052459
-0.102795
-0.141747
-0.145302
-0.133242
-0.102417
-0.069856
-0.015320
0.017362
0.046476
0.122431
0.139333
0.146714
0.208787
0.196575
0.169775
0.144127
0.095893
0.053774
0.016900
-0.028091
-0.069123
-0.099393
-0.101981
-0.083796
-0.062115
-0.031539
0.011013
0.046748
0.088608
0.129358
0.175705
0.198753
0.193001
0.196989
0.199421
0.160100
0.131889
0.076256
0.050415
0.033810
-0.021534
-0.067031
-0.047409
-0.004737
0.016130
0.030042
0.055695
0.097775
0.148136
0.194206
0.233794
0.253840
0.216072
0.195297
0.205788
0.203787
0.151601
0.116920
0.050660
0.012878
-0.015515
-0.050135
-0.062976
-0.049851
-0.014367
0.012165
0.046145
0.088672
0.125726
0.167388
0.207838
0.238067
0.238370
0.224917
0.191498
0.153678
0.105053
0.062697
0.013271
-0.015517
-0.052871
-0.086549
-0.096916
-0.092301
-0.065924
-0.042228
-0.014478
0.028300
0.067148
0.162940
0.197613
0.221266
0.213848
0.196714
0.173391
0.137210
0.090224
0.039828
-0.014725
-0.052800
-0.087877
-0.122931
-0.144159
-0.141643
-0.110157
-0.067017
-0.057739
-0.026082
0.006004
0.079897
0.125067
0.133387
0.151967
0.172662
0.140595
0.123018
0.082879
0.056319
-0.012456
-0.070597
-0.099042
-0.132178
-0.143553
-0.152601
-0.141783
-0.118147
-0.083700
-0.020826
0.035687
0.065259
0.087063
0.090850
0.092628
0.090751
0.081387
0.051204
0.008635
-0.040878
-0.062073
-0.102100
-0.126277
-0.158573
-0.187652
-0.183134
-0.165696
-0.116102
-0.065549
-0.036784
0.005099
0.061173
0.080892
0.085082
0.082491
0.070647
0.053586
0.006726
-0.003449
0.014579
-0.055210
-0.129625
-0.173530
-0.194542
-0.201996
-0.208396
-0.156544
-0.113478
-0.081715
-0.039304
0.002778
0.029482
0.072141
0.105940
0.111623
0.095605
0.070711
0.057624
0.011566
-0.040725
-0.086064
-0.128685
-0.164830
-0.172025
-0.189293
-0.183626
-0.172147
-0.123525
-0.074398
-0.038306
0.013039
0.044209
0.090645
0.129762
0.151622
0.135206
0.101486
0.072039
0.044010
0.009689
-0.067635
-0.126862
-0.134366
-0.168450
-0.193483
-0.185274
-0.170718
-0.128852
-0.059161
-0.015084
0.017429
0.060449
0.081433
0.126734
0.139278
0.097977
0.108034
0.084009
0.036497
0.006466
-0.026286
-0.043847
-0.108046
-0.167254
-0.188723
-0.184219
-0.160891
-0.131100
-0.104312
-0.039909
0.046845
0.081700
0.089846
0.109397
0.121379
0.126277
0.122583
0.084819
0.027450
-0.010198
-0.069620
-0.128017
-0.157283
-0.172099
-0.174958
-0.185572
-0.133345
-0.138362
-0.101972
-0.053170
0.023490
0.061726
0.110611
0.131787
0.148144
0.129931
0.108358
0.075736
0.043315
0.026394
-0.026264
-0.080954
-0.118692
-0.136447
-0.160822
-0.153566
-0.133444
-0.108693
-0.055442
-0.008555
0.032670
0.072866
0.102166
0.120427
0.135072
0.126823
0.097269
0.072219
0.039471
-0.006406
-0.071938
-0.115292
-0.134510
-0.158613
-0.175454
-0.192045
-0.175137
-0.129610
-0.047600
0.001343
0.043457
0.070809
0.083697
0.121902
0.151139
0.139328
0.109074
0.075427
0.036346
-0.008872
-0.057308
-0.104245
-0.148703
-0.180414
-0.194566
-0.179705
-0.146640
-0.123016
-0.098165
-0.065864
-0.025388
0.025123
0.068611
0.089598
0.110401
0.086884
0.081642
0.045397
-0.001406
-0.009486
-0.022300
-0.049965
-0.106989
-0.143271
-0.171202
-0.185650
-0.166586
-0.134521
-0.097884
-0.058369
-0.006442
0.035953
0.100894
0.130311
0.136786
0.121166
0.103961
0.072795
0.026933
-0.028061
-0.094762
-0.144939
-0.168759
-0.196710
-0.180020
-0.171451
-0.143048
-0.111588
-0.071824
-0.030839
0.005856
0.037533
0.099631
0.107488
0.098339
0.079942
0.072912
0.032532
-0.003877
-0.035202
-0.093733
-0.120978
-0.149389
-0.164856
-0.172740
-0.151854
-0.149376
-0.123964
-0.071750
-0.027824
-0.005448
0.030229
0.072326
0.107899
0.126948
0.105433
0.098672
0.064450
0.016182
-0.038924
-0.080700
-0.138663
-0.146162
-0.173014
-0.187010
-0.195444
-0.173135
-0.135236
-0.091756
-0.053798
0.024476
0.087438
0.104351
0.112484
0.124837
0.126401
0.129738
0.103096
0.055105
0.006834
-0.049480
-0.101049
-0.108474
-0.154145
-0.169930
-0.164731
-0.131548
-0.085744
-0.031513
0.019868
0.054905
0.084996
0.114011
0.134641
0.147457
0.139245
0.123211
0.092338
0.049582
0.009795
-0.029548
-0.084698
-0.114137
-0.139267
-0.148909
-0.146615
-0.122792
-0.082066
-0.031113
0.024518
0.080494
0.108152
0.132874
0.158777
0.172101
0.148500
0.133087
0.105848
0.057794
0.030113
0.005897
-0.036527
-0.091321
-0.131270
-0.131513
-0.114684
-0.097676
-0.072845
-0.039411
-0.005909
0.044419
0.077121
0.111534
0.137547
0.140894
0.133482
0.113696
0.080649
0.040742
-0.006125
-0.061244
-0.115999
-0.153626
-0.192126
-0.192395
-0.188481
-0.170852
-0.137061
-0.077332
-0.029994
0.020701
0.062700
0.097987
0.146690
0.162413
0.147415
0.110320
0.071750
0.024805
-0.033041
-0.078246
-0.118581
-0.160372
-0.187108
-0.193300
-0.190063
-0.162008
-0.137972
-0.109167
-0.069345
-0.016382
0.008341
0.041200
0.072376
0.084287
0.076255
0.069244
0.048357
0.016834
-0.028933
-0.071609
-0.134748
-0.168165
-0.195135
-0.198101
-0.189623
-0.156616
-0.127394
-0.094606
-0.047930
-0.005167
0.042761
0.080700
0.105730
0.108737
0.101306
0.084016
0.052416
0.002926
-0.041473
-0.102324
-0.145262
-0.168079
-0.187155
-0.191910
-0.195338
-0.188005
-0.155805
-0.102585
-0.045208
0.002720
0.040411
0.073858
0.098344
0.116144
0.108711
0.082577
0.044778
0.003463
-0.040354
-0.080730
-0.136139
-0.167330
-0.189152
-0.202517
-0.205501
-0.191948
-0.169751
-0.135628
-0.098795
-0.024312
0.046537
0.079178
0.100901
0.113907
0.117582
0.125708
0.096521
0.053500
0.062688
0.035461
0.019072
-0.008795
-0.020090
-0.033707
-0.004629
0.034647
0.072538
0.139709
0.195359
0.282207
0.364466
0.442321
0.491474
0.537849
0.574273
0.594971
0.602894
0.588728
0.565161
0.559221
0.570510
0.579435
0.578937
0.606156
0.645810
0.685883
0.706155
0.715051
0.759817
0.781109
0.805215
0.811397
0.797688
0.784869
0.714889
0.605102
0.499559
0.401649
0.321099
0.215659
0.122260
0.043505
-0.012388
-0.035909
-0.031008
-0.013974
0.023620
0.056134
0.067661
0.108765
0.155288
0.188362
0.201319
0.226507
0.220706
0.199263
0.139722
0.088790
0.052112
0.005072
-0.042859
-0.079473
-0.115502
-0.117401
-0.098124
-0.099660
-0.076006
-0.035018
-0.011472
0.038056
0.069858
0.119935
0.127212
0.130168
0.141395
0.151789
0.117767
0.068668
0.025062
-0.042076
-0.094390
-0.144446
-0.179762
-0.205745
-0.157132
-0.137923
-0.098872
-0.054580
-0.016663
0.043104
0.083640
0.107763
0.152925
0.157694
0.148862
0.102607
0.069334
0.048107
0.014015
-0.034567
-0.066635
-0.097062
-0.109448
-0.145345
-0.120848
-0.085305
-0.072137
-0.032160
0.017449
0.071117
0.113871
0.141714
0.157185
0.161696
0.157513
0.145747
0.115346
0.085158
0.034384
-0.017838
-0.067090
-0.098058
-0.127479
-0.134016
-0.119139
-0.073814
-0.053558
-0.030321
-0.015191
0.085078
0.149511
0.169629
0.185109
0.190840
0.175033
0.154422
0.117202
0.072159
0.036253
-0.023093
-0.063471
-0.105170
-0.136993
-0.146852
-0.128635
-0.088448
-0.034220
0.040833
0.104846
0.143962
0.175098
0.175372
0.187134
0.212164
0.217497
0.194453
0.154393
0.106025
0.061064
0.015714
-0.004530
-0.042812
-0.074260
-0.084468
-0.061776
-0.052494
-0.017233
0.020524
0.064578
0.104481
0.161246
0.199410
0.226984
0.248957
0.241944
0.218088
0.180621
0.136700
0.107537
0.108004
0.055844
0.026639
0.009084
-0.013598
-0.017022
0.003491
0.041310
0.100180
0.155370
0.205522
0.238805
0.268577
0.289535
0.303452
0.280613
0.251003
0.216279
0.171976
0.126344
0.096828
0.060667
0.021231
-0.001663
-0.022282
-0.013608
0.002261
0.031514
0.069957
0.099996
0.149429
0.213634
0.250070
0.265611
0.281753
0.261205
0.234837
0.208951
0.167463
0.121337
0.068667
0.016103
-0.022238
-0.041055
-0.040473
-0.031499
-0.025338
0.016906
0.077088
0.104385
0.128611
0.190388
0.226786
0.252817
0.236076
0.226935
0.211484
0.179921
0.137252
0.101708
0.061220
0.011832
-0.023974
-0.038311
-0.051670
-0.062077
-0.062401
-0.040210
-0.007991
0.030545
0.073598
0.108838
0.135413
0.162083
0.180520
0.165806
0.143993
0.111339
0.061901
0.036212
0.001963
-0.062344
-0.107842
-0.140090
-0.145887
-0.129371
-0.101910
-0.059480
-0.014433
0.019103
0.044243
0.107155
0.144610
0.155374
0.153459
0.145475
0.129501
0.099591
0.062956
0.022590
-0.033991
-0.070973
-0.122653
-0.149475
-0.164938
-0.155054
-0.132312
-0.096286
-0.060657
-0.019417
0.036779
0.052455
0.073782
0.131093
0.172557
0.147469
0.116350
0.075191
0.016548
-0.015236
-0.050303
-0.116181
-0.147359
-0.168669
-0.151470
-0.153898
-0.117696
-0.091706
-0.076383
-0.042485
0.007699
0.074640
0.114285
0.127675
0.123932
0.142616
0.132788
0.089624
0.039883
-0.016420
-0.060933
-0.095451
-0.124167
-0.146812
-0.152990
-0.131243
-0.099190
-0.071450
-0.025794
0.017262
0.057073
0.091313
0.131181
0.145212
0.163888
0.149009
0.125226
0.079032
0.041037
-0.003481
-0.046056
-0.091992
-0.118538
-0.168011
-0.161797
-0.155842
-0.138021
-0.106223
-0.072681
-0.024825
0.027619
0.072768
0.099194
0.156442
0.164257
0.136543
0.107371
0.087677
0.077887
0.040642
-0.019606
-0.063964
-0.095069
-0.135814
-0.159137
-0.134350
-0.114176
-0.084163
-0.046289
-0.007357
0.034714
0.084209
0.112368
0.136009
0.143723
0.138841
0.132351
0.110985
0.067606
0.030383
-0.017960
-0.064680
-0.108157
-0.127819
-0.134490
-0.141728
-0.126193
-0.119031
-0.051382
0.001978
0.043178
0.079375
0.104682
0.128844
0.126868
0.115560
0.113216
0.095745
0.044766
0.007015
-0.045159
-0.072565
-0.089781
-0.109890
-0.122422
-0.113559
-0.114738
-0.105401
-0.063414
-0.024468
0.032972
0.079969
0.120880
0.138628
0.147066
0.116074
0.086719
0.046198
0.018179
-0.008621
-0.018379
-0.057507
-0.117162
-0.158062
-0.146514
-0.139949
-0.142815
-0.106507
-0.033155
0.034859
0.058588
0.105177
0.128156
0.149463
0.134112
0.154250
0.156043
0.117714
0.070739
-0.007698
-0.051498
-0.076827
-0.115454
-0.140585
-0.166232
-0.171382
-0.147152
-0.103510
-0.041438
0.012529
0.046391
0.094359
0.127278
0.158684
0.173916
0.166213
0.135617
0.080355
0.036502
0.003000
-0.047648
-0.087381
-0.082101
-0.090738
-0.163463
-0.167725
-0.145723
-0.128815
-0.082411
-0.028556
0.029080
0.078418
0.102197
0.138066
0.148775
0.139620
0.120339
0.086033
0.048010
-0.006963
-0.051509
-0.089621
-0.130060
-0.153352
-0.175671
-0.175681
-0.149308
-0.114093
-0.068753
-0.018033
0.019107
0.061926
0.097250
0.119086
0.119962
0.117766
0.112627
0.080886
0.038432
0.002477
-0.046792
-0.094948
-0.124574
-0.155451
-0.164146
-0.161700
-0.140218
-0.109946
-0.072530
-0.026731
0.024764
0.064968
0.090018
0.111120
0.121530
0.102520
0.085487
0.039937
-0.005244
-0.041443
-0.074546
-0.111265
-0.136471
-0.140837
-0.151481
-0.156397
-0.134823
-0.087668
-0.055092
-0.007859
0.049100
0.081984
0.105267
0.111067
0.117972
0.106824
0.085820
0.068048
0.052439
0.021377
-0.038896
-0.108064
-0.145840
-0.140132
-0.166014
-0.159320
-0.126288
-0.095221
-0.063721
0.002098
0.091645
0.145810
0.182049
0.183801
0.171152
0.154348
0.152941
0.128581
0.091092
0.048787
-0.007622
-0.040259
-0.069653
-0.091966
-0.113185
-0.124670
-0.119137
-0.084320
-0.039450
-0.002027
0.056711
0.097757
0.115294
0.151906
0.164431
0.149302
0.135758
0.111928
0.092955
0.043598
-0.004236
-0.036536
-0.070448
-0.090234
-0.092800
-0.096988
-0.082116
-0.048271
0.000612
0.047656
0.098346
0.123089
0.140881
0.162602
0.162058
0.152437
0.118790
0.083783
0.040224
-0.007135
-0.045905
-0.088785
-0.124820
-0.148189
-0.147506
-0.146836
-0.129301
-0.100360
-0.062977
-0.010004
0.051717
0.090908
0.126068
0.134469
0.131602
0.128220
0.103952
0.066869
0.025606
-0.005258
-0.049424
-0.089303
-0.129802
-0.163740
-0.184577
-0.202487
-0.174505
-0.138832
-0.105142
-0.060242
-0.001765
0.030069
0.069115
0.133167
0.135711
0.115322
0.100250
0.071070
0.010204
-0.041747
-0.076633
-0.125185
-0.163547
-0.174690
-0.182128
-0.175653
-0.167963
-0.133723
-0.091154
-0.052955
0.000054
0.046606
0.070042
0.074720
0.080998
0.091515
0.076165
0.056171
0.011346
-0.006009
-0.051736
-0.109816
-0.149980
-0.168362
-0.167304
-0.160704
-0.144909
-0.122574
-0.078525
-0.025324
0.015215
0.030727
0.060658
0.101228
0.111072
0.095175
0.075891
0.045306
0.011689
-0.039126
-0.096529
-0.145640
-0.189538
-0.216265
-0.206873
-0.185862
-0.156736
-0.115466
-0.079316
-0.039367
0.007783
0.033265
0.075358
0.099078
0.098253
0.086448
0.061027
0.044447
-0.004094
-0.045006
-0.091154
-0.114837
-0.154677
-0.172377
-0.159440
-0.127601
-0.091345
-0.049083
-0.001788
0.065457
0.132793
0.191786
0.221392
0.262234
0.287454
0.295677
0.291540
0.282268
0.279996
0.270461
0.260979
0.245345
0.240550
0.251827
0.280108
0.310243
0.380851
0.444398
0.529677
0.617585
0.702967
0.774432
0.846025
0.910917
0.949603
0.946722
0.922658
0.873546
0.845292
0.776630
0.675029
0.593865
0.541594
0.457630
0.366699
0.314083
0.285083
0.258198
0.242974
0.247395
0.274073
0.270533
0.263206
0.267548
0.269145
0.264222
0.246176
0.192098
0.145432
0.099362
0.043804
-0.019822
-0.049418
-0.072794
-0.089468
-0.093407
-0.078032
-0.048588
-0.006385
0.021299
0.065818
0.115148
0.150790
0.174817
0.188960
0.164256
0.124666
0.095473
0.054109
0.009247
-0.031885
-0.067148
-0.097708
-0.133438
-0.150652
-0.144282
-0.102482
-0.069421
-0.013724
0.031550
0.058675
0.096539
0.120681
0.147654
0.153157
0.134407
0.120761
0.084554
0.035193
-0.012426
-0.053038
-0.095645
-0.142514
-0.158513
-0.146656
-0.139392
-0.130788
-0.080885
-0.038227
-0.021698
0.049577
0.085416
0.130969
0.152910
0.160988
0.131224
0.120047
0.110428
0.069732
0.030683
-0.042361
-0.099885
-0.119346
-0.126225
-0.121990
-0.111913
-0.099482
-0.053626
-0.028146
0.010584
0.056655
0.111641
0.143594
0.154064
0.175385
0.161418
0.156871
0.126173
0.076109
0.037060
-0.020355
-0.048813
-0.080474
-0.117757
-0.124745
-0.108805
-0.070282
-0.036077
-0.005154
0.046697
0.096122
0.129784
0.168819
0.204909
0.219692
0.202702
0.180461
0.142700
0.097696
0.053427
0.008198
-0.047784
-0.075089
-0.095009
-0.098844
-0.079555
-0.049241
-0.010944
0.024144
0.065926
0.120996
0.148838
0.181306
0.210290
0.224676
0.215348
0.201099
0.175057
0.135632
0.071656
0.021941
-0.021751
-0.031394
-0.025499
-0.035304
-0.027251
-0.001463
0.023195
0.063775
0.110756
0.151736
0.199068
0.222708
0.232652
0.231618
0.239380
0.227195
0.210474
0.187092
0.137147
0.086312
0.050241
0.018315
-0.006147
0.005800
0.004438
0.007664
0.035846
0.064457
0.099033
0.137303
0.175536
0.219589
0.261635
0.290832
0.275536
0.253960
0.213737
0.175557
0.127740
0.112176
0.083912
0.041656
0.004800
-0.021869
-0.008415
-0.009485
0.010205
0.056167
0.108109
0.140303
0.175957
0.214612
0.250746
0.247251
0.233640
0.215297
0.184512
0.145371
0.105551
0.048076
0.005498
-0.024783
-0.052008
-0.060756
-0.057587
-0.038532
-0.002390
0.035893
0.078527
0.113147
0.144842
0.173962
0.198842
0.200619
0.176252
0.140221
0.096331
0.056934
0.026417
-0.002098
-0.034258
-0.066882
-0.119111
-0.147360
-0.162011
-0.103564
-0.070647
-0.030857
0.017542
0.061887
0.095925
0.121697
0.140117
0.165946
0.142556
0.127040
0.093923
0.060991
-0.005078
-0.085488
-0.128508
-0.146367
-0.165870
-0.166297
-0.153142
-0.144523
-0.127869
-0.073118
-0.008310
0.029641
0.086002
0.129695
0.163383
0.210917
0.199866
0.186452
0.167102
0.066061
-0.001221
-0.082482
-0.140999
-0.133477
-0.136634
-0.159574
-0.176095
-0.147091
-0.083720
-0.016006
0.017373
0.039193
0.067592
0.145131
0.198177
0.184744
0.177190
0.129005
0.099683
0.039626
0.015706
-0.019655
-0.060425
-0.109708
-0.142017
-0.168072
-0.155450
-0.133143
-0.108510
-0.041497
0.001402
0.035887
0.073106
0.109969
0.128726
0.135912
0.127867
0.116933
0.088146
0.047745
0.001921
-0.047860
-0.086758
-0.132954
-0.151682
-0.159068
-0.148726
-0.126099
-0.104209
-0.078251
-0.037464
0.021569
0.087912
0.106664
0.140103
0.150766
0.139696
0.119863
0.079523
0.023892
-0.007469
-0.052243
-0.097015
-0.136340
-0.148424
-0.159986
-0.161032
-0.149033
-0.107372
-0.061013
-0.007980
0.048183
0.088016
0.115638
0.136410
0.144203
0.131298
0.129402
0.095064
0.031211
-0.009338
-0.050924
-0.086445
-0.123106
-0.152956
-0.157416
-0.144181
-0.134972
-0.115218
-0.081045
-0.046516
0.006454
0.057276
0.104156
0.131450
0.143985
0.150858
0.138565
0.096454
0.039307
-0.004705
-0.055908
-0.086625
-0.128504
-0.152709
-0.167315
-0.185223
-0.148213
-0.124707
-0.105742
-0.034888
0.040326
0.089758
0.123173
0.140327
0.152001
0.130708
0.104477
0.077349
0.053649
0.019244
-0.022113
-0.075950
-0.116962
-0.133347
-0.136286
-0.164052
-0.128599
-0.075352
-0.037031
-0.002722
0.039264
0.077595
0.124385
0.145389
0.128391
0.122101
0.121032
0.077911
0.014179
-0.035892
-0.063640
-0.084636
-0.123307
-0.193342
-0.146689
-0.136114
-0.112488
-0.117947
-0.092882
-0.026925
0.033817
0.086298
0.104900
0.103300
0.108224
0.094876
0.094707
0.064739
0.028173
-0.021061
-0.057767
-0.105031
-0.141399
-0.171177
-0.177445
-0.175649
-0.154097
-0.119944
-0.088740
-0.054391
-0.010938
0.040612
0.070713
0.092304
0.090563
0.090128
0.093900
0.066631
0.033926
0.003189
-0.035711
-0.083902
-0.144652
-0.184191
-0.198588
-0.187277
-0.157336
-0.123656
-0.073317
-0.019974
0.027419
0.050981
0.075695
0.102885
0.122577
0.109140
0.086628
0.056337
0.000999
-0.046791
-0.088441
-0.133444
-0.160416
-0.191068
-0.199841
-0.159284
-0.141757
-0.136860
-0.056292
0.012902
0.065126
0.069149
0.086044
0.124758
0.134110
0.113763
0.094545
0.082864
0.045116
0.002889
-0.070562
-0.110784
-0.132366
-0.163192
-0.159494
-0.150551
-0.130998
-0.088013
-0.057120
-0.015973
0.030194
0.076196
0.112546
0.133246
0.143411
0.135735
0.117892
0.078901
0.038729
-0.012213
-0.066140
-0.096469
-0.105642
-0.136279
-0.160107
-0.159569
-0.138948
-0.106171
-0.077574
-0.044087
0.027476
0.091636
0.117243
0.136765
0.148089
0.141625
0.113296
0.079256
0.038101
-0.007459
-0.021167
-0.060078
-0.094441
-0.121684
-0.144634
-0.140485
-0.123567
-0.087205
-0.045132
-0.004355
0.035791
0.080623
0.147472
0.161748
0.153488
0.146199
0.120108
0.099361
0.065116
0.018706
-0.037395
-0.095884
-0.107577
-0.143819
-0.162886
-0.146187
-0.123516
-0.100996
-0.066314
-0.010101
0.040892
0.085497
0.111961
0.129885
0.117897
0.108482
0.090312
0.065695
0.031999
-0.004175
-0.058908
-0.117519
-0.157622
-0.190870
-0.203685
-0.191151
-0.168118
-0.142763
-0.107021
-0.072336
-0.030829
0.027666
0.070300
0.090024
0.113534
0.104439
0.075489
0.033999
0.014631
-0.032793
-0.114665
-0.158490
-0.182910
-0.209156
-0.224491
-0.219293
-0.188563
-0.148255
-0.109108
-0.068160
-0.028184
0.016622
0.059498
0.087421
0.089379
0.077956
0.067779
0.033362
-0.007491
-0.064751
-0.116053
-0.154620
-0.184943
-0.201984
-0.228894
-0.224757
-0.212670
-0.161289
-0.121513
-0.089194
-0.047344
0.005114
0.025699
0.044116
0.053204
0.049774
0.034691
0.001842
-0.039472
-0.077722
-0.125046
-0.154946
-0.178900
-0.196729
-0.213463
-0.207827
-0.193130
-0.155042
-0.111928
-0.067566
-0.040582
0.001439
0.041322
0.055120
0.062894
0.061050
0.059936
0.019417
-0.026684
-0.068970
-0.117021
-0.156828
-0.189525
-0.208064
-0.213610
-0.202017
-0.187937
-0.155462
-0.101960
-0.040007
0.016057
0.073037
0.129393
0.171750
0.189827
0.176626
0.148817
0.158127
0.180565
0.179878
0.121109
0.091395
0.107786
0.115251
0.141046
0.190404
0.242346
0.308958
0.372234
0.453548
0.525395
0.585925
0.635011
0.710149
0.761619
0.781775
0.805593
0.825522
0.792291
0.742022
0.668910
0.612451
0.599383
0.532353
0.486312
0.475120
0.459970
0.453904
0.432307
0.436748
0.422333
0.418436
0.414857
0.393566
0.342447
0.290785
0.253183
0.205574
0.154365
0.112158
0.064125
0.000093
-0.048105
-0.085749
-0.098343
-0.102780
-0.105094
-0.078680
-0.022095
0.020775
0.066200
0.105858
0.137386
0.150714
0.160693
0.156127
0.137123
0.100475
0.058909
0.007790
-0.040985
-0.093005
-0.135114
-0.164272
-0.168248
-0.176823
-0.159600
-0.122798
-0.073838
-0.023241
0.026332
0.051655
0.076424
0.111191
0.113493
0.111193
0.096850
0.064193
0.026764
-0.013748
-0.083418
-0.136846
-0.161539
-0.168224
-0.171051
-0.160900
-0.144426
-0.101387
-0.065830
-0.033912
0.008403
0.055761
0.071335
0.100528
0.110054
0.100674
0.089721
0.063940
0.030306
-0.006020
-0.060001
-0.103412
-0.139863
-0.172169
-0.178136
-0.171922
-0.154049
-0.116993
-0.099019
-0.046482
0.003216
0.035162
0.093203
0.113993
0.129849
0.129927
0.125630
0.102693
0.058226
0.019503
-0.034809
-0.096590
-0.124605
-0.142378
-0.132205
-0.131497
-0.120063
-0.086214
-0.064828
-0.005871
0.048700
0.095314
0.135231
0.160101
0.160871
0.134510
0.105934
0.092646
0.046273
0.007642
-0.030700
-0.053443
-0.071218
-0.085514
-0.111163
-0.114081
-0.082556
-0.045682
-0.014682
0.022555
0.086597
0.135432
0.165881
0.199020
0.208915
0.205559
0.190249
0.148000
0.096706
0.053461
0.013862
-0.029110
-0.054874
-0.068182
-0.073974
-0.063507
-0.050087
-0.020628
0.018105
0.077703
0.137844
0.173103
0.195100
0.220563
0.230482
0.225675
0.200056
0.165386
0.124342
0.088875
0.035625
-0.000702
-0.031019
-0.058192
-0.066900
-0.065090
-0.047066
-0.014124
0.033795
0.081329
0.124479
0.168214
0.198053
0.227564
0.246530
0.235400
0.204011
0.166616
0.130581
0.096069
0.048698
-0.004625
-0.057120
-0.100564
-0.078439
-0.062624
-0.039333
-0.017905
0.028260
0.059535
0.113820
0.156540
0.191158
0.215805
0.216540
0.208428
0.178155
0.143948
0.105845
0.047190
-0.016708
-0.043037
-0.101110
-0.134256
-0.142334
-0.110921
-0.079881
-0.056858
-0.023480
0.030274
0.079711
0.129593
0.155011
0.178774
0.188206
0.173660
0.137139
0.116753
0.049089
0.010900
0.007001
-0.041775
-0.092124
-0.126356
-0.148887
-0.146843
-0.130412
-0.115254
-0.072166
-0.016859
0.031334
0.088831
0.124940
0.137037
0.129883
0.115251
0.084332
0.061048
0.006895
-0.031953
-0.087170
-0.126706
-0.151526
-0.171200
-0.173650
-0.171915
-0.139177
-0.105883
-0.070779
-0.039422
0.009409
0.059518
0.084584
0.108503
0.112724
0.106035
0.079159
0.043051
-0.003590
-0.060406
-0.097622
-0.140870
-0.172741
-0.201793
-0.205871
-0.192660
-0.155582
-0.123384
-0.087866
-0.055803
-0.010151
0.047148
0.076951
0.097862
0.098558
0.089267
0.059699
0.016843
-0.008978
-0.047964
-0.104772
-0.149391
-0.179206
-0.201478
-0.226709
-0.216528
-0.186648
-0.141807
-0.095072
-0.064101
-0.022622
0.013165
0.047435
0.081731
0.083523
0.076880
0.048523
0.027003
-0.009815
-0.063809
-0.115576
-0.159392
-0.186749
-0.197033
-0.213332
-0.201189
-0.167054
-0.126661
-0.079369
-0.040105
0.007865
0.049612
0.078426
0.104316
0.117669
0.102307
0.076062
0.046638
-0.004449
-0.030244
-0.075909
-0.109375
-0.142154
-0.176200
-0.202645
-0.218447
-0.186314
-0.138454
-0.092466
-0.060775
-0.004155
0.039683
0.071045
0.086299
0.091713
0.096513
0.063452
0.061234
0.022756
-0.022461
-0.078696
-0.123682
-0.149798
-0.170477
-0.186303
-0.177611
-0.157386
-0.115774
-0.083467
-0.038247
0.011543
0.049585
0.082517
0.118599
0.109910
0.082983
0.074447
0.031871
-0.012785
-0.054714
-0.096960
-0.135809
-0.161197
-0.197496
-0.205118
-0.193575
-0.170573
-0.136074
-0.100913
-0.061435
-0.010352
0.030594
0.054976
0.070837
0.091812
0.092183
0.075924
0.034798
-0.000862
-0.037447
-0.090189
-0.135769
-0.157408
-0.188155
-0.188558
-0.196373
-0.189017
-0.165177
-0.125404
-0.082446
-0.021367
0.015466
0.054815
0.086461
0.092202
0.089061
0.091144
0.060654
0.013707
-0.054416
-0.110007
-0.142647
-0.168757
-0.194983
-0.194852
-0.186972
-0.164995
-0.120523
-0.076675
-0.039626
-0.000856
0.039436
0.058182
0.082850
0.090944
0.091338
0.070758
0.033845
-0.015320
-0.056601
-0.106580
-0.151100
-0.189347
-0.208099
-0.206011
-0.192991
-0.183017
-0.144474
-0.096834
-0.060146
-0.020861
0.024823
0.061595
0.082642
0.093838
0.097279
0.070315
0.013395
-0.026642
-0.084784
-0.144919
-0.157067
-0.206047
-0.232735
-0.235453
-0.208528
-0.186786
-0.177215
-0.143645
-0.082552
-0.016315
0.027557
0.056315
0.091867
0.099308
0.087163
0.070648
0.034274
-0.013100
-0.053274
-0.104349
-0.150831
-0.179277
-0.206987
-0.211613
-0.208602
-0.197342
-0.166097
-0.125408
-0.090978
-0.054598
-0.013184
0.022539
0.063879
0.085991
0.076821
0.060777
0.035006
-0.016264
-0.068465
-0.095741
-0.130653
-0.161856
-0.191592
-0.214363
-0.213814
-0.189212
-0.150000
-0.112064
-0.067506
-0.022509
0.013573
0.043029
0.071987
0.082589
0.070794
0.050433
0.027884
-0.020161
-0.042177
-0.088360
-0.135371
-0.169880
-0.191522
-0.194181
-0.187333
-0.172520
-0.126758
-0.083216
-0.048532
0.015056
0.044115
0.069605
0.101065
0.102995
0.084279
0.073768
0.040311
0.008888
-0.028433
-0.077658
-0.132631
-0.166629
-0.186606
-0.192105
-0.195727
-0.169487
-0.140345
-0.081847
-0.034613
0.013904
0.053184
0.079953
0.100404
0.104438
0.115702
0.097344
0.071275
0.028017
-0.021898
-0.074776
-0.122552
-0.153948
-0.178134
-0.175748
-0.176582
-0.152138
-0.100396
-0.053388
-0.006388
0.021680
0.037342
0.085264
0.111301
0.102059
0.086366
0.060691
0.039330
0.009347
-0.033674
-0.084912
-0.121360
-0.150765
-0.165571
-0.166333
-0.179818
-0.186480
-0.150124
-0.100561
-0.056799
-0.012433
0.029456
0.053239
0.092574
0.092831
0.087973
0.062011
0.036925
-0.018599
-0.070363
-0.123190
-0.167750
-0.193829
-0.220602
-0.224752
-0.217858
-0.203768
-0.172415
-0.123265
-0.073318
-0.027045
0.008490
0.037763
0.056963
0.058045
0.032861
0.005101
-0.025621
-0.059110
-0.090566
-0.150509
-0.188621
-0.227199
-0.246167
-0.256936
-0.242966
-0.239480
-0.195271
-0.140804
-0.089845
-0.049378
-0.012428
0.015559
0.044179
0.059114
0.057548
0.037915
0.000058
-0.051468
-0.070028
-0.117044
-0.173367
-0.217143
-0.240897
-0.245964
-0.256128
-0.249420
-0.216161
-0.185759
-0.130628
-0.079213
-0.021413
0.005901
0.023715
0.025329
0.022693
0.009730
-0.019382
-0.055270
-0.098949
-0.141706
-0.197995
-0.234818
-0.258698
-0.258769
-0.235884
-0.214703
-0.169485
-0.131932
-0.092860
-0.049501
-0.016467
0.012777
0.041031
0.043179
0.024387
0.017794
-0.015687
-0.052046
-0.088034
-0.132971
-0.178673
-0.196407
-0.206401
-0.189412
-0.185270
-0.140780
-0.092773
-0.035245
0.013209
0.080990
0.120524
0.144546
0.195141
0.223629
0.245872
0.240562
0.232169
0.210121
0.196042
0.178005
0.181684
0.178915
0.188504
0.239464
0.269784
0.325899
0.386100
0.461082
0.550478
0.631786
0.714915
0.775125
0.828213
0.867011
0.861954
0.825554
0.789628
0.719649
0.656539
0.603911
0.531621
0.448583
0.340374
0.265538
0.217119
0.184102
0.179082
0.167805
0.169018
0.169554
0.184298
0.197374
0.208028
0.200876
0.195734
0.169115
0.123845
0.080214
0.025448
-0.033569
-0.080549
-0.122178
-0.155791
-0.170707
-0.163686
-0.143162
-0.115197
-0.072991
-0.043854
0.007929
0.057565
0.101760
0.121120
0.122965
0.116197
0.089589
0.048497
-0.004722
-0.046153
-0.079792
-0.123277
-0.151184
-0.170912
-0.192437
-0.197880
-0.180466
-0.147903
-0.105206
-0.054699
-0.014046
0.016065
0.047433
0.076675
0.089261
0.086918
0.069845
0.036626
-0.014990
-0.052797
-0.106594
-0.137816
-0.176621
-0.178595
-0.187054
-0.200948
-0.182861
-0.138666
-0.086988
-0.026505
0.021031
0.049755
0.085261
0.113935
0.114508
0.107810
0.088166
0.046394
0.004278
-0.031851
-0.082221
-0.125317
-0.164810
-0.186504
-0.177416
-0.167208
-0.171260
-0.116837
-0.074108
-0.029949
0.012172
0.046473
0.083877
0.116816
0.132218
0.123776
0.091216
0.057693
0.018480
-0.021808
-0.063506
-0.109169
-0.144125
-0.178679
-0.184038
-0.176224
-0.161130
-0.133407
-0.079421
-0.022564
0.026789
0.068004
0.101254
0.113283
0.130274
0.130633
0.138521
0.120047
0.078078
0.034182
-0.017925
-0.054808
-0.087680
-0.121625
-0.142688
-0.137754
-0.118944
-0.085358
-0.045295
0.004050
0.055447
0.113844
0.148403
0.186947
0.178614
0.168760
0.143635
0.105502
0.066687
0.036179
-0.012106
-0.031487
-0.068657
-0.099074
-0.107064
-0.099956
-0.068762
-0.020007
0.034622
0.077156
0.116335
0.164103
0.196501
0.230766
0.232532
0.211215
0.183624
0.148117
0.119619
0.082517
0.026953
-0.016855
-0.054696
-0.105876
-0.100972
-0.082654
-0.059391
-0.036077
0.016674
0.073163
0.119477
0.173105
0.191483
0.209339
0.227811
0.224426
0.203622
0.164853
0.121962
0.074963
0.031344
-0.018279
-0.055867
-0.082714
-0.098132
-0.093736
-0.065858
-0.029506
0.000575
0.030188
0.081280
0.122153
0.149535
0.190948
0.198899
0.192383
0.173421
0.130108
0.082072
0.045674
-0.010592
-0.051848
-0.086544
-0.111195
-0.128247
-0.143729
-0.134578
-0.082988
-0.054292
-0.011189
0.039315
0.081406
0.106111
0.136023
0.136817
0.134029
0.123177
0.103943
0.043584
0.002232
-0.035022
-0.072783
-0.109474
-0.144561
-0.159837
-0.164573
-0.147786
-0.121003
-0.087380
-0.046461
-0.000281
0.043359
0.073691
0.089787
0.086653
0.083915
0.071343
0.053663
0.022176
-0.011285
-0.058959
-0.094080
-0.151812
-0.173038
-0.181005
-0.168467
-0.152806
-0.127990
-0.084125
-0.027828
0.009305
0.050815
0.083882
0.102160
0.104631
0.092432
0.076952
0.053910
0.016797
-0.051479
-0.095800
-0.137628
-0.178911
-0.207495
-0.211283
-0.206591
-0.196749
-0.169883
-0.121101
-0.077517
-0.028122
0.012034
0.043870
0.076292
0.087010
0.087820
0.075965
0.053588
0.007547
-0.039691
-0.103002
-0.132809
-0.167474
-0.205791
-0.220276
-0.215324
-0.197608
-0.157096
-0.122148
-0.087753
-0.034086
0.026047
0.055137
0.079490
0.064591
0.067172
0.061695
0.037809
-0.005658
-0.062690
-0.118628
-0.154722
-0.181451
-0.205671
-0.219459
-0.213765
-0.174859
-0.133000
-0.094884
-0.060680
-0.004743
0.033052
0.068692
0.097978
0.109529
0.102132
0.084372
0.030867
-0.016050
-0.049653
-0.091683
-0.141048
-0.178282
-0.200600
-0.205165
-0.207258
-0.182700
-0.146152
-0.098887
-0.037129
0.010687
0.055470
0.106664
0.136801
0.157714
0.139308
0.107745
0.066598
0.027817
-0.027048
-0.083277
-0.126394
-0.162937
-0.193046
-0.199464
-0.186781
-0.167327
-0.129038
-0.082939
-0.043126
-0.010005
0.030272
0.058054
0.098129
0.122297
0.115110
0.086211
0.052943
0.006410
-0.035302
-0.083169
-0.134312
-0.169351
-0.199466
-0.217490
-0.211326
-0.183611
-0.136138
-0.101850
-0.066225
-0.016969
0.030233
0.080042
0.095276
0.091744
0.086496
0.073345
0.037511
0.000086
-0.048538
-0.069771
-0.113000
-0.161936
-0.192708
-0.183284
-0.175909
-0.173102
-0.153625
-0.112060
-0.061572
0.000691
0.050105
0.080087
0.092342
0.078494
0.083628
0.067775
0.034250
-0.011027
-0.046064
-0.110861
-0.150684
-0.165784
-0.179468
-0.190004
-0.176795
-0.163073
-0.139087
-0.102788
-0.054128
-0.006991
0.036626
0.060946
0.099916
0.105587
0.105717
0.079596
0.034876
-0.000841
-0.037783
-0.093998
-0.149845
-0.183167
-0.200743
-0.215647
-0.194917
-0.164822
-0.131518
-0.095117
-0.048889
-0.004326
0.040684
0.066503
0.094845
0.104769
0.093639
0.072270
0.037962
-0.000023
-0.054054
-0.096068
-0.147029
-0.180538
-0.207844
-0.216477
-0.203810
-0.188429
-0.169139
-0.136132
-0.098913
-0.043466
0.008616
0.045387
0.073657
0.084582
0.082088
0.050514
0.026029
-0.013510
-0.067238
-0.118690
-0.151131
-0.170972
-0.192970
-0.203226
-0.199356
-0.181202
-0.148146
-0.100101
-0.045551
-0.008290
0.025350
0.047543
0.056568
0.072788
0.061687
0.056020
0.027999
-0.014023
-0.057750
-0.112927
-0.172394
-0.202412
-0.212635
-0.218385
-0.198647
-0.168009
-0.121024
-0.081016
-0.042068
0.014570
0.068489
0.106950
0.128620
0.138283
0.129468
0.093828
0.059253
0.016036
-0.016385
-0.071184
-0.119410
-0.145083
-0.186928
-0.179436
-0.165339
-0.148383
-0.118196
-0.084902
-0.034797
0.014797
0.058081
0.084374
0.101746
0.115287
0.107509
0.095534
0.071894
0.038594
-0.015631
-0.067648
-0.095672
-0.122620
-0.138802
-0.149685
-0.170467
-0.142670
-0.100048
-0.045977
0.014281
0.051283
0.079815
0.109653
0.141768
0.135215
0.111603
0.099853
0.063889
0.036592
-0.004398
-0.052706
-0.108625
-0.143358
-0.169167
-0.178948
-0.171314
-0.142492
-0.117530
-0.070771
-0.030675
0.016086
0.063884
0.082744
0.104950
0.123025
0.110127
0.082344
0.027242
-0.017595
-0.040296
-0.082968
-0.133037
-0.177691
-0.204626
-0.217992
-0.224158
-0.183970
-0.139607
-0.109487
-0.059797
-0.005453
0.028064
0.032608
0.061402
0.077952
0.078136
0.053645
0.026944
-0.005832
-0.089394
-0.146171
-0.174228
-0.226049
-0.252094
-0.251411
-0.249753
-0.216739
-0.203461
-0.140938
-0.091341
-0.022694
0.023050
0.045417
0.072533
0.083673
0.080252
0.055708
0.017742
-0.021270
-0.059630
-0.126359
-0.167369
-0.207326
-0.223603
-0.216943
-0.214569
-0.195963
-0.180340
-0.144547
-0.098627
-0.035217
0.023255
0.041351
0.066268
0.070134
0.062828
0.039521
0.017317
-0.009941
-0.054997
-0.107166
-0.153438
-0.185092
-0.220995
-0.253141
-0.257336
-0.205682
-0.148548
-0.122890
-0.084652
-0.043171
0.000177
0.031947
0.054519
0.061115
0.053949
0.039999
0.006134
-0.027807
-0.058950
-0.114094
-0.159651
-0.180945
-0.226245
-0.232893
-0.220329
-0.186591
-0.158133
-0.126036
-0.069422
-0.008039
0.028020
0.071016
0.104497
0.124223
0.129505
0.123674
0.103809
0.086624
0.041455
0.021462
-0.008009
-0.022034
-0.020190
0.001242
0.035019
0.107841
0.166636
0.249422
0.339358
0.423397
0.503762
0.567600
0.608457
0.626487
0.652707
0.683361
0.685704
0.691458
0.694628
0.696835
0.636205
0.564891
0.527819
0.527463
0.534722
0.555170
0.547105
0.539174
0.542388
0.517737
0.499350
0.467968
0.439924
0.408633
0.359382
0.291126
0.228301
0.159330
0.095103
0.037230
-0.005521
-0.031505
-0.057428
-0.074303
-0.101959
-0.087388
-0.051332
-0.016817
0.023106
0.067967
0.120169
0.131924
0.151257
0.160200
0.141314
0.118560
0.088055
0.047669
0.008190
-0.046303
-0.093927
-0.136807
-0.161252
-0.170769
-0.167142
-0.143638
-0.112969
-0.061702
-0.025185
0.029087
0.055728
0.080307
0.099396
0.104301
0.110021
0.094061
0.067803
0.012249
-0.043922
-0.100241
-0.128006
-0.154001
-0.181193
-0.193003
-0.174940
-0.167624
-0.134749
-0.078801
-0.041250
-0.006064
0.033365
0.067727
0.085884
0.114650
0.105784
0.093179
0.052819
0.013050
-0.036272
-0.076413
-0.133624
-0.169129
-0.178905
-0.181169
-0.167368
-0.137136
-0.113742
-0.081191
-0.043489
0.013420
0.069244
0.103523
0.133542
0.136460
0.127915
0.095940
0.073865
0.033520
-0.013333
-0.067125
-0.105380
-0.140555
-0.164770
-0.178312
-0.184593
-0.157088
-0.118321
-0.076192
-0.020046
0.042283
0.090176
0.109888
0.128703
0.150333
0.138890
0.135206
0.114691
0.075745
0.031485
-0.020721
-0.074161
-0.104350
-0.131914
-0.139115
-0.115444
-0.104204
-0.080415
-0.038457
0.012921
0.066034
0.121626
0.153184
0.183667
0.203721
0.191804
0.165108
0.140277
0.095247
0.040627
-0.002408
-0.032421
-0.068049
-0.084701
-0.093409
-0.078441
-0.051401
-0.021726
0.029420
0.075545
0.122134
0.175115
0.195817
0.218245
0.226700
0.220038
0.207385
0.175704
0.117844
0.062764
0.034455
-0.008585
-0.036655
-0.065396
-0.065386
-0.065800
-0.045598
0.006982
0.041998
0.070170
0.106214
0.147299
0.188758
0.220227
0.217360
0.223702
0.201680
0.175532
0.121470
0.078694
0.037513
-0.012130
-0.050297
-0.080172
-0.079834
-0.083513
-0.049446
-0.011998
0.019380
0.053707
0.102897
0.156948
0.184049
0.204076
0.219622
0.211303
0.194219
0.158625
0.115591
0.064193
0.001552
-0.047651
-0.073367
-0.097590
-0.093284
-0.100297
-0.086094
-0.052253
-0.020151
0.016755
0.065592
0.110446
0.145170
0.181477
0.187397
0.154914
0.132601
0.106014
0.053612
0.009005
-0.017178
-0.045290
-0.094170
-0.135110
-0.140137
-0.134850
-0.120169
-0.088580
-0.052600
-0.015560
0.025826
0.067341
0.101227
0.135529
0.135269
0.123853
0.113568
0.065785
0.008177
-0.020492
-0.060198
-0.123560
-0.152224
-0.177570
-0.178900
-0.172142
-0.178515
-0.148828
-0.086516
-0.039709
-0.021955
0.036641
0.070576
0.099165
0.105240
0.087359
0.066990
0.032920
0.002578
-0.041936
-0.105708
-0.154009
-0.185129
-0.212271
-0.219295
-0.218541
-0.194314
-0.156986
-0.104911
-0.066010
-0.009074
0.043187
0.070588
0.107903
0.125059
0.119252
0.091147
0.055725
0.009038
-0.033893
-0.089704
-0.136711
-0.182795
-0.203107
-0.218513
-0.222578
-0.190349
-0.153908
-0.107035
-0.068109
-0.010558
0.033322
0.057559
0.081116
0.104655
0.089007
0.059187
0.036938
-0.006047
-0.049731
-0.104229
-0.144965
-0.187758
-0.215676
-0.210332
-0.184212
-0.143823
-0.096723
-0.052296
-0.008756
0.047093
0.077345
0.090653
0.075884
0.065592
0.058286
0.034469
-0.011821
-0.045296
-0.088723
-0.131131
-0.171292
-0.166279
-0.163560
-0.162777
-0.178155
-0.158792
-0.107939
-0.066961
-0.059483
-0.013651
0.047748
0.058399
0.084047
0.101697
0.089994
0.064883
0.030148
-0.018603
-0.057426
-0.114287
-0.149027
-0.193475
-0.223382
-0.222971
-0.223784
-0.191968
-0.148732
-0.111949
-0.062896
-0.010424
0.019635
0.049108
0.091198
0.103897
0.095701
0.071130
0.030731
0.002403
-0.033013
-0.053462
-0.092650
-0.127735
-0.159190
-0.184545
-0.188961
-0.171726
-0.145817
-0.118026
-0.086305
0.002831
0.052065
0.085622
0.117894
0.118985
0.105224
0.082193
0.048582
0.009769
-0.021726
-0.094830
-0.155665
-0.207117
-0.186237
-0.176206
-0.174753
-0.173152
-0.131950
-0.083932
-0.046906
-0.012149
0.028725
0.066024
0.098031
0.103132
0.093880
0.089668
0.057406
0.005749
-0.041964
-0.092379
-0.150101
-0.190836
-0.204155
-0.193718
-0.173632
-0.152284
-0.127128
-0.092815
-0.056823
-0.015590
0.021511
0.049326
0.065765
0.081732
0.077978
0.057293
0.040674
-0.003915
-0.049109
-0.098671
-0.135723
-0.173535
-0.210852
-0.222215
-0.216030
-0.211132
-0.171776
-0.121986
-0.076593
-0.019990
0.014715
0.039940
0.076880
0.111463
0.093068
0.066604
0.038444
-0.001783
-0.037031
-0.083224
-0.144611
-0.180606
-0.202447
-0.207761
-0.208980
-0.185105
-0.149353
-0.110486
-0.076917
-0.031941
0.010205
0.047043
0.083560
0.077546
0.072328
0.049331
0.025008
-0.011507
-0.056238
-0.113771
-0.165821
-0.194279
-0.217965
-0.216487
-0.205599
-0.190307
-0.164163
-0.113196
-0.070231
-0.026448
0.016199
0.053132
0.080063
0.087325
0.070534
0.042792
0.010052
-0.026344
-0.071140
-0.124691
-0.162036
-0.201842
-0.208035
-0.247328
-0.217483
-0.178722
-0.140725
-0.116253
-0.060655
-0.015181
0.026449
0.048032
0.077820
0.094875
0.078377
0.052703
0.024964
0.000303
-0.035983
-0.094469
-0.135392
-0.164840
-0.196224
-0.210076
-0.195413
-0.169579
-0.148204
-0.114989
-0.054911
0.004584
0.054994
0.080751
0.098610
0.099063
0.085846
0.068472
0.048387
0.021675
-0.011693
-0.063783
-0.088239
-0.118293
-0.146484
-0.166670
-0.175935
-0.156595
-0.130989
-0.081081
-0.029355
0.010688
0.062724
0.107791
0.128551
0.147919
0.140748
0.125705
0.091381
0.039292
-0.010025
-0.062337
-0.105522
-0.117050
-0.139337
-0.146235
-0.142242
-0.129709
-0.099176
-0.068977
-0.036780
0.011044
0.053430
0.078001
0.092767
0.105728
0.091727
0.073235
0.046129
0.009105
-0.032544
-0.088735
-0.139025
-0.175448
-0.198091
-0.208061
-0.215757
-0.198535
-0.167964
-0.129638
-0.084283
-0.029586
0.016677
0.051377
0.064437
0.069498
0.064606
0.048935
0.028689
-0.010924
-0.049032
-0.103352
-0.136440
-0.175683
-0.214588
-0.230868
-0.222773
-0.202125
-0.170764
-0.130953
-0.085633
-0.046628
-0.008500
0.019594
0.057917
0.053109
0.042763
0.032225
-0.014074
-0.047849
-0.091622
-0.142969
-0.186643
-0.236268
-0.256602
-0.251509
-0.236096
-0.221239
-0.195496
-0.138468
-0.101100
-0.048494
-0.007481
0.022579
0.044615
0.049872
0.048764
0.021847
-0.013174
-0.039583
-0.092286
-0.146333
-0.192046
-0.203268
-0.228617
-0.233126
-0.229786
-0.206736
-0.166883
-0.122470
-0.088227
-0.030570
0.001565
0.027049
0.054126
0.053507
0.034455
0.016173
0.008762
-0.028864
-0.083110
-0.128314
-0.176693
-0.198068
-0.225118
-0.237954
-0.240643
-0.218853
-0.194189
-0.168008
-0.108037
-0.055757
-0.020327
0.014095
0.034456
0.045495
0.043043
0.017796
-0.013753
-0.038731
-0.052759
-0.086789
-0.134059
-0.153459
-0.167801
-0.171685
-0.141299
-0.109917
-0.053303
-0.004293
0.049423
0.112307
0.171846
0.218644
0.274413
0.316689
0.359641
0.379453
0.382455
0.365945
0.338029
0.325758
0.309967
0.307476
0.320933
0.357290
0.412380
0.458329
0.517448
0.601133
0.675399
0.727443
0.770497
0.795139
0.807991
0.796120
0.781830
0.735839
0.670956
0.596782
0.486554
0.367412
0.300631
0.220606
0.140799
0.087256
0.035727
0.016876
0.022124
0.053684
0.083498
0.115160
0.141557
0.157655
0.174461
0.174443
0.163774
0.137962
0.108575
0.054133
-0.001866
-0.048092
-0.081593
-0.115325
-0.141421
-0.147458
-0.146607
-0.124415
-0.089574
-0.054175
-0.016811
0.017335
0.067017
0.081248
0.098838
0.119284
0.106362
0.063651
0.022246
0.005539
-0.044898
-0.093237
-0.151792
-0.176130
-0.199818
-0.197982
-0.185720
-0.163018
-0.127316
-0.083534
-0.039947
0.012246
0.037600
0.064554
0.096417
0.103469
0.106087
0.070531
0.025536
-0.010620
-0.047383
-0.099420
-0.151731
-0.174852
-0.200904
-0.201173
-0.206858
-0.188065
-0.149695
-0.096177
-0.045431
0.004080
0.035420
0.063391
0.097624
0.110139
0.108840
0.077075
0.040139
0.006265
-0.041724
-0.086371
-0.131225
-0.164590
-0.199386
-0.202369
-0.184037
-0.155687
-0.140541
-0.097483
-0.051685
0.009455
0.053581
0.096128
0.124936
0.130102
0.126802
0.112451
0.071954
0.031677
0.004918
-0.066627
-0.114822
-0.120896
-0.136661
-0.159480
-0.145799
-0.138066
-0.101871
-0.054656
-0.002135
0.055365
0.094897
0.122238
0.147242
0.151496
0.151318
0.122711
0.108271
0.065671
0.024604
-0.022114
-0.063268
-0.092330
-0.114721
-0.120254
-0.110742
-0.086156
-0.060807
-0.007041
0.038451
0.086246
0.134147
0.167305
0.195022
0.199581
0.194167
0.161481
0.133895
0.106191
0.062205
0.007263
-0.038363
-0.072900
-0.096120
-0.110511
-0.101664
-0.089525
-0.055388
-0.008907
0.044394
0.102123
0.147878
0.167401
0.194814
0.208160
0.204079
0.183131
0.153657
0.115154
0.076250
0.026498
-0.022246
-0.041419
-0.064799
-0.076382
-0.072279
-0.062409
-0.030362
0.002422
0.023489
0.096540
0.149847
0.174053
0.200311
0.196501
0.199257
0.188794
0.150612
0.109557
0.059456
0.013959
-0.035853
-0.074568
-0.087628
-0.097849
-0.084791
-0.066272
-0.036226
0.003397
0.036591
0.087176
0.120289
0.156879
0.187586
0.183968
0.172473
0.148324
0.109055
0.080060
0.036539
-0.018721
-0.069686
-0.109570
-0.126453
-0.117775
-0.121826
-0.107777
-0.076792
-0.031869
0.008533
0.048131
0.084117
0.116365
0.134835
0.136814
0.126173
0.115483
0.074565
0.029957
-0.028040
-0.084154
-0.112567
-0.146776
-0.172350
-0.177805
-0.184023
-0.160521
-0.126771
-0.078412
-0.032501
0.010500
0.053393
0.089168
0.112887
0.114069
0.106545
0.090167
0.056454
-0.003336
-0.047685
-0.093616
-0.140695
-0.175975
-0.209011
-0.205531
-0.195017
-0.180445
-0.151554
-0.110696
-0.057895
-0.006503
0.025597
0.056024
0.087648
0.090874
0.088769
0.071097
0.038138
-0.008964
-0.050051
-0.095008
-0.142566
-0.179914
-0.206233
-0.212106
-0.217561
-0.183790
-0.153641
-0.121288
-0.083221
-0.016762
0.029784
0.057615
0.070447
0.074327
0.060440
0.036844
0.013489
-0.020471
-0.051426
-0.103056
-0.148370
-0.167506
-0.197808
-0.226461
-0.229429
-0.178922
-0.153407
-0.110894
-0.069802
-0.018924
0.020743
0.055283
0.092176
0.092463
0.087596
0.070438
0.021651
-0.016609
-0.050676
-0.099206
-0.146438
-0.172109
-0.196714
-0.214293
-0.202093
-0.165632
-0.126999
-0.084589
-0.050997
-0.003488
0.033917
0.062403
0.078398
0.083102
0.086894
0.069611
0.040612
-0.000711
-0.045688
-0.093631
-0.132107
-0.173657
-0.195770
-0.223086
-0.221763
-0.197283
-0.164647
-0.112438
-0.052092
-0.019813
0.031399
0.075597
0.096722
0.080172
0.085729
0.063847
0.052596
0.020077
-0.025057
-0.078899
-0.122515
-0.148496
-0.176965
-0.184868
-0.175128
-0.153278
-0.115656
-0.075870
-0.042805
-0.005504
0.033936
0.068639
0.087993
0.090415
0.084564
0.055535
0.026610
0.000753
-0.026917
-0.090211
-0.122350
-0.159075
-0.171746
-0.176218
-0.176661
-0.163167
-0.135000
-0.096039
-0.059800
-0.015851
0.032312
0.063812
0.087922
0.085264
0.091124
0.062137
0.031308
-0.010833
-0.070100
-0.111034
-0.153136
-0.166832
-0.196863
-0.203880
-0.194795
-0.171897
-0.129857
-0.087965
-0.048743
-0.002364
0.027094
0.054860
0.089331
0.096051
0.089363
0.080062
0.053663
-0.001648
-0.060325
-0.099793
-0.137577
-0.170220
-0.190144
-0.208428
-0.211309
-0.190922
-0.173539
-0.125587
-0.075845
-0.029015
0.023128
0.061711
0.096248
0.097158
0.077408
0.067652
0.035636
-0.007962
-0.053277
-0.098260
-0.143121
-0.182672
-0.207393
-0.219836
-0.209492
-0.191953
-0.154239
-0.109470
-0.072465
-0.024522
0.024767
0.054605
0.071325
0.069991
0.070042
0.047127
0.035715
-0.007963
-0.052165
-0.106089
-0.159950
-0.194143
-0.203410
-0.216784
-0.215472
-0.189834
-0.159132
-0.129160
-0.095371
-0.051327
-0.006112
0.024697
0.061440
0.088528
0.076193
0.056642
0.034228
0.007536
-0.050324
-0.104256
-0.132026
-0.169349
-0.196978
-0.200281
-0.211369
-0.177600
-0.132427
-0.099066
-0.058756
-0.020527
0.007110
0.034779
0.062635
0.076327
0.066274
0.040406
0.012319
-0.015082
-0.063958
-0.106080
-0.147794
-0.183127
-0.207380
-0.211809
-0.204873
-0.185678
-0.157450
-0.109725
-0.061884
-0.005500
0.040857
0.071581
0.095413
0.102277
0.095063
0.087773
0.050457
0.006450
-0.034411
-0.080478
-0.120887
-0.170216
-0.198781
-0.200515
-0.183457
-0.163380
-0.135475
-0.098488
-0.048142
0.001142
0.047590
0.085033
0.126482
0.140636
0.121819
0.083915
0.051249
0.017166
-0.028735
-0.088035
-0.125593
-0.159584
-0.187015
-0.194980
-0.184249
-0.167287
-0.132324
-0.101078
-0.056213
-0.015533
0.044226
0.099579
0.135060
0.143927
0.136652
0.102197
0.065193
0.020938
-0.006918
-0.055799
-0.094881
-0.115523
-0.153723
-0.156479
-0.145651
-0.123663
-0.099172
-0.050256
0.009370
0.037727
0.057912
0.077830
0.119293
0.127832
0.122648
0.093355
0.050877
0.005911
-0.040946
-0.091560
-0.130603
-0.168311
-0.194794
-0.195122
-0.180696
-0.153270
-0.131479
-0.088869
-0.049129
-0.015044
0.017288
0.059323
0.091993
0.106046
0.098470
0.058340
0.030247
-0.017099
-0.057169
-0.115089
-0.167439
-0.198146
-0.223298
-0.236442
-0.215448
-0.196635
-0.165804
-0.125017
-0.080088
-0.047253
-0.008978
0.015692
0.043925
0.056476
0.041064
0.029097
-0.003873
-0.031837
-0.066409
-0.099628
-0.148146
-0.188353
-0.225799
-0.232610
-0.226057
-0.213630
-0.178276
-0.139215
-0.107646
-0.071832
-0.033581
-0.000627
0.044561
0.048958
0.046369
0.026956
-0.021223
-0.051019
-0.073501
-0.102899
-0.144979
-0.181339
-0.213551
-0.223624
-0.218640
-0.207052
-0.174266
-0.131086
-0.094299
-0.059184
-0.015400
0.031427
0.068041
0.064569
0.051605
0.031058
-0.002216
-0.042227
-0.083384
-0.127477
-0.159770
-0.186655
-0.215525
-0.226754
-0.230898
-0.216835
-0.181697
-0.139507
-0.091404
-0.054676
-0.023008
0.012146
0.047799
0.063033
0.070763
0.063058
0.033235
-0.000174
-0.031249
-0.069969
-0.075619
-0.091724
-0.103107
-0.104996
-0.098311
-0.072104
-0.008084
0.042601
0.105408
0.172129
0.259758
0.322570
0.368277
0.396093
0.443358
0.457236
0.445107
0.438193
0.403980
0.398357
0.402291
0.399287
0.422842
0.441361
0.482210
0.536581
0.606421
0.662563
0.714182
0.747027
0.776519
0.789129
0.798305
0.769681
0.744697
0.690181
0.592361
0.468491
0.380032
0.284667
0.194637
0.116163
0.045746
-0.010315
-0.037508
-0.024726
-0.009054
0.017111
0.062716
0.093948
0.131433
0.163591
0.193313
0.178981
0.163482
0.136616
0.097684
0.056188
0.006364
-0.034056
-0.077496
-0.100696
-0.132209
-0.156672
-0.168875
-0.154466
-0.104856
-0.054592
-0.006069
0.032428
0.072918
0.093597
0.103839
0.102743
0.089636
0.067389
0.039721
0.014346
-0.018445
-0.060666
-0.116063
-0.155855
-0.172878
-0.171990
-0.178675
-0.153747
-0.109116
-0.072342
-0.035017
0.014232
0.056618
0.077709
0.098726
0.111233
0.105276
0.079096
0.043840
0.013614
-0.031600
-0.080096
-0.121620
-0.148717
-0.171535
-0.188272
-0.185665
-0.160848
-0.138306
-0.095310
-0.041860
0.006397
0.043483
0.091194
0.129465
0.148037
0.141184
0.114471
0.081663
0.037641
0.003435
-0.043646
-0.102119
-0.136425
-0.160687
-0.159788
-0.151608
-0.130522
-0.078706
-0.051584
-0.016046
0.023904
0.068635
0.098088
0.132242
0.145244
0.142725
0.112211
0.088089
0.049754
0.019023
-0.026215
-0.061144
-0.099051
-0.116620
-0.120756
-0.112118
-0.098103
-0.073359
-0.037780
0.004946
0.057931
0.098150
0.123969
0.158018
0.170986
0.171219
0.143137
0.112935
0.063673
0.026559
-0.009487
-0.048292
-0.059137
-0.080196
-0.089878
-0.087690
-0.070712
-0.041603
0.012390
0.054622
0.102897
0.141145
0.180060
0.188697
0.199945
0.193297
0.165335
0.138947
0.098984
0.059056
0.007673
-0.032563
-0.058507
-0.089067
-0.075865
-0.063150
-0.038711
-0.014736
0.023892
0.067285
0.113589
0.147480
0.195666
0.226562
0.225722
0.222571
0.196285
0.177911
0.147230
0.097575
0.030209
-0.002071
-0.028272
-0.056416
-0.067463
-0.056778
-0.029492
0.011339
0.055954
0.100871
0.137601
0.177701
0.210420
0.229330
0.229866
0.226176
0.206434
0.165562
0.123515
0.089983
0.030026
-0.011498
-0.043154
-0.065108
-0.074225
-0.079106
-0.071423
-0.047506
0.003248
0.051717
0.099113
0.137209
0.163594
0.174551
0.193076
0.184214
0.173382
0.140231
0.096264
0.057777
0.009755
-0.046183
-0.090036
-0.106001
-0.125010
-0.121103
-0.107586
-0.074340
-0.018282
0.017833
0.057003
0.095230
0.127440
0.144703
0.149102
0.142070
0.109837
0.075767
0.033877
-0.008146
-0.047651
-0.106281
-0.149257
-0.178883
-0.169404
-0.149634
-0.133539
-0.112097
-0.076019
-0.026433
0.013449
0.058956
0.085193
0.108963
0.108836
0.093459
0.071914
0.042576
-0.009183
-0.050059
-0.079714
-0.105240
-0.166554
-0.195601
-0.205295
-0.197395
-0.182164
-0.154304
-0.111972
-0.063801
-0.006256
0.038351
0.081359
0.097127
0.122001
0.112414
0.089329
0.057278
0.020581
-0.016244
-0.072330
-0.112941
-0.158019
-0.188189
-0.179440
-0.188096
-0.179435
-0.142747
-0.102013
-0.063217
-0.011150
0.026655
0.053783
0.077139
0.092442
0.086032
0.076261
0.041458
-0.002257
-0.037498
-0.082910
-0.137485
-0.169681
-0.198897
-0.200208
-0.195824
-0.180727
-0.149733
-0.107183
-0.053716
-0.006067
0.043752
0.066981
0.098009
0.098106
0.086745
0.067899
0.042763
0.007823
-0.040006
-0.095260
-0.140199
-0.166321
-0.177310
-0.172948
-0.166445
-0.143152
-0.120706
-0.084216
-0.033977
0.013401
0.057995
0.092567
0.114864
0.111901
0.101810
0.069236
0.053115
0.006113
-0.027041
-0.079575
-0.123498
-0.149482
-0.196703
-0.205543
-0.201674
-0.173327
-0.140929
-0.093436
-0.045038
-0.001172
0.038277
0.083472
0.108882
0.113225
0.109626
0.086182
0.051350
0.017020
-0.019898
-0.076497
-0.118359
-0.152704
-0.181576
-0.189738
-0.206897
-0.189033
-0.140209
-0.095151
-0.056054
-0.030464
0.039631
0.087666
0.116890
0.115042
0.103285
0.082555
0.070906
0.021116
-0.004784
-0.054961
-0.107540
-0.156112
-0.189545
-0.202998
-0.186163
-0.162017
-0.139773
-0.089319
-0.047187
0.006041
0.045977
0.068095
0.092995
0.093011
0.094132
0.077302
0.046625
0.015932
-0.025225
-0.080809
-0.119976
-0.164467
-0.197958
-0.218435
-0.208550
-0.186415
-0.148574
-0.109170
-0.061378
-0.004001
0.038085
0.064727
0.085207
0.090857
0.089381
0.064730
0.023337
-0.023905
-0.075866
-0.100084
-0.135208
-0.170909
-0.196687
-0.202743
-0.201796
-0.176701
-0.127522
-0.084516
-0.053418
0.001550
0.041433
0.087627
0.114478
0.104800
0.088391
0.061753
0.030652
-0.009945
-0.060261
-0.102875
-0.141841
-0.164426
-0.197447
-0.215258
-0.213209
-0.203458
-0.175765
-0.126238
-0.077107
-0.019454
0.030641
0.061240
0.092002
0.103796
0.103669
0.062445
0.029043
-0.011995
-0.052372
-0.105870
-0.146939
-0.187082
-0.217192
-0.219762
-0.217751
-0.195005
-0.166974
-0.128973
-0.073077
-0.030920
0.004229
0.040911
0.067962
0.074452
0.076291
0.062514
0.018961
-0.023693
-0.059251
-0.097473
-0.148759
-0.189273
-0.200859
-0.203496
-0.195083
-0.172831
-0.134619
-0.095728
-0.053204
-0.020655
0.018184
0.045079
0.070074
0.075189
0.064945
0.036657
0.010176
-0.039118
-0.071938
-0.109647
-0.136848
-0.176258
-0.212013
-0.205621
-0.177939
-0.147717
-0.119942
-0.088261
-0.053618
-0.010001
0.031146
0.071353
0.097334
0.106788
0.098361
0.070552
0.032642
-0.010297
-0.053992
-0.087367
-0.128954
-0.153993
-0.199918
-0.198938
-0.187541
-0.157723
-0.107213
-0.080811
-0.027252
0.020674
0.052502
0.094827
0.118545
0.130087
0.115408
0.092233
0.060062
0.001894
-0.046428
-0.094867
-0.123148
-0.138101
-0.191411
-0.191686
-0.176688
-0.151323
-0.096976
-0.057939
-0.020022
0.036912
0.062104
0.097295
0.117482
0.130243
0.128465
0.123805
0.087853
0.042619
-0.000619
-0.053084
-0.104683
-0.142175
-0.167566
-0.182374
-0.190108
-0.182084
-0.149630
-0.092066
-0.047674
-0.002021
0.026067
0.045368
0.074471
0.083619
0.079770
0.057320
0.037257
0.003621
-0.049229
-0.094254
-0.128930
-0.159815
-0.195515
-0.209786
-0.213574
-0.190695
-0.157563
-0.105739
-0.057595
-0.018802
0.025310
0.050059
0.066983
0.063330
0.053337
0.046868
0.009568
-0.034624
-0.077030
-0.123674
-0.166635
-0.204947
-0.239763
-0.238395
-0.227677
-0.209360
-0.182010
-0.140974
-0.095822
-0.036899
-0.000610
0.026020
0.045145
0.049067
0.041973
0.027268
-0.007051
-0.048964
-0.098786
-0.140166
-0.196700
-0.210772
-0.219321
-0.230226
-0.226095
-0.204242
-0.167969
-0.115992
-0.078730
-0.035451
0.016224
0.056088
0.076504
0.069144
0.058885
0.036043
-0.007596
-0.045800
-0.086814
-0.130792
-0.177975
-0.210263
-0.252011
-0.260019
-0.251314
-0.223013
-0.193959
-0.136935
-0.087658
-0.046830
-0.014940
0.020108
0.052417
0.051061
0.051714
0.022973
-0.008891
-0.060797
-0.114622
-0.146119
-0.182109
-0.209661
-0.239463
-0.257565
-0.259645
-0.240336
-0.204006
-0.163154
-0.115637
-0.068655
-0.020454
0.026327
0.064997
0.075528
0.092489
0.096056
0.097795
0.061582
0.044056
0.024485
-0.004074
-0.017527
-0.032059
-0.021785
0.006434
0.049626
0.100776
0.162320
0.230655
0.329047
0.404199
0.454514
0.510482
0.544335
0.542351
0.555158
0.566300
0.570466
0.554643
0.560665
0.531229
0.525844
0.530023
0.540516
0.547951
0.565346
0.569430
0.591623
0.610849
0.632663
0.626415
0.582848
0.546249
0.481735
0.430704
0.363288
0.285427
0.192802
0.100857
0.036886
-0.026221
-0.082071
-0.104967
-0.119395
-0.123214
-0.100631
-0.076367
-0.044822
-0.004093
0.042396
0.085946
0.118731
0.142365
0.138386
0.134247
0.113306
0.085543
0.031211
-0.021776
-0.078227
-0.120620
-0.158886
-0.181958
-0.188924
-0.182252
-0.164579
-0.130162
-0.099452
-0.054729
-0.009695
0.030387
0.063113
0.081141
0.086197
0.080087
0.058928
0.027640
-0.010693
-0.063329
-0.099254
-0.142437
-0.175590
-0.180644
-0.192625
-0.185473
-0.180035
-0.150859
-0.103665
-0.060002
-0.014570
0.016201
0.041120
0.072251
0.083805
0.072562
0.064417
0.025534
-0.021618
-0.059472
-0.099321
-0.131250
-0.160842
-0.187353
-0.201600
-0.193259
-0.181516
-0.136011
-0.091055
-0.034803
0.012643
0.047261
0.081510
0.114952
0.122619
0.110845
0.082550
0.062926
0.024338
-0.011685
-0.077704
-0.106124
-0.130015
-0.157286
-0.170897
-0.175577
-0.155083
-0.114394
-0.078161
-0.034222
0.019877
0.068615
0.106724
0.147018
0.145579
0.135018
0.125723
0.080943
0.047102
0.005242
-0.044688
-0.091713
-0.129046
-0.163018
-0.162409
-0.144908
-0.111521
-0.075302
-0.037606
0.012627
0.048625
0.091462
0.126432
0.153564
0.160865
0.168332
0.159436
0.129246
0.074090
0.020750
-0.023783
-0.062642
-0.085873
-0.114215
-0.124141
-0.129248
-0.089894
-0.049262
-0.007853
0.046392
0.090349
0.119465
0.139740
0.166175
0.179735
0.173055
0.165657
0.143860
0.112109
0.063391
0.013506
-0.014899
-0.072107
-0.091414
-0.085504
-0.080290
-0.061867
-0.039855
-0.000785
0.046448
0.114861
0.152883
0.177196
0.205338
0.203138
0.193750
0.193391
0.161671
0.122097
0.089342
0.030652
-0.003316
-0.039828
-0.079014
-0.090881
-0.075922
-0.056103
-0.016483
0.027828
0.056465
0.110363
0.168862
0.186682
0.203013
0.201887
0.194510
0.173901
0.140579
0.099901
0.047247
-0.003721
-0.043555
-0.083682
-0.100627
-0.107274
-0.107231
-0.083637
-0.045561
-0.006885
0.034744
0.069142
0.104187
0.135991
0.165332
0.167978
0.164725
0.132300
0.085989
0.038771
0.005762
-0.025192
-0.070651
-0.103589
-0.134971
-0.146384
-0.149489
-0.133936
-0.111828
-0.072345
-0.029557
0.016860
0.059556
0.102106
0.113973
0.123780
0.127871
0.105535
0.065630
0.024593
-0.020139
-0.077824
-0.126661
-0.164435
-0.196107
-0.210394
-0.206016
-0.178046
-0.153986
-0.111329
-0.071306
-0.029732
0.018338
0.052637
0.074637
0.086151
0.083573
0.077877
0.057024
0.009300
-0.039899
-0.094162
-0.142765
-0.175428
-0.204796
-0.214410
-0.204957
-0.170692
-0.139988
-0.101409
-0.072984
-0.038620
0.009905
0.031696
0.050384
0.074043
0.085391
0.047974
0.012769
-0.025291
-0.071150
-0.124730
-0.162398
-0.197006
-0.225844
-0.236920
-0.225382
-0.214950
-0.181751
-0.120497
-0.079525
-0.029473
0.003454
0.039512
0.075412
0.079562
0.071893
0.055739
0.025671
-0.018240
-0.057951
-0.103386
-0.153421
-0.172232
-0.204483
-0.228269
-0.224713
-0.180212
-0.146034
-0.104026
-0.056049
-0.011043
0.030431
0.060254
0.086636
0.091555
0.071441
0.063434
0.025159
-0.006551
-0.053246
-0.104739
-0.152482
-0.176964
-0.204639
-0.223915
-0.216900
-0.200084
-0.160446
-0.110476
-0.058416
-0.002379
0.056789
0.087260
0.088720
0.081827
0.081422
0.063185
0.036125
-0.003386
-0.034765
-0.076838
-0.115607
-0.151591
-0.183270
-0.191610
-0.195436
-0.181971
-0.149260
-0.106552
-0.064604
-0.024921
0.016298
0.059953
0.082419
0.091537
0.091712
0.085032
0.045038
-0.005440
-0.052375
-0.097112
-0.132170
-0.178174
-0.192482
-0.200559
-0.200900
-0.189072
-0.136688
-0.092403
-0.049864
-0.010962
0.034151
0.059307
0.084026
0.093712
0.077662
0.065180
0.028302
-0.018893
-0.058884
-0.093223
-0.123142
-0.159257
-0.183343
-0.208200
-0.202974
-0.171746
-0.141371
-0.108353
-0.071213
-0.011970
0.013176
0.045004
0.089448
0.100019
0.083530
0.054425
0.016695
-0.028903
-0.066377
-0.119189
-0.159158
-0.175037
-0.202721
-0.208944
-0.190827
-0.177651
-0.147751
-0.103868
-0.054153
-0.008826
0.027185
0.062079
0.081388
0.087301
0.080030
0.042391
0.003640
-0.040868
-0.073260
-0.114086
-0.144657
-0.181923
-0.190179
-0.199557
-0.210631
-0.201158
-0.160530
-0.119237
-0.076180
-0.023622
0.016002
0.044858
0.072667
0.104396
0.092372
0.055594
0.030294
-0.016972
-0.057921
-0.113793
-0.159487
-0.189539
-0.224596
-0.229346
-0.217726
-0.186920
-0.166413
-0.125122
-0.088693
-0.042921
0.004308
0.034889
0.077979
0.087959
0.082380
0.067784
0.028945
-0.016239
-0.067196
-0.113998
-0.153648
-0.190714
-0.216020
-0.220157
-0.215439
-0.200172
-0.166962
-0.126101
-0.078172
-0.022984
0.018093
0.050217
0.065419
0.073886
0.075939
0.061332
0.022154
-0.008042
-0.054012
-0.101927
-0.142106
-0.191478
-0.212776
-0.211818
-0.198381
-0.176308
-0.148296
-0.101248
-0.042992
-0.005581
0.027165
0.060075
0.087462
0.104174
0.088819
0.069351
0.053765
0.006960
-0.024061
-0.066300
-0.109386
-0.146373
-0.180769
-0.208397
-0.220395
-0.190647
-0.146052
-0.095559
-0.041682
0.004474
0.051116
0.085381
0.110274
0.128516
0.123986
0.101861
0.071105
0.033300
-0.006829
-0.055772
-0.093446
-0.126432
-0.149321
-0.151587
-0.148908
-0.129297
-0.096323
-0.055738
-0.011055
0.040564
0.071538
0.090412
0.115398
0.116509
0.111565
0.090434
0.060684
0.011533
-0.034299
-0.087748
-0.130338
-0.173815
-0.210035
-0.223241
-0.223224
-0.202569
-0.173074
-0.128168
-0.079939
-0.028007
0.016237
0.053243
0.069200
0.076363
0.072791
0.052874
0.013404
-0.038781
-0.076839
-0.118271
-0.164203
-0.193790
-0.220568
-0.226517
-0.224773
-0.206905
-0.176457
-0.131770
-0.079317
-0.040896
0.002526
0.026048
0.024931
0.032576
0.027588
0.012321
-0.007292
-0.054005
-0.098958
-0.144023
-0.191120
-0.215572
-0.239887
-0.245487
-0.244932
-0.231784
-0.185847
-0.139733
-0.102061
-0.053871
-0.011439
0.016571
0.045537
0.060181
0.057242
0.027665
0.005238
-0.038253
-0.085484
-0.124850
-0.161458
-0.198127
-0.231920
-0.239662
-0.250149
-0.222120
-0.185370
-0.138875
-0.101944
-0.052720
-0.009712
0.024690
0.045592
0.049052
0.046142
0.022896
-0.003629
-0.044044
-0.090879
-0.148667
-0.184299
-0.209867
-0.246994
-0.252744
-0.239568
-0.232798
-0.207985
-0.159600
-0.119274
-0.075430
-0.029300
0.011475
0.049087
0.053042
0.057124
0.032348
-0.007004
-0.029439
-0.061357
-0.106643
-0.138386
-0.177159
-0.186998
-0.176410
-0.158571
-0.122039
-0.073896
-0.012350
0.047705
0.093698
0.146726
0.199284
0.239048
0.268601
0.302528
0.299885
0.297003
0.288340
0.272721
0.249813
0.246256
0.263844
0.279015
0.284364
0.333924
0.400119
0.478522
0.565631
0.633380
0.710206
0.787369
0.817520
0.844891
0.847154
0.856012
0.815361
0.760659
0.682144
0.607219
0.526735
0.428353
0.324403
0.234570
0.156195
0.110173
0.088643
0.075044
0.077337
0.093245
0.123814
0.151398
0.163463
0.191527
0.195192
0.197277
0.165746
0.117406
0.058551
0.028054
-0.018100
-0.074394
-0.107298
-0.131382
-0.141072
-0.126935
-0.113744
-0.100791
-0.034595
-0.008881
0.022840
0.067115
0.108218
0.122025
0.129366
0.127298
0.085600
0.045237
0.026131
-0.019335
-0.066513
-0.122697
-0.154039
-0.187171
-0.189961
-0.175318
-0.170987
-0.147681
-0.094828
-0.057043
-0.020294
0.014301
0.046172
0.070029
0.077752
0.079725
0.070400
0.035752
0.002641
-0.040278
-0.083280
-0.124616
-0.166374
-0.166080
-0.162931
-0.174378
-0.159903
-0.123588
-0.092630
-0.044994
-0.000798
0.038222
0.059483
0.083688
0.095420
0.082450
0.058133
0.035422
0.000454
-0.035789
-0.090389
-0.135037
-0.153767
-0.179569
-0.182887
-0.174049
-0.163625
-0.119533
-0.068029
-0.014933
0.031287
0.073329
0.109332
0.123299
0.125258
0.121680
0.098516
0.063921
0.025438
-0.019573
-0.064194
-0.084156
-0.104694
-0.141553
-0.153775
-0.140592
-0.130343
-0.097403
-0.053989
-0.016745
0.029726
0.077194
0.120726
0.142081
0.149692
0.146918
0.131408
0.096814
0.054733
0.013259
-0.027786
-0.076157
-0.107803
-0.107291
-0.116059
-0.126379
-0.101807
-0.059288
-0.021365
0.029089
0.074355
0.110768
0.150667
0.180798
0.175105
0.169110
0.150559
0.114018
0.089007
0.056592
0.012091
-0.030149
-0.065738
-0.089167
-0.103905
-0.098472
-0.069537
-0.037811
0.013853
0.057669
0.107953
0.136413
0.179803
0.211528
0.218797
0.218031
0.200989
0.170362
0.117880
0.075062
0.038156
-0.008499
-0.038190
-0.062019
-0.070947
-0.067360
-0.051695
-0.005780
0.018652
0.054021
0.115771
0.149099
0.168203
0.203108
0.214186
0.193340
0.160343
0.140260
0.102765
0.063290
0.014781
-0.035961
-0.063206
-0.084411
-0.099865
-0.093111
-0.051126
-0.011290
0.027891
0.064549
0.074661
0.088678
0.131827
0.156104
0.181161
0.188516
0.165015
0.120835
0.061703
0.025309
-0.027921
-0.067429
-0.097195
-0.127553
-0.136821
-0.114061
-0.090687
-0.060531
-0.037914
0.000728
0.040609
0.085637
0.119982
0.149182
0.150275
0.135665
0.125116
0.087305
0.034774
-0.006856
-0.059300
-0.102618
-0.138868
-0.166110
-0.182770
-0.183128
-0.165006
-0.147881
-0.108571
-0.071850
-0.039852
0.006770
0.037731
0.059042
0.054278
0.053548
0.052725
0.029098
-0.006911
-0.053619
-0.088180
-0.119301
-0.142671
-0.156964
-0.164231
-0.166003
-0.163605
-0.130745
-0.084986
-0.030013
-0.002421
0.033485
0.056401
0.077799
0.087039
0.082714
0.062856
0.018246
-0.009429
-0.043214
-0.087861
-0.135866
-0.180004
-0.211098
-0.219352
-0.208516
-0.182190
-0.132799
-0.089994
-0.049238
-0.007813
0.034258
0.060344
0.094703
0.102811
0.091956
0.051971
0.019808
-0.021912
-0.077547
-0.131975
-0.168777
-0.197828
-0.230085
-0.223056
-0.198389
-0.189857
-0.162393
-0.112795
-0.064520
-0.016804
0.020778
0.051357
0.081195
0.112843
0.102624
0.060341
0.021821
-0.015230
-0.052401
-0.093284
-0.142921
-0.192512
-0.223594
-0.227618
-0.220172
-0.198629
-0.158605
-0.113469
-0.072715
-0.036132
0.008244
0.045683
0.075045
0.076104
0.068435
0.049349
0.020197
-0.021744
-0.070379
-0.115671
-0.141011
-0.161648
-0.188713
-0.201247
-0.189694
-0.164489
-0.134088
-0.085356
-0.053759
-0.025473
0.013680
0.056046
0.073606
0.068473
0.091772
0.069237
0.034714
-0.002705
-0.049570
-0.092830
-0.122826
-0.157846
-0.179673
-0.208518
-0.195013
-0.168239
-0.120899
-0.083757
-0.043789
0.004172
0.038476
0.065773
0.078111
0.087921
0.079024
0.059719
0.024044
-0.008241
-0.054272
-0.111957
-0.151201
-0.166128
-0.189579
-0.201100
-0.196484
-0.170505
-0.134943
-0.085970
-0.047809
-0.003013
0.033677
0.070059
0.085929
0.095717
0.096260
0.071501
0.049085
0.003859
-0.046041
-0.095951
-0.141689
-0.174724
-0.204150
-0.202769
-0.189789
-0.173548
-0.159161
-0.137312
-0.091441
-0.031653
0.012075
0.060580
0.083766
0.094841
0.085603
0.062156
0.017279
-0.031837
-0.081237
-0.120239
-0.166541
-0.193007
-0.218644
-0.230629
-0.219627
-0.202794
-0.167256
-0.138335
-0.090308
-0.034805
0.010237
0.058785
0.096660
0.111494
0.104830
0.073248
0.034829
0.000209
-0.050498
-0.106042
-0.159703
-0.177268
-0.230532
-0.239777
-0.238540
-0.213335
-0.167564
-0.131163
-0.084848
-0.037136
0.007782
0.032795
0.058399
0.075495
0.074464
0.061803
0.024450
-0.020846
-0.066337
-0.114060
-0.162813
-0.202564
-0.221835
-0.221242
-0.222566
-0.204937
-0.166010
-0.110925
-0.073506
-0.030804
0.026651
0.073308
0.093407
0.087220
0.083340
0.059374
0.036390
-0.016967
-0.070825
-0.123531
-0.146269
-0.195336
-0.205356
-0.211063
-0.205267
-0.194715
-0.157947
-0.111995
-0.074468
-0.021770
0.025181
0.067962
0.090199
0.087906
0.098203
0.074332
0.030998
-0.014315
-0.049824
-0.089143
-0.124930
-0.167512
-0.185373
-0.183005
-0.177832
-0.156335
-0.122864
-0.078773
-0.042125
-0.006371
0.036414
0.068730
0.091657
0.103577
0.101708
0.083273
0.050110
0.008462
-0.040872
-0.078232
-0.123698
-0.157402
-0.167221
-0.177509
-0.167984
-0.150936
-0.127317
-0.081811
-0.026070
0.019565
0.053768
0.084524
0.096579
0.110857
0.105994
0.108085
0.066514
0.031622
-0.007339
-0.047773
-0.083001
-0.119439
-0.152766
-0.171085
-0.175197
-0.160237
-0.134305
-0.106179
-0.058641
-0.012212
0.022110
0.054837
0.079015
0.084204
0.062386
0.048052
0.023316
-0.015878
-0.062448
-0.123623
-0.175779
-0.198703
-0.222125
-0.226720
-0.223422
-0.192906
-0.153305
-0.100513
-0.061389
-0.030924
-0.000651
0.030576
0.054824
0.061456
0.060424
0.044069
0.005334
-0.041763
-0.094037
-0.129874
-0.175868
-0.214281
-0.243208
-0.256752
-0.255633
-0.228993
-0.197750
-0.149854
-0.111197
-0.063879
-0.013801
0.006513
0.039197
0.052909
0.046558
0.016380
-0.011668
-0.051570
-0.108964
-0.167565
-0.211209
-0.234276
-0.256086
-0.255653
-0.249971
-0.237646
-0.200657
-0.168786
-0.128397
-0.075144
-0.018642
0.026375
0.043988
0.048989
0.033981
0.000859
-0.021809
-0.065679
-0.111799
-0.153184
-0.184852
-0.214157
-0.237554
-0.252256
-0.237195
-0.214576
-0.177950
-0.142348
-0.100315
-0.070197
-0.023659
0.006483
0.039624
0.044817
0.030790
0.017763
0.001247
-0.048483
-0.097089
-0.153097
-0.187018
-0.215020
-0.234995
-0.258578
-0.248506
-0.220154
-0.184232
-0.142377
-0.103496
-0.063135
-0.002414
0.029795
0.070683
0.077179
0.096963
0.086349
0.082057
0.046151
0.028685
0.009472
-0.031739
-0.050002
-0.037673
-0.049816
-0.030948
0.033214
0.112921
0.185706
0.256793
0.360232
0.429127
0.487815
0.550455
0.590355
0.612988
0.637496
0.640853
0.648541
0.646277
0.636585
0.631018
0.626227
0.613605
0.612532
0.588170
0.605660
0.620338
0.638974
0.659152
0.677028
0.666063
0.628145
0.595665
0.540859
0.472221
0.396419
0.294885
0.196904
0.117738
0.057355
0.003701
-0.033148
-0.059494
-0.065136
-0.061574
-0.059764
-0.043334
-0.016793
0.010235
0.038489
0.087350
0.118832
0.135933
0.135737
0.139417
0.111288
0.065962
0.033423
-0.013921
-0.054472
-0.096619
-0.128575
-0.158827
-0.176339
-0.185357
-0.168055
-0.129916
-0.089022
-0.048722
0.008867
0.044891
0.073765
0.095706
0.101454
0.092642
0.063760
0.033934
-0.014276
-0.061228
-0.113314
-0.158451
-0.189525
-0.215493
-0.234670
-0.226283
-0.183545
-0.153473
-0.108361
-0.055598
-0.010230
0.033028
0.069378
0.080985
0.096331
0.079482
0.057737
0.029428
-0.006140
-0.061575
-0.098537
-0.142074
-0.173311
-0.192829
-0.205895
-0.209375
-0.192814
-0.160715
-0.117399
-0.078860
-0.024787
0.017158
0.069847
0.104957
0.113693
0.122241
0.114028
0.074714
0.026444
-0.026146
-0.081486
-0.122518
-0.153812
-0.182908
-0.191608
-0.183810
-0.164701
-0.129324
-0.094595
-0.050266
-0.011153
0.040224
0.063597
0.101491
0.124293
0.124809
0.091470
0.061832
0.031000
0.000624
-0.042157
-0.081663
-0.111434
-0.130071
-0.143524
-0.144111
-0.136366
-0.085475
-0.030346
0.002446
0.041468
0.080093
0.122538
0.138906
0.142350
0.147325
0.132249
0.104094
0.064658
0.023855
-0.012444
-0.046160
-0.069382
-0.113967
-0.125802
-0.109314
-0.090040
-0.046564
-0.010226
0.043474
0.090963
0.126057
0.150700
0.177995
0.190445
0.188614
0.166157
0.132640
0.103426
0.059123
0.003891
-0.044424
-0.083242
-0.106760
-0.116496
-0.101157
-0.085336
-0.041756
0.001217
0.050270
0.097730
0.142640
0.165537
0.205869
0.212575
0.217344
0.190182
0.150653
0.116757
0.075443
0.033846
-0.009997
-0.055380
-0.089293
-0.095192
-0.090836
-0.064773
-0.034487
0.002349
0.038336
0.083983
0.139866
0.177615
0.194001
0.179338
0.170126
0.154823
0.114339
0.074841
0.026461
-0.014501
-0.049620
-0.072430
-0.099913
-0.111437
-0.104088
-0.083634
-0.048452
0.001784
0.031077
0.071090
0.095083
0.120083
0.144628
0.164790
0.162514
0.133754
0.090824
0.057564
0.011526
-0.040006
-0.077612
-0.107211
-0.140227
-0.149762
-0.145898
-0.128728
-0.098662
-0.077189
-0.027457
0.015128
0.061376
0.093724
0.118179
0.112749
0.100991
0.071385
0.039953
0.010194
-0.044316
-0.089399
-0.140639
-0.170737
-0.207549
-0.207812
-0.207040
-0.175466
-0.139603
-0.097669
-0.064173
-0.011740
0.025687
0.057105
0.089479
0.090418
0.070680
0.052124
0.016681
-0.023061
-0.083693
-0.137082
-0.168344
-0.202724
-0.238981
-0.239251
-0.226104
-0.208218
-0.170776
-0.125930
-0.074083
-0.032093
0.007563
0.032216
0.064572
0.075201
0.080647
0.074819
0.033623
-0.015879
-0.050795
-0.093951
-0.142461
-0.179252
-0.203973
-0.208109
-0.202525
-0.186570
-0.159337
-0.122806
-0.087537
-0.050174
-0.003224
0.027559
0.042959
0.056872
0.059406
0.048439
0.017166
-0.020982
-0.057646
-0.104956
-0.140310
-0.159199
-0.197924
-0.221813
-0.205605
-0.174030
-0.142121
-0.102775
-0.062587
-0.026768
0.010763
0.042906
0.074876
0.074518
0.067046
0.050008
0.022275
-0.030053
-0.070618
-0.111143
-0.157237
-0.187803
-0.204976
-0.211964
-0.213584
-0.199351
-0.154432
-0.102399
-0.051326
-0.007524
0.022280
0.061052
0.081753
0.092426
0.077060
0.053537
0.023770
-0.017646
-0.065992
-0.111217
-0.161253
-0.194332
-0.205782
-0.217559
-0.201751
-0.183138
-0.159938
-0.101379
-0.039566
-0.008737
0.028122
0.058940
0.088708
0.098465
0.077651
0.052538
0.025834
-0.014583
-0.066439
-0.111003
-0.132939
-0.180351
-0.206294
-0.208452
-0.204197
-0.202778
-0.181270
-0.128698
-0.051194
-0.009816
0.026559
0.046465
0.083431
0.109020
0.079902
0.065892
0.030012
-0.026682
-0.046830
-0.090292
-0.119951
-0.143752
-0.169042
-0.177013
-0.191243
-0.176012
-0.143745
-0.100774
-0.061443
-0.019824
0.016361
0.057960
0.084678
0.094551
0.088331
0.056607
0.023050
-0.006102
-0.057005
-0.116842
-0.157184
-0.180683
-0.197371
-0.209149
-0.203537
-0.184250
-0.163043
-0.120846
-0.079748
-0.022805
0.017280
0.066916
0.092617
0.093549
0.090560
0.066892
0.022711
-0.019626
-0.069447
-0.111446
-0.158536
-0.193759
-0.216409
-0.232838
-0.217310
-0.202775
-0.170630
-0.125522
-0.071636
-0.029973
0.010041
0.038207
0.069525
0.072821
0.060956
0.035578
0.003884
-0.022570
-0.071825
-0.111213
-0.159535
-0.198321
-0.222265
-0.227722
-0.219022
-0.205162
-0.172815
-0.124634
-0.070212
-0.025550
0.003193
0.037393
0.053833
0.065922
0.058730
0.055579
0.026444
-0.013858
-0.071388
-0.119267
-0.152026
-0.176122
-0.211280
-0.243638
-0.226786
-0.204349
-0.155877
-0.111121
-0.068587
-0.012302
0.026369
0.058926
0.090170
0.110449
0.107688
0.080536
0.035937
0.004906
-0.047765
-0.096802
-0.153710
-0.184232
-0.200658
-0.197118
-0.197491
-0.176922
-0.125579
-0.092881
-0.049929
-0.000057
0.046496
0.078781
0.090108
0.092855
0.102287
0.084994
0.054126
0.008096
-0.042229
-0.080219
-0.130522
-0.165057
-0.184759
-0.193041
-0.192974
-0.168273
-0.131180
-0.099387
-0.044417
0.007764
0.026380
0.063709
0.090952
0.103171
0.091625
0.072923
0.056048
0.028080
-0.020080
-0.066893
-0.109340
-0.152390
-0.178926
-0.181792
-0.174476
-0.149967
-0.115692
-0.055295
-0.011412
0.031189
0.073541
0.099450
0.119829
0.117596
0.101852
0.091268
0.058002
0.021586
-0.029274
-0.081539
-0.138159
-0.177292
-0.193456
-0.197299
-0.190303
-0.174625
-0.152748
-0.110542
-0.073612
-0.029126
0.010481
0.046871
0.068265
0.092816
0.082096
0.051821
0.010632
-0.029513
-0.063735
-0.114434
-0.151596
-0.192019
-0.217886
-0.237390
-0.238258
-0.217926
-0.175349
-0.134304
-0.093906
-0.058465
-0.013410
0.018585
0.053579
0.066582
0.056312
0.027044
-0.017971
-0.055046
-0.085760
-0.135781
-0.189849
-0.214035
-0.242146
-0.249609
-0.256642
-0.228522
-0.189392
-0.142326
-0.086934
-0.039890
-0.012435
0.019541
0.040771
0.041317
0.033832
0.015920
0.002176
-0.039829
-0.080159
-0.147763
-0.187739
-0.225044
-0.244514
-0.253325
-0.249131
-0.239818
-0.209121
-0.149914
-0.093166
-0.054531
-0.014228
0.030901
0.038536
0.038243
0.050537
0.039184
-0.000891
-0.046981
-0.106921
-0.155247
-0.196731
-0.232293
-0.249105
-0.266865
-0.263222
-0.244649
-0.200351
-0.157588
-0.110049
-0.068601
-0.031973
0.002593
0.050621
0.048079
0.040248
0.016589
-0.015879
-0.042431
-0.096558
-0.137100
-0.174860
-0.204891
-0.222014
-0.225420
-0.204887
-0.179771
-0.127233
-0.081739
-0.023713
0.026963
0.084268
0.120634
0.174379
0.180969
0.175256
0.177320
0.170285
0.157782
0.142131
0.121376
0.102173
0.113094
0.129387
0.156645
0.192911
0.230354
0.300371
0.359605
0.443196
0.525760
0.615683
0.699044
0.749771
0.784756
0.804166
0.813258
0.801629
0.754958
0.702915
0.671704
0.591333
0.521121
0.467037
0.438675
0.410394
0.349880
0.325685
0.309986
0.291647
0.307180
0.303323
0.282378
0.267675
0.265841
0.257646
0.217481
0.176701
0.132927
0.074117
0.024515
-0.038880
-0.100267
-0.138937
-0.150292
-0.131239
-0.113759
-0.084370
-0.041539
-0.006580
0.026351
0.050791
0.078148
0.114412
0.115546
0.102233
0.077259
0.045684
0.010434
-0.026376
-0.057871
-0.093247
-0.142778
-0.166671
-0.172281
-0.173220
-0.159748
-0.134104
-0.100608
-0.060740
-0.004476
0.034774
0.060116
0.084992
0.104101
0.103514
0.084139
0.041533
0.000314
-0.043954
-0.090930
-0.142438
-0.177464
-0.204917
-0.213679
-0.213709
-0.195057
-0.151194
-0.101247
-0.052656
0.006552
0.036840
0.071884
0.090146
0.101654
0.089578
0.049085
0.024196
-0.002208
-0.044547
-0.091824
-0.130859
-0.154249
-0.185931
-0.190846
-0.181816
-0.156923
-0.111426
-0.074174
-0.024979
0.020302
0.078643
0.107057
0.118205
0.119156
0.112554
0.105874
0.065949
0.020704
-0.031603
-0.066502
-0.104867
-0.146653
-0.159298
-0.158430
-0.144084
-0.133133
-0.087646
-0.052698
-0.014879
0.040574
0.076793
0.111701
0.135628
0.145860
0.148956
0.123662
0.097668
0.065488
0.018096
-0.026758
-0.081452
-0.117924
-0.133117
-0.134168
-0.138702
-0.120839
-0.062817
-0.024647
0.019933
0.066488
0.109160
0.147701
0.169203
0.169821
0.167524
0.156198
0.132392
0.092072
0.051558
0.001079
-0.049979
-0.085362
-0.106363
-0.115957
-0.102484
-0.069694
-0.037513
0.017480
0.061791
0.113079
0.160252
0.198221
0.198881
0.206408
0.212938
0.191632
0.151571
0.121314
0.083342
0.047211
0.000701
-0.044054
-0.085013
-0.086986
-0.070636
-0.041920
-0.005637
0.038644
0.083288
0.125295
0.156699
0.195189
0.216179
0.227990
0.231607
0.205733
0.166392
0.125210
0.075732
0.020476
-0.018643
-0.052700
-0.081739
-0.076518
-0.069508
-0.052806
-0.022198
0.018868
0.062692
0.111912
0.141470
0.176691
0.201369
0.202287
0.196133
0.174340
0.140892
0.098003
0.048347
-0.005217
-0.047329
-0.083330
-0.123705
-0.132848
-0.120053
-0.115650
-0.081997
-0.032761
0.001439
0.058158
0.096181
0.134182
0.147829
0.168182
0.161945
0.136355
0.096306
0.053339
0.007943
-0.044069
-0.081220
-0.107070
-0.132402
-0.145110
-0.143341
-0.123567
-0.095924
-0.063798
-0.021514
0.012251
0.053999
0.084262
0.110482
0.107295
0.110621
0.097633
0.065086
0.019839
-0.034742
-0.082468
-0.120483
-0.163876
-0.178346
-0.195924
-0.198056
-0.164517
-0.141852
-0.096901
-0.044551
-0.012011
0.030612
0.052130
0.067647
0.076561
0.080838
0.065227
0.018451
-0.004704
-0.035952
-0.083386
-0.129411
-0.167604
-0.189732
-0.185383
-0.183836
-0.161344
-0.120634
-0.080714
-0.037982
0.007104
0.050859
0.059258
0.078712
0.104873
0.079690
0.054977
0.031481
-0.009560
-0.039870
-0.083087
-0.132319
-0.176535
-0.209684
-0.214006
-0.209932
-0.188927
-0.147281
-0.116965
-0.070159
-0.028056
0.014993
0.051301
0.080773
0.098058
0.110888
0.080691
0.036289
-0.006303
-0.061321
-0.099691
-0.137152
-0.172764
-0.180857
-0.194209
-0.179369
-0.164893
-0.128584
-0.097761
-0.053773
-0.022434
0.031651
0.061334
0.082402
0.102648
0.094248
0.082347
0.050940
0.014633
-0.021232
-0.071389
-0.127661
-0.168228
-0.202777
-0.216114
-0.192004
-0.157548
-0.125513
-0.091899
-0.058013
-0.010627
0.034901
0.057078
0.086119
0.099497
0.103750
0.087008
0.047559
0.004477
-0.048626
-0.095392
-0.133877
-0.157883
-0.173469
-0.175522
-0.166772
-0.143899
-0.123239
-0.087815
-0.053224
0.011749
0.042154
0.070671
0.100587
0.116596
0.111359
0.091537
0.050625
0.020289
-0.030639
-0.076253
-0.131267
-0.173412
-0.188528
-0.182720
-0.179685
-0.161272
-0.135653
-0.099983
-0.060500
0.004451
0.032356
0.067792
0.107570
0.107546
0.102537
0.081004
0.039775
0.009057
-0.041698
-0.086410
-0.126017
-0.155363
-0.177570
-0.185247
-0.181459
-0.173787
-0.143655
-0.091844
-0.059510
-0.016795
0.023401
0.060145
0.091224
0.102606
0.098257
0.068290
0.032592
0.000738
-0.068067
-0.116770
-0.152341
-0.188030
-0.193565
-0.184538
-0.182292
-0.166944
-0.140630
-0.101187
-0.052554
-0.005585
0.024376
0.058538
0.080479
0.086126
0.080367
0.064123
0.035267
0.001299
-0.037015
-0.087858
-0.130806
-0.161483
-0.188864
-0.198849
-0.197096
-0.175712
-0.138162
-0.098305
-0.056484
-0.017500
0.020580
0.051989
0.058172
0.074535
0.090352
0.072606
0.039076
0.009622
-0.047336
-0.096002
-0.146493
-0.168132
-0.193738
-0.205260
-0.204626
-0.181839
-0.136839
-0.089223
-0.046198
0.001788
0.036048
0.061895
0.079474
0.084988
0.074720
0.054658
0.027612
-0.010122
-0.071174
-0.116826
-0.152846
-0.190990
-0.212044
-0.217032
-0.204054
-0.181872
-0.159531
-0.116914
-0.069664
-0.021510
0.020066
0.050547
0.069433
0.070085
0.090645
0.054788
0.021823
-0.016485
-0.071443
-0.116053
-0.155447
-0.177568
-0.198683
-0.189524
-0.187911
-0.175463
-0.153303
-0.129262
-0.085470
-0.035565
0.007849
0.048062
0.069073
0.090713
0.087109
0.068387
0.045640
-0.000121
-0.052249
-0.095724
-0.123520
-0.153036
-0.172277
-0.190764
-0.192338
-0.164708
-0.128735
-0.077634
-0.023305
0.021573
0.056257
0.082867
0.095114
0.106208
0.098644
0.070497
0.033465
-0.005227
-0.047143
-0.089332
-0.116333
-0.145568
-0.165830
-0.182504
-0.171378
-0.156509
-0.129810
-0.081407
-0.029170
0.003933
0.044489
0.080716
0.100518
0.126604
0.144221
0.134433
0.098716
0.062664
0.017316
-0.028592
-0.081176
-0.122499
-0.148052
-0.156891
-0.157415
-0.127479
-0.096301
-0.060537
-0.011856
0.025358
0.053600
0.089548
0.117099
0.117825
0.125282
0.103326
0.069254
0.031445
-0.021698
-0.081217
-0.139093
-0.174426
-0.191260
-0.199427
-0.181721
-0.166676
-0.142203
-0.104807
-0.052564
-0.013110
0.029847
0.069141
0.084090
0.086871
0.082211
0.058129
0.005636
-0.011838
-0.060967
-0.113530
-0.158599
-0.182156
-0.198355
-0.216197
-0.226852
-0.210695
-0.183877
-0.140665
-0.097776
-0.059795
-0.018924
0.011946
0.035352
0.052166
0.060558
0.048450
0.021024
-0.012579
-0.070147
-0.114119
-0.158564
-0.187862
-0.210161
-0.214578
-0.203179
-0.185659
-0.159751
-0.130081
-0.095524
-0.043923
-0.000172
0.024400
0.032693
0.046617
0.046120
0.015844
-0.015047
-0.056108
-0.103279
-0.136091
-0.175067
-0.219671
-0.223108
-0.232604
-0.218790
-0.179860
-0.140137
-0.105604
-0.075675
-0.045336
0.007635
0.043727
0.061105
0.058781
0.056132
0.036623
-0.000346
-0.032440
-0.076569
-0.105665
-0.155941
-0.195599
-0.231140
-0.241637
-0.221166
-0.201141
-0.174210
-0.135452
-0.080736
-0.039022
0.009110
0.031703
0.056986
0.076311
0.063975
0.035180
-0.003930
-0.037210
-0.081590
-0.118757
-0.162145
-0.179444
-0.185963
-0.198661
-0.171648
-0.133534
-0.098793
-0.046214
0.004415
0.053381
0.132911
0.180873
0.234224
0.262365
0.279568
0.286638
0.290690
0.282636
0.271571
0.280259
0.263879
0.256684
0.260468
0.294600
0.317816
0.357853
0.440992
0.523401
0.593318
0.670224
0.749774
0.819404
0.845528
0.837909
0.829636
0.799455
0.745048
0.690738
0.612663
0.525354
0.435775
0.342607
0.255380
0.185971
0.149458
0.138992
0.117507
0.104302
0.108217
0.129769
0.164424
0.190356
0.215069
0.219632
0.216472
0.177426
0.121465
0.082540
0.032336
-0.011671
-0.062327
-0.109851
-0.135199
-0.151508
-0.144379
-0.118936
-0.090559
-0.049519
0.003054
0.033177
0.055060
0.070473
0.109195
0.121050
0.130460
0.105731
0.048155
0.003574
-0.044278
-0.078993
-0.104310
-0.124833
-0.157311
-0.181323
-0.191063
-0.176816
-0.137220
-0.086605
-0.040378
-0.008379
0.036756
0.063139
0.101185
0.108363
0.101057
0.086367
0.044523
0.010405
-0.034423
-0.085947
-0.124956
-0.154129
-0.166955
-0.169499
-0.160971
-0.145392
-0.111923
-0.083213
-0.038232
0.011860
0.035304
0.074633
0.094033
0.109345
0.106777
0.081259
0.046133
0.007713
-0.040731
-0.084241
-0.135300
-0.162764
-0.165506
-0.170851
-0.167540
-0.151114
-0.123218
-0.071885
-0.021217
0.024094
0.057917
0.097013
0.125891
0.145134
0.130204
0.108786
0.086913
0.030153
-0.027995
-0.050663
-0.087610
-0.127493
-0.146941
-0.158405
-0.151341
-0.122449
-0.090400
-0.054873
-0.005072
0.036587
0.091096
0.139333
