-0.015807
0.032853
0.054237
0.077042
0.096863
0.088381
0.072728
0.052036
0.006157
-0.034874
-0.044160
-0.086190
-0.129274
-0.144412
-0.167057
-0.183233
-0.189084
-0.166410
-0.161118
-0.101669
-0.049756
-0.012413
0.041052
0.101057
0.135776
0.142091
0.132391
0.132516
0.095941
0.060277
0.040805
0.009854
-0.015757
-0.041692
-0.056418
-0.034616
-0.014184
0.043512
0.086483
0.136305
0.212781
0.297050
0.366174
0.442057
0.505147
0.535129
0.565540
0.607012
0.606131
0.566042
0.556157
0.547769
0.564154
0.579918
0.576500
0.594001
0.635518
0.716905
0.759818
0.794177
0.812195
0.813512
0.823081
0.843395
0.823476
0.803116
0.732548
0.628804
0.525493
0.429688
0.352416
0.253913
0.171332
0.095007
0.033373
0.003461
-0.007006
-0.007402
0.033167
0.074157
0.117109
0.163138
0.185750
0.218763
0.245922
0.225240
0.192398
0.161210
0.106798
0.088740
0.037354
0.012779
-0.019798
-0.065612
-0.098899
-0.104439
-0.093872
-0.084391
-0.056373
-0.003321
0.027777
0.081590
0.133190
0.139957
0.152850
0.175157
0.158741
0.109943
0.107422
0.061262
0.011382
-0.056644
-0.095607
-0.107947
-0.135068
-0.159244
-0.157133
-0.132862
-0.096546
-0.040789
0.014416
0.075359
0.090220
0.111091
0.174665
0.181896
0.162313
0.125085
0.075246
0.037146
0.015888
-0.037266
-0.076533
-0.118692
-0.136233
-0.140681
-0.142967
-0.118464
-0.066182
-0.029572
0.014696
0.077165
0.114018
0.129291
0.145718
0.151561
0.156587
0.146070
0.100043
0.052654
0.024499
-0.046635
-0.072919
-0.082667
-0.103216
-0.106261
-0.108663
-0.099131
-0.064679
-0.035693
0.020127
0.086895
0.124361
0.162007
0.184294
0.185986
0.185974
0.172454
0.111021
0.068934
0.025519
-0.012864
-0.063853
-0.102743
-0.094298
-0.052701
-0.032578
-0.029905
-0.004975
0.035147
0.071853
0.129298
0.152776
0.187991
0.204911
0.205918
0.200811
0.181493
0.162644
0.125938
0.080318
0.036857
-0.023623
-0.044505
-0.059577
-0.067927
-0.060715
-0.023955
0.012124
0.021757
0.093423
0.181639
0.193141
0.228712
0.251648
0.263782
0.256261
0.235231
0.171917
0.136581
0.105531
0.072021
0.044601
0.002983
-0.016285
-0.028682
-0.018819
0.014956
0.043140
0.087600
0.114473
0.153651
0.236148
0.270404
0.283941
0.282731
0.277077
0.232201
0.184975
0.178078
0.116790
0.082977
0.045789
0.002697
-0.011461
-0.005993
-0.011919
0.017527
0.071570
0.097768
0.137318
0.186103
0.234276
0.271337
0.285049
0.288919
0.285363
0.259407
0.197723
0.146162
0.088305
0.053476
0.040607
0.012274
-0.009156
0.001583
0.007388
0.018182
0.047293
0.062176
0.098212
0.146320
0.187862
0.201057
0.196981
0.186151
0.209228
0.240496
0.213910
0.171557
0.102021
0.066138
0.036609
-0.002581
-0.060697
-0.068347
-0.054245
-0.023537
0.006719
0.040205
0.079454
0.120815
0.153732
0.185349
0.208292
0.203950
0.196358
0.174857
0.170707
0.106262
0.047062
-0.000681
-0.049716
-0.090991
-0.108878
-0.108542
-0.105166
-0.087707
-0.048397
-0.016343
0.029761
0.068932
0.093526
0.152212
0.196178
0.188056
0.154579
0.116583
0.050564
0.017523
-0.015388
-0.064395
-0.095307
-0.129475
-0.146353
-0.138010
-0.130403
-0.121108
-0.059912
-0.029122
0.008694
0.066992
0.107512
0.139112
0.153690
0.148560
0.163520
0.111786
0.060125
0.014909
-0.017554
-0.052407
-0.086965
-0.123876
-0.132714
-0.141179
-0.164945
-0.140668
-0.101098
-0.069376
-0.018186
0.023497
0.077983
0.119560
0.155004
0.145001
0.112727
0.087165
0.063888
0.039062
-0.006211
-0.051594
-0.092007
-0.129881
-0.159108
-0.149901
-0.134214
-0.113847
-0.087460
-0.059253
-0.009278
0.038872
0.081899
0.110368
0.129735
0.136799
0.126960
0.125670
0.086911
0.031999
-0.022296
-0.043188
-0.085288
-0.134173
-0.137927
-0.144384
-0.145377
-0.142043
-0.076635
-0.038286
0.004501
0.059570
0.098526
0.127153
0.136614
0.123104
0.101189
0.123953
0.105791
0.044975
-0.014693
-0.078061
-0.105699
-0.140060
-0.153665
-0.163144
-0.168790
-0.132400
-0.093219
-0.055807
0.024699
0.072766
0.097989
0.127497
0.169815
0.178664
0.171817
0.120528
0.083420
0.027878
-0.029784
-0.093635
-0.108534
-0.118981
-0.146426
-0.146500
-0.112412
-0.099440
-0.064043
-0.036377
0.013934
0.061776
0.095565
0.126293
0.164737
0.171770
0.145573
0.132756
0.070217
0.027096
-0.015268
-0.065059
-0.087383
-0.128552
-0.154024
-0.147417
-0.155999
-0.109794
-0.054305
-0.031450
0.001987
0.028307
0.080131
0.112472
0.143220
0.131386
0.139228
0.126433
0.077206
0.040924
-0.017082
-0.065712
-0.101804
-0.140101
-0.157851
-0.161566
-0.148558
-0.124749
-0.090491
-0.041067
0.009064
0.036826
0.066810
0.111565
0.131562
0.137163
0.135252
0.094624
0.031190
-0.005368
-0.031722
-0.080100
-0.126632
-0.171381
-0.194406
-0.191393
-0.174934
-0.139574
-0.088054
-0.052994
0.001259
0.051287
0.080734
0.097950
0.127984
0.140369
0.159604
0.139633
0.080698
0.037641
-0.014228
-0.051538
-0.100059
-0.150076
-0.147841
-0.156580
-0.158877
-0.133448
-0.097337
-0.060352
-0.008585
0.049312
0.082733
0.094780
0.107132
0.130448
0.128183
0.111957
0.047507
0.020016
-0.021282
-0.091624
-0.108958
-0.128468
-0.151945
-0.184551
-0.181575
-0.151783
-0.105390
-0.065868
-0.034422
0.033110
0.081017
0.093053
0.119788
0.117334
0.094833
0.035992
0.019450
0.025075
-0.007328
-0.078546
-0.108900
-0.141116
-0.159256
-0.156292
-0.168460
-0.168823
-0.110984
-0.073520
-0.046510
-0.022555
0.037534
0.099381
0.116485
0.103316
0.097579
0.086376
0.045093
-0.005787
-0.058803
-0.083038
-0.119944
-0.158876
-0.161271
-0.177795
-0.189087
-0.177915
-0.131926
-0.077989
-0.035667
0.025926
0.053022
0.084901
0.096344
0.113848
0.081140
0.058204
0.015785
-0.016170
-0.015821
-0.059679
-0.121164
-0.134580
-0.139917
-0.151857
-0.143583
-0.125161
-0.104272
-0.074822
-0.048983
-0.027938
0.035592
0.079857
0.115619
0.134665
0.119137
0.080293
0.043787
0.006747
-0.047864
-0.076116
-0.134788
-0.165560
-0.173912
-0.194155
-0.183325
-0.151336
-0.108522
-0.066870
-0.018095
0.018736
0.068043
0.102741
0.129721
0.116595
0.097945
0.081750
0.026540
0.011891
-0.025596
-0.085159
-0.129285
-0.148876
-0.164713
-0.181553
-0.185280
-0.172396
-0.133386
-0.112112
-0.056257
-0.005449
0.039842
0.086557
0.096190
0.079559
0.064792
0.080604
0.071753
0.030701
-0.047509
-0.097623
-0.120751
-0.148268
-0.176289
-0.196348
-0.168296
-0.147518
-0.103345
-0.043658
0.011381
0.035593
0.056477
0.093107
0.101159
0.110344
0.107961
0.107121
0.071851
0.043311
-0.006155
-0.058871
-0.083628
-0.123948
-0.148517
-0.168096
-0.139598
-0.089096
-0.065598
-0.036272
0.023889
0.084887
0.104709
0.127858
0.150380
0.137718
0.135754
0.128115
0.081438
0.031708
-0.035309
-0.046742
-0.065306
-0.099171
-0.116325
-0.133775
-0.132329
-0.123148
-0.065656
-0.023619
0.016601
0.065744
0.129138
0.170968
0.169500
0.173792
0.157580
0.143496
0.104173
0.050264
-0.007334
-0.048593
-0.090414
-0.131145
-0.157446
-0.158895
-0.144943
-0.129329
-0.075812
-0.012072
0.005797
-0.001579
0.034648
0.077729
0.102604
0.122644
0.117914
0.093329
0.055336
0.018505
-0.032777
-0.091305
-0.139395
-0.179252
-0.197333
-0.194488
-0.179037
-0.165966
-0.145654
-0.113451
-0.045070
0.019887
0.060171
0.075841
0.089850
0.092659
0.088032
0.060714
0.013571
-0.025433
-0.060794
-0.117058
-0.172171
-0.190055
-0.204898
-0.210610
-0.220898
-0.171178
-0.129476
-0.090862
-0.031901
0.040765
0.062404
0.070354
0.071454
0.086946
0.094221
0.067301
0.025028
-0.013682
-0.039484
-0.089051
-0.139345
-0.165105
-0.195407
-0.196151
-0.184934
-0.180972
-0.171523
-0.130479
-0.078466
-0.024879
0.019140
0.054609
0.080653
0.095536
0.080674
0.068155
0.001321
-0.043728
-0.070551
-0.116890
-0.169698
-0.197435
-0.221566
-0.237385
-0.226617
-0.163663
-0.128878
-0.113371
-0.065486
-0.007320
0.012709
0.033826
0.086300
0.100224
0.089527
0.041188
-0.014000
-0.054179
-0.122926
-0.160619
-0.185005
-0.172370
-0.178568
-0.184532
-0.198999
-0.180156
-0.132039
-0.083871
-0.045705
0.029479
0.073318
0.117161
0.150283
0.158457
0.170014
0.170252
0.136074
0.128919
0.140882
0.106275
0.078833
0.046904
0.061601
0.079246
0.112233
0.170546
0.245766
0.314213
0.359276
0.440065
0.504760
0.554961
0.612037
0.669609
0.678647
0.691556
0.710481
0.724641
0.708698
0.683654
0.632325
0.598238
0.570773
0.561871
0.560028
0.534259
0.548140
0.567018
0.570737
0.528732
0.487805
0.475204
0.465078
0.416718
0.351355
0.278430
0.197955
0.136973
0.067140
0.004005
-0.044358
-0.096533
-0.118440
-0.118312
-0.104532
-0.084039
-0.063696
-0.020618
0.041378
0.098797
0.131262
0.150101
0.165199
0.173922
0.154039
0.125690
0.082536
0.049556
-0.004207
-0.085012
-0.115120
-0.135555
-0.168521
-0.171538
-0.153341
-0.129830
-0.093158
-0.057054
-0.001202
0.049482
0.065733
0.084072
0.055459
0.127617
0.130652
0.097726
0.046431
-0.001629
-0.046332
-0.075700
-0.097065
-0.127241
-0.153211
-0.190220
-0.177829
-0.165513
-0.096554
-0.059301
-0.001127
0.024024
0.057455
0.103533
0.121930
0.117505
0.089744
0.101968
0.067286
0.041679
-0.006785
-0.073279
-0.140844
-0.169553
-0.168771
-0.174343
-0.125847
-0.115966
-0.093941
-0.047499
-0.003240
0.045610
0.108040
0.137437
0.137623
0.143135
0.131751
0.124805
0.077825
0.041450
0.003290
-0.059241
-0.105862
-0.149085
-0.177861
-0.163606
-0.131622
-0.094967
-0.066839
-0.041318
0.004714
0.062071
0.112391
0.145269
0.154734
0.168444
0.147831
0.112294
0.063684
0.056275
0.008609
-0.028397
-0.062335
-0.099380
-0.120693
-0.107161
-0.106499
-0.093237
-0.031079
0.018721
0.056073
0.092904
0.127279
0.168345
0.193653
0.192801
0.188885
0.188241
0.154998
0.102395
0.042746
-0.007149
-0.046272
-0.076354
-0.108922
-0.093006
-0.043566
-0.030089
0.030376
0.037136
0.065914
0.138258
0.183641
0.188576
0.215833
0.241982
0.234411
0.221770
0.175160
0.154432
0.108572
0.042751
-0.003205
-0.041296
-0.061472
-0.064355
-0.056878
-0.037143
-0.002998
0.047001
0.123949
0.176086
0.194744
0.214123
0.254455
0.259820
0.231071
0.182597
0.167438
0.133221
0.074888
0.024113
-0.015763
-0.043120
-0.043958
-0.044556
-0.033574
-0.021719
0.024961
0.055316
0.080972
0.141582
0.222846
0.218809
0.198314
0.218719
0.209126
0.187934
0.189956
0.138137
0.089629
0.043885
-0.003490
-0.041750
-0.073372
-0.076048
-0.060833
-0.061629
-0.012485
0.037992
0.081951
0.126008
0.165779
0.183141
0.196345
0.197793
0.176649
0.159190
0.126781
0.086172
0.043958
-0.012086
-0.051994
-0.082699
-0.098737
-0.120428
-0.113133
-0.120139
-0.088118
-0.030408
0.029373
0.077418
0.100904
0.132940
0.139590
0.116203
0.115783
0.102505
0.095105
0.042693
-0.049976
-0.108637
-0.083209
-0.076356
-0.119597
-0.154198
-0.149397
-0.139365
-0.093884
-0.055900
0.010133
0.039686
0.059681
0.092995
0.107122
0.114976
0.109929
0.091460
0.053599
0.027141
-0.023400
-0.087324
-0.150290
-0.187235
-0.194221
-0.179352
-0.172217
-0.152051
-0.119806
-0.076113
-0.033661
0.013129
0.041244
0.059582
0.074858
0.081580
0.070581
0.061954
0.037696
-0.002996
-0.077267
-0.124035
-0.135580
-0.173962
-0.184251
-0.178310
-0.188581
-0.170805
-0.113815
-0.079332
-0.046601
-0.005793
0.035340
0.101934
0.092859
0.092797
0.093916
0.086197
0.031786
0.000704
-0.058910
-0.107722
-0.138164
-0.187796
-0.221275
-0.221260
-0.194256
-0.175282
-0.139422
-0.090399
-0.022956
0.013727
-0.003010
0.037796
0.077398
0.061628
0.084488
0.083729
0.056043
0.027866
-0.029438
-0.101096
-0.147032
-0.134148
-0.160498
-0.187955
-0.182576
-0.164557
-0.110794
-0.070049
-0.057189
-0.015262
0.046302
0.078352
0.112248
0.121709
0.106331
0.083300
0.053404
-0.002561
-0.051732
-0.075521
-0.116291
-0.171125
-0.197401
-0.184226
-0.178008
-0.151062
-0.116415
-0.084316
-0.038014
-0.003071
0.032945
0.048605
0.077902
0.075782
0.075569
0.074819
0.039195
0.013673
-0.046331
-0.101889
-0.136609
-0.176540
-0.189586
-0.179367
-0.152466
-0.130085
-0.117981
-0.072100
-0.031979
0.019042
0.053959
0.088018
0.100184
0.110054
0.086138
0.043799
-0.001890
-0.009645
-0.026997
-0.066099
-0.123375
-0.155361
-0.163110
-0.176195
-0.179195
-0.152535
-0.108678
-0.082950
-0.037693
0.010974
0.055387
0.091082
0.102452
0.104887
0.095112
0.071748
0.035935
-0.006792
-0.032877
-0.096384
-0.117822
-0.167579
-0.203424
-0.227459
-0.223752
-0.177899
-0.112138
-0.071950
-0.034405
0.013715
0.031612
0.047167
0.075889
0.112108
0.101400
0.060470
0.013348
-0.029810
-0.087675
-0.124705
-0.167002
-0.190975
-0.185734
-0.162291
-0.180501
-0.181490
-0.143907
-0.097981
-0.055024
-0.013203
0.015199
0.045727
0.065074
0.061017
0.053039
0.063404
0.049505
-0.003824
-0.038529
-0.104740
-0.153596
-0.194295
-0.229878
-0.234002
-0.225118
-0.188960
-0.114835
-0.092215
-0.062114
-0.010932
0.039904
0.064673
0.081641
0.081910
0.079606
0.057578
0.022483
0.004959
-0.038284
-0.083077
-0.139074
-0.159574
-0.201259
-0.221192
-0.219624
-0.190098
-0.156258
-0.084920
-0.009700
0.019620
0.025417
0.051303
0.066261
0.101794
0.090115
0.047482
-0.010361
-0.025833
-0.085594
-0.132595
-0.167895
-0.192145
-0.226816
-0.244091
-0.201502
-0.196439
-0.134241
-0.088024
-0.073340
-0.021250
0.023776
-0.000251
0.050501
0.078970
0.066986
0.045167
0.027496
-0.007039
-0.061222
-0.114987
-0.168401
-0.205251
-0.225674
-0.233703
-0.237146
-0.222349
-0.160633
-0.107188
-0.055647
-0.014965
0.013668
0.067447
0.095218
0.095157
0.075075
0.019268
-0.010700
-0.007809
-0.058181
-0.128267
-0.164355
-0.202784
-0.205920
-0.194784
-0.214287
-0.181399
-0.134823
-0.113185
-0.061869
-0.002790
0.052993
0.080660
0.075828
0.068556
0.074983
0.074841
0.028393
-0.025073
-0.068414
-0.105146
-0.131173
-0.156303
-0.138314
-0.143230
-0.194890
-0.175104
-0.129331
-0.061873
-0.004620
0.041346
0.067853
0.083847
0.092683
0.103361
0.104580
0.099328
0.056611
0.015496
-0.044656
-0.087169
-0.119347
-0.159190
-0.183020
-0.197136
-0.174951
-0.156699
-0.120527
-0.061525
-0.031762
0.021261
0.049519
0.066269
0.118826
0.147116
0.121787
0.103186
0.080251
0.013793
-0.020554
-0.065217
-0.096087
-0.137907
-0.171374
-0.197640
-0.150345
-0.112912
-0.107894
-0.090413
-0.020357
0.033704
0.066351
0.100953
0.119881
0.127680
0.106744
0.061931
0.011303
-0.019751
-0.074879
-0.105915
-0.173495
-0.182879
-0.180976
-0.186077
-0.189073
-0.171465
-0.145008
-0.114218
-0.050316
-0.015246
0.020927
0.039863
0.054110
0.057962
0.073774
0.051627
0.006680
-0.033581
-0.090955
-0.116610
-0.155253
-0.200515
-0.228900
-0.241905
-0.235245
-0.199070
-0.162836
-0.132151
-0.076709
-0.018917
0.010209
0.019213
0.030903
0.036999
0.058475
0.054676
0.003444
-0.029134
-0.094606
-0.143499
-0.167759
-0.208243
-0.219777
-0.240935
-0.260896
-0.238856
-0.195451
-0.156334
-0.092727
-0.050680
-0.002530
0.034103
0.055298
0.067025
0.030666
0.016661
-0.012300
-0.053823
-0.108981
-0.145867
-0.199298
-0.240702
-0.271488
-0.243466
-0.237954
-0.191957
-0.155013
-0.116476
-0.082013
-0.044757
-0.011186
0.024350
0.049605
0.060577
0.036745
0.021807
-0.029030
-0.063394
-0.101092
-0.164241
-0.232049
-0.240469
-0.265560
-0.255454
-0.232727
-0.183333
-0.134922
-0.119038
-0.114573
-0.085181
-0.039843
-0.001500
0.036418
0.031872
0.020995
0.055834
0.077632
0.049781
-0.003112
-0.054193
-0.080862
-0.075671
-0.083648
-0.082975
-0.064808
-0.034185
0.020388
0.080125
0.146111
0.237665
0.287707
0.331159
0.392134
0.430925
0.460879
0.460220
0.463391
0.459103
0.443825
0.419809
0.407426
0.407097
0.424044
0.479288
0.544934
0.589543
0.615541
0.658304
0.686811
0.765615
0.788867
0.802673
0.799261
0.782328
0.736125
0.626395
0.503732
0.405663
0.313238
0.227578
0.128342
0.062843
-0.010555
-0.045805
-0.041844
-0.064792
-0.050908
-0.020560
-0.004474
0.037483
0.072651
0.120566
0.136824
0.136320
0.118621
0.109492
0.053423
0.020232
-0.030694
-0.060556
-0.111289
-0.145883
-0.185228
-0.170797
-0.140013
-0.109143
-0.089117
-0.069091
-0.036510
-0.006722
0.021717
0.057352
0.106605
0.128167
0.106888
0.084598
0.045955
0.008100
-0.008259
-0.075455
-0.131949
-0.163585
-0.171606
-0.171213
-0.179656
-0.160115
-0.131215
-0.100244
-0.056568
-0.014057
0.016680
0.072075
0.108040
0.131463
0.082964
0.046331
0.004993
-0.029911
-0.067016
-0.092370
-0.122307
-0.156829
-0.214050
-0.197515
-0.181988
-0.166034
-0.126057
-0.094810
-0.040934
-0.001774
0.034428
0.048215
0.069965
0.088531
0.080906
0.083688
0.063645
0.021500
-0.032450
-0.096032
-0.124603
-0.141045
-0.151128
-0.152777
-0.166044
-0.146891
-0.098636
-0.066602
-0.034811
0.024168
0.078867
0.118499
0.134387
0.124036
0.108740
0.092747
0.058393
0.020272
-0.019121
-0.060785
-0.100285
-0.133563
-0.153003
-0.143896
-0.129570
-0.113889
-0.067181
-0.038769
0.010751
0.055836
0.097713
0.106743
0.132985
0.140116
0.135192
0.124827
0.092444
0.035843
0.013372
-0.015464
-0.048944
-0.083140
-0.082289
-0.110473
-0.089294
-0.082978
-0.057180
-0.017528
0.035934
0.096496
0.129343
0.180144
0.199219
0.196133
0.197470
0.165471
0.133984
0.093619
0.053009
0.029575
-0.034994
-0.059855
-0.075358
-0.086663
-0.090479
-0.069627
-0.019614
0.015350
0.057589
0.123511
0.166875
0.169553
0.196694
0.222728
0.222770
0.225417
0.176200
0.118818
0.078966
0.034774
-0.030621
-0.062907
-0.072549
-0.074778
-0.059152
-0.023141
0.009174
0.039728
0.074647
0.131475
0.168668
0.210539
0.228519
0.221696
0.213496
0.188850
0.162875
0.129690
0.065023
-0.003168
-0.039772
-0.069026
-0.097362
-0.108200
-0.081298
-0.047106
-0.010839
0.003705
0.028197
0.088017
0.139712
0.169649
0.199765
0.218119
0.211334
0.148372
0.087113
0.067459
0.027988
-0.013537
-0.059214
-0.099190
-0.120004
-0.119931
-0.096261
-0.097610
-0.055873
-0.014878
0.031365
0.075691
0.107268
0.128790
0.136152
0.121510
0.122063
0.114042
0.045970
0.002926
-0.026375
-0.075438
-0.120093
-0.154328
-0.169226
-0.174528
-0.167974
-0.150587
-0.128534
-0.082945
-0.023593
0.010631
0.027152
0.092219
0.136587
0.169488
0.129556
0.047823
0.008206
-0.008417
-0.052828
-0.104416
-0.146245
-0.189176
-0.178350
-0.167826
-0.183642
-0.158142
-0.128841
-0.085143
-0.027736
0.008919
0.050298
0.077138
0.090705
0.103262
0.104589
0.079320
0.039108
-0.030393
-0.070820
-0.122510
-0.138774
-0.156965
-0.186388
-0.164708
-0.157304
-0.156916
-0.132184
-0.118505
-0.069579
0.001823
0.025897
0.055424
0.083166
0.089101
0.086474
0.068338
0.045613
0.025362
-0.024673
-0.095289
-0.146670
-0.163866
-0.189148
-0.212889
-0.205311
-0.174329
-0.138348
-0.099866
-0.037908
-0.004846
0.025610
0.042151
0.065122
0.062658
0.048025
0.037935
-0.001046
-0.057152
-0.076425
-0.122456
-0.105157
-0.133064
-0.171414
-0.185181
-0.170851
-0.159948
-0.106663
-0.070334
-0.065642
-0.016197
0.026614
0.060518
0.085498
0.082716
0.069561
0.068842
0.029744
-0.023029
-0.065007
-0.096036
-0.119250
-0.164131
-0.169687
-0.187504
-0.196060
-0.158533
-0.136739
-0.083481
-0.042386
0.019512
0.047042
0.087289
0.095364
0.090725
0.100867
0.098940
0.054070
-0.004779
-0.064231
-0.098272
-0.116565
-0.149205
-0.163200
-0.179287
-0.170937
-0.129999
-0.108290
-0.091844
-0.036637
0.026315
0.055557
0.071252
0.083862
0.091257
0.077847
0.071045
0.046323
0.006381
-0.055278
-0.094152
-0.128669
-0.168980
-0.148781
-0.185586
-0.187455
-0.184712
-0.147076
-0.107673
-0.068558
-0.025962
0.040723
0.097875
0.120750
0.123818
0.108858
0.091475
0.057612
0.004721
-0.053273
-0.092653
-0.131861
-0.150834
-0.179590
-0.192740
-0.198028
-0.180553
-0.141716
-0.098704
-0.067846
-0.035225
0.042700
0.099764
0.110365
0.083786
0.081295
0.087480
0.030860
-0.022292
-0.058639
-0.088692
-0.119334
-0.156414
-0.191450
-0.191749
-0.190770
-0.192960
-0.159910
-0.108794
-0.054400
0.000114
0.069141
0.096660
0.088862
0.097947
0.081494
0.052722
0.005497
-0.052154
-0.070353
-0.069793
-0.102354
-0.163651
-0.206692
-0.207320
-0.203796
-0.200317
-0.126318
-0.095362
-0.044049
-0.014428
0.030572
0.064465
0.087985
0.078002
0.055921
0.048586
0.008430
-0.021493
-0.068553
-0.127392
-0.167380
-0.179672
-0.180444
-0.199694
-0.193203
-0.188850
-0.165886
-0.106381
-0.050706
-0.020027
0.041418
0.060272
0.068552
0.083726
0.089294
0.052575
-0.008799
-0.051509
-0.063248
-0.075612
-0.091387
-0.144854
-0.222362
-0.236438
-0.201299
-0.171956
-0.101348
-0.089478
-0.064454
-0.020692
0.030958
0.069759
0.101027
0.096281
0.079251
0.060182
0.029226
-0.005971
-0.059762
-0.117933
-0.152836
-0.196348
-0.229061
-0.203960
-0.191255
-0.178656
-0.145101
-0.096311
-0.036481
-0.001223
0.047389
0.079835
0.089068
0.104951
0.073733
0.102052
0.073583
0.016123
-0.028511
-0.056179
-0.125525
-0.149685
-0.171340
-0.192815
-0.175914
-0.157447
-0.121578
-0.069613
-0.033321
0.040225
0.098965
0.124936
0.120693
0.135688
0.127855
0.098220
0.061203
0.007433
-0.058561
-0.106830
-0.115534
-0.148170
-0.192478
-0.208980
-0.176427
-0.147625
-0.105012
-0.049435
0.027252
0.030894
0.061738
0.128989
0.150598
0.154018
0.146658
0.133572
0.093246
0.029727
-0.039947
-0.069324
-0.106194
-0.161079
-0.176244
-0.165491
-0.153388
-0.129612
-0.095928
-0.044052
-0.002061
0.026755
0.062144
0.087143
0.137918
0.138109
0.115657
0.079499
0.007929
-0.015473
-0.026861
-0.072735
-0.111915
-0.155802
-0.167947
-0.179987
-0.184975
-0.162450
-0.128874
-0.092244
-0.047338
-0.039189
-0.015091
0.048323
0.039841
0.089557
0.079001
0.080239
0.045537
-0.002699
-0.053493
-0.122062
-0.180903
-0.222444
-0.234497
-0.226154
-0.212791
-0.198863
-0.167966
-0.104622
-0.074803
-0.054913
0.004337
0.045339
0.071640
0.079520
0.062624
0.034158
0.002186
-0.011890
-0.045632
-0.117184
-0.182827
-0.198038
-0.233203
-0.247556
-0.238479
-0.201707
-0.156413
-0.147836
-0.108374
-0.045900
0.005770
0.037808
0.055752
0.069477
0.052733
0.038078
-0.000424
-0.049091
-0.086845
-0.108340
-0.150036
-0.180855
-0.224533
-0.222119
-0.228724
-0.211970
-0.167532
-0.128338
-0.068202
0.014741
0.049373
0.067038
0.055266
0.090476
0.047675
0.002915
-0.034798
-0.080080
-0.112702
-0.159464
-0.175079
-0.195983
-0.230560
-0.224605
-0.209832
-0.186039
-0.133496
-0.127436
-0.096789
-0.020235
0.009257
0.027850
0.075712
0.095885
0.061035
0.080236
0.050957
0.043195
-0.000169
-0.035698
-0.056163
-0.073293
-0.084786
-0.077668
-0.050029
-0.003349
0.070983
0.107373
0.179747
0.256390
0.325543
0.395771
0.449555
0.475982
0.507968
0.519972
0.518389
0.498474
0.491938
0.480714
0.485008
0.503003
0.536790
0.567002
0.614582
0.656454
0.678081
0.710964
0.769482
0.799868
0.809105
0.828852
0.812135
0.798348
0.726724
0.630852
0.540658
0.435948
0.336362
0.240956
0.145270
0.041729
-0.026470
-0.072582
-0.060759
-0.029214
-0.004225
0.037410
0.119481
0.156160
0.185540
0.200492
0.206112
0.193261
0.167006
0.147068
0.100363
0.066511
0.000794
-0.045395
-0.050929
-0.092389
-0.120421
-0.123557
-0.128141
-0.119265
-0.076947
-0.042132
-0.003080
0.046540
0.092999
0.107319
0.110398
0.113972
0.104661
0.085006
0.031785
0.006926
-0.007515
-0.086616
-0.126915
-0.161889
-0.186860
-0.187698
-0.164963
-0.146897
-0.087892
-0.048177
-0.040717
0.019445
0.057248
0.098638
0.119183
0.100276
0.082513
0.068502
0.030206
-0.012849
-0.064412
-0.103120
-0.114441
-0.157044
-0.203603
-0.183174
-0.146981
-0.119567
-0.081834
-0.032724
-0.001506
0.050408
0.072115
0.105243
0.138163
0.156916
0.146672
0.108632
0.056932
0.010568
-0.022650
-0.030888
-0.082611
-0.130805
-0.120427
-0.125172
-0.150765
-0.133924
-0.060602
-0.013738
-0.007144
0.074717
0.115519
0.134050
0.171365
0.168204
0.139461
0.106321
0.111596
0.080089
0.041389
-0.004174
-0.066837
-0.116820
-0.128345
-0.130073
-0.112473
-0.082565
-0.045290
-0.010013
0.021052
0.077985
0.114451
0.150096
0.167017
0.186876
0.167915
0.135431
0.102850
0.065662
0.031625
-0.010450
-0.046664
-0.055119
-0.082285
-0.098532
-0.108080
-0.080297
-0.030803
0.013388
0.048900
0.078422
0.121502
0.150847
0.208058
0.205422
0.197955
0.169957
0.135156
0.095688
0.074231
0.042695
-0.005657
-0.004670
-0.053633
-0.039313
-0.018824
0.014457
0.032717
0.062139
0.092758
0.151434
0.191276
0.225771
0.231234
0.241680
0.256227
0.219555
0.166021
0.135990
0.088079
0.051088
0.013426
-0.014179
-0.043540
-0.047619
-0.032827
-0.015352
0.024613
0.080712
0.119941
0.154887
0.168863
0.200732
0.229873
0.246618
0.260370
0.222472
0.158594
0.124890
0.073169
0.053926
0.020953
-0.022959
-0.056444
-0.076920
-0.069987
-0.044411
0.002522
0.035226
0.059780
0.100134
0.138202
0.163810
0.198778
0.222224
0.211120
0.165123
0.133692
0.089213
0.037029
-0.000215
-0.058604
-0.077902
-0.097248
-0.113126
-0.109959
-0.078376
-0.021446
0.006809
0.046056
0.096522
0.123835
0.158734
0.180710
0.184288
0.164154
0.141269
0.087636
0.038554
0.018322
-0.023576
-0.090413
-0.125238
-0.148516
-0.132101
-0.140401
-0.130402
-0.060897
0.017169
0.038120
0.023514
0.039009
0.082121
0.104927
0.126096
0.110778
0.115721
0.078604
0.040490
-0.027892
-0.072638
-0.122702
-0.159775
-0.180294
-0.161344
-0.157212
-0.153501
-0.101689
-0.048465
-0.020352
0.007146
0.083903
0.117011
0.134547
0.127830
0.105497
0.072905
0.028284
0.009776
-0.029125
-0.068377
-0.124224
-0.162577
-0.172802
-0.192493
-0.176078
-0.141788
-0.093627
-0.057354
-0.017377
0.072185
0.117271
0.128566
0.102002
0.106489
0.108816
0.080958
0.039869
0.025115
-0.001585
-0.105280
-0.124700
-0.146545
-0.165986
-0.174582
-0.162566
-0.149363
-0.107208
-0.081939
-0.030957
0.011810
0.036085
0.076038
0.104320
0.109210
0.106380
0.105579
0.058144
0.028294
-0.019943
-0.066473
-0.124534
-0.154160
-0.163441
-0.176133
-0.156413
-0.133597
-0.117896
-0.102501
-0.008915
0.063121
0.082506
0.091752
0.119727
0.128285
0.127901
0.095559
0.079849
0.029170
-0.023757
-0.067541
-0.100365
-0.143127
-0.173406
-0.163815
-0.138229
-0.122431
-0.085951
-0.057966
-0.017111
0.032174
0.077965
0.107467
0.111110
0.115331
0.127680
0.115762
0.075795
0.045283
0.003453
-0.029374
-0.110518
-0.142156
-0.160239
-0.145106
-0.136729
-0.127851
-0.104480
-0.049357
-0.005028
0.034868
0.079795
0.115720
0.124687
0.129271
0.126419
0.120815
0.068158
-0.009427
-0.025248
-0.070882
-0.091464
-0.160276
-0.180020
-0.163427
-0.137594
-0.125093
-0.109349
-0.081991
-0.028730
0.033227
0.092679
0.105248
0.119184
0.164248
0.150964
0.109536
0.055417
-0.005010
-0.024279
-0.073048
-0.089751
-0.111808
-0.136488
-0.140526
-0.126600
-0.078147
-0.062160
-0.045250
-0.004521
0.039239
0.081137
0.083545
0.114258
0.146862
0.142596
0.103514
0.055025
0.030390
-0.018015
-0.079640
-0.108818
-0.147211
-0.176977
-0.168618
-0.141633
-0.117618
-0.100847
-0.066561
-0.022779
0.036533
0.076904
0.102292
0.119173
0.110656
0.109660
0.091406
0.020887
-0.020578
-0.053581
-0.090745
-0.127876
-0.123868
-0.142460
-0.141037
-0.123188
-0.142844
-0.121576
-0.084590
-0.042072
0.032336
0.082582
0.124868
0.138183
0.143293
0.116485
0.098896
0.042537
0.014899
-0.031705
-0.076682
-0.106782
-0.126813
-0.159114
-0.177529
-0.169939
-0.143296
-0.104544
-0.064210
-0.030411
0.013679
0.055713
0.087778
0.111259
0.117404
0.097043
0.059626
0.030107
0.006001
-0.045796
-0.099453
-0.120452
-0.144322
-0.171317
-0.191365
-0.216964
-0.187432
-0.140956
-0.073133
-0.022383
0.032979
0.060465
0.092804
0.118049
0.119397
0.095595
0.075334
0.026657
-0.001685
-0.061001
-0.096180
-0.127550
-0.151517
-0.182032
-0.162269
-0.161038
-0.158737
-0.097507
-0.049304
-0.019336
0.018173
0.068318
0.075780
0.106744
0.105009
0.091646
0.071880
0.056225
0.017638
-0.050248
-0.075416
-0.100095
-0.143230
-0.149368
-0.163765
-0.161121
-0.147476
-0.101873
-0.068643
-0.025561
0.031190
0.063092
0.096595
0.111739
0.108946
0.095741
0.071536
0.053678
0.020265
-0.052175
-0.089087
-0.120307
-0.161228
-0.201862
-0.196243
-0.163460
-0.132835
-0.092147
-0.054596
-0.014153
0.033564
0.095656
0.115497
0.126519
0.138305
0.132774
0.096071
0.046875
-0.021380
-0.065055
-0.047940
-0.041672
-0.071245
-0.133130
-0.130879
-0.123281
-0.098003
-0.079562
-0.017826
0.008823
0.054139
0.116012
0.135985
0.155106
0.164892
0.146804
0.122260
0.072169
0.035861
-0.014257
-0.054739
-0.107680
-0.141983
-0.139947
-0.137098
-0.121887
-0.100817
-0.058900
-0.036422
0.043851
0.105019
0.145030
0.162561
0.196507
0.213725
0.193512
0.144613
0.100318
0.046442
0.011311
-0.035740
-0.077492
-0.112458
-0.147458
-0.158576
-0.159183
-0.134160
-0.090649
-0.040861
-0.023819
0.055624
0.112711
0.144998
0.148060
0.143232
0.129334
0.109468
0.070222
0.018522
-0.031337
-0.083256
-0.126728
-0.123470
-0.135735
-0.151188
-0.158871
-0.142387
-0.117638
-0.071584
-0.030084
0.009517
0.061205
0.081282
0.091171
0.099380
0.092405
0.057263
0.003603
-0.021583
-0.013380
-0.072249
-0.140787
-0.175157
-0.202851
-0.202572
-0.163897
-0.137488
-0.108447
-0.078387
-0.045712
-0.008799
0.018792
0.056925
0.082440
0.094957
0.088372
0.059605
0.020856
-0.034828
-0.074787
-0.123637
-0.144919
-0.172093
-0.211054
-0.219287
-0.191714
-0.139731
-0.085494
-0.057396
-0.043622
-0.006568
0.013234
0.044463
0.066957
0.067899
0.040905
0.029590
0.008875
-0.021445
-0.079597
-0.129106
-0.148363
-0.153932
-0.174137
-0.191201
-0.186340
-0.163005
-0.126722
-0.101546
-0.043859
0.007136
0.030910
0.064258
0.057759
0.071904
0.092147
0.076575
0.032078
-0.013973
-0.070524
-0.105643
-0.139295
-0.169880
-0.192563
-0.204809
-0.214331
-0.194972
-0.126569
-0.096709
-0.050937
-0.000567
0.039965
0.069202
0.099464
0.114040
0.122613
0.127105
0.112302
0.091691
0.049030
0.015675
-0.012326
-0.033465
-0.069651
-0.090586
-0.036076
0.045487
0.099376
0.202807
0.262468
0.337789
0.415309
0.481588
0.541657
0.610620
0.630412
0.616660
0.606588
0.608888
0.636542
0.619271
0.581434
0.562978
0.590487
0.634553
0.657157
0.682858
0.724258
0.746253
0.760945
0.790026
0.813754
0.818217
0.787044
0.760796
0.678098
0.575655
0.495787
0.411347
0.290203
0.187934
0.121398
0.055085
0.016406
-0.018006
-0.003771
0.017202
0.055712
0.074389
0.116376
0.156514
0.166958
0.179541
0.202499
0.187427
0.174332
0.151367
0.115413
0.083367
0.033839
-0.027710
-0.095449
-0.129168
-0.154088
-0.171741
-0.142244
-0.115750
-0.066900
-0.035156
0.016195
0.097440
0.150568
0.139330
0.152509
0.186069
0.161154
0.144659
0.101921
0.043483
-0.006971
-0.052768
-0.093384
-0.095545
-0.131576
-0.162993
-0.161822
-0.151420
-0.100852
-0.043335
-0.001215
0.033265
0.058959
0.095419
0.162206
0.165864
0.122322
0.086632
0.070802
0.050138
0.012738
-0.055942
-0.141591
-0.136005
-0.138116
-0.164106
-0.151708
-0.123091
-0.065331
-0.033103
-0.011636
0.017281
0.057233
0.097950
0.127970
0.153309
0.155511
0.148097
0.093803
0.067974
-0.000135
-0.049749
-0.047526
-0.077013
-0.131693
-0.151276
-0.155286
-0.124877
-0.087329
-0.046934
-0.030529
0.005096
0.073879
0.124805
0.159679
0.201152
0.192848
0.185859
0.158151
0.101790
0.042891
-0.014688
-0.023720
-0.058311
-0.073422
-0.092382
-0.128721
-0.086156
-0.020093
0.022924
0.051622
0.074452
0.128904
0.193019
0.216739
0.208336
0.183514
0.156525
0.110822
0.111848
0.067868
0.013411
-0.013396
-0.014945
-0.070560
-0.071428
-0.045075
-0.041981
-0.007494
0.047877
0.088605
0.141931
0.200469
0.235277
0.242955
0.243624
0.221624
0.208095
0.178495
0.133529
0.082256
0.050339
0.008637
-0.037825
-0.043596
-0.037728
-0.040168
-0.008402
0.043844
0.058503
0.103000
0.159435
0.202377
0.233017
0.263899
0.253687
0.246715
0.218384
0.169148
0.125338
0.093940
0.061653
0.061515
0.026555
-0.006098
-0.027932
-0.037634
-0.011969
0.033169
0.089409
0.141735
0.180690
0.197542
0.222483
0.246392
0.248054
0.252826
0.216971
0.175667
0.149692
0.116250
0.055053
0.008633
-0.037596
-0.071360
-0.062639
-0.036203
-0.022955
-0.009220
0.058731
0.109206
0.157909
0.185147
0.193886
0.245516
0.265636
0.254876
0.210171
0.167652
0.132246
0.091318
0.042488
-0.028223
-0.079225
-0.097462
-0.092284
-0.076460
-0.055903
-0.023729
0.020441
0.092278
0.113066
0.115752
0.136510
0.167642
0.181437
0.162710
0.150916
0.139676
0.103007
0.058106
0.018323
-0.046618
-0.100007
-0.128791
-0.150079
-0.134231
-0.102930
-0.059294
-0.047038
0.008537
0.046281
0.092907
0.123672
0.113509
0.150659
0.142584
0.127430
0.074977
0.029941
-0.021600
-0.078575
-0.118539
-0.136084
-0.156620
-0.166261
-0.163879
-0.135401
-0.083257
-0.028116
0.016060
0.054522
0.074886
0.104235
0.122951
0.120066
0.115205
0.100487
0.054699
-0.006494
-0.046051
-0.088269
-0.119590
-0.143042
-0.158679
-0.155148
-0.141041
-0.108771
-0.076952
-0.062921
-0.006515
0.055528
0.085584
0.095168
0.103730
0.106378
0.115712
0.105253
0.052865
0.008713
-0.037632
-0.062296
-0.066359
-0.101754
-0.136539
-0.158268
-0.159412
-0.145171
-0.087091
-0.061622
-0.033340
-0.008385
0.047076
0.096007
0.109214
0.107516
0.115571
0.113635
0.062561
0.021451
-0.011834
-0.019164
-0.092045
-0.143096
-0.165927
-0.181803
-0.166354
-0.124565
-0.081876
-0.059013
-0.011457
0.041785
0.062325
0.090160
0.106721
0.117122
0.156252
0.134258
0.070649
0.053854
-0.005580
-0.060938
-0.111692
-0.141733
-0.160665
-0.191652
-0.152515
-0.124138
-0.067936
-0.049329
-0.008789
0.043045
0.074937
0.096162
0.120094
0.150628
0.164943
0.141994
0.088676
0.035825
-0.001903
-0.047037
-0.104467
-0.144909
-0.159807
-0.154877
-0.147958
-0.128261
-0.065497
-0.018649
-0.002857
0.051758
0.137785
0.125401
0.103139
0.113444
0.099858
0.082892
0.039554
0.013955
-0.030265
-0.073061
-0.069236
-0.121436
-0.152821
-0.160764
-0.167612
-0.146124
-0.091655
-0.033918
0.017107
0.044580
0.067766
0.108021
0.125680
0.123474
0.124581
0.110856
0.061956
0.000140
-0.016415
-0.051677
-0.110370
-0.144625
-0.167618
-0.188306
-0.163914
-0.132947
-0.104083
-0.069061
0.017262
0.052370
0.073506
0.107318
0.138790
0.142691
0.132215
0.104470
0.068708
0.020323
-0.036382
-0.072505
-0.100400
-0.136032
-0.170691
-0.164674
-0.160271
-0.174044
-0.103395
-0.039893
-0.000946
0.037937
0.099387
0.127634
0.101379
0.094777
0.080452
0.093272
0.059070
0.006693
-0.053567
-0.067537
-0.113666
-0.155183
-0.173697
-0.176746
-0.173837
-0.144217
-0.115936
-0.082521
-0.039579
0.024235
0.043243
0.075669
0.112495
0.122972
0.119112
0.090944
0.051187
0.013285
-0.026974
-0.078288
-0.127481
-0.153386
-0.181253
-0.186703
-0.192904
-0.168133
-0.148015
-0.130003
-0.039610
-0.005741
0.007605
0.054683
0.126557
0.153640
0.134935
0.097671
0.079785
0.024664
-0.019242
-0.098275
-0.135019
-0.166543
-0.190915
-0.195448
-0.159233
-0.144816
-0.107768
-0.075434
-0.037141
0.008970
0.048796
0.074272
0.086901
0.102308
0.119807
0.098799
0.056376
-0.002516
-0.045626
-0.088130
-0.140711
-0.179107
-0.187453
-0.194259
-0.180482
-0.152465
-0.142353
-0.107843
-0.046765
-0.006088
0.032635
0.069067
0.082064
0.077101
0.072365
0.075380
0.043820
-0.015538
-0.059459
-0.091772
-0.127070
-0.150006
-0.185107
-0.196614
-0.170968
-0.119657
-0.079887
-0.019133
-0.011433
0.022320
0.043376
0.074209
0.111699
0.104196
0.085881
0.067178
0.025179
-0.005380
-0.043410
-0.092835
-0.156021
-0.183663
-0.218811
-0.228607
-0.194969
-0.157435
-0.109416
-0.054962
-0.013739
0.038037
0.059238
0.086324
0.092758
0.142478
0.139022
0.119587
0.070852
0.027963
-0.015991
-0.067766
-0.109295
-0.118534
-0.141695
-0.158036
-0.138492
-0.109275
-0.089185
-0.049678
0.019764
0.064088
0.102425
0.101603
0.153503
0.177721
0.151731
0.113058
0.071625
0.059963
0.006733
-0.058780
-0.109828
-0.147724
-0.149413
-0.168801
-0.132435
-0.097902
-0.056108
-0.027781
0.019361
0.057357
0.098065
0.133184
0.148766
0.156540
0.148210
0.132324
0.065487
0.015376
0.014704
-0.027103
-0.069462
-0.104572
-0.132479
-0.135658
-0.133474
-0.125247
-0.089716
-0.028833
0.006888
0.041501
0.086675
0.134213
0.120399
0.111629
0.094978
0.071993
0.044419
0.005740
-0.040025
-0.090119
-0.133367
-0.170557
-0.186494
-0.209837
-0.211001
-0.184782
-0.131878
-0.089340
-0.058359
0.004849
0.045412
0.077633
0.108508
0.129951
0.146935
0.109742
0.090934
0.023444
-0.068462
-0.107507
-0.155818
-0.174726
-0.184941
-0.212459
-0.216599
-0.183937
-0.154512
-0.109938
-0.053141
-0.005512
0.032724
0.065721
0.066774
0.084565
0.102715
0.053141
0.009224
-0.021549
-0.049052
-0.095265
-0.157834
-0.193328
-0.205398
-0.214884
-0.209875
-0.197485
-0.147955
-0.114267
-0.071055
-0.006859
0.045944
0.088561
0.092437
0.066369
0.063902
0.062455
0.023598
-0.020655
-0.078814
-0.129989
-0.165394
-0.190546
-0.221416
-0.232295
-0.225257
-0.242985
-0.173152
-0.107467
-0.063740
-0.041172
0.018500
0.052697
0.061620
0.069902
0.057377
0.029990
0.015320
-0.005059
-0.061482
-0.122957
-0.172759
-0.199526
-0.218421
-0.168596
-0.157408
-0.159591
-0.151059
-0.090659
-0.063483
-0.048329
-0.005402
0.019017
0.065571
0.081082
0.066838
0.061573
0.020135
-0.013752
-0.044222
-0.057732
-0.081855
-0.090664
-0.085562
-0.066743
-0.077788
-0.058456
0.011771
0.083891
0.128035
0.212070
0.280776
0.323446
0.380629
0.424710
0.457312
0.466597
0.454680
0.452036
0.468240
0.466731
0.450496
0.463600
0.483916
0.524280
0.564600
0.610534
0.680871
0.737963
0.781867
0.805198
0.834162
0.854042
0.865523
0.856784
0.812902
0.767801
0.701940
0.590078
0.475502
0.386764
0.283074
0.199784
0.116514
0.064777
0.017319
0.008871
0.032963
0.065275
0.128206
0.175343
0.201127
0.226807
0.237462
0.233438
0.218725
0.197365
0.120951
0.083331
0.023811
-0.033772
-0.076194
-0.087861
-0.082369
-0.111423
-0.141350
-0.108423
-0.054925
-0.025324
0.004312
0.060183
0.076236
0.088152
0.140772
0.158253
0.145288
0.105763
0.040381
0.030525
0.001310
-0.062709
-0.108525
-0.144654
-0.180040
-0.188865
-0.159535
-0.119927
-0.097201
-0.065695
-0.027393
0.017185
0.055897
0.080799
0.116056
0.124819
0.124965
0.107580
0.056292
-0.003365
-0.048958
-0.070818
-0.112571
-0.147378
-0.150021
-0.157078
-0.176161
-0.155409
-0.111937
-0.097031
-0.051720
0.014203
0.091377
0.127685
0.119801
0.119974
0.144797
0.122009
0.073885
0.023026
-0.013928
-0.044772
-0.090782
-0.135377
-0.161381
-0.154817
-0.158508
-0.128599
-0.069876
-0.013267
0.035520
0.072734
0.100050
0.117032
0.137081
0.163472
0.155413
0.132898
0.105828
0.074945
0.024480
-0.025744
-0.080681
-0.109291
-0.124645
-0.124586
-0.116408
-0.096693
-0.060513
-0.016291
0.032587
0.063483
0.121125
0.147683
0.173661
0.182364
0.176707
0.159605
0.114478
0.060527
0.046907
0.000261
-0.053612
-0.105046
-0.116164
-0.097320
-0.068237
-0.048572
-0.025024
-0.000945
0.025487
0.079872
0.150255
0.176949
0.179808
0.228601
0.232672
0.195585
0.138599
0.111318
0.056071
0.015143
-0.025677
-0.036161
-0.058618
-0.076178
-0.037969
-0.015202
-0.010870
0.029440
0.088091
0.127445
0.170536
0.202959
0.201460
0.222712
0.217152
0.223829
0.193851
0.154837
0.093900
0.063139
0.033736
-0.000547
-0.034002
-0.049536
-0.054104
-0.023985
0.015730
0.049499
0.101583
0.147695
0.184927
0.215468
0.251387
0.253756
0.235101
0.210600
0.166994
0.135001
0.083835
0.035313
-0.004721
-0.048992
-0.078684
-0.085892
-0.079169
-0.037161
0.018815
0.048442
0.076057
0.103427
0.138572
0.177802
0.203421
0.216790
0.186488
0.201005
0.175793
0.132742
0.073988
0.011971
-0.049977
-0.100330
-0.069674
-0.080881
-0.074809
-0.076118
-0.063035
-0.035510
0.016772
0.082022
0.135981
0.150288
0.163878
0.166656
0.158720
0.128093
0.083568
0.051607
-0.014593
-0.059362
-0.093953
-0.100205
-0.100456
-0.128578
-0.144404
-0.124809
-0.061892
-0.028318
0.002948
0.038606
0.060040
0.122630
0.133455
0.111810
0.118468
0.086168
0.032019
0.000729
-0.039152
-0.080340
-0.115776
-0.161854
-0.190033
-0.191253
-0.167633
-0.150702
-0.095076
-0.077852
-0.027982
0.019181
0.052728
0.068828
0.086124
0.086987
0.105472
0.080023
0.043562
0.002414
-0.042799
-0.097218
-0.129313
-0.166000
-0.198811
-0.196343
-0.177620
-0.162196
-0.124617
-0.088231
-0.069881
-0.031766
0.023675
0.073419
0.099704
0.138401
0.114824
0.062923
0.015607
-0.008178
-0.049578
-0.097467
-0.112949
-0.122344
-0.159490
-0.180280
-0.183782
-0.153913
-0.153116
-0.094315
-0.047316
-0.013719
0.012126
0.061847
0.113964
0.112137
0.111124
0.109543
0.062451
0.003003
-0.031403
-0.086919
-0.136147
-0.163825
-0.179946
-0.188938
-0.193710
-0.185288
-0.143729
-0.068235
-0.031107
0.015419
0.047776
0.066066
0.092295
0.108675
0.101655
0.078844
0.020708
-0.002651
-0.048786
-0.106214
-0.117724
-0.158943
-0.171623
-0.182503
-0.171158
-0.147352
-0.140194
-0.062698
-0.009631
-0.000048
0.027384
0.050978
0.100170
0.121966
0.105165
0.086480
0.043960
0.008171
-0.026402
-0.085455
-0.142385
-0.172603
-0.167379
-0.169920
-0.177649
-0.148493
-0.109029
-0.076828
-0.018488
0.034414
0.075480
0.101393
0.114019
0.128218
0.121024
0.091605
0.050152
0.026495
-0.008951
-0.041179
-0.094090
-0.153594
-0.187393
-0.192203
-0.173581
-0.162296
-0.118985
-0.060192
-0.011839
-0.002724
0.049198
0.112465
0.132272
0.081244
0.066553
0.079847
0.049737
-0.006575
-0.051478
-0.092127
-0.119377
-0.156175
-0.184760
-0.182067
-0.172835
-0.152818
-0.111433
-0.078838
-0.064219
0.022502
0.068817
0.086692
0.075843
0.071091
0.075958
0.085721
0.053490
-0.001377
-0.060177
-0.108231
-0.130049
-0.164332
-0.203275
-0.207846
-0.188807
-0.167208
-0.137369
-0.113817
-0.061675
-0.003799
0.012974
0.060166
0.109050
0.112557
0.114880
0.102085
0.051200
0.010317
-0.039105
-0.101274
-0.144503
-0.161908
-0.173951
-0.177092
-0.151046
-0.165183
-0.139042
-0.103313
-0.057980
-0.024102
0.023242
0.067487
0.110554
0.095423
0.057825
0.064577
0.071431
0.010760
-0.066807
-0.110185
-0.153204
-0.166960
-0.189734
-0.177068
-0.172360
-0.162905
-0.108327
-0.081206
-0.037947
0.006215
0.034594
0.061383
0.092203
0.101118
0.107024
0.058870
0.004129
-0.037096
-0.087518
-0.123457
-0.153794
-0.181215
-0.222134
-0.207070
-0.190391
-0.145760
-0.085620
-0.068011
-0.054123
-0.039710
0.012752
0.046610
0.068572
0.080952
0.082199
0.064578
0.025802
-0.004883
-0.055074
-0.110848
-0.158882
-0.199478
-0.218849
-0.203280
-0.186703
-0.171178
-0.147401
-0.103152
-0.059553
-0.017433
0.022917
0.066318
0.068144
0.057463
0.076659
0.084152
0.052428
0.001673
-0.039735
-0.073618
-0.112741
-0.164142
-0.193714
-0.192076
-0.190171
-0.162983
-0.133738
-0.103239
-0.073876
-0.011602
0.052667
0.094262
0.094839
0.084440
0.063939
0.057334
0.012195
-0.047440
-0.070816
-0.125855
-0.115843
-0.153095
-0.187222
-0.218036
-0.185180
-0.143067
-0.113246
-0.095326
-0.051929
-0.011838
0.038553
0.059105
0.089208
0.107788
0.072060
0.058338
0.021323
-0.022926
-0.054122
-0.062561
-0.118980
-0.166999
-0.190602
-0.179316
-0.177217
-0.170730
-0.103587
-0.050548
-0.004479
0.028267
0.074506
0.094376
0.118319
0.100143
0.094189
0.083014
0.080234
0.057473
0.011413
-0.055896
-0.110669
-0.133665
-0.147491
-0.159825
-0.178484
-0.163899
-0.116728
-0.056159
0.021131
0.064313
0.095583
0.118781
0.131102
0.124620
0.128058
0.110826
0.097790
0.039543
0.005775
-0.067789
-0.103957
-0.108615
-0.134451
-0.146816
-0.134221
-0.121914
-0.093189
-0.071014
-0.057845
-0.007350
0.074092
0.101688
0.096361
0.094711
0.095908
0.085869
0.058654
0.007311
-0.028509
-0.070016
-0.127298
-0.166507
-0.178268
-0.199494
-0.201455
-0.189639
-0.145844
-0.079690
-0.036375
0.029589
0.062113
0.078590
0.090134
0.107493
0.086366
0.069203
0.031211
-0.018282
-0.067787
-0.132754
-0.157411
-0.203263
-0.232024
-0.240692
-0.224718
-0.203952
-0.177055
-0.147808
-0.099416
-0.051287
0.011930
0.081995
0.122270
0.130439
0.096738
0.039387
-0.041041
-0.055502
-0.097134
-0.148661
-0.189867
-0.203071
-0.239152
-0.247105
-0.239490
-0.213778
-0.174683
-0.112520
-0.046903
-0.011779
0.034073
0.049750
0.072535
0.065986
0.068979
0.063108
-0.021151
-0.063046
-0.077166
-0.132143
-0.178218
-0.215275
-0.249458
-0.257476
-0.247226
-0.197604
-0.166000
-0.097870
-0.035311
-0.007840
0.024382
0.043732
0.059834
0.043557
0.048346
0.034426
-0.019021
-0.068326
-0.090502
-0.153485
-0.198432
-0.182396
-0.190624
-0.222387
-0.240862
-0.235545
-0.189755
-0.127779
-0.076537
-0.037853
0.000608
0.048263
0.067250
0.073074
0.054395
0.019534
-0.026216
-0.056609
-0.094034
-0.135450
-0.155373
-0.163867
-0.189191
-0.201267
-0.175273
-0.129062
-0.072113
-0.042196
0.023638
0.078983
0.127503
0.185107
0.239477
0.257606
0.279218
0.279649
0.272659
0.265197
0.258027
0.243667
0.224763
0.224829
0.234956
0.291239
0.331282
0.392243
0.429568
0.497439
0.628073
0.722056
0.782318
0.842648
0.889701
0.914768
0.891582
0.860973
0.814519
0.701117
0.675402
0.619074
0.574225
0.507511
0.420098
0.312129
0.283534
0.242951
0.208228
0.175817
0.177861
0.202128
0.226728
0.269632
0.280068
0.263724
0.229521
0.177349
0.158140
0.108467
0.038793
-0.022474
-0.056568
-0.116908
-0.119902
-0.117134
-0.121649
-0.111682
-0.078493
-0.031578
0.008100
0.041510
0.056375
0.113110
0.143023
0.144032
0.105297
0.089422
0.091100
0.049397
-0.033526
-0.076535
-0.115970
-0.130294
-0.156559
-0.174600
-0.173879
-0.148746
-0.104947
-0.081784
-0.051924
0.001979
0.044343
0.075824
0.099392
0.120839
0.098746
0.097624
0.050055
0.013095
-0.038694
-0.095826
-0.130858
-0.131503
-0.166975
-0.182048
-0.190926
-0.174079
-0.110923
-0.042826
-0.010629
0.041873
0.074350
0.080661
0.068491
0.102911
0.102759
0.091251
0.055303
0.013651
-0.032336
-0.080176
-0.117618
-0.168229
-0.199804
-0.201404
-0.168404
-0.140438
-0.103501
-0.061618
-0.035808
0.014538
0.030179
0.067722
0.093072
0.113588
0.138078
0.158905
0.111647
0.034663
-0.002700
-0.029469
-0.072555
-0.114860
-0.143290
-0.154969
-0.156516
-0.110789
-0.086292
-0.029335
0.021015
0.073019
0.103261
0.134460
0.158260
0.158098
0.165438
0.142621
0.075179
0.044484
-0.003324
-0.029148
-0.033179
-0.069439
-0.108351
-0.111642
-0.120503
-0.092727
-0.059411
-0.029003
0.011095
0.069433
0.116669
0.185537
0.175709
0.183851
0.205581
0.167682
0.127343
0.109289
0.061121
0.015793
-0.040773
-0.054103
-0.069474
-0.076849
-0.106176
-0.078303
-0.025288
0.010046
0.080288
0.128119
0.173782
0.208784
0.226133
0.207533
0.188756
0.180376
0.148993
0.109888
0.057176
0.026456
-0.012647
-0.047259
-0.072063
-0.085340
-0.069614
-0.051140
-0.014467
0.038811
0.062798
0.117560
0.152586
0.191821
0.238139
0.219132
0.196036
0.193278
0.160139
0.128108
0.083222
0.018684
-0.015036
-0.033679
-0.074696
-0.087535
-0.055200
-0.067241
-0.040038
0.016420
0.057265
0.089431
0.143680
0.168310
0.169878
0.155880
0.175972
0.166307
0.127573
0.083195
0.026598
-0.001854
-0.039677
-0.054524
-0.072357
-0.087668
-0.097720
-0.091867
-0.041791
0.000737
0.027768
0.068862
0.100629
0.133233
0.150658
0.155332
0.155351
0.153087
0.117304
0.081993
0.013925
-0.045027
-0.112064
-0.123706
-0.124977
-0.140686
-0.144511
-0.126359
-0.107718
-0.052728
-0.018684
0.011669
0.031874
0.073303
0.119187
0.096423
0.097124
0.098204
0.050960
-0.006113
-0.047268
-0.078568
-0.104103
-0.152594
-0.166653
-0.136794
-0.158072
-0.146428
-0.119121
-0.103525
-0.040063
0.002521
0.035389
0.052115
0.065010
0.123020
0.095229
0.061371
0.022094
-0.024225
-0.061706
-0.115187
-0.154962
-0.184974
-0.180637
-0.199410
-0.209578
-0.179832
-0.123380
-0.064273
-0.007739
0.016988
0.054548
0.095108
0.112684
0.081409
0.055335
0.050171
0.033708
-0.000177
-0.061311
-0.098940
-0.152174
-0.193129
-0.191997
-0.190083
-0.199601
-0.178303
-0.125496
-0.083470
-0.038015
0.011549
0.048362
0.072436
0.110865
0.127061
0.116909
0.076683
0.025812
-0.018526
-0.054418
-0.099552
-0.151570
-0.191225
-0.208532
-0.206497
-0.202933
-0.182786
-0.099107
-0.084328
-0.018328
0.047684
0.066807
0.093754
0.107322
0.105968
0.084521
0.073168
0.033448
0.006315
-0.028546
-0.095749
-0.141296
-0.176670
-0.190247
-0.202240
-0.199328
-0.177833
-0.130052
-0.080776
-0.027842
0.034145
0.080982
0.077404
0.097434
0.102347
0.088379
0.063931
0.022875
0.017997
-0.060722
-0.101874
-0.157164
-0.173331
-0.185494
-0.176081
-0.154167
-0.140038
-0.099865
-0.071043
0.006973
0.076544
0.092404
0.094410
0.088744
0.113573
0.111957
0.091685
0.072239
0.003256
-0.064469
-0.118901
-0.144374
-0.154468
-0.184018
-0.190271
-0.183498
-0.149167
-0.112190
-0.089849
-0.052984
0.002777
0.025761
0.074865
0.088560
0.084417
0.080385
0.072129
0.044490
0.018105
-0.032675
-0.090292
-0.140950
-0.159910
-0.184078
-0.201127
-0.206117
-0.189414
-0.141480
-0.101753
-0.047912
0.009332
0.099376
0.088740
0.094169
0.080321
0.076104
0.066279
0.042228
-0.000422
-0.068759
-0.113486
-0.154559
-0.175194
-0.191498
-0.197925
-0.196270
-0.201284
-0.161183
-0.112016
-0.052588
-0.020563
0.010149
0.047855
0.088970
0.109921
0.090418
0.082053
0.057462
-0.000333
-0.069320
-0.121624
-0.146289
-0.173260
-0.203057
-0.231158
-0.224260
-0.168174
-0.145356
-0.094564
-0.019851
-0.005890
0.013521
0.059773
0.066096
0.083485
0.082533
0.074419
0.016832
-0.035937
-0.078274
-0.132097
-0.150581
-0.159757
-0.185070
-0.224767
-0.202108
-0.170956
-0.141418
-0.121205
-0.049620
0.003786
0.019858
0.031440
0.062502
0.068539
0.039099
0.038461
0.012157
-0.044440
-0.084381
-0.102220
-0.149218
-0.190841
-0.211085
-0.224839
-0.206336
-0.193108
-0.158375
-0.143875
-0.090128
-0.046622
0.036875
0.066642
0.067969
0.077138
0.075435
0.071237
0.024233
-0.014845
-0.071378
-0.139537
-0.157658
-0.189591
-0.199449
-0.220708
-0.186268
-0.157436
-0.122141
-0.105259
-0.082645
-0.018468
0.038799
0.050365
0.066448
0.062048
0.070826
0.051227
0.005409
-0.014547
-0.046300
-0.095297
-0.143303
-0.201490
-0.222260
-0.238035
-0.225311
-0.205230
-0.171556
-0.122845
-0.075015
-0.008214
0.003110
0.058954
0.087568
0.093930
0.083185
0.037022
-0.016831
-0.051702
-0.100098
-0.138288
-0.184966
-0.224806
-0.216987
-0.202698
-0.205272
-0.189685
-0.141162
-0.090570
-0.051683
-0.011043
0.040426
0.062228
0.091015
0.095009
0.095465
0.066338
0.009120
-0.042039
-0.076631
-0.094930
-0.122033
-0.155384
-0.185693
-0.196190
-0.185620
-0.159878
-0.110504
-0.075301
-0.036627
0.015355
0.055754
0.083095
0.119398
0.127175
0.109634
0.086345
0.043071
0.002604
-0.069432
-0.104676
-0.147868
-0.167952
-0.176087
-0.193846
-0.202398
-0.187082
-0.107061
-0.005297
0.020794
0.071004
0.101160
0.109566
0.132230
0.145028
0.150516
0.107548
0.034342
-0.014491
-0.065425
-0.084599
-0.130544
-0.160476
-0.190850
-0.198805
-0.200328
-0.165120
-0.095172
-0.057215
-0.025812
0.022668
0.052858
0.066692
0.078712
0.089243
0.099300
0.066801
0.014324
-0.032706
-0.065273
-0.112981
-0.142161
-0.150019
-0.203086
-0.216595
-0.203012
-0.185275
-0.127638
-0.088119
-0.064240
-0.031578
-0.005114
0.015866
0.051413
0.087244
0.054411
0.025701
0.000859
-0.052064
-0.112233
-0.147050
-0.177371
-0.205675
-0.205224
-0.217155
-0.224823
-0.213145
-0.182931
-0.145705
-0.113227
-0.074941
-0.040673
0.033965
0.071164
0.061827
0.026432
0.008390
-0.018605
-0.067746
-0.107654
-0.142227
-0.188759
-0.227833
-0.241283
-0.245241
-0.250454
-0.222599
-0.189919
-0.136658
-0.075116
-0.032041
0.022190
0.040074
0.035645
0.046202
0.018718
0.013552
-0.035536
-0.123513
-0.140668
-0.121732
-0.127821
-0.180034
-0.243878
-0.244431
-0.240895
-0.220380
-0.159340
-0.118165
-0.082470
-0.038579
0.008443
0.026629
0.043287
0.043685
0.037155
-0.000987
-0.036747
-0.055165
-0.091268
-0.160710
-0.194784
-0.215686
-0.256570
-0.256180
-0.233982
-0.212094
-0.177516
-0.156882
-0.116210
-0.076595
-0.032984
-0.002211
0.024057
0.026047
0.039735
0.054176
0.025232
-0.002076
-0.028749
-0.058398
-0.061337
-0.060044
-0.084542
-0.104012
-0.093695
-0.060751
0.013076
0.069008
0.134734
0.226842
0.295939
0.329663
0.376105
0.450914
0.482876
0.515275
0.503290
0.489531
0.436414
0.459201
0.472301
0.470903
0.484496
0.506512
0.550899
0.599501
0.628496
0.650790
0.697489
0.731820
0.745705
0.759544
0.788808
0.751736
0.697342
0.625054
0.511023
0.413714
0.302746
0.208905
0.111128
0.043280
-0.024861
-0.051601
-0.040573
-0.008671
0.006147
0.004424
0.041866
0.101442
0.144871
0.133668
0.145329
0.140138
0.133063
0.138073
0.108811
0.055409
-0.007265
-0.062688
-0.118501
-0.141394
-0.170353
-0.191041
-0.157759
-0.134838
-0.105903
-0.056372
0.000936
0.029537
0.063224
0.090208
0.114117
0.128020
0.110301
0.081365
0.044578
-0.000098
-0.039118
-0.068914
-0.133177
-0.175674
-0.185152
-0.185778
-0.190993
-0.176788
-0.154760
-0.127248
-0.070005
-0.022954
0.020778
0.055643
0.075898
0.078702
0.059841
0.077477
0.021307
-0.032597
-0.078275
-0.106777
-0.160136
-0.178312
-0.190237
-0.216870
-0.213614
-0.171307
-0.099659
-0.050417
-0.020985
-0.003675
0.041953
0.104794
0.114282
0.102488
0.100938
0.088874
0.050864
0.015150
-0.021216
-0.078450
-0.135141
-0.162437
-0.186341
-0.221461
-0.200727
-0.158182
-0.117556
-0.078754
-0.032147
0.019901
0.042796
0.076776
0.118715
0.109711
0.109372
0.086241
0.043226
0.006194
-0.012353
-0.052501
-0.102198
-0.129348
-0.146889
-0.153157
-0.153011
-0.136076
-0.086623
-0.051623
0.015918
0.051853
0.087716
0.125208
0.160230
0.166678
0.158488
0.114020
0.076436
0.062199
0.009155
-0.049002
-0.090666
-0.119700
-0.126747
-0.156671
-0.139537
-0.115942
-0.083777
-0.026678
0.029064
0.103526
0.147920
0.166817
0.189494
0.198368
0.188228
0.164169
0.126180
0.088787
0.052959
0.004804
-0.028853
-0.060299
-0.088861
-0.089561
-0.088585
-0.062889
-0.029074
-0.000629
0.058105
0.117069
0.150945
0.171937
0.192456
0.204637
0.227955
0.215376
0.145828
0.086386
0.024821
0.017236
-0.018320
-0.063942
-0.081351
-0.080751
-0.066572
-0.046212
-0.043447
-0.002710
0.059486
0.131060
0.181289
0.205641
0.211979
0.194388
0.179867
0.163237
0.141369
0.121629
0.064852
-0.005855
-0.043577
-0.082278
-0.095724
-0.108995
-0.104664
-0.076389
-0.043784
-0.002986
0.054342
0.086530
0.137839
0.162474
0.170211
0.176833
0.172531
0.127451
0.078598
0.051996
0.005983
-0.039744
-0.080319
-0.108480
-0.143982
-0.151405
-0.134609
-0.108541
-0.067162
-0.043839
-0.019027
0.048581
0.087276
0.102535
0.125820
0.146291
0.142502
0.110981
0.059522
0.012434
-0.032057
-0.087117
-0.113873
-0.123396
-0.171717
-0.199588
-0.175527
-0.144642
-0.132280
-0.097968
-0.062319
-0.010187
0.044893
0.091926
0.129764
0.114673
0.100227
0.094849
0.064962
0.016414
-0.044399
-0.099511
-0.157884
-0.205291
-0.222998
-0.198317
-0.214339
-0.190469
-0.139983
-0.083169
-0.048163
-0.010516
0.037349
0.091557
0.113946
0.107117
0.077837
0.069759
0.039606
0.007380
-0.052049
-0.118575
-0.144354
-0.163906
-0.202423
-0.215254
-0.214073
-0.194288
-0.151979
-0.120296
-0.090058
-0.009853
0.035796
0.038282
0.058184
0.083671
0.080397
0.045147
0.001569
-0.035869
-0.095626
-0.116053
-0.155092
-0.194993
-0.220350
-0.221750
-0.213877
-0.199445
-0.171784
-0.112975
-0.058957
-0.013005
-0.007111
0.024713
0.064205
0.072857
0.104480
0.083280
0.021681
-0.036491
-0.065385
-0.095431
-0.139094
-0.175059
-0.192206
-0.191984
-0.182142
-0.185867
-0.169899
-0.104615
-0.041249
0.008615
0.027542
0.035996
0.058023
0.058907
0.063652
0.078806
0.041775
-0.000867
-0.039681
-0.080714
-0.144119
-0.179728
-0.210576
-0.223557
-0.218979
-0.203697
-0.153847
-0.090018
-0.025422
0.023305
0.063362
0.071935
0.072623
0.085841
0.069151
0.039700
0.024607
-0.004654
-0.046504
-0.098736
-0.146988
-0.155911
-0.193425
-0.199883
-0.216775
-0.197670
-0.158087
-0.105358
-0.042695
0.001168
0.044008
0.078656
0.099643
0.097428
0.074220
0.042656
0.006484
-0.026709
-0.076172
-0.116272
-0.174120
-0.216125
-0.218670
-0.208937
-0.181149
-0.177252
-0.172659
-0.150066
-0.066038
0.010009
0.057137
0.077691
0.087150
0.093023
0.081491
0.052387
0.025155
-0.017615
-0.085027
-0.126517
-0.166561
-0.180345
-0.212689
-0.217089
-0.207150
-0.187677
-0.155182
-0.108005
-0.067531
-0.008563
0.018627
0.049737
0.069308
0.069250
0.047870
0.025510
-0.015948
-0.053112
-0.086772
-0.121246
-0.170183
-0.212314
-0.242276
-0.218857
-0.212971
-0.181089
-0.154354
-0.099514
-0.044204
0.009232
0.036223
0.071450
0.099660
0.068162
0.065117
0.063459
0.035723
-0.008751
-0.053550
-0.105107
-0.176095
-0.202632
-0.203698
-0.244159
-0.240548
-0.215068
-0.177850
-0.142460
-0.095253
-0.035401
-0.020080
0.015024
0.050732
0.073117
0.068403
0.020731
-0.002679
-0.047330
-0.088304
-0.131096
-0.163464
-0.192386
-0.211355
-0.227173
-0.221120
-0.197465
-0.154129
-0.124401
-0.100247
-0.062743
-0.010365
0.042401
0.056898
0.058919
0.026447
-0.009036
-0.028046
-0.016719
-0.035495
-0.122216
-0.178669
-0.201196
-0.226696
-0.236762
-0.232443
-0.232277
-0.212499
-0.092243
-0.037350
-0.026078
0.011711
0.017486
0.053400
0.044777
0.030168
0.034017
0.019001
-0.050036
-0.117067
-0.151765
-0.165480
-0.188265
-0.224891
-0.220576
-0.221270
-0.194010
-0.173605
-0.087277
-0.040648
-0.015988
0.024808
0.049803
0.071149
0.063231
0.089480
0.067384
0.011272
-0.042708
-0.083582
-0.139629
-0.168970
-0.184477
-0.210962
-0.200279
-0.197665
-0.165420
-0.135322
-0.091598
-0.035119
0.006990
0.037998
0.069797
0.086140
0.107773
0.097608
0.077252
0.034652
-0.014369
-0.060097
-0.101085
-0.148837
-0.180029
-0.192404
-0.198854
-0.183651
-0.166039
-0.125353
-0.082972
-0.016660
0.016718
0.027275
0.043145
0.083944
0.104864
0.125043
0.122481
0.054249
0.018874
-0.021716
-0.073469
-0.117860
-0.144284
-0.162704
-0.156152
-0.155636
-0.139942
-0.101554
-0.066037
-0.016875
0.006549
0.034963
0.045774
0.066412
0.086159
0.069138
0.041943
0.010220
-0.040036
-0.081821
-0.119238
-0.200970
-0.171281
-0.174406
-0.205765
-0.191447
-0.184248
-0.156028
-0.089104
-0.047109
-0.024659
0.026726
0.053179
0.050050
0.065414
0.059881
0.037190
-0.008102
-0.051439
-0.089691
-0.146502
-0.200689
-0.228555
-0.251024
-0.251962
-0.267810
-0.250160
-0.198076
-0.140152
-0.112399
-0.069465
-0.034331
-0.001269
0.026354
0.042599
0.047355
0.027659
-0.020782
-0.020787
-0.090660
-0.147327
-0.193454
-0.222418
-0.257223
-0.237130
-0.235719
-0.243496
-0.219425
-0.180413
-0.104197
-0.051576
-0.021259
-0.006057
0.027576
0.060246
0.028367
-0.000715
-0.033804
-0.073538
-0.100329
-0.147912
-0.209348
-0.245921
-0.282007
-0.246863
-0.185013
-0.154168
-0.130587
-0.116031
-0.065216
-0.054727
-0.016537
-0.008926
0.016591
0.046583
0.037069
-0.030066
-0.043236
-0.040946
-0.092522
-0.159299
-0.233740
-0.242791
-0.240312
-0.257338
-0.233129
-0.206910
-0.195226
-0.190082
-0.125809
-0.054020
-0.021057
-0.008757
0.024256
0.046459
0.008646
-0.015510
-0.033610
-0.052253
-0.084765
-0.104195
-0.112994
-0.125650
-0.140751
-0.143528
-0.114927
-0.077096
-0.049282
0.002059
0.043218
0.094491
0.196447
0.265966
0.293441
0.325895
0.349168
0.337354
0.376493
0.368728
0.338777
0.347450
0.315400
0.335877
0.362986
0.398110
0.450076
0.496049
0.575152
0.634855
0.698344
0.719032
0.728062
0.771317
0.781334
0.778562
0.767774
0.736180
0.651023
0.573663
0.504422
0.428250
0.320511
0.212824
0.167371
0.100889
0.039077
0.002342
0.012032
-0.000348
0.042431
0.092215
0.154537
0.190150
0.195919
0.187575
0.173872
0.121524
0.072141
0.040782
-0.003044
-0.050319
-0.109713
-0.114543
-0.144637
-0.176883
-0.163194
-0.130888
-0.111229
-0.070156
0.001370
0.049287
0.075852
0.066761
0.091012
0.132761
0.111965
0.088337
0.054315
-0.001829
-0.020989
-0.079252
-0.150534
-0.169449
-0.171114
-0.196860
-0.180397
-0.130208
-0.106733
-0.080039
-0.053474
-0.032209
0.033601
0.087334
0.104611
0.093800
0.082987
0.079104
-0.000070
-0.014471
-0.046797
-0.115976
-0.152546
-0.174044
-0.187885
-0.195406
-0.221760
-0.169199
-0.121755
-0.081944
-0.021017
-0.012029
0.040843
0.103655
0.137577
0.125844
0.127125
0.098694
0.043125
-0.027178
-0.041154
-0.124419
-0.168688
-0.190066
-0.212704
-0.197933
-0.185737
-0.144807
-0.087456
-0.042852
-0.000478
0.066977
0.049114
0.052178
0.115614
0.180614
0.160957
0.102619
0.066799
0.099135
0.055657
-0.013117
-0.065547
-0.138224
-0.142832
-0.181983
-0.146387
-0.142156
-0.093831
-0.041520
0.022358
0.080627
0.067640
0.128073
0.171234
0.166992
0.145805
0.128815
0.095407
0.030645
-0.008153
-0.024483
-0.042457
-0.071352
-0.110603
-0.098675
-0.097892
-0.082304
-0.062619
-0.018845
0.028479
0.094639
0.118720
0.146161
0.161204
0.162191
0.167974
0.150706
0.154209
0.124606
0.033811
-0.065594
-0.095542
-0.109332
-0.114480
-0.099646
-0.076600
-0.048300
-0.023824
0.061416
0.085354
0.087745
0.146440
0.208153
0.217704
0.228176
0.234025
0.223560
0.171896
0.137881
0.094326
0.026456
-0.078122
-0.052927
-0.066038
-0.067330
-0.066331
-0.081823
0.008639
0.059553
0.087503
0.114686
0.156778
0.220778
0.260534
0.251619
0.140923
0.049129
0.112342
0.176525
0.095811
-0.000713
-0.038413
-0.069425
-0.104011
-0.085617
-0.055994
-0.018205
-0.049944
-0.002630
0.041215
0.080112
0.143174
0.174030
0.176103
0.173380
0.189240
0.149507
0.112395
0.088334
0.004830
-0.063503
-0.062405
-0.084692
-0.100021
-0.113123
-0.095984
-0.091741
-0.050718
0.016348
0.051831
0.099405
0.129236
0.143061
0.159686
0.169085
0.166576
0.126497
0.071267
0.016311
-0.059950
-0.091326
-0.128871
-0.170388
-0.174595
-0.163796
-0.154864
-0.177593
-0.171180
-0.112522
0.004137
0.081438
0.130687
0.131041
0.147420
0.147849
0.129611
0.101862
0.025739
0.025977
-0.010052
-0.086882
-0.127300
-0.173079
-0.146117
-0.170241
-0.202910
-0.190065
-0.162415
-0.108637
-0.051458
-0.006998
0.019445
0.056997
0.092028
0.057119
0.026454
0.006546
0.043648
0.003571
-0.043131
-0.108148
-0.135069
-0.197660
-0.240313
-0.231653
-0.199536
-0.151114
-0.110929
-0.088862
-0.065855
-0.032951
0.038175
0.105515
0.118186
0.099199
0.079065
0.036398
-0.017727
-0.046717
-0.070530
-0.081907
-0.119135
-0.168223
-0.198654
-0.182390
-0.206714
-0.188068
-0.137194
-0.084997
-0.051484
0.007088
0.039920
0.074636
0.061602
0.076585
0.081976
0.082110
0.047277
0.017180
-0.009334
-0.080040
-0.125153
-0.160495
-0.174162
-0.154447
-0.165528
-0.155745
-0.117591
-0.091420
-0.043179
0.016539
0.084580
0.098614
0.105541
0.063632
0.048395
0.016466
-0.023957
-0.058660
-0.073496
-0.095807
-0.130341
-0.142242
-0.183735
-0.159611
-0.182550
-0.145808
-0.106609
-0.076173
-0.037907
-0.019529
0.065268
0.075841
0.084698
0.070666
0.116769
0.103079
0.046152
0.057926
-0.036684
-0.094591
-0.113776
-0.142872
-0.173825
-0.206240
-0.228076
-0.201354
-0.139843
-0.051289
-0.011386
0.000653
0.042368
0.101218
0.129233
0.133657
0.132801
0.116797
0.084153
-0.022398
-0.057797
-0.046854
-0.083765
-0.133205
-0.182382
-0.227166
-0.202015
-0.163043
-0.137800
-0.079084
0.011396
0.025407
0.048299
0.096478
0.145221
0.132840
0.084703
0.035572
-0.001941
-0.031342
-0.055290
-0.105038
-0.102760
-0.113115
-0.154558
-0.191317
-0.180177
-0.185613
-0.150367
-0.091981
-0.038288
0.011645
0.077739
0.111618
0.112531
0.111976
0.115290
0.063990
0.003617
-0.072140
-0.088124
-0.086274
-0.125330
-0.182840
-0.233505
-0.240490
-0.184014
-0.181542
-0.109449
-0.043688
-0.008256
0.001425
-0.004735
0.054403
0.122294
0.113553
0.083824
0.096147
0.107696
0.017696
-0.098698
-0.142189
-0.169928
-0.170331
-0.142309
-0.182244
-0.213923
-0.198825
-0.162018
-0.087814
0.014724
0.047217
0.081506
0.092689
0.102836
0.110123
0.077816
0.035008
0.018155
-0.026275
-0.049702
-0.082187
-0.137598
-0.163361
-0.191036
-0.210759
-0.173110
-0.156644
-0.100169
-0.048145
0.012278
0.038199
0.026981
0.079095
0.122243
0.105405
0.100685
0.083706
0.039626
-0.019883
-0.058741
-0.052564
-0.073969
-0.132209
-0.205545
-0.176348
-0.161224
-0.172384
-0.121820
-0.087288
-0.060727
-0.008414
0.010507
0.078449
0.103601
0.087038
0.088200
0.066350
0.021538
-0.037920
-0.072956
-0.118825
-0.144584
-0.170503
-0.166509
-0.186036
-0.187242
-0.167808
-0.161871
-0.102689
-0.011118
0.013927
0.099588
0.091583
0.128782
0.133558
0.143961
0.168949
0.106101
0.061993
0.003826
-0.041454
-0.096036
-0.128685
-0.104871
-0.116057
-0.106683
-0.090887
-0.042449
-0.031801
-0.026149
0.041346
0.116871
0.140785
0.165818
0.126268
0.072064
0.068390
0.037457
0.042676
0.009281
-0.031500
-0.068323
-0.117604
-0.115556
-0.083637
-0.109973
-0.067383
-0.073149
-0.020222
0.119323
0.130360
0.115615
0.153117
0.180865
0.204400
0.196849
0.181387
0.164081
0.075182
-0.013194
0.012531
-0.027171
-0.101530
-0.136274
-0.108570
-0.141053
-0.067687
-0.003708
0.020524
0.068813
0.112459
0.118082
0.165604
0.161169
0.182613
0.164021
0.127878
0.056200
0.003190
-0.025459
-0.076534
-0.136765
-0.167966
-0.150724
-0.122398
-0.112045
-0.093690
-0.067746
-0.018767
-0.036136
-0.046321
0.021505
0.104181
0.099869
0.098007
0.114995
0.094561
0.119493
0.072986
0.033978
-0.064528
-0.142819
-0.182996
-0.228954
-0.196746
-0.135259
-0.185970
-0.138226
-0.053531
0.025363
0.054366
0.080042
0.102552
0.130685
0.138017
0.110721
0.042024
0.008220
-0.019803
-0.041407
-0.049285
-0.074917
-0.112771
-0.146561
-0.173462
-0.149489
-0.156829
-0.079194
-0.042541
0.000291
0.072393
0.078574
0.082369
0.120142
0.131824
0.067923
0.094999
0.096924
0.038460
0.019400
-0.058754
-0.148107
-0.166249
-0.139754
-0.133471
-0.153129
-0.140870
-0.086317
-0.071967
-0.057591
-0.016666
0.051079
0.049958
0.044776
0.142371
0.131357
0.111497
0.058093
0.043447
0.010619
-0.057505
-0.119409
-0.128004
-0.178326
-0.175738
-0.203584
-0.170133
-0.132768
-0.076445
-0.057343
0.008259
0.041545
0.069168
0.071337
0.163632
0.170473
0.091924
0.107760
0.075585
0.031539
0.001038
-0.018297
-0.067891
-0.048731
-0.036885
-0.027827
0.062274
0.155898
0.200212
0.231357
0.301918
0.318571
0.308615
0.297235
0.449871
0.524241
0.568247
0.612605
0.533485
0.504102
0.536515
0.496938
0.483630
0.495137
0.495644
0.533552
0.609920
0.651691
0.717500
0.746932
0.797450
0.872237
0.858902
0.786788
0.799756
0.756351
0.671974
0.609981
0.550387
0.418268
0.366518
0.260337
0.157752
0.076728
0.026588
-0.002013
0.014326
0.025939
0.061375
0.102800
0.136921
0.180785
0.168590
0.196148
0.235988
0.230147
0.177584
0.168750
0.179032
0.157081
0.072525
-0.050462
-0.111836
-0.166155
-0.162638
-0.113090
-0.112536
-0.061423
-0.001656
0.046186
0.067907
0.133916
0.142909
0.197183
0.222540
0.249647
0.182349
0.062498
0.031165
0.011226
-0.027567
-0.044797
-0.069928
-0.121004
-0.146778
-0.120821
-0.084590
-0.029705
0.023550
0.005409
0.070837
0.127386
0.167477
0.173666
0.170011
0.147275
0.116110
0.080587
0.058403
0.014999
0.006787
-0.036509
-0.043519
-0.080907
-0.115434
-0.109165
-0.073720
-0.074990
-0.092851
-0.025266
0.080315
0.157175
0.148147
0.080212
0.148496
0.211387
0.238056
0.137703
0.001316
0.022515
0.005832
0.017001
-0.083324
-0.106381
-0.035966
-0.062336
-0.068798
-0.008963
0.048422
0.068198
0.060703
0.154782
0.181306
0.210015
0.244446
0.204578
0.186958
0.103243
0.112183
0.017120
-0.006697
-0.013048
-0.039260
-0.126935
-0.107312
-0.042401
-0.037874
-0.018164
0.034212
0.084472
0.139367
0.179605
0.200893
0.235368
0.238670
0.221079
0.187383
0.201977
0.132129
0.049121
0.032447
-0.016012
-0.023913
-0.046154
-0.059790
-0.049418
-0.027517
0.038722
0.095994
0.117258
0.147053
0.217482
0.232083
0.213489
0.224303
0.238104
0.208225
0.149165
0.127995
0.127693
0.047476
-0.003989
-0.006594
-0.016182
-0.059981
-0.023098
0.047729
0.097763
0.134352
0.172820
0.227308
0.250336
0.249119
0.279128
0.296569
0.284730
0.262336
0.229697
0.194771
0.154324
0.102735
0.040954
-0.007205
-0.022943
-0.007220
-0.010048
0.026557
0.063164
0.112917
0.159181
0.167186
0.231815
0.267944
0.277963
0.276619
0.227625
0.192753
0.193537
0.157411
0.120359
0.062652
0.020914
0.006767
0.029795
0.007716
-0.034236
-0.067870
0.007085
0.054223
0.131141
0.186036
0.218887
0.240285
0.265072
0.256423
0.212734
0.188854
0.137516
0.102220
0.096398
0.022060
0.011011
-0.037440
-0.063910
-0.070662
-0.033336
-0.033249
-0.007379
0.032095
0.064224
0.104828
0.193666
0.231457
0.202407
0.168140
0.156073
0.182149
0.113591
0.032482
0.007587
-0.063366
-0.086898
-0.050644
-0.054372
-0.068607
-0.085082
-0.081368
-0.033824
0.018390
0.066182
0.107387
0.161223
0.172938
0.184004
0.187303
0.157802
0.136135
0.094642
0.073842
0.013104
-0.014016
-0.060701
-0.074745
-0.138113
-0.154889
-0.122477
-0.077505
-0.043319
-0.013520
0.042043
0.079465
0.096785
0.145202
0.123640
0.158041
0.183161
0.168790
0.068047
0.031945
-0.005917
-0.045349
-0.102477
-0.114955
-0.147941
-0.144845
-0.150604
-0.134052
-0.134320
-0.081517
-0.009690
0.060331
0.069836
0.129058
0.149159
0.145214
0.146084
0.143835
0.108349
0.018591
-0.019337
-0.053626
-0.094548
-0.131000
-0.134958
-0.153834
-0.154542
-0.098974
-0.053311
-0.019209
0.012760
0.047426
0.074685
0.120551
0.177121
0.168327
0.144074
0.123462
0.087113
0.009954
-0.035486
-0.004294
-0.012837
-0.059478
-0.103526
-0.125302
-0.160815
-0.122008
-0.063837
-0.020274
0.005519
0.072553
0.121802
0.136289
0.143934
0.166604
0.161194
0.137449
0.090999
0.034291
-0.016286
-0.059100
-0.089781
-0.099368
-0.117745
-0.131857
-0.129843
-0.101510
-0.050122
-0.037354
0.018385
0.095756
0.136819
0.153045
0.178693
0.186322
0.179824
0.139877
0.085459
0.038276
0.011851
-0.022682
-0.056933
-0.112674
-0.148884
-0.157974
-0.124450
-0.090169
-0.066805
-0.091679
-0.040378
0.042490
0.126665
0.133089
0.133444
0.116475
0.146618
0.109643
0.070654
0.037757
0.029835
0.043438
-0.047989
-0.059657
-0.090471
-0.129557
-0.118286
-0.076700
-0.093313
-0.040066
0.001035
0.063827
0.114566
0.139681
0.160237
0.160987
0.145254
0.119049
0.075320
0.036662
-0.012474
-0.070464
-0.111551
-0.134598
-0.155422
-0.143055
-0.124606
-0.136219
-0.068257
-0.054847
-0.023798
0.044123
0.104989
0.134603
0.144845
0.129369
0.115531
0.114836
0.104616
0.043502
-0.020435
-0.058973
-0.106632
-0.137808
-0.138293
-0.120720
-0.111626
-0.092973
-0.093576
-0.070380
-0.017760
0.041020
0.089944
0.128528
0.138474
0.127491
0.129123
0.121046
0.090876
0.014331
-0.062005
-0.081137
-0.115644
-0.154764
-0.182823
-0.169920
-0.105425
-0.086627
-0.080714
-0.033822
-0.004559
0.046421
0.096649
0.087676
0.115026
0.114503
0.117134
0.113916
0.054748
-0.012783
-0.045807
-0.071539
-0.115177
-0.162456
-0.173834
-0.187452
-0.151656
-0.153567
-0.087255
-0.064909
-0.043643
0.011554
0.091260
0.104444
0.119222
0.107183
0.079894
0.017442
0.002575
0.004910
-0.004946
-0.033519
-0.044388
-0.111022
-0.195186
-0.173267
-0.198608
-0.187445
-0.130806
-0.084055
-0.009099
0.014681
0.048572
0.084639
0.157353
0.154934
0.148247
0.126357
0.081206
0.045931
0.011163
-0.043405
-0.088122
-0.125760
-0.164353
-0.153021
-0.142194
-0.119800
-0.073786
-0.025374
-0.020739
-0.004728
0.040528
0.128912
0.141060
0.143265
0.142992
0.130704
0.120485
0.043308
-0.005710
-0.049263
-0.089275
-0.129924
-0.164116
-0.165315
-0.152904
-0.121271
-0.081997
-0.015515
0.023156
0.073791
0.119017
0.096862
0.133131
0.191558
0.178737
0.137672
0.088537
0.056922
-0.013925
-0.041110
-0.081151
-0.109371
-0.137361
-0.169699
-0.142065
-0.097567
-0.066290
-0.024123
0.032631
0.087476
0.093574
0.118783
0.117090
0.077375
0.055825
0.073168
0.100548
0.043621
-0.037970
-0.091557
-0.154057
-0.175764
-0.166971
-0.144186
-0.161433
-0.137382
-0.115957
-0.088323
-0.037141
-0.027278
0.032436
0.069874
0.108444
0.089437
0.051116
0.036223
-0.019118
-0.049383
-0.079452
-0.121889
-0.155772
-0.204994
-0.234392
-0.218838
-0.214754
-0.206682
-0.142666
-0.103049
-0.066006
-0.011337
0.011765
0.047092
0.074627
0.066784
0.069353
0.062062
0.012554
-0.027780
-0.055040
-0.099084
-0.163272
-0.196518
-0.214136
-0.221037
-0.216144
-0.155824
-0.136073
-0.083264
-0.065412
-0.027914
0.030078
0.070532
0.090171
0.060927
0.044428
0.052806
0.034277
-0.009169
-0.102423
-0.130066
-0.194402
-0.209354
-0.213631
-0.222163
-0.190299
-0.161776
-0.135503
-0.092191
-0.064985
-0.036515
-0.006091
0.031681
0.067819
0.046207
0.051069
0.033210
-0.027585
-0.066160
-0.110499
-0.143854
-0.194714
-0.200248
-0.199345
-0.213831
-0.197295
-0.146608
-0.117528
-0.119560
-0.085977
-0.043886
-0.012162
0.044160
0.097270
0.110318
0.074912
0.076897
0.068131
0.038894
0.015472
-0.021991
-0.077618
-0.074978
-0.089777
-0.091909
-0.054074
-0.025557
0.024938
0.076761
0.143923
0.222771
0.292324
0.359770
0.382520
0.430405
0.452243
0.453725
0.467454
0.442005
0.411586
0.399655
0.398894
0.382596
0.403911
0.453436
0.508406
0.529151
0.564324
0.626401
0.672920
0.709004
0.735444
0.765591
0.779913
0.772831
0.704145
0.604145
0.473779
0.399441
0.302199
0.237002
0.158283
0.078136
-0.010618
-0.045092
-0.028655
-0.032881
-0.022573
-0.061162
-0.037446
0.026714
0.098582
0.123321
0.136598
0.127578
0.113021
0.112671
0.089486
0.034035
-0.012443
-0.085577
-0.151933
-0.160948
-0.129324
-0.134922
-0.133895
-0.127939
-0.075891
-0.030817
0.002619
0.032454
0.048042
0.070821
0.108154
0.106519
0.118046
0.108934
0.090022
0.042693
-0.044196
-0.113478
-0.179083
-0.186831
-0.214489
-0.194995
-0.171955
-0.149121
-0.135279
-0.105834
-0.055836
0.018326
0.054847
0.082171
0.091004
0.130916
0.084428
0.057571
0.027801
0.006325
-0.056567
-0.111247
-0.135742
-0.178258
-0.205174
-0.205043
-0.202052
-0.162048
-0.133952
-0.104886
-0.035279
0.018818
0.057496
0.094102
0.125008
0.125347
0.104887
0.061206
0.009897
-0.039146
-0.081711
-0.132583
-0.138630
-0.131560
-0.165800
-0.185876
-0.155360
-0.114210
-0.066204
-0.017804
0.004448
0.049980
0.087238
0.122950
0.146817
0.148355
0.139623
0.137462
0.089154
0.010586
-0.021737
-0.104518
-0.111120
-0.135982
-0.172209
-0.194933
-0.148723
-0.111922
-0.088633
-0.046717
-0.008811
0.033132
0.065702
0.098861
0.116090
0.164740
0.161437
0.132115
0.087472
0.094803
0.056644
-0.001439
-0.045648
-0.080467
-0.111194
-0.137977
-0.150135
-0.126293
-0.082172
-0.006470
0.077327
0.112889
0.129064
0.157857
0.164558
0.176522
0.192942
0.166195
0.124447
0.092262
0.023567
-0.019467
-0.055103
-0.081210
-0.100651
-0.083638
-0.068993
-0.069749
-0.054097
-0.044931
0.010370
0.045379
0.103653
0.173394
0.212195
0.206430
0.209368
0.188631
0.126240
0.087692
0.040589
-0.014803
-0.056543
-0.084517
-0.087524
-0.085976
-0.079107
-0.062396
-0.030630
0.001518
0.058149
0.118767
0.156996
0.165834
0.179508
0.200529
0.186464
0.148583
0.108508
0.106217
0.061709
0.005030
-0.023209
-0.063978
-0.093320
-0.107023
-0.108733
-0.072562
-0.050046
-0.003562
0.031652
0.087843
0.126614
0.132095
0.153689
0.181035
0.169908
0.148813
0.108838
0.053652
0.000514
-0.054840
-0.141375
-0.173818
-0.169509
-0.126474
-0.103185
-0.083771
-0.056006
-0.029090
0.009517
0.065510
0.116707
0.102868
0.130193
0.114143
0.110295
0.090172
0.046601
-0.015637
-0.058043
-0.089154
-0.138625
-0.161776
-0.188162
-0.180202
-0.161753
-0.139867
-0.122156
-0.079023
-0.037851
-0.000761
0.034788
0.077018
0.067093
0.088948
0.084398
0.044846
0.008417
-0.015060
-0.050790
-0.093887
-0.135995
-0.158878
-0.187964
-0.197069
-0.181829
-0.164129
-0.133498
-0.091981
-0.032764
0.019064
0.060651
0.080962
0.081582
0.086377
0.080736
0.056194
0.015456
-0.013804
-0.052965
-0.096395
-0.155564
-0.187413
-0.206412
-0.201708
-0.197586
-0.182939
-0.121851
-0.088407
-0.075443
-0.041056
-0.017252
0.009366
0.071798
0.128281
0.117386
0.088166
0.037071
-0.011143
-0.063963
-0.109383
-0.155340
-0.188993
-0.195527
-0.212178
-0.238413
-0.200997
-0.155261
-0.103015
-0.075056
-0.014201
0.045915
0.072830
0.056511
0.096198
0.082743
0.059350
0.003258
-0.036069
-0.062958
-0.099274
-0.151286
-0.169247
-0.182556
-0.199670
-0.209566
-0.203789
-0.154515
-0.097569
-0.035267
0.000046
0.021894
0.056560
0.114034
0.118089
0.100611
0.058208
0.014649
-0.029545
-0.046488
-0.104293
-0.132029
-0.149899
-0.171636
-0.219872
-0.234160
-0.194364
-0.142796
-0.119244
-0.087249
-0.035830
0.033585
0.090624
0.117398
0.106267
0.125787
0.112761
0.049668
0.019934
-0.034726
-0.083766
-0.127352
-0.167305
-0.195182
-0.211274
-0.196302
-0.168142
-0.140686
-0.089137
-0.035234
0.008960
0.050305
0.056750
0.096426
0.084578
0.083260
0.066941
0.057497
0.040588
-0.041175
-0.101751
-0.140154
-0.174323
-0.215954
-0.213801
-0.196457
-0.166874
-0.110116
-0.068121
-0.031813
-0.011870
0.031166
0.094461
0.118336
0.121350
0.107239
0.077590
0.022616
-0.018479
-0.077225
-0.079917
-0.122918
-0.173108
-0.204060
-0.185903
-0.192997
-0.160150
-0.108761
-0.079791
-0.049495
-0.006733
0.041263
0.073896
0.110960
0.097871
0.091739
0.079808
0.034116
-0.030959
-0.082120
-0.127286
-0.129951
-0.160668
-0.199015
-0.199219
-0.214759
-0.201873
-0.169404
-0.131009
-0.076643
-0.015283
0.048048
0.074493
0.092404
0.104696
0.070461
0.047969
0.016782
-0.008695
-0.052525
-0.115612
-0.145608
-0.159062
-0.203781
-0.176370
-0.162457
-0.164390
-0.121203
-0.091586
-0.048586
0.009873
0.042367
0.068687
0.081594
0.082016
0.078470
0.082145
0.024125
-0.042610
-0.081920
-0.125536
-0.169100
-0.168869
-0.181257
-0.189695
-0.196467
-0.174862
-0.123757
-0.087526
-0.040020
0.007643
0.049113
0.065311
0.113326
0.094933
0.060963
0.069976
0.043979
0.014698
-0.003166
-0.053280
-0.096264
-0.137391
-0.184101
-0.164529
-0.135376
-0.077029
-0.054346
-0.045494
-0.006207
0.029530
0.037167
0.081743
0.119867
0.123483
0.116709
0.096447
0.047374
0.001343
-0.032805
-0.077931
-0.129104
-0.141701
-0.144642
-0.144027
-0.137911
-0.126624
-0.105106
-0.061144
0.006702
0.067497
0.081881
0.110230
0.134233
0.143787
0.154210
0.114513
0.062521
0.035736
-0.030117
-0.083386
-0.122764
-0.126331
-0.121701
-0.125974
-0.115568
-0.096945
-0.082300
-0.073252
-0.047342
-0.003004
0.050971
0.041452
0.088578
0.097977
0.121128
0.100050
0.052283
-0.032288
-0.063471
-0.095701
-0.131967
-0.166681
-0.203315
-0.208123
-0.164448
-0.155800
-0.132128
-0.091490
-0.053669
-0.020207
0.001974
0.033523
0.056871
0.077130
0.038371
0.020717
-0.024192
-0.073631
-0.090893
-0.132339
-0.173032
-0.214710
-0.226821
-0.222118
-0.181080
-0.156715
-0.131380
-0.102734
0.008637
0.018172
0.023365
0.048074
0.046444
0.057284
0.063332
0.044663
-0.000184
-0.022890
-0.072243
-0.146422
-0.181168
-0.217095
-0.201026
-0.211630
-0.191112
-0.212010
-0.198818
-0.134850
-0.096665
-0.031920
0.024556
0.056694
0.094021
0.105545
0.087818
0.045825
0.003834
-0.053100
-0.102279
-0.160894
-0.184685
-0.170869
-0.208768
-0.206597
-0.203684
-0.186305
-0.163316
-0.131946
-0.070057
-0.011791
0.018192
0.028562
0.044510
0.050570
0.050035
0.036428
0.013294
-0.042646
-0.078349
-0.123293
-0.183788
-0.199912
-0.223687
-0.235863
-0.250214
-0.201147
-0.150786
-0.105194
-0.048323
-0.013069
0.040823
0.092022
0.156659
0.169147
0.160227
0.183679
0.175664
0.124820
0.085332
0.033207
0.003742
0.007185
0.019050
0.050495
0.084426
0.113571
0.202517
0.256854
0.308551
0.394732
0.491670
0.551187
0.568918
0.633724
0.671031
0.664280
0.642236
0.613457
0.627331
0.590012
0.594877
0.571242
0.551604
0.559226
0.538770
0.540771
0.586594
0.610838
0.629238
0.610971
0.584886
0.555360
0.494095
0.437403
0.394955
0.337115
0.242924
0.165409
0.100263
0.026083
-0.021728
-0.075949
-0.112608
-0.119597
-0.096506
-0.076150
-0.055825
-0.020697
0.025084
0.055840
0.103162
0.134825
0.174625
0.179540
0.167123
0.105281
0.055894
0.016753
-0.036992
-0.061206
-0.117103
-0.124365
-0.134350
-0.169752
-0.149388
-0.126886
-0.108776
-0.059738
0.002865
0.049225
0.087221
0.108691
0.118107
0.124845
0.109669
0.091698
0.056388
0.011546
-0.040160
-0.094191
-0.125026
-0.155204
-0.160310
-0.176596
-0.173721
-0.163140
-0.129393
-0.079864
-0.008607
0.050754
0.077063
0.103078
0.125578
0.122066
0.113643
0.094839
0.054393
0.013920
-0.039297
-0.077235
-0.106642
-0.115211
-0.142406
-0.175124
-0.173846
-0.151596
-0.101156
-0.070978
0.004542
0.043236
0.075957
0.127456
0.138727
0.126966
0.128919
0.125254
0.091777
0.024098
-0.029853
-0.064999
-0.091198
-0.134241
-0.169941
-0.159170
-0.132372
-0.072946
-0.044840
-0.019531
0.003252
0.038863
0.087148
0.147715
0.166566
0.144279
0.140951
0.126096
0.103559
0.060886
0.014597
-0.028733
-0.067878
-0.114362
-0.137706
-0.122117
-0.077989
-0.078259
-0.057911
-0.004053
0.034093
0.071170
0.095303
0.133021
0.144293
0.188424
0.174315
0.166149
0.130237
0.082665
0.041577
0.027361
-0.012756
-0.046011
-0.057908
-0.088703
-0.098820
-0.058091
-0.015986
0.029012
0.082366
0.133196
0.157332
0.196369
0.230001
0.235911
0.206486
0.182482
0.146676
0.093473
0.086395
0.044246
-0.015050
-0.010689
-0.012925
-0.038866
-0.042078
-0.024426
0.030485
0.059886
0.094117
0.123458
0.170561
0.210254
0.236717
0.238231
0.238402
0.197956
0.101712
0.079072
0.057657
0.006631
-0.039504
-0.057940
-0.065715
-0.036045
-0.008983
-0.049238
-0.036266
0.013456
0.070625
0.117851
0.154158
0.178339
0.197358
0.223276
0.211341
0.183285
0.129606
0.089380
0.042196
0.007815
-0.027840
-0.084964
-0.107545
-0.115656
-0.092937
-0.050806
0.008536
0.034000
0.075701
0.122451
0.130816
0.153216
0.192918
0.202622
0.185026
0.150767
0.115671
0.069412
0.026594
-0.042264
-0.032241
-0.059284
-0.101672
-0.127174
-0.128900
-0.117961
-0.066102
-0.020869
0.014287
0.058695
0.098380
0.113443
0.109188
0.123901
0.150686
0.104963
0.085899
0.053174
-0.000791
-0.056230
-0.117316
-0.159801
-0.165070
-0.162244
-0.136807
-0.120933
-0.111137
-0.086703
-0.042238
0.001961
0.013304
0.077994
0.108425
0.129954
0.112470
0.096981
0.068841
0.025782
-0.039280
-0.086453
-0.124713
-0.132017
-0.158500
-0.189026
-0.202276
-0.171155
-0.112671
-0.087144
-0.062165
-0.036365
0.013805
0.077132
0.137186
0.128703
0.109191
0.066614
-0.008249
-0.043442
-0.090679
-0.120455
-0.128500
-0.163499
-0.217793
-0.205261
-0.218656
-0.191052
-0.145281
-0.103822
-0.071599
-0.026388
0.036712
0.079860
0.107893
0.130832
0.121782
0.066959
0.006281
-0.002614
-0.041929
-0.070177
-0.117652
-0.157648
-0.174628
-0.190989
-0.181743
-0.157238
-0.124960
-0.079512
-0.033657
-0.011111
0.019551
0.054686
0.082888
0.103846
0.121649
0.111234
0.051035
0.009864
-0.042700
-0.070330
-0.107360
-0.163505
-0.197096
-0.201012
-0.199660
-0.159286
-0.123015
-0.074536
-0.020126
0.014513
0.029640
0.088549
0.118555
0.124568
0.118578
0.105369
0.026921
-0.004225
-0.054066
-0.102229
-0.132263
-0.169379
-0.171250
-0.182885
-0.196980
-0.204808
-0.148189
-0.096314
-0.050251
0.024946
0.030075
0.060410
0.113830
0.151389
0.139567
0.104296
0.062099
0.013355
-0.029411
-0.087403
-0.115371
-0.142606
-0.182222
-0.198176
-0.190952
-0.149985
-0.115896
-0.080648
-0.057236
0.005257
0.064513
0.087708
0.102451
0.112652
0.102385
0.083134
0.037758
-0.026280
-0.074536
-0.074793
-0.120946
-0.143680
-0.165031
-0.161180
-0.148383
-0.138757
-0.109561
-0.077540
-0.027778
0.005598
0.042633
0.091905
0.103608
0.107423
0.071773
0.057949
0.034855
0.007136
-0.056722
-0.112580
-0.141845
-0.183035
-0.193734
-0.182181
-0.162640
-0.145858
-0.123430
-0.083819
-0.056728
-0.006025
0.020819
0.057221
0.080175
0.097010
0.081168
0.059960
-0.004148
-0.040321
-0.067584
-0.133661
-0.170451
-0.184133
-0.190144
-0.192806
-0.190013
-0.162522
-0.119256
-0.082910
-0.031035
0.021213
0.043003
0.073639
0.096974
0.095379
0.041981
0.036719
0.022630
-0.006003
-0.058112
-0.100048
-0.114289
-0.135314
-0.173043
-0.197111
-0.196073
-0.180432
-0.120098
-0.065884
-0.029280
0.012908
0.065321
0.085022
0.087742
0.080073
0.068235
0.049686
0.015428
-0.001617
-0.025957
-0.083149
-0.136403
-0.187827
-0.208294
-0.201118
-0.184889
-0.161163
-0.124659
-0.085065
-0.055407
-0.020928
0.031325
0.069245
0.121483
0.118272
0.111851
0.085781
0.052967
0.011454
-0.028158
-0.070183
-0.140717
-0.161708
-0.163414
-0.161980
-0.137515
-0.119890
-0.100602
-0.032138
0.009270
0.024380
0.051594
0.068554
0.101675
0.106900
0.103167
0.069004
0.025453
-0.014042
-0.048122
-0.082035
-0.118911
-0.167641
-0.166307
-0.166837
-0.134176
-0.088758
-0.080826
-0.060697
0.007907
0.061972
0.082052
0.105423
0.090490
0.148004
0.141723
0.123878
0.090349
0.062099
0.011291
-0.040106
-0.112237
-0.150468
-0.159400
-0.155526
-0.161474
-0.144081
-0.097962
-0.079292
-0.046635
0.029145
0.059723
0.074119
0.086120
0.077166
0.090940
0.089487
0.059788
-0.004433
-0.008225
-0.052706
-0.120568
-0.176914
-0.212532
-0.205070
-0.204685
-0.177192
-0.139623
-0.099567
-0.028662
0.018314
0.042816
0.076576
0.087644
0.080590
0.082568
0.046227
-0.001714
-0.061989
-0.111452
-0.138502
-0.166814
-0.186740
-0.231064
-0.250018
-0.255165
-0.202743
-0.150350
-0.117532
-0.079109
-0.041867
-0.017460
0.008662
0.034891
0.057881
0.057444
0.044865
0.010299
-0.043332
-0.029423
-0.103729
-0.150992
-0.173863
-0.197031
-0.220673
-0.224099
-0.204961
-0.167112
-0.132203
-0.088343
-0.041706
0.002582
0.042525
0.069644
0.068676
0.052787
0.043470
0.006832
-0.026457
-0.087288
-0.153394
-0.201404
-0.210632
-0.213641
-0.222863
-0.243796
-0.194373
-0.149407
-0.115365
-0.085853
0.031077
0.042167
0.041883
0.052605
0.072874
0.066753
0.056165
0.024431
-0.035581
-0.089045
-0.161087
-0.208224
-0.226372
-0.222412
-0.219455
-0.209836
-0.202165
-0.150339
-0.110061
-0.067154
-0.036263
-0.001351
0.032571
0.058739
0.130119
0.114359
0.116272
0.081583
0.054426
0.034864
0.002901
0.012310
-0.039732
-0.049165
-0.026590
-0.022965
0.009618
0.067808
0.153810
0.238396
0.304099
0.382601
0.465865
0.497009
0.525376
0.542264
0.543033
0.552934
0.540495
0.536546
0.546658
0.554962
0.562289
0.562561
0.584123
0.582479
0.595555
0.625541
0.674546
0.707104
0.733845
0.752343
0.760680
0.749142
0.720910
0.662074
0.584911
0.457927
0.332927
0.229721
0.140806
0.059515
-0.019261
-0.054992
-0.059771
-0.044124
-0.025166
0.020656
0.060668
0.096484
0.100215
0.128571
0.152242
0.194614
0.203098
0.180072
0.176821
0.116779
0.067231
0.022613
-0.053940
-0.101066
-0.114066
-0.123552
-0.135775
-0.126344
-0.111330
-0.099392
-0.074139
-0.045730
0.001499
0.056595
0.109129
0.133210
0.147745
0.148546
0.127538
0.063531
-0.020784
-0.053782
-0.099106
-0.123601
-0.135426
-0.149806
-0.169520
-0.173804
-0.161608
-0.122684
-0.081461
-0.012749
0.042341
0.073362
0.084349
0.109064
0.093320
0.092667
0.085903
0.057970
0.009582
-0.030293
-0.056404
-0.103365
-0.147139
-0.166771
-0.191097
-0.162868
-0.126978
-0.076624
-0.045990
-0.013435
0.011340
0.052054
0.086047
0.108233
0.131386
0.145909
0.123490
0.069221
0.010740
-0.035534
-0.064281
-0.090359
-0.118476
-0.141079
-0.147663
-0.163303
-0.149913
-0.091730
-0.048548
0.010845
0.052234
0.068874
0.118303
0.147015
0.157916
0.168288
0.133092
0.091223
0.064206
0.006593
-0.037441
-0.085030
-0.123867
-0.135739
-0.128534
-0.104608
-0.113036
-0.073491
-0.032708
0.012824
0.060847
0.099257
0.160477
0.198462
0.183478
0.162064
0.163859
0.123800
0.103459
0.056029
-0.002873
-0.078569
-0.063087
-0.068232
-0.068496
-0.083592
-0.067443
-0.055275
0.001218
0.043521
0.123891
0.181748
0.222526
0.264663
0.235691
0.211173
0.179522
0.136139
0.110300
0.052104
-0.025468
-0.039433
-0.004341
-0.025534
-0.052756
-0.058726
-0.032941
0.013771
0.041296
0.071137
0.128132
0.167527
0.216286
0.251005
0.268494
0.227532
0.199080
0.158600
0.108882
0.063001
0.023731
-0.012906
-0.064102
-0.078674
-0.064585
-0.037632
-0.030587
-0.001444
0.054008
0.104991
0.166243
0.202486
0.200139
0.202680
0.201926
0.207123
0.193167
0.137948
0.071634
0.051003
0.003343
-0.038111
-0.070270
-0.100269
-0.104691
-0.074304
-0.040269
-0.032354
0.036948
0.104373
0.156336
0.188250
0.206087
0.208581
0.197159
0.160839
0.145510
0.121284
0.071585
0.042411
0.008307
-0.036450
-0.079011
-0.115311
-0.125858
-0.107522
-0.066712
-0.030270
0.003961
0.048047
0.052437
0.108357
0.163566
0.198978
0.167939
0.133694
0.105370
0.074401
0.017000
-0.034063
-0.079801
-0.103170
-0.134908
-0.171847
-0.158094
-0.138584
-0.131913
-0.107273
-0.047727
0.004900
0.047267
0.078299
0.100612
0.121329
0.109329
0.117068
0.091534
0.035913
0.002714
-0.042570
-0.062157
-0.114920
-0.146966
-0.171062
-0.177058
-0.155761
-0.083615
-0.088424
-0.074518
-0.062042
-0.013787
0.022107
0.085853
0.130809
0.120322
0.113170
0.082892
0.045114
0.010863
-0.050354
-0.110253
-0.142032
-0.153481
-0.183269
-0.202588
-0.178053
-0.154080
-0.126212
-0.068907
-0.018600
0.018250
0.049382
0.092994
0.105707
0.096646
0.075963
0.057516
0.034913
-0.002299
-0.046260
-0.092586
-0.124115
-0.137767
-0.165418
-0.171117
-0.181598
-0.156550
-0.117141
-0.074114
-0.024397
0.028808
0.076679
0.172542
0.149782
0.127054
0.129607
0.096101
0.072343
0.037293
-0.025101
-0.086227
-0.134421
-0.145420
-0.156420
-0.180395
-0.177490
-0.146553
-0.105356
-0.059375
-0.018287
0.031513
0.060073
0.092521
0.119971
0.137807
0.128102
0.095229
0.046044
0.011131
-0.031013
-0.066754
-0.119687
-0.158497
-0.166659
-0.142567
-0.152044
-0.144281
-0.121941
-0.087463
-0.036371
0.022810
0.067084
0.082038
0.121314
0.136080
0.116608
0.093810
0.063036
0.032924
-0.011615
-0.063646
-0.111555
-0.118080
-0.153546
-0.171171
-0.192329
-0.166785
-0.113898
-0.066104
0.013451
0.038774
0.064047
0.103213
0.102568
0.145883
0.135031
0.105333
0.045669
0.020542
-0.019592
-0.072917
-0.099861
-0.146587
-0.185769
-0.188481
-0.172884
-0.161700
-0.112295
-0.049164
0.011652
0.037164
0.063457
0.090193
0.065462
0.058738
0.120130
0.115166
0.053037
0.016666
-0.007395
-0.072606
-0.129599
-0.170069
-0.184219
-0.185409
-0.154382
-0.135645
-0.091107
-0.065305
-0.009309
0.049187
0.048858
0.065526
0.103207
0.126373
0.123182
0.104973
0.064219
0.024024
-0.019552
-0.076948
-0.114452
-0.141518
-0.163230
-0.184074
-0.171413
-0.168303
-0.128798
-0.094802
-0.057133
-0.012282
0.019028
0.015496
0.109721
0.098211
0.059293
0.059689
0.050006
0.046590
0.006258
-0.059377
-0.121145
-0.147418
-0.180961
-0.196692
-0.215583
-0.199455
-0.129228
-0.064593
-0.027472
-0.000532
0.009554
0.053915
0.110076
0.128713
0.127880
0.096712
0.036232
0.007294
-0.043961
-0.067022
-0.130271
-0.182296
-0.187720
-0.169026
-0.177370
-0.170203
-0.143841
-0.057566
-0.008763
0.033065
0.046086
0.086156
0.099664
0.100291
0.117324
0.103366
0.046403
0.014281
-0.018341
-0.069732
-0.111901
-0.176162
-0.187702
-0.168928
-0.173270
-0.150068
-0.100842
-0.066276
-0.006983
0.041308
0.075396
0.126339
0.138788
0.153693
0.121953
0.117916
0.092180
0.042916
-0.011414
-0.025203
-0.104574
-0.132716
-0.175758
-0.159656
-0.152231
-0.162729
-0.132017
-0.081063
-0.035401
-0.004914
0.009506
0.048429
0.094693
0.140868
0.166082
0.143272
0.108451
0.072564
0.003792
-0.047541
-0.074625
-0.103856
-0.157423
-0.181806
-0.165578
-0.121475
-0.092249
-0.032219
0.005494
0.051044
0.095031
0.124979
0.115910
0.118940
0.109391
0.071797
0.012254
0.007751
-0.023038
-0.072861
-0.118853
-0.143658
-0.163483
-0.172304
-0.175209
-0.130802
-0.127969
-0.073905
-0.046041
-0.032830
0.011358
0.080934
0.129850
0.123903
0.103591
0.085936
0.044954
-0.012070
-0.092103
-0.167299
-0.195823
-0.232689
-0.231864
-0.199756
-0.165906
-0.161955
-0.170251
-0.104433
-0.044097
-0.001128
-0.020258
0.055164
0.102460
0.110700
0.039019
-0.005621
-0.044660
-0.063764
-0.085159
-0.151503
-0.206031
-0.227572
-0.234971
-0.234467
-0.207043
-0.190802
-0.179081
-0.125814
-0.066864
-0.031585
-0.006493
0.029547
0.087804
0.099287
0.078119
0.047614
0.005964
-0.017564
-0.075666
-0.146765
-0.213548
-0.237047
-0.186984
-0.173213
-0.155429
-0.156822
-0.154591
-0.115886
-0.047062
0.008043
0.001886
0.034578
0.031070
0.024332
0.031363
0.028150
0.010513
-0.033717
-0.083518
-0.145017
-0.155119
-0.169837
-0.206208
-0.219766
-0.216669
-0.200874
-0.171853
-0.118381
-0.069466
-0.071470
0.010039
0.025552
0.034129
0.040495
0.036004
0.021826
0.008035
-0.030629
-0.104588
-0.160360
-0.163797
-0.186353
-0.157070
-0.140117
-0.128151
-0.143449
-0.115887
-0.053809
0.031543
0.101721
0.143771
0.150422
0.211682
0.256711
0.253704
0.257468
0.282365
0.254077
0.242150
0.233960
0.223599
0.219515
0.239581
0.302564
0.347015
0.391190
0.478383
0.554066
0.650062
0.729625
0.771093
0.812888
0.908363
0.916262
0.877317
0.828011
0.821439
0.797811
0.738664
0.648259
0.597010
0.528596
0.456397
0.377094
0.320973
0.283190
0.275372
0.254003
0.241853
0.236208
0.236166
0.244658
0.245722
0.264034
0.235943
0.205156
0.157873
0.103578
0.074795
0.016406
-0.035753
-0.087127
-0.116407
-0.093309
-0.061796
-0.069560
-0.035014
-0.015107
0.019031
0.048210
0.093966
0.100614
0.116898
0.149621
0.099568
0.074216
0.050543
0.017356
-0.013773
-0.066214
-0.085499
-0.116559
-0.135045
-0.150828
-0.162440
-0.161667
-0.106957
-0.069988
-0.013861
0.034315
0.048328
0.101711
0.124108
0.130312
0.115306
0.093494
0.054087
0.018325
-0.062203
-0.104473
-0.113486
-0.133993
-0.158407
-0.161243
-0.151483
-0.134281
-0.092427
-0.082722
-0.016046
0.011279
0.062765
0.107509
0.108763
0.141158
0.130688
0.101966
0.062385
0.026901
-0.022737
-0.055365
-0.082152
-0.103961
-0.146045
-0.138102
-0.152776
-0.156175
-0.096631
-0.089138
-0.056222
0.008781
0.077574
0.107287
0.133552
0.139042
0.116483
0.102257
0.060155
0.025459
0.044569
0.035176
-0.035926
-0.117969
-0.140920
-0.196815
-0.174563
-0.116419
-0.045722
-0.001633
0.038723
0.068657
0.083421
0.148198
0.169697
0.203930
0.203097
0.184613
0.151807
0.064250
0.009411
-0.019042
-0.059339
-0.075393
-0.084792
-0.147061
-0.140762
-0.111513
-0.080945
0.011961
0.080589
0.132167
0.148424
0.172985
0.201271
0.215407
0.245716
0.236529
0.178182
0.139467
0.083355
0.035876
-0.003210
-0.027698
-0.067832
-0.076508
-0.074450
-0.053892
-0.009946
0.036619
0.088812
0.141309
0.160565
0.194698
0.225535
0.295469
0.279548
0.235851
0.178484
0.145845
0.100848
0.041766
-0.012953
-0.041722
-0.057051
-0.051938
-0.030752
0.009334
0.039671
0.058784
0.106491
0.126447
0.167746
0.181577
0.216461
0.239453
0.252061
0.225293
0.143838
0.140195
0.094043
0.071498
0.004777
-0.014868
-0.059842
-0.057585
-0.049068
-0.015214
0.021418
0.047468
0.099157
0.138977
0.147082
0.170745
0.227287
0.214916
0.172314
0.180821
0.157199
0.103955
0.068242
0.011203
-0.008540
-0.057103
-0.059942
-0.073824
-0.072601
-0.082002
-0.023427
-0.018821
0.043576
0.098743
0.123021
0.172578
0.208302
0.185892
0.200995
0.180045
0.105155
0.049340
0.016596
-0.059571
-0.078122
-0.096202
-0.095642
-0.115576
-0.117024
-0.098996
-0.076435
-0.030717
0.008096
0.084995
0.132724
0.165213
0.151560
0.140734
0.117733
0.108820
0.071668
0.036097
-0.030225
-0.074001
-0.111064
-0.154805
-0.142874
-0.157973
-0.148330
-0.128601
-0.093632
-0.058302
-0.015462
0.057194
0.085167
0.108540
0.114072
0.134640
0.099447
0.091348
0.056504
0.003944
-0.036940
-0.105827
-0.111872
-0.150411
-0.165965
-0.161950
-0.162176
-0.152987
-0.112615
-0.078758
-0.036791
0.011783
0.041704
0.066487
0.098957
0.125940
0.095697
0.039891
0.047944
0.024573
-0.038150
-0.092384
-0.125464
-0.142883
-0.153679
-0.177955
-0.176055
-0.133774
-0.083768
-0.051089
-0.026387
0.012884
0.049144
0.050789
0.086197
0.127350
0.107618
0.104595
0.023676
0.001211
-0.015440
-0.043036
-0.090415
-0.123971
-0.139065
-0.157084
-0.137661
-0.121059
-0.085559
-0.048179
-0.021633
0.005299
0.076259
0.102001
0.086442
0.111526
0.103545
0.092753
0.064502
0.022849
-0.013347
-0.057475
-0.095479
-0.130535
-0.195114
-0.194401
-0.162657
-0.125486
-0.066955
-0.025540
-0.004411
0.026364
0.104058
0.120843
0.120954
0.120616
0.102080
0.093586
0.061494
0.027997
0.002253
-0.050124
-0.098282
-0.137245
-0.172016
-0.149305
-0.145130
-0.120139
-0.074949
-0.039860
0.005866
0.038022
0.065458
0.091915
0.100825
0.097462
0.108299
0.098891
0.053828
0.014157
-0.022358
-0.037995
-0.076473
-0.128368
-0.157936
-0.179251
-0.184040
-0.172545
-0.104508
-0.064108
-0.013909
0.031637
0.089653
0.115622
0.114609
0.127730
0.099941
0.066734
0.047154
0.008124
-0.032220
-0.081827
-0.087307
-0.133291
-0.142943
-0.156315
-0.163373
-0.146189
-0.111566
-0.094719
-0.038785
0.028726
0.062722
0.106603
0.146125
0.157281
0.146053
0.100278
0.073982
0.006268
-0.034116
-0.068628
-0.108299
-0.150906
-0.176507
-0.179625
-0.155929
-0.131466
-0.106885
-0.069723
-0.030943
0.019664
0.061662
0.077759
0.140468
0.158793
0.136578
0.106633
0.067014
-0.001007
-0.045996
-0.043408
-0.127802
-0.174500
-0.175660
-0.185118
-0.169431
-0.132553
-0.135729
-0.107069
-0.066681
0.006077
0.045488
0.044701
0.083104
0.103533
0.075590
0.121840
0.069389
-0.004704
-0.058253
-0.089289
-0.127916
-0.133665
-0.166092
-0.233594
-0.207240
-0.204469
-0.134043
-0.082802
-0.036374
0.031490
0.099303
0.117081
0.112929
0.121770
0.130961
0.097935
0.050876
0.006024
-0.038527
-0.078294
-0.128767
-0.158390
-0.192961
-0.198448
-0.172453
-0.136728
-0.128115
-0.120279
-0.060052
0.001226
0.044047
0.095857
0.118258
0.163656
0.182819
0.107043
0.061790
-0.011726
-0.070313
-0.111934
-0.162620
-0.194448
-0.195364
-0.176735
-0.178314
-0.164090
-0.128484
-0.074951
-0.020157
0.017139
0.071973
0.098623
0.108798
0.124632
0.129117
0.095280
0.065850
0.006825
-0.053959
-0.097449
-0.126453
-0.158545
-0.187780
-0.181112
-0.143369
-0.151155
-0.095238
-0.064030
0.034096
0.082192
0.108080
0.130776
0.138059
0.154201
0.142436
0.114923
0.063505
0.017152
-0.031588
-0.079875
-0.105658
-0.143011
-0.162621
-0.178462
-0.132506
-0.094058
-0.068898
0.007544
0.058379
0.101029
0.122322
0.128429
0.174741
0.185559
0.181300
0.137492
0.103237
0.063742
-0.022687
-0.067181
-0.113418
-0.141138
-0.160162
-0.169413
-0.160696
-0.157287
-0.132993
-0.108851
-0.027173
0.028374
0.063830
0.086560
0.093363
0.109545
0.105080
0.079366
0.031362
0.004315
-0.047617
-0.094087
-0.143915
-0.193422
-0.201798
-0.215132
-0.208327
-0.154956
-0.088319
-0.034143
-0.000474
-0.010191
0.031775
0.066455
0.091089
0.095056
0.107525
0.047071
-0.020666
-0.039603
-0.061136
-0.120935
-0.184452
-0.215627
-0.227213
-0.223690
-0.193989
-0.186035
-0.135404
-0.103582
-0.077320
-0.061939
-0.017867
0.011927
0.050097
0.102679
0.074064
0.033115
-0.022276
-0.053885
-0.110832
-0.116614
-0.150068
-0.163597
-0.200874
-0.217203
-0.209722
-0.180189
-0.159347
-0.104846
-0.051577
-0.034225
0.007835
0.024361
0.035224
0.065552
0.051832
0.062541
0.026550
-0.008930
-0.084258
-0.137717
-0.159219
-0.186616
-0.211072
-0.222072
-0.209224
-0.201225
-0.155842
-0.121679
-0.074884
-0.032144
0.002085
0.031550
0.062015
0.070581
0.066316
0.045299
0.020525
-0.033490
-0.082174
-0.117277
-0.153083
-0.186820
-0.223720
-0.235770
-0.238272
-0.215236
-0.193980
-0.148619
-0.076033
-0.002750
0.019004
0.044186
0.040749
0.068847
0.083574
0.097966
0.100600
0.071133
0.027056
0.009118
-0.021101
-0.057630
-0.061663
-0.062672
-0.048694
0.017503
0.083200
0.134174
0.186864
0.262732
0.350525
0.424368
0.489042
0.516707
0.536488
0.578434
0.577384
0.570954
0.563482
0.544223
0.541716
0.507368
0.559815
0.591348
0.609798
0.623944
0.658642
0.682859
0.723259
0.750393
0.769721
0.777156
0.749838
0.722995
0.654224
0.571261
0.477019
0.383304
0.282144
0.177454
0.075369
0.024684
0.000044
-0.003678
-0.004584
-0.014219
0.004911
0.032744
0.066734
0.126732
0.189378
0.186499
0.201825
0.228707
0.180291
0.134670
0.105987
0.067323
-0.001404
-0.021494
-0.066308
-0.105396
-0.151097
-0.145105
-0.129319
-0.146731
-0.121319
-0.099107
-0.021036
0.029963
0.066753
0.108588
0.135612
0.138406
0.133290
0.129269
0.070891
0.025041
-0.021753
-0.070719
-0.106445
-0.132747
-0.177353
-0.196532
-0.177786
-0.156196
-0.128106
-0.092382
-0.025348
0.031532
0.079767
0.101801
0.103836
0.112698
0.110666
0.096231
0.068132
0.032658
-0.021258
-0.062619
-0.104628
-0.141216
-0.156419
-0.166143
-0.160278
-0.142145
-0.091908
-0.041521
-0.006709
0.011770
0.052369
0.109329
0.154460
0.122179
0.113908
0.104719
0.033386
0.019148
-0.029341
-0.074609
-0.111893
-0.148913
-0.172757
-0.180891
-0.176332
-0.146042
-0.096655
-0.054123
-0.036184
0.071956
0.102130
0.129662
0.132330
0.142428
0.135966
0.118203
0.084136
0.049785
-0.004786
-0.038505
-0.080212
-0.103882
-0.134674
-0.145032
-0.123209
-0.109187
-0.071000
0.002954
0.079807
0.104456
0.139541
0.159788
0.150024
0.171185
0.173973
0.166569
0.119095
0.057870
0.032884
-0.021353
-0.048740
-0.088049
-0.072320
-0.094549
-0.078866
-0.046757
-0.018626
0.026700
0.077569
0.135945
0.169150
0.187731
0.205351
0.231885
0.245266
0.225806
0.189982
0.123829
0.069062
0.016720
-0.032667
-0.058292
-0.091108
-0.104298
-0.064933
-0.000162
0.009851
0.017488
0.102699
0.143276
0.175447
0.221105
0.252750
0.242909
0.226939
0.208525
0.172905
0.135363
0.096882
0.019845
-0.052735
-0.066182
-0.063398
-0.084504
-0.047235
-0.005357
0.044721
0.065512
0.091718
0.144638
0.177092
0.198476
0.224877
0.219336
0.226287
0.205215
0.152438
0.117896
0.044642
0.008793
-0.010254
-0.028421
-0.043289
-0.068178
-0.056635
-0.025756
-0.007802
0.031083
0.057574
0.100642
0.154557
0.189787
0.178446
0.173169
0.199349
0.176920
0.091083
0.065451
0.053828
0.004014
-0.057465
-0.103185
-0.129039
-0.145329
-0.125633
-0.094125
-0.042762
-0.012307
0.023392
0.050655
0.128064
0.145579
0.150520
0.171943
0.142437
0.140093
0.118252
0.066709
0.013379
-0.046292
-0.103860
-0.138283
-0.135105
-0.111196
-0.130119
-0.118985
-0.078608
-0.057314
-0.023501
0.028137
0.079335
0.133181
0.161464
0.153636
0.129784
0.071736
0.021407
0.010649
-0.040762
-0.065043
-0.099241
-0.141818
-0.170097
-0.186909
-0.177564
-0.147497
-0.113727
-0.064990
-0.031379
0.032994
0.056002
0.079857
0.078406
0.093651
0.081248
0.050623
0.025273
0.004920
-0.053124
-0.112819
-0.158761
-0.166347
-0.192652
-0.179899
-0.164140
-0.146578
-0.126285
-0.070569
-0.023477
0.027317
0.043022
0.062743
0.074929
0.089204
0.099691
0.086718
0.039644
-0.001530
-0.037237
-0.084810
-0.138922
-0.174723
-0.191907
-0.179318
-0.152968
-0.133688
-0.102035
-0.071155
-0.032714
0.012333
0.036834
0.069574
0.083564
0.094071
0.078529
0.052066
0.043163
0.042027
0.010484
-0.043715
-0.092604
-0.157970
-0.193748
-0.185539
-0.153174
-0.117117
-0.098346
-0.057909
-0.011893
0.007631
0.058885
0.098769
0.095307
0.090308
0.090222
0.053979
0.018998
0.035467
0.004503
-0.019133
-0.075350
-0.125037
-0.161855
-0.157008
-0.139885
-0.129828
-0.111263
-0.089653
-0.045473
-0.005269
0.067255
0.097990
0.126357
0.152800
0.142175
0.105263
0.053483
0.034346
0.012750
-0.055818
-0.106250
-0.141814
-0.170082
-0.191565
-0.152714
-0.139496
-0.080686
-0.047886
-0.017663
0.028812
0.059160
0.117233
0.143381
0.155054
0.129037
0.100103
0.024693
-0.016314
-0.049125
-0.078849
-0.102237
-0.137824
-0.182663
-0.166267
-0.127686
-0.132521
-0.126759
-0.098773
-0.031698
0.026332
0.086532
0.128241
0.114164
0.096068
0.090561
0.099473
0.056429
0.019912
-0.042192
-0.085059
-0.147106
-0.188077
-0.229272
-0.218247
-0.173952
-0.130306
-0.090740
-0.051290
-0.031682
-0.012580
0.032839
0.076681
0.095362
0.134555
0.118335
0.084989
0.049967
0.003063
-0.080914
-0.124673
-0.146313
-0.163519
-0.222456
-0.152160
-0.110503
-0.107590
-0.088649
-0.066012
0.006900
0.047218
0.078078
0.094707
0.092792
0.091785
0.111938
0.087797
0.025263
-0.017740
-0.053090
-0.088963
-0.134209
-0.159213
-0.136554
-0.177000
-0.166292
-0.149213
-0.093394
-0.053821
-0.020712
0.010045
0.048293
0.081358
0.107774
0.121510
0.103242
0.069780
0.029619
-0.002064
-0.048589
-0.096183
-0.131451
-0.156824
-0.187248
-0.201573
-0.209074
-0.176089
-0.139179
-0.071811
-0.013724
-0.000475
0.015560
0.035568
0.065511
0.078473
0.119347
0.100948
0.056152
0.013237
-0.029209
-0.098681
-0.138376
-0.179110
-0.177359
-0.200095
-0.216018
-0.229309
-0.171408
-0.107499
-0.059411
0.006938
0.040864
0.056269
0.077600
0.082436
0.069946
0.065332
0.017072
-0.055969
-0.040643
-0.061962
-0.080397
-0.107431
-0.151308
-0.190328
-0.172962
-0.167348
-0.144748
-0.111310
-0.060735
0.017778
0.056063
0.113694
0.109586
0.120045
0.114966
0.059431
0.016849
0.013080
-0.051678
-0.041200
-0.102224
-0.154256
-0.187208
-0.170502
-0.176940
-0.116865
-0.088465
-0.060168
-0.019095
0.051170
0.097331
0.103693
0.121427
0.128859
0.128252
0.101972
0.061164
0.029812
-0.023103
-0.070913
-0.118179
-0.139609
-0.141541
-0.151351
-0.163813
-0.161398
-0.114333
-0.075434
-0.035016
0.014187
0.056624
0.099132
0.116709
0.144234
0.137224
0.124928
0.098373
0.049765
0.011103
-0.036875
-0.088809
-0.130389
-0.177281
-0.171482
-0.144974
-0.102380
-0.083094
-0.040919
0.002400
0.017159
0.059120
0.103305
0.167485
0.167364
0.135611
0.108962
0.068252
0.030079
-0.014193
-0.061548
-0.105958
-0.149995
-0.156528
-0.172043
-0.205665
-0.179583
-0.112599
-0.037470
0.014971
0.021412
0.033067
0.076453
0.084892
0.089999
0.101064
0.084298
0.042008
0.002968
-0.053213
-0.105744
-0.129366
-0.169879
-0.191103
-0.201656
-0.213018
-0.193446
-0.141325
-0.110415
-0.066904
0.002286
0.042535
0.056797
0.067510
0.062931
0.044059
0.019952
-0.004380
-0.041449
-0.080568
-0.113308
-0.139349
-0.185885
-0.255969
-0.266851
-0.213290
-0.185862
-0.138891
-0.094618
-0.043982
-0.014667
0.008164
0.034411
0.052657
0.075083
0.054231
0.012009
-0.014368
-0.034737
-0.078030
-0.148767
-0.166246
-0.189833
-0.217342
-0.236958
-0.211160
-0.190624
-0.160135
-0.128528
-0.073486
-0.032963
-0.013468
0.052167
0.066657
0.054099
0.056086
0.021781
0.003434
-0.025839
-0.087771
-0.137396
-0.187679
-0.210939
-0.236158
-0.231145
-0.229526
-0.178036
-0.175190
-0.117567
-0.063364
-0.025877
0.029129
0.059284
0.063303
0.062006
0.052692
0.035785
0.000764
-0.025182
-0.073930
-0.129761
-0.168624
-0.184347
-0.199266
-0.218445
-0.187824
-0.144727
-0.101568
-0.052385
0.024080
0.072398
0.141365
0.185826
0.200645
0.206854
0.206985
0.189117
0.196906
0.189129
0.140450
0.099030
0.108218
0.149967
0.170819
0.186392
0.240288
0.299643
0.367732
0.408278
0.520358
0.589753
0.687842
0.758827
0.784312
0.800399
0.826759
0.839433
0.802901
0.741543
0.688375
0.644431
0.600241
0.556145
0.512127
0.490136
0.452980
0.369331
0.340132
0.312982
0.335679
0.351003
0.353423
0.324400
0.292811
0.242957
0.233813
0.212212
0.192837
0.127311
0.064453
0.006975
-0.042428
-0.082299
-0.120810
-0.134778
-0.114334
-0.080337
-0.034391
0.002245
0.051456
0.072406
0.086145
0.139242
0.185098
0.184396
0.133723
0.095578
0.069977
0.042931
0.001183
-0.057190
-0.093323
-0.129620
-0.168961
-0.173530
-0.143495
-0.146973
-0.125165
-0.060119
-0.017803
0.020448
0.022245
0.074719
0.109376
0.080772
0.071452
0.043032
0.020689
-0.001095
-0.024743
-0.059798
-0.105170
-0.138618
-0.196058
-0.197921
-0.177352
-0.155886
-0.123133
-0.055198
0.017013
0.042015
0.061054
0.080909
0.095520
0.105901
0.082320
0.088125
0.057223
0.017302
-0.040116
-0.100118
-0.143287
-0.168833
-0.183994
-0.181756
-0.155833
-0.133007
-0.100744
-0.070569
-0.037517
0.017928
0.064345
0.089712
0.135370
0.129361
0.116331
0.083129
0.051133
0.027001
-0.000801
-0.045271
-0.084325
-0.134008
-0.154124
-0.159590
-0.139824
-0.113481
-0.088881
-0.056113
-0.012578
0.043542
0.093670
0.095974
0.148801
0.176694
0.140620
0.091849
0.070237
0.044519
0.026336
-0.015256
-0.078773
-0.111018
-0.115363
-0.112134
-0.098715
-0.069744
-0.039068
-0.019838
0.016593
0.075804
0.133546
0.160501
0.195383
0.182092
0.158236
0.140015
0.119553
0.087636
0.030328
0.007473
-0.033188
-0.062578
-0.087957
-0.077172
-0.060327
-0.046235
-0.021874
-0.011297
0.057163
0.097857
0.155536
0.169317
0.198003
0.182909
0.172387
0.155256
0.158558
0.124665
0.079439
0.019773
-0.028881
-0.041802
-0.053837
-0.065590
-0.049074
-0.039101
0.005391
0.053297
0.094019
0.137397
0.168849
0.194293
0.220414
0.228654
0.221147
0.185048
0.139937
0.100304
0.044730
0.017954
-0.020887
-0.061996
-0.083954
-0.087911
-0.075586
-0.058579
-0.030357
0.014599
0.068425
0.088625
0.118648
0.189013
0.233064
0.215675
0.203310
0.170254
0.110631
0.069847
0.016841
-0.025295
-0.061726
-0.080547
-0.077015
-0.092398
-0.088953
-0.086757
-0.060822
0.005048
0.049542
0.089652
0.127658
0.151403
0.128501
0.160644
0.173788
0.113930
0.083308
0.062470
-0.014998
-0.092703
-0.105186
-0.135379
-0.154312
-0.155496
-0.128805
-0.102572
-0.078739
-0.049389
-0.013161
0.017436
0.063206
0.104791
0.122194
0.122502
0.112832
0.094162
0.055396
0.017908
-0.027724
-0.101914
-0.161777
-0.172659
-0.158793
-0.172101
-0.178101
-0.151941
-0.102506
-0.064935
-0.018505
0.022642
0.056875
0.090563
0.096041
0.085934
0.080920
0.064794
0.027572
-0.014733
-0.075846
-0.092985
-0.132469
-0.148637
-0.183339
-0.208984
-0.195848
-0.163518
-0.143673
-0.096317
-0.039248
0.001020
0.028377
0.054793
0.061044
0.067133
0.053400
0.041513
0.011372
-0.031478
-0.104411
-0.171841
-0.176974
-0.165282
-0.142518
-0.142126
-0.166762
-0.187272
-0.151918
-0.101727
-0.049508
-0.019830
0.028726
0.064567
0.092240
0.112031
0.102803
0.056333
0.022242
-0.005281
-0.055962
-0.116633
-0.133456
-0.143407
-0.186261
-0.204256
-0.188547
-0.165284
-0.138803
-0.101566
-0.081210
-0.032224
0.010316
0.042877
0.081753
0.123648
0.112618
0.084819
0.065265
0.010287
-0.049303
-0.090059
-0.172215
-0.182032
-0.183374
-0.198289
-0.187816
-0.164463
-0.111847
-0.074358
-0.042301
0.007960
0.041205
0.076383
0.098818
0.086070
0.062045
0.041941
0.044237
0.021356
-0.036871
-0.108219
-0.148137
-0.169451
-0.185342
-0.176335
-0.173399
-0.151704
-0.111035
-0.109408
-0.054759
0.001215
0.043362
0.071367
0.109955
0.109430
0.113414
0.071942
0.012831
-0.015631
-0.079453
-0.129294
-0.128260
-0.138156
-0.165549
-0.190166
-0.191425
-0.183313
-0.152381
-0.091719
-0.042545
0.008586
0.032899
0.078438
0.089610
0.092339
0.090025
0.064636
0.021424
-0.031860
-0.072726
-0.108575
-0.147148
-0.183362
-0.192053
-0.211129
-0.175664
-0.130166
-0.117381
-0.106973
-0.053967
0.004772
0.046649
0.075402
0.081996
0.088517
0.084998
0.058505
0.007612
-0.050589
-0.083170
-0.116537
-0.147448
-0.150349
-0.167506
-0.180597
-0.183358
-0.158196
-0.130710
-0.092585
-0.054650
-0.010326
0.015544
0.058344
0.101526
0.090511
0.082848
0.071878
0.031858
-0.022747
-0.058369
-0.092875
-0.166090
-0.204720
-0.199521
-0.186913
-0.178250
-0.186062
-0.152333
-0.111645
-0.051848
-0.032693
0.009796
0.059197
0.086021
0.083207
0.070949
0.034689
0.006017
-0.022158
-0.058560
-0.110696
-0.154536
-0.185091
-0.222243
-0.231161
-0.212461
-0.189971
-0.145653
-0.100216
-0.096224
-0.028853
0.011297
0.041230
0.059974
0.051273
0.071930
0.061080
0.006890
-0.022638
-0.088174
-0.133479
-0.171729
-0.183069
-0.198089
-0.211557
-0.200577
-0.188275
-0.167910
-0.132899
-0.094326
-0.027580
0.020774
0.042657
0.081005
0.083449
0.066126
0.046929
0.033791
0.001916
-0.056550
-0.135265
-0.167709
-0.230599
-0.282301
-0.244186
-0.202354
-0.180500
-0.137687
-0.115830
-0.090313
-0.051612
0.000681
0.044578
0.060240
0.080404
0.064145
0.053128
0.020904
-0.027060
-0.060064
-0.112055
-0.167736
-0.200804
-0.219253
-0.231084
-0.219617
-0.189539
-0.159661
-0.120344
-0.074913
-0.037622
0.004269
0.014868
0.010740
0.060716
0.103749
0.086788
0.022872
-0.043884
-0.059981
-0.110747
-0.142126
-0.182960
-0.206956
-0.192296
-0.185981
-0.161610
-0.145047
-0.134599
-0.062524
-0.005135
0.024044
0.072444
0.101423
0.089890
0.072877
0.056264
0.033003
0.015738
-0.014343
-0.086337
-0.141907
-0.158292
-0.155542
-0.176218
-0.199203
-0.172050
-0.132790
-0.086314
-0.044229
-0.002637
0.025112
0.043109
0.093380
0.115510
0.086553
0.080072
0.057014
-0.007129
-0.032321
-0.060159
-0.111586
-0.158428
-0.180515
-0.176028
-0.165298
-0.124484
-0.093826
-0.071123
-0.031428
0.031392
0.076642
0.105147
0.149870
0.122561
0.081221
0.089875
0.053192
-0.016689
-0.055300
-0.098501
-0.131534
-0.158277
-0.188025
-0.178668
-0.152677
-0.143672
-0.130156
-0.112900
-0.083870
-0.020983
0.029737
0.080530
0.119319
0.101357
0.058991
0.027442
-0.005269
-0.042978
-0.085952
-0.130648
-0.178072
-0.205603
-0.220949
-0.202234
-0.187300
-0.175455
-0.158319
-0.133789
-0.052916
-0.014843
0.014848
0.024729
0.053581
0.045779
0.034848
0.012610
-0.016086
-0.072382
-0.115704
-0.167888
-0.191869
-0.211619
-0.226627
-0.242078
-0.253286
-0.232429
-0.199063
-0.134920
-0.097420
-0.060112
-0.019594
0.016140
0.061743
0.058371
0.055208
0.018175
-0.008031
-0.044001
-0.116742
-0.174567
-0.163836
-0.202057
-0.237939
-0.248770
-0.238600
-0.212733
-0.177593
-0.125280
-0.083573
-0.047494
-0.012194
0.006969
0.032207
0.035119
0.048010
0.028497
-0.009957
-0.048802
-0.091714
-0.120980
-0.185690
-0.222340
-0.240099
-0.251768
-0.242160
-0.209959
-0.186134
-0.145676
-0.088750
-0.064952
-0.032103
0.017740
0.056010
0.036737
0.068165
0.018089
-0.039464
-0.091879
-0.110143
-0.128420
-0.177735
-0.203544
-0.239579
-0.280030
-0.273684
-0.242478
-0.212719
-0.133754
-0.088969
-0.020238
0.029421
0.049199
0.088107
0.117088
0.114595
0.109520
0.097769
0.068387
0.055484
0.027678
-0.033446
-0.062576
-0.069085
-0.052156
-0.023114
0.049950
0.108727
0.182589
0.251840
0.332229
0.410994
0.461584
0.501868
0.556498
0.573462
0.600358
0.598476
0.577527
0.568614
0.570726
0.546490
0.531418
0.505431
0.516070
0.538856
0.566535
0.570079
0.580072
0.594900
0.622899
0.640418
0.618006
0.573462
0.520549
0.447172
0.391749
0.283742
0.182421
0.088279
0.006077
-0.056968
-0.066174
-0.095308
-0.103869
-0.093792
-0.081541
-0.057851
-0.019966
0.006086
0.049654
0.073496
0.103272
0.138088
0.161212
0.159657
0.129090
0.080740
0.016221
-0.023457
-0.075484
-0.100391
-0.124925
-0.157575
-0.169191
-0.163746
-0.171537
-0.146899
-0.090529
-0.037673
0.015901
0.072489
0.078340
0.031250
0.063238
0.072859
0.071657
0.019144
-0.019580
-0.066039
-0.102818
-0.147681
-0.170041
-0.171291
-0.192886
-0.210834
-0.162504
-0.121864
-0.100514
-0.065686
0.012743
0.061671
0.077732
0.072516
0.076946
0.063321
0.062511
0.044789
-0.003842
-0.054777
-0.088136
-0.115855
-0.152902
-0.195343
-0.194770
-0.176312
-0.161950
-0.144882
-0.100012
-0.026959
0.008440
0.046736
0.099971
0.120539
0.111160
0.089924
0.078510
0.031881
-0.004668
-0.047672
-0.083977
-0.140426
-0.173430
-0.184289
-0.164922
-0.172599
-0.153214
-0.122836
-0.079092
-0.028015
0.002426
0.075356
0.121462
0.157009
0.181371
0.157684
0.117220
0.105762
0.064473
0.009607
-0.053554
-0.098983
-0.130838
-0.143840
-0.166207
-0.148853
-0.134948
-0.100485
-0.039931
0.035757
0.063180
0.084354
0.109582
0.140066
0.152145
0.159229
0.096143
0.079598
0.025954
-0.001133
0.005104
-0.037067
-0.075286
-0.090795
-0.093772
-0.103449
-0.082234
-0.036589
0.004403
0.042333
0.089549
0.125922
0.152644
0.171110
0.183847
0.176690
0.173889
0.151589
0.097367
0.051435
-0.000694
-0.068138
-0.080790
-0.103530
-0.112079
-0.089885
-0.041555
-0.014918
0.006968
0.071737
0.135980
0.168659
0.207364
0.227590
0.197355
0.172334
0.158356
0.124299
0.092510
0.060919
0.018765
-0.010186
-0.058498
-0.077623
-0.103395
-0.094846
-0.063550
-0.019211
-0.002099
0.055197
0.090305
0.136352
0.169064
0.197876
0.212591
0.190627
0.140861
0.109492
0.080359
0.042529
0.018894
-0.011499
-0.065751
-0.067317
-0.095824
-0.107732
-0.069699
-0.034334
-0.023997
0.048405
0.089286
0.128338
0.159439
0.169731
0.169760
0.160168
0.133475
0.095792
0.068988
0.035209
-0.005323
-0.052441
-0.090273
-0.120395
-0.135751
-0.138831
-0.138648
-0.099747
-0.061203
0.002754
0.048053
0.095184
0.128041
0.135482
0.156434
0.142543
0.102199
0.067174
0.024852
0.000060
-0.074892
-0.139114
-0.148481
-0.145234
-0.181962
-0.202308
-0.173903
-0.148254
-0.094134
-0.051471
0.003004
0.026766
0.071730
0.100636
0.143317
0.121698
0.054742
0.021861
-0.015981
-0.084954
-0.097740
-0.130325
-0.187799
-0.230597
-0.227025
-0.210385
-0.188232
-0.154115
-0.125355
-0.061506
-0.024127
0.013618
0.029842
0.053694
0.055878
0.047446
0.036935
0.044068
0.012501
-0.049874
-0.129121
-0.167606
-0.186520
-0.227123
-0.216270
-0.211134
-0.188642
-0.140369
-0.092559
-0.040546
0.013057
0.058915
0.070423
0.092792
0.089865
0.078740
0.053493
0.013299
-0.038528
-0.074376
-0.117971
-0.137733
-0.169550
-0.192993
-0.213372
-0.199877
-0.198754
-0.155941
-0.061545
-0.015077
-0.008946
0.037248
0.070232
0.100677
0.099795
0.073175
0.045354
-0.009734
-0.038893
-0.089209
-0.128686
-0.135938
-0.161119
-0.196366
-0.211193
-0.194900
-0.176670
-0.144942
-0.093530
-0.035851
-0.001477
0.058209
0.081160
0.106415
0.099289
0.080252
0.052435
0.058293
0.019043
-0.054740
-0.083874
-0.133506
-0.174481
-0.188239
-0.198877
-0.175917
-0.172723
-0.153887
-0.070678
-0.030848
-0.018619
0.021753
0.050574
0.089070
0.093486
0.086236
0.062714
0.012694
-0.039573
-0.066999
-0.095686
-0.118391
-0.156111
-0.184264
-0.191544
-0.190038
-0.156660
-0.129850
-0.087058
-0.036263
-0.010587
-0.000003
0.017389
0.052671
0.073727
0.079658
0.035051
-0.004858
-0.031533
-0.051032
-0.082677
-0.139048
-0.178283
-0.191956
-0.159974
-0.149532
-0.108914
-0.092665
-0.084291
-0.036009
0.024206
0.026687
0.080362
0.107811
0.095464
0.079472
0.031995
-0.002395
-0.030746
-0.064816
-0.065513
-0.121008
-0.140817
-0.178131
-0.218416
-0.226872
-0.196411
-0.158140
-0.100983
-0.013725
0.045564
0.055961
0.058271
0.082300
0.071614
0.044197
0.027284
0.025086
0.005600
-0.053944
-0.102841
-0.153571
-0.181209
-0.190270
-0.212358
-0.200503
-0.171722
-0.142569
-0.116605
-0.076246
-0.027160
0.042086
0.078350
0.079755
0.071236
0.068661
0.050912
0.021932
-0.043283
-0.066219
-0.083005
-0.131216
-0.162387
-0.200476
-0.243419
-0.213403
-0.204396
-0.147983
-0.107766
-0.077047
-0.047460
0.012003
0.068411
0.104515
0.089982
0.066270
0.024755
0.011772
-0.056602
-0.083471
-0.106574
-0.138561
-0.154439
-0.210242
-0.211953
-0.201139
-0.179719
-0.129094
-0.095598
-0.064553
-0.037068
-0.008968
0.016883
0.053975
0.068426
0.064829
0.042625
0.009977
-0.019894
-0.072770
-0.124492
-0.161121
-0.206774
-0.228589
-0.235720
-0.214224
-0.195062
-0.161991
-0.119268
-0.051634
-0.005855
0.034544
0.085607
0.088699
0.079733
0.065744
0.041171
-0.004150
-0.037527
-0.075310
-0.107397
-0.144878
-0.172954
-0.181610
-0.216944
-0.236008
-0.201779
-0.145243
-0.099738
-0.078411
-0.011136
0.047628
0.078730
0.102455
0.117231
0.100048
0.079666
0.042158
-0.006042
-0.066466
-0.100716
-0.115622
-0.147894
-0.182046
-0.194461
-0.170885
-0.141477
-0.131182
-0.088789
-0.039256
0.024045
0.056750
0.086427
0.111219
0.110091
0.125322
0.100498
0.048963
0.011746
-0.023885
-0.060289
-0.115362
-0.159572
-0.174388
-0.176004
-0.168929
-0.169361
-0.161851
-0.092843
-0.031604
0.043422
0.080576
0.090144
0.130774
0.127430
0.116078
0.101662
0.069679
0.039239
-0.013713
-0.051913
-0.115515
-0.152476
-0.184311
-0.197871
-0.175508
-0.146345
-0.118173
-0.101789
-0.079347
-0.029782
0.025473
0.067053
0.098244
0.108069
0.080572
0.064850
0.026013
-0.023906
-0.082134
-0.115361
-0.161347
-0.187547
-0.225712
-0.227274
-0.229003
-0.214034
-0.175178
-0.090565
-0.035275
-0.008184
0.013141
0.036720
0.040889
0.069056
0.054007
0.051355
-0.007858
-0.066080
-0.127092
-0.159755
-0.234197
-0.230976
-0.221955
-0.217786
-0.219210
-0.194302
-0.175057
-0.114540
-0.069632
-0.028187
0.010773
0.035926
0.082634
0.065007
0.050042
0.018164
-0.026240
-0.059229
-0.097491
-0.148354
-0.192502
-0.209008
-0.232890
-0.241531
-0.233138
-0.215615
-0.202082
-0.162717
-0.088832
-0.037377
0.007407
0.003077
0.006214
0.010091
0.054433
0.014306
-0.019425
-0.057267
-0.090932
-0.154280
-0.171801
-0.183001
-0.197094
-0.233796
-0.243686
-0.214954
-0.183447
-0.144536
-0.064426
-0.065092
-0.032299
0.023907
0.045329
0.032571
0.025420
-0.006170
-0.034232
-0.079446
-0.108676
-0.118024
-0.153693
-0.181399
-0.252583
-0.275374
-0.285633
-0.253873
-0.187207
-0.121759
-0.080243
-0.029806
0.011470
0.043056
0.046369
0.048466
0.091010
0.080947
0.049340
0.040902
0.039363
-0.001257
-0.028724
-0.053763
-0.068196
-0.065266
-0.034211
0.005279
0.019487
0.076368
0.187734
0.244489
0.303684
0.371022
0.403143
0.446300
0.498288
0.510977
0.506234
0.485166
0.493061
0.479335
0.455036
0.468094
0.484402
0.511376
0.516632
0.527272
0.576614
0.618042
0.662774
0.704075
0.738302
0.737598
0.701164
0.632519
0.536083
0.445867
0.381879
0.301519
0.200222
0.128447
0.074237
-0.003623
-0.059491
-0.101735
-0.076397
-0.069148
-0.054924
-0.038103
-0.001139
0.039791
0.080112
0.113369
0.144229
0.147644
0.154957
0.110503
0.060518
0.013353
-0.021061
-0.051906
-0.095389
-0.144581
-0.174936
-0.153039
-0.163262
-0.144330
-0.113889
-0.083426
-0.051750
-0.001942
0.023588
0.056372
0.102800
0.118077
0.093576
0.066756
-0.010940
-0.063160
-0.078935
-0.085602
-0.099615
-0.119225
-0.154520
-0.186485
-0.183166
-0.148013
-0.130861
-0.100447
-0.063303
-0.030135
0.026169
0.062735
0.097440
0.101563
0.091179
0.073029
0.033925
-0.014552
-0.047435
-0.083119
-0.100958
-0.140876
-0.165919
-0.193582
-0.188644
-0.142236
-0.104295
-0.076703
-0.047173
-0.007524
0.028206
0.079597
0.098378
0.100365
0.091825
0.071152
0.033963
0.019826
-0.036642
-0.064968
-0.095506
-0.138547
-0.175783
-0.183915
-0.165077
-0.152422
-0.072179
-0.041183
-0.040435
0.004247
0.034097
0.076561
0.104589
0.117487
0.105180
0.088213
0.075695
0.036335
-0.032056
-0.070555
-0.115125
-0.131850
-0.155209
-0.162468
-0.134411
-0.113761
-0.066930
-0.038744
0.022938
0.080353
0.131143
0.129471
0.131658
0.148951
0.154569
0.155448
0.123929
0.097661
0.035165
-0.007522
-0.058548
-0.079775
-0.096673
-0.149926
-0.132119
-0.093172
-0.030437
0.043282
0.073815
0.081856
0.119483
0.166730
0.196405
0.216340
0.210485
0.169546
0.148801
0.116080
0.057746
0.014246
-0.026671
-0.070910
-0.091200
-0.082592
-0.088751
-0.074881
-0.039938
0.025912
0.058935
0.138264
0.212298
0.227515
0.229529
0.241918
0.228869
0.201196
0.178284
0.127578
0.063679
0.017911
-0.030448
-0.066160
-0.088484
-0.079844
-0.102991
-0.067062
-0.063459
-0.022300
0.037343
0.117522
0.161393
0.176475
0.177748
0.213754
0.202824
0.198367
0.146105
0.071344
0.026133
0.002353
-0.020083
-0.104989
-0.154332
-0.129379
-0.100096
-0.087683
-0.033656
0.015581
0.072126
0.103934
0.164495
0.188595
0.188352
0.182995
0.188459
0.159332
0.126134
0.081480
0.019852
-0.038595
-0.077569
-0.119797
-0.146159
-0.157071
-0.149633
-0.129924
-0.085981
-0.028715
0.043417
0.096166
0.103989
0.139068
0.138992
0.139465
0.152373
0.155306
0.100677
0.019022
-0.041059
-0.095363
-0.121837
-0.137311
-0.185176
-0.170862
-0.124527
-0.104117
-0.113988
-0.082782
-0.028891
0.012557
0.061685
0.080160
0.101927
0.110650
0.094890
0.063345
0.043762
0.006097
-0.027100
-0.103505
-0.180378
-0.214196
-0.239597
-0.229577
-0.188326
-0.182772
-0.163881
-0.089861
-0.025792
-0.005428
0.029481
0.049609
0.050353
0.036031
0.041628
0.062948
0.057037
0.005255
-0.065707
-0.126259
-0.166415
-0.173140
-0.190544
-0.202460
-0.200877
-0.187360
-0.167845
-0.154801
-0.088500
-0.043086
0.006309
0.040996
0.061642
0.070836
0.072136
0.079975
0.064090
-0.007773
-0.063583
-0.084933
-0.122638
-0.153758
-0.176499
-0.183122
-0.183860
-0.156345
-0.112132
-0.072167
-0.037423
0.016423
0.046182
0.072935
0.072094
0.073011
0.063916
0.053629
0.037858
0.002805
-0.051618
-0.098403
-0.161123
-0.180571
-0.196109
-0.204294
-0.195128
-0.171860
-0.132920
-0.086596
-0.048582
-0.014604
0.013473
0.080062
0.098597
0.103575
0.065057
0.048391
0.039900
0.018270
-0.029817
-0.075703
-0.150530
-0.177340
-0.206805
-0.190495
-0.188189
-0.169692
-0.140770
-0.128310
-0.054483
-0.017691
0.010824
0.051607
0.090346
0.110220
0.144792
0.107669
0.062165
0.010137
-0.035347
-0.087352
-0.132776
-0.145943
-0.134002
-0.147914
-0.169258
-0.184894
-0.157176
-0.108820
-0.080025
-0.009827
0.076268
0.119154
0.077017
0.098262
0.114423
0.036296
-0.004973
-0.001313
-0.034682
-0.061126
-0.114684
-0.176070
-0.197530
-0.199262
-0.199625
-0.175786
-0.123636
-0.100832
-0.021283
-0.004197
0.010154
0.066377
0.088822
0.105359
0.101057
0.055164
0.022682
-0.023297
-0.068537
-0.104730
-0.151503
-0.192401
-0.192583
-0.205430
-0.217998
-0.205904
-0.152489
-0.088982
0.000223
0.045313
0.075610
0.079467
0.099327
0.105128
0.070734
0.053806
0.016197
-0.038133
-0.072561
-0.092962
-0.130657
-0.156036
-0.181235
-0.205830
-0.189430
-0.192577
-0.173385
-0.139308
-0.097477
-0.053342
0.037323
0.057810
0.114320
0.126867
0.083373
0.053520
0.019385
-0.019476
-0.106564
-0.137674
-0.158029
-0.197364
-0.214730
-0.257563
-0.260182
-0.196144
-0.133764
-0.059055
-0.029598
-0.018150
0.030441
0.039447
0.055734
0.094618
0.061730
0.066026
0.037401
-0.073062
-0.169290
-0.199998
-0.178934
-0.125983
-0.153675
-0.203841
-0.211721
-0.198402
-0.139070
-0.085989
-0.058255
-0.058538
-0.022297
0.036617
0.062577
0.077692
0.058752
0.058422
-0.004029
-0.007339
-0.054747
-0.125244
-0.166854
-0.189442
-0.193309
-0.207274
-0.197387
-0.153056
-0.114168
-0.113168
-0.087200
-0.015531
0.027888
0.044735
0.053020
0.083207
0.055220
0.032697
-0.000011
-0.013884
-0.052809
