0.006161
0.059191
0.100599
0.134179
0.160556
0.165348
0.179283
0.150157
0.119790
0.069195
0.019362
-0.020149
-0.073552
-0.123592
-0.154256
-0.148656
-0.140445
-0.132798
-0.103693
-0.064717
-0.016022
0.053441
0.086070
0.113954
0.142800
0.143974
0.145415
0.122877
0.092341
0.036025
-0.011332
-0.059188
-0.109989
-0.148215
-0.177839
-0.196848
-0.197299
-0.173155
-0.144987
-0.107811
-0.057266
-0.017806
0.021828
0.060354
0.095929
0.113605
0.111513
0.091742
0.064790
0.017192
-0.040362
-0.091406
-0.121485
-0.147266
-0.168934
-0.183457
-0.192046
-0.183006
-0.152538
-0.113498
-0.081394
-0.035430
0.013533
0.047114
0.077705
0.083053
0.075410
0.064971
0.046368
0.002943
-0.060787
-0.109742
-0.147822
-0.184732
-0.203412
-0.216931
-0.210207
-0.188890
-0.159906
-0.103234
-0.052321
-0.025638
-0.016855
0.022159
0.056813
0.082480
0.080375
0.065280
0.023569
-0.008958
-0.062550
-0.107113
-0.140665
-0.166557
-0.195189
-0.201239
-0.188091
-0.179136
-0.148733
-0.109829
-0.073961
-0.024066
0.010383
0.037387
0.059717
0.071297
0.079574
0.040856
-0.010655
-0.039481
-0.072855
-0.120787
-0.160241
-0.189309
-0.199639
-0.211591
-0.211394
-0.183903
-0.145582
-0.097323
-0.060677
-0.032739
0.007843
0.039188
0.054858
0.076783
0.067948
0.049911
0.010056
-0.029838
-0.071464
-0.101245
-0.124530
-0.141697
-0.136486
-0.122604
-0.095917
-0.058567
-0.020897
0.023639
0.108079
0.186331
0.235964
0.286443
0.332824
0.358438
0.392830
0.412308
0.412377
0.402887
0.387456
0.368799
0.356859
0.342561
0.365928
0.403642
0.459162
0.532587
0.594234
0.674950
0.759583
0.842940
0.882479
0.911837
0.931579
0.930920
0.890296
0.851926
0.794380
0.716768
0.607087
0.482076
0.366653
0.269787
0.191795
0.132499
0.095478
0.064344
0.076416
0.099301
0.137470
0.180847
0.228348
0.237188
0.261024
0.261472
0.241044
0.205875
0.160777
0.116345
0.051578
-0.000641
-0.047324
-0.087794
-0.123607
-0.129299
-0.125438
-0.108278
-0.086438
-0.047765
-0.005993
0.042084
0.078259
0.121633
0.135150
0.189434
0.183485
0.127585
0.092353
0.054920
0.011905
-0.041585
-0.089716
-0.126676
-0.155789
-0.172287
-0.174603
-0.168423
-0.135447
-0.106154
-0.060391
-0.015637
0.038150
0.086967
0.126757
0.141341
0.137470
0.115353
0.077173
0.037029
-0.006179
-0.049859
-0.102646
-0.124963
-0.147465
-0.163036
-0.158850
-0.140370
-0.119705
-0.093454
-0.038027
0.015714
0.053323
0.091926
0.122037
0.127185
0.125859
0.111331
0.082485
0.042278
0.002265
-0.056485
-0.091885
-0.118013
-0.136387
-0.134970
-0.137246
-0.121149
-0.075870
-0.041026
0.008704
0.049774
0.098001
0.118692
0.139991
0.138057
0.125314
0.110065
0.088986
0.037015
0.012481
-0.024619
-0.075913
-0.100378
-0.113839
-0.118619
-0.113296
-0.086634
-0.052052
-0.016845
0.029001
0.074292
0.111846
0.151441
0.163024
0.167130
0.159554
0.143857
0.116413
0.076095
0.037235
-0.003104
-0.044592
-0.083302
-0.096795
-0.090005
-0.075657
-0.055797
-0.021282
0.025712
0.082762
0.124459
0.165933
0.208130
0.223584
0.231158
0.214339
0.179665
0.139773
0.115712
0.068388
0.015550
-0.032365
-0.060505
-0.078732
-0.083310
-0.075861
-0.033477
0.024765
0.058039
0.097320
0.150553
0.203981
0.233127
0.261002
0.270481
0.247715
0.221536
0.188145
0.169624
0.102208
0.042097
-0.008660
-0.043758
-0.073907
-0.085203
-0.078063
-0.050670
-0.000692
0.062780
0.108325
0.157976
0.212436
0.246224
0.260914
0.271485
0.261798
0.242182
0.210338
0.157280
0.100400
0.058299
0.018380
-0.015525
-0.049922
-0.089557
-0.100832
-0.066657
-0.003901
0.026558
0.072138
0.111416
0.168411
0.208739
0.226669
0.231857
0.225064
0.212828
0.188945
0.142032
0.110674
0.043293
-0.014717
-0.047941
-0.071566
-0.075281
-0.068279
-0.075745
-0.042816
-0.020296
0.023403
0.069741
0.115592
0.145859
0.164758
0.177699
0.178445
0.161160
0.138925
0.101657
0.037196
-0.025383
-0.057296
-0.069907
-0.088234
-0.125655
-0.132424
-0.109617
-0.080985
-0.032847
-0.002032
0.033059
0.079892
0.096775
0.114570
0.106153
0.102629
0.100013
0.056011
0.047024
-0.008622
-0.057210
-0.098763
-0.147549
-0.168782
-0.160043
-0.144314
-0.135824
-0.101953
-0.070393
-0.033447
0.019680
0.059707
0.080519
0.102592
0.099814
0.092651
0.093258
0.052440
0.006012
-0.051400
-0.099304
-0.141023
-0.166068
-0.190052
-0.188795
-0.174881
-0.161310
-0.118625
-0.059729
-0.021164
0.022661
0.067550
0.086110
0.110554
0.110047
0.101846
0.082493
0.042733
-0.005817
-0.055742
-0.098647
-0.123721
-0.166622
-0.199589
-0.206401
-0.197300
-0.175275
-0.130426
-0.089324
-0.038159
0.013255
0.060135
0.089061
0.102187
0.111490
0.102675
0.077938
0.059833
0.040186
-0.006779
-0.079554
-0.138997
-0.163102
-0.179612
-0.195418
-0.193069
-0.171280
-0.136338
-0.079433
-0.027829
0.006494
0.049560
0.093459
0.115914
0.123779
0.131546
0.116641
0.088361
0.021256
-0.022381
-0.081271
-0.118381
-0.155419
-0.184127
-0.197836
-0.175451
-0.159314
-0.146648
-0.074541
-0.025757
0.006897
0.046080
0.087215
0.117459
0.139243
0.125405
0.099511
0.071413
0.031692
-0.010076
-0.053461
-0.076364
-0.112382
-0.147740
-0.164034
-0.169703
-0.150494
-0.116053
-0.084642
-0.047390
0.011320
0.050613
0.090993
0.101081
0.104336
0.099650
0.075934
0.047388
0.005767
-0.023210
-0.074307
-0.111388
-0.141009
-0.156510
-0.168745
-0.169062
-0.145249
-0.116170
-0.074651
-0.023027
0.019996
0.048763
0.073442
0.085179
0.107722
0.111259
0.079373
0.038920
0.007802
-0.038595
-0.070698
-0.098062
-0.140540
-0.154736
-0.194022
-0.183342
-0.152769
-0.124176
-0.096565
-0.041324
0.006167
0.055588
0.083008
0.098887
0.094812
0.095257
0.082794
0.049533
0.007650
-0.048051
-0.096699
-0.137841
-0.163625
-0.182695
-0.190501
-0.201210
-0.149782
-0.114131
-0.066621
-0.028902
0.021348
0.066536
0.092422
0.117062
0.117777
0.107246
0.078345
0.040028
0.001312
-0.046754
-0.113965
-0.151411
-0.193377
-0.212382
-0.216347
-0.208534
-0.182873
-0.150595
-0.102506
-0.046831
-0.013042
0.032974
0.066725
0.095164
0.099435
0.102193
0.097429
0.053129
0.004091
-0.039424
-0.094193
-0.135961
-0.168552
-0.203911
-0.217028
-0.201055
-0.181910
-0.152019
-0.119251
-0.072449
-0.035392
0.025023
0.070963
0.089331
0.099514
0.101278
0.076263
0.059592
0.019568
-0.032156
-0.092123
-0.135522
-0.185318
-0.206027
-0.219115
-0.216210
-0.203212
-0.177430
-0.137802
-0.085368
-0.036307
0.008985
0.048662
0.079053
0.082500
0.074838
0.062628
0.035868
0.002291
-0.036504
-0.088581
-0.137473
-0.171193
-0.197949
-0.204037
-0.198555
-0.182237
-0.159510
-0.131978
-0.085054
-0.045595
-0.001773
0.013994
0.034005
0.066273
0.064543
0.048071
0.027727
-0.005729
-0.052004
-0.099538
-0.136427
-0.165355
-0.191405
-0.195337
-0.174768
-0.156809
-0.142637
-0.093040
-0.040669
-0.004374
0.030505
0.053030
0.055351
0.078650
0.060946
0.039124
0.012868
-0.027915
-0.074331
-0.115751
-0.148354
-0.189355
-0.213322
-0.221668
-0.178688
-0.161471
-0.147658
-0.101954
-0.063634
-0.015023
0.017590
0.051673
0.070238
0.074074
0.082235
0.078594
0.021953
-0.041994
-0.092005
-0.126744
-0.165678
-0.187324
-0.209105
-0.227561
-0.220281
-0.201056
-0.165601
-0.105013
-0.049841
-0.016502
0.038513
0.070500
0.093517
0.103569
0.080069
0.056392
0.023204
-0.020628
-0.076561
-0.140014
-0.172363
-0.216490
-0.227070
-0.226729
-0.216196
-0.192521
-0.170755
-0.112710
-0.064195
-0.015810
0.039817
0.087826
0.111355
0.116964
0.114217
0.092874
0.070335
0.021365
-0.023128
-0.075513
-0.124789
-0.169274
-0.196002
-0.208869
-0.197492
-0.173156
-0.150254
-0.105603
-0.054620
0.005689
0.059540
0.097754
0.119662
0.123700
0.120039
0.090786
0.072389
0.037519
-0.005325
-0.060424
-0.104045
-0.142416
-0.169536
-0.181296
-0.173566
-0.154019
-0.137987
-0.097240
-0.052549
-0.008689
0.058849
0.097256
0.122893
0.144725
0.145878
0.124248
0.091711
0.042034
-0.017824
-0.047765
-0.101828
-0.126651
-0.148404
-0.176919
-0.194737
-0.177195
-0.154608
-0.105949
-0.059995
-0.015755
0.022465
0.048187
0.078913
0.107173
0.087420
0.049462
0.027949
-0.010006
-0.065950
-0.097987
-0.140934
-0.160061
-0.183892
-0.207317
-0.224259
-0.185274
-0.139867
-0.115066
-0.078607
-0.041473
-0.013728
0.028666
0.060004
0.063092
0.058341
0.029011
0.000043
-0.041528
-0.091895
-0.140524
-0.186756
-0.214195
-0.231681
-0.236632
-0.230176
-0.212873
-0.180856
-0.131175
-0.088177
-0.038039
-0.002585
0.033375
0.051871
0.058922
0.049002
0.021398
-0.014921
-0.058092
-0.096144
-0.137734
-0.198393
-0.224073
-0.234696
-0.237768
-0.228700
-0.217914
-0.190861
-0.140431
-0.094806
-0.042107
-0.001026
0.036833
0.063883
0.068365
0.055673
0.025630
0.000284
-0.054701
-0.111821
-0.147388
-0.197186
-0.232658
-0.259588
-0.269371
-0.259820
-0.224787
-0.195446
-0.152061
-0.093705
-0.048413
0.000911
0.032756
0.064177
0.076385
0.080401
0.052318
0.010185
-0.056805
-0.097556
-0.138264
-0.193774
-0.216317
-0.250809
-0.262102
-0.265862
-0.251408
-0.216914
-0.172695
-0.121603
-0.058813
0.004065
0.055253
0.095319
0.118172
0.114800
0.110793
0.087943
0.076008
0.031965
0.000663
-0.040853
-0.070498
-0.080111
-0.059233
-0.028364
0.010102
0.063318
0.130494
0.214375
0.311018
0.402989
0.475228
0.528689
0.578600
0.603134
0.610631
0.632944
0.647334
0.656705
0.635431
0.608698
0.611344
0.612258
0.603451
0.592481
0.616759
0.647800
0.656138
0.699165
0.712974
0.727132
0.704931
0.655050
0.598212
0.535717
0.471324
0.398886
0.301798
0.202256
0.119431
0.046521
-0.002548
-0.026130
-0.040629
-0.051967
-0.047898
-0.029459
-0.007424
0.015228
0.046491
0.076667
0.105406
0.129053
0.141489
0.131585
0.124395
0.095292
0.054706
0.004371
-0.045067
-0.093272
-0.132613
-0.159132
-0.162713
-0.148835
-0.127109
-0.099072
-0.071688
-0.045440
-0.002193
0.055895
0.088532
0.098462
0.096196
0.082336
0.060712
0.028051
-0.009512
-0.058402
-0.102785
-0.154788
-0.172982
-0.194247
-0.190141
-0.174255
-0.175493
-0.157138
-0.113095
-0.063399
-0.003588
0.063677
0.099349
0.097114
0.083314
0.060750
0.064031
0.053037
0.002332
-0.066356
-0.112227
-0.158974
-0.183389
-0.201231
-0.212536
-0.204361
-0.171786
-0.136778
-0.095018
-0.054009
-0.011075
0.035144
0.077665
0.106979
0.122881
0.121006
0.086190
0.053967
0.012877
-0.053247
-0.103977
-0.146179
-0.164692
-0.178460
-0.188616
-0.185319
-0.168498
-0.131334
-0.086957
-0.035153
0.008415
0.061109
0.098213
0.128419
0.126227
0.112534
0.102533
0.078787
0.043895
-0.005391
-0.058600
-0.084466
-0.109215
-0.140243
-0.161090
-0.157935
-0.145189
-0.111969
-0.063773
-0.014973
0.028771
0.080881
0.124378
0.156954
0.181435
0.178278
0.163056
0.134612
0.089116
0.033726
-0.012568
-0.049984
-0.083805
-0.096595
-0.114737
-0.124348
-0.110467
-0.080318
-0.044609
0.001635
0.060816
0.107353
0.129572
0.174946
0.179304
0.182596
0.191457
0.172519
0.137450
0.074436
0.004502
-0.010303
-0.039096
-0.069734
-0.073425
-0.076540
-0.063507
-0.035931
-0.003100
0.036374
0.082772
0.121300
0.171339
0.191151
0.196508
0.207124
0.185926
0.150478
0.122885
0.065764
0.028281
-0.016831
-0.038285
-0.060387
-0.068020
-0.069553
-0.054199
-0.027927
0.015644
0.059880
0.096581
0.136429
0.167097
0.186513
0.202841
0.186628
0.147807
0.114390
0.090699
0.046057
0.009279
-0.018193
-0.068701
-0.090741
-0.087518
-0.080819
-0.074807
-0.041741
0.003833
0.055745
0.101748
0.139559
0.174740
0.191244
0.180528
0.169605
0.136723
0.090085
0.057680
0.015284
-0.036167
-0.089915
-0.126310
-0.146338
-0.142504
-0.129439
-0.105817
-0.074305
-0.040116
-0.002467
0.042042
0.091505
0.115012
0.151814
0.152967
0.134930
0.113913
0.070488
0.022307
-0.031870
-0.073940
-0.133882
-0.178661
-0.209278
-0.206946
-0.192594
-0.170437
-0.137487
-0.093788
-0.047210
-0.002381
0.038913
0.082193
0.110613
0.112233
0.100061
0.081904
0.048723
0.001974
-0.045265
-0.104383
-0.162578
-0.194893
-0.218012
-0.228041
-0.216336
-0.190777
-0.170044
-0.155013
-0.104808
-0.059714
-0.015053
0.069594
0.092542
0.103154
0.083056
0.057165
0.027764
0.005433
-0.034061
-0.087717
-0.137054
-0.198861
-0.225222
-0.235765
-0.232068
-0.224224
-0.189495
-0.151702
-0.106580
-0.058345
-0.014729
0.024880
0.045772
0.047532
0.050894
0.039437
0.015245
-0.018395
-0.059468
-0.102468
-0.137391
-0.178184
-0.205125
-0.213131
-0.208192
-0.202130
-0.172057
-0.139047
-0.079886
-0.033187
0.003523
0.043023
0.058811
0.070925
0.066712
0.040529
0.006710
-0.018567
-0.068560
-0.105567
-0.137207
-0.166322
-0.191511
-0.206102
-0.198638
-0.183171
-0.147865
-0.109920
-0.073929
-0.033719
-0.002385
0.034786
0.062723
0.065086
0.052214
0.026456
-0.010319
-0.049838
-0.083322
-0.122100
-0.138557
-0.170619
-0.187607
-0.195657
-0.190746
-0.183939
-0.154016
-0.114946
-0.029184
0.020423
0.037870
0.060806
0.077663
0.081291
0.068176
0.038115
0.003713
-0.052201
-0.067570
-0.123389
-0.161446
-0.199649
-0.204394
-0.214907
-0.195051
-0.181314
-0.150285
-0.114833
-0.058147
-0.001141
0.045513
0.072830
0.098748
0.095627
0.084834
0.053000
0.007376
-0.044095
-0.092914
-0.138734
-0.171255
-0.211809
-0.238882
-0.237941
-0.217326
-0.198182
-0.170976
-0.128490
-0.091314
-0.025146
0.025070
0.067132
0.090951
0.092976
0.083780
0.069710
0.045678
-0.001614
-0.059752
-0.133258
-0.177994
-0.201183
-0.218809
-0.221648
-0.225655
-0.209403
-0.182447
-0.139840
-0.092743
-0.040452
0.004106
0.037716
0.073813
0.078218
0.076423
0.048544
0.024489
-0.010651
-0.057719
-0.105154
-0.153350
-0.198271
-0.220466
-0.231785
-0.236089
-0.222153
-0.189739
-0.164143
-0.107064
-0.053705
-0.021186
0.014308
0.049298
0.056857
0.056641
0.040052
0.004443
-0.036508
-0.069332
-0.127274
-0.173566
-0.217054
-0.232139
-0.228548
-0.207468
-0.189274
-0.167921
-0.130533
-0.097147
-0.063404
-0.012427
0.001627
0.018746
0.031598
0.032503
0.013752
-0.002921
-0.032253
-0.073861
-0.132357
-0.173510
-0.209755
-0.230679
-0.208833
-0.213399
-0.207787
-0.167348
-0.126713
-0.083965
-0.057764
-0.030788
-0.002208
0.024906
0.028015
0.025145
-0.012408
-0.033786
-0.059809
-0.105698
-0.145933
-0.183461
-0.205965
-0.224239
-0.222913
-0.224534
-0.186942
-0.158132
-0.136475
-0.090565
-0.037588
0.007539
0.036984
0.050227
0.050996
0.033483
0.019830
-0.013097
-0.058182
-0.109700
-0.166895
-0.199278
-0.212516
-0.232432
-0.252205
-0.244129
-0.219179
-0.180874
-0.137543
-0.086099
-0.043728
0.004025
0.031509
0.037039
0.055839
0.043125
0.016387
-0.027896
-0.066189
-0.112667
-0.160673
-0.206006
-0.240607
-0.253626
-0.249331
-0.235081
-0.228824
-0.199459
-0.152090
-0.095068
-0.046166
-0.003693
0.037239
0.053870
0.070923
0.056445
0.027127
-0.017164
-0.066303
-0.104564
-0.168304
-0.213139
-0.236995
-0.250765
-0.256262
-0.251075
-0.231317
-0.200523
-0.163657
-0.106588
-0.048037
-0.014163
0.020660
0.056200
0.063549
0.053174
0.033699
-0.010140
-0.048332
-0.077504
-0.114609
-0.175910
-0.210435
-0.233573
-0.228862
-0.224387
-0.224139
-0.186977
-0.127816
-0.081216
-0.043629
0.010749
0.058118
0.081721
0.094238
0.087610
0.072672
0.040605
-0.002092
-0.043937
-0.088980
-0.139061
-0.168200
-0.183697
-0.194821
-0.195401
-0.197307
-0.178984
-0.144244
-0.101088
-0.055898
0.004305
0.043353
0.083215
0.098381
0.073360
0.057865
0.033420
0.005833
-0.029738
-0.074511
-0.115569
-0.143361
-0.160976
-0.167818
-0.174561
-0.167801
-0.143482
-0.093928
-0.062359
-0.022302
0.020263
0.044913
0.064427
0.082092
0.069974
0.057118
0.021496
-0.027245
-0.059399
-0.104045
-0.139672
-0.166886
-0.194779
-0.207598
-0.197966
-0.180489
-0.153335
-0.120441
-0.088629
-0.047947
-0.018359
0.016936
0.036284
0.039274
0.024051
0.009725
-0.020770
-0.065546
-0.112448
-0.154914
-0.207192
-0.218577
-0.234596
-0.257983
-0.258793
-0.231908
-0.193841
-0.132506
-0.089634
-0.048386
-0.021545
0.015470
0.023644
0.032766
0.016388
0.000257
-0.038652
-0.073343
-0.131289
-0.178782
-0.220816
-0.244331
-0.274867
-0.265530
-0.243835
-0.223116
-0.194307
-0.162621
-0.112459
-0.053835
-0.016080
0.007271
0.034236
0.042508
0.027538
-0.003645
-0.041914
-0.085226
-0.123675
-0.170899
-0.213188
-0.250336
-0.279958
-0.284117
-0.274861
-0.256944
-0.216339
-0.164141
-0.125632
-0.068082
-0.023454
0.000297
0.025817
0.029230
0.023402
0.014359
-0.025946
-0.067451
-0.114122
-0.171093
-0.213963
-0.241490
-0.266325
-0.280405
-0.268511
-0.247071
-0.211218
-0.170789
-0.121549
-0.064849
-0.023633
0.013638
0.030212
0.036555
0.029159
0.011770
-0.029144
-0.076068
-0.129248
-0.161076
-0.198049
-0.251717
-0.283517
-0.284551
-0.255932
-0.216921
-0.186398
-0.129445
-0.051131
0.021128
0.056026
0.117290
0.164568
0.183594
0.188603
0.184845
0.179746
0.161969
0.153011
0.130794
0.097370
0.093428
0.108115
0.143505
0.169930
0.216919
0.293504
0.360388
0.425746
0.513938
0.597747
0.681186
0.750357
0.796802
0.826131
0.838185
0.816831
0.776142
0.723755
0.686416
0.616339
0.559954
0.510228
0.456607
0.418191
0.370779
0.331899
0.306053
0.294191
0.286019
0.266958
0.242376
0.222797
0.207748
0.190675
0.197205
0.158154
0.105033
0.052224
-0.005016
-0.041281
-0.076824
-0.116972
-0.129440
-0.130758
-0.123129
-0.096429
-0.066221
-0.029886
0.017049
0.051601
0.083109
0.099876
0.104856
0.093176
0.073173
0.037418
-0.000485
-0.043262
-0.087350
-0.143014
-0.163536
-0.196489
-0.207642
-0.188383
-0.159458
-0.129880
-0.090459
-0.053588
-0.018562
0.027351
0.060995
0.081336
0.077244
0.059965
0.037419
-0.002014
-0.041841
-0.081626
-0.136667
-0.174672
-0.193823
-0.217354
-0.203044
-0.196809
-0.178596
-0.139176
-0.098433
-0.049238
-0.000425
0.036863
0.066695
0.079587
0.083604
0.067339
0.052442
0.009523
-0.037756
-0.079698
-0.113628
-0.155794
-0.197959
-0.219289
-0.201049
-0.187589
-0.173323
-0.137220
-0.073702
-0.017459
0.021204
0.043475
0.078749
0.102384
0.113206
0.102272
0.075654
0.036012
-0.006124
-0.032947
-0.072560
-0.140883
-0.176408
-0.212819
-0.210320
-0.184903
-0.157310
-0.125668
-0.076470
-0.036904
0.007152
0.040063
0.116201
0.125824
0.132386
0.133962
0.105338
0.062864
0.028397
0.001994
-0.049046
-0.104636
-0.133330
-0.165577
-0.170247
-0.160590
-0.136728
-0.105729
-0.064137
-0.001420
0.048915
0.099383
0.131839
0.154643
0.168778
0.165327
0.147163
0.111730
0.073439
0.032431
-0.020102
-0.072425
-0.115973
-0.139272
-0.131735
-0.122029
-0.095510
-0.062552
-0.022287
0.024037
0.060085
0.114859
0.164854
0.184487
0.202551
0.205441
0.181731
0.149084
0.105905
0.057700
0.028573
-0.021029
-0.058954
-0.079784
-0.094782
-0.091579
-0.068887
-0.033678
0.006913
0.048690
0.094939
0.134538
0.169207
0.182407
0.200205
0.196466
0.176827
0.146294
0.115703
0.078201
0.037800
-0.006669
-0.040299
-0.065592
-0.074906
-0.073234
-0.050544
-0.019667
0.012025
0.051248
0.073580
0.110646
0.151973
0.173307
0.174729
0.166252
0.153190
0.121512
0.085732
0.037154
0.009489
-0.043224
-0.077616
-0.094637
-0.091500
-0.089384
-0.056220
-0.025989
-0.005568
0.017954
0.057448
0.100679
0.117836
0.131478
0.127157
0.111732
0.104826
0.081088
0.038373
-0.002871
-0.045793
-0.092925
-0.138808
-0.154549
-0.165641
-0.148419
-0.127102
-0.094755
-0.057263
-0.015170
0.018309
0.061490
0.095254
0.094664
0.106378
0.099441
0.067559
0.019337
-0.020667
-0.068887
-0.103769
-0.132883
-0.171217
-0.195503
-0.195817
-0.202728
-0.184704
-0.141829
-0.111492
-0.063798
0.004187
0.042570
0.073103
0.087014
0.086521
0.091341
0.071586
0.033552
-0.027034
-0.083341
-0.138510
-0.186096
-0.218722
-0.235300
-0.243582
-0.230618
-0.206122
-0.170220
-0.129685
-0.073316
-0.025319
0.014132
0.052467
0.078943
0.080420
0.065319
0.038760
0.003943
-0.031465
-0.073610
-0.120723
-0.163094
-0.204424
-0.226674
-0.253113
-0.252429
-0.230216
-0.188934
-0.144818
-0.098144
-0.062992
-0.004846
0.041637
0.055072
0.079298
0.076475
0.051815
0.020127
-0.016639
-0.065488
-0.106158
-0.154881
-0.203121
-0.220510
-0.239833
-0.229247
-0.213566
-0.190824
-0.149357
-0.091854
-0.051199
-0.013913
0.027446
0.052633
0.069336
0.062861
0.050586
0.017005
-0.023106
-0.067667
-0.107145
-0.150890
-0.187213
-0.197430
-0.216264
-0.212702
-0.202044
-0.168968
-0.136728
-0.085656
-0.046884
-0.001163
0.042073
0.069223
0.071494
0.057997
0.045364
0.014855
-0.009485
-0.035139
-0.069960
-0.120711
-0.163500
-0.178373
-0.189812
-0.186609
-0.165111
-0.146326
-0.108439
-0.065242
-0.026682
0.014875
0.032990
0.050661
0.066740
0.052323
0.042453
0.004947
-0.023858
-0.063049
-0.104971
-0.141188
-0.177347
-0.183873
-0.188709
-0.199131
-0.186661
-0.151402
-0.108105
-0.061391
-0.013301
0.026081
0.047093
0.052450
0.066888
0.053762
0.038466
0.007578
-0.030970
-0.081340
-0.125968
-0.158038
-0.188157
-0.216600
-0.214949
-0.202666
-0.183656
-0.147299
-0.108604
-0.059920
-0.024640
0.014014
0.047275
0.057905
0.076312
0.058909
0.032926
-0.004108
-0.043467
-0.092250
-0.133936
-0.174848
-0.201366
-0.221844
-0.226237
-0.207599
-0.185182
-0.149983
-0.114483
-0.063372
-0.021375
0.015095
0.050494
0.069363
0.075296
0.057824
0.036240
-0.002410
-0.044654
-0.096788
-0.145494
-0.177431
-0.220064
-0.238789
-0.248654
-0.245687
-0.220565
-0.176818
-0.125511
-0.079311
-0.025492
0.014513
0.039497
0.058166
0.077090
0.075745
0.048946
0.015660
-0.032285
-0.079799
-0.118781
-0.168498
-0.223971
-0.232379
-0.245857
-0.233670
-0.209699
-0.179203
-0.140285
-0.085989
-0.042421
0.001090
0.029739
0.050715
0.067539
0.058082
0.044619
0.023131
-0.028403
-0.075068
-0.117562
-0.162909
-0.194674
-0.236367
-0.246387
-0.234991
-0.220931
-0.190191
-0.151141
-0.108428
-0.054307
-0.008871
0.014697
0.046140
0.051703
0.044622
0.031857
0.004754
-0.035725
-0.054103
-0.101212
-0.156334
-0.191411
-0.214780
-0.228333
-0.216460
-0.209547
-0.194142
-0.143296
-0.093269
-0.056908
-0.018082
0.002806
0.024289
0.041841
0.048332
0.030271
-0.002336
-0.044533
-0.085661
-0.121695
-0.149554
-0.186590
-0.209888
-0.223834
-0.223326
-0.209156
-0.166818
-0.138229
-0.098422
-0.060049
-0.021031
0.012089
0.032028
0.040737
0.035202
0.022954
-0.011105
-0.043175
-0.087660
-0.137732
-0.162829
-0.193378
-0.219565
-0.218161
-0.205679
-0.185839
-0.152267
-0.104409
-0.062762
-0.029229
0.009812
0.032465
0.046585
0.055199
0.051361
0.045009
0.010845
-0.031455
-0.078006
-0.116501
-0.146672
-0.172950
-0.194989
-0.197898
-0.195855
-0.171655
-0.138449
-0.094356
-0.035535
0.012644
0.045388
0.076246
0.090975
0.095818
0.075748
0.050454
0.010809
-0.039557
-0.083477
-0.119128
-0.157496
-0.186848
-0.207971
-0.201243
-0.190278
-0.168854
-0.122403
-0.061208
-0.017736
0.030501
0.066377
0.112343
0.124964
0.134644
0.121548
0.098272
0.058481
0.008446
-0.035178
-0.090514
-0.143449
-0.184117
-0.216777
-0.231915
-0.229475
-0.195225
-0.153732
-0.108847
-0.048236
-0.009168
0.031324
0.065169
0.079735
0.086214
0.086182
0.065382
0.022044
-0.027817
-0.070097
-0.122501
-0.164328
-0.197883
-0.230851
-0.247647
-0.232737
-0.220242
-0.184237
-0.148838
-0.108766
-0.064970
-0.020500
0.025137
0.033427
0.049282
0.056886
0.045516
0.012299
-0.037904
-0.089062
-0.140579
-0.181315
-0.238166
-0.243443
-0.258911
-0.257652
-0.248672
-0.215387
-0.179282
-0.138583
-0.098346
-0.051544
0.011444
0.033579
0.041537
0.052517
0.026272
-0.005800
-0.041454
-0.083975
-0.133297
-0.178351
-0.215277
-0.246625
-0.251092
-0.247996
-0.239463
-0.208955
-0.163299
-0.131369
-0.086016
-0.055164
-0.028831
-0.000692
0.033742
0.033501
0.018488
-0.027747
-0.066329
-0.095165
-0.144254
-0.175283
-0.206039
-0.230199
-0.233875
-0.237408
-0.223120
-0.193847
-0.163814
-0.120211
-0.079648
-0.047937
-0.001835
0.018160
0.021785
0.017894
-0.005151
-0.040024
-0.082418
-0.120029
-0.156815
-0.192851
-0.227010
-0.250547
-0.257877
-0.250331
-0.235563
-0.197329
-0.154158
-0.115453
-0.071208
-0.020587
0.015560
0.049557
0.065282
0.061842
0.055315
0.043356
0.015364
0.002225
-0.025102
-0.044744
-0.080728
-0.074658
-0.051791
-0.022769
0.021398
0.087010
0.148807
0.223828
0.293772
0.376619
0.434467
0.475387
0.503562
0.518716
0.525678
0.520654
0.516337
0.505740
0.482577
0.499175
0.509946
0.520436
0.520982
0.529446
0.556235
0.587295
0.617718
0.654624
0.679411
0.684185
0.670984
0.618442
0.562774
0.504152
0.425447
0.349436
0.259298
0.152208
0.053628
-0.003950
-0.060392
-0.116340
-0.142121
-0.132951
-0.097015
-0.073838
-0.040436
-0.004760
0.049805
0.084584
0.125642
0.149664
0.151384
0.143967
0.112516
0.075647
0.032987
-0.010763
-0.059566
-0.110287
-0.164140
-0.189312
-0.192225
-0.191478
-0.177726
-0.142786
-0.105683
-0.061270
-0.006419
0.037815
0.068277
0.102276
0.109254
0.103069
0.074947
0.041668
0.004528
-0.047722
-0.090632
-0.132676
-0.172005
-0.200140
-0.211459
-0.212139
-0.195767
-0.169359
-0.127712
-0.081277
-0.032413
0.003599
0.039884
0.077550
0.079400
0.085843
0.063140
0.034147
-0.000943
-0.049111
-0.087024
-0.121797
-0.161049
-0.180574
-0.188442
-0.200637
-0.180712
-0.144860
-0.117074
-0.088799
-0.025270
0.026766
0.064372
0.092037
0.086344
0.083348
0.072239
0.056854
0.023029
-0.027511
-0.081816
-0.112706
-0.157590
-0.167372
-0.167577
-0.153625
-0.144150
-0.117906
-0.083535
-0.042355
0.002679
0.050968
0.083163
0.100787
0.113966
0.111589
0.082802
0.056193
0.014677
-0.006014
-0.056105
-0.091531
-0.110429
-0.130531
-0.135297
-0.139319
-0.115275
-0.087130
-0.040749
0.002603
0.051726
0.083107
0.110920
0.124836
0.134244
0.136945
0.109114
0.079791
0.047734
0.007532
-0.030942
-0.062104
-0.087974
-0.104908
-0.113102
-0.104225
-0.080806
-0.046544
-0.000791
0.042955
0.084633
0.120710
0.140799
0.155945
0.171104
0.163692
0.141157
0.117177
0.077765
0.036957
-0.002886
-0.021990
-0.047272
-0.067352
-0.068752
-0.070285
-0.034752
-0.007775
0.033224
0.078884
0.121704
0.151081
0.190006
0.223269
0.232838
0.216461
0.187413
0.142982
0.101151
0.049147
-0.006748
-0.034344
-0.056043
-0.069753
-0.078205
-0.080111
-0.048848
-0.030646
0.010210
0.061692
0.120177
0.170706
0.209171
0.224563
0.226104
0.211474
0.197091
0.170491
0.115822
0.064943
0.004079
-0.054018
-0.076755
-0.096937
-0.110936
-0.099881
-0.084706
-0.055116
-0.005002
0.039195
0.086716
0.135116
0.181286
0.201909
0.200126
0.201632
0.171529
0.131667
0.077856
0.025959
-0.032680
-0.074002
-0.111921
-0.139816
-0.146696
-0.156096
-0.132149
-0.099159
-0.062404
-0.023526
0.019740
0.077054
0.108043
0.127316
0.140834
0.158445
0.138986
0.098221
0.045717
-0.005173
-0.062943
-0.118678
-0.164043
-0.188802
-0.180994
-0.171205
-0.149611
-0.124128
-0.095113
-0.059835
-0.020866
0.027406
0.052048
0.094048
0.102072
0.106362
0.092977
0.061919
0.012277
-0.041258
-0.078899
-0.120172
-0.154595
-0.178175
-0.199611
-0.201283
-0.190591
-0.164396
-0.113531
-0.074420
-0.039683
-0.005757
0.028278
0.056821
0.075285
0.070349
0.046210
0.030292
-0.003389
-0.057301
-0.102061
-0.153006
-0.176104
-0.191132
-0.205673
-0.202370
-0.201952
-0.171923
-0.117272
-0.069100
-0.024627
0.012271
0.029579
0.058905
0.072749
0.055507
0.053057
0.021220
-0.019053
-0.055611
-0.099910
-0.150847
-0.164932
-0.180911
-0.181646
-0.183365
-0.163104
-0.140875
-0.103729
-0.067830
-0.030873
0.005396
0.037990
0.062905
0.069318
0.067004
0.055856
0.025316
-0.024151
-0.069566
-0.120644
-0.160661
-0.180985
-0.194376
-0.180717
-0.167445
-0.158600
-0.134381
-0.088213
-0.041828
0.004225
0.048513
0.065175
0.087955
0.092874
0.081492
0.053978
0.017909
-0.022501
-0.063518
-0.114193
-0.156100
-0.189251
-0.209412
-0.217851
-0.193287
-0.165947
-0.135959
-0.082462
-0.043145
-0.008533
0.046453
0.078649
0.107171
0.116295
0.095501
0.070229
0.027875
-0.009958
-0.048788
-0.100475
-0.146167
-0.168348
-0.204888
-0.202816
-0.200352
-0.182318
-0.155305
-0.116150
-0.050917
0.009007
0.057460
0.089676
0.117185
0.122696
0.106643
0.082201
0.035284
-0.006844
-0.039969
-0.092053
-0.156282
-0.184048
-0.203484
-0.209239
-0.208106
-0.196502
-0.153118
-0.099435
-0.064127
-0.010159
0.038006
0.075986
0.088672
0.107950
0.104949
0.084791
0.056132
-0.003375
-0.043395
-0.097187
-0.140905
-0.172528
-0.203847
-0.220517
-0.207010
-0.199958
-0.182122
-0.115756
-0.062710
-0.022547
0.018984
0.050291
0.066057
0.063981
0.074278
0.079486
0.042382
0.009816
-0.041508
-0.091727
-0.131531
-0.160738
-0.190897
-0.196186
-0.199136
-0.179544
-0.154475
-0.133164
-0.071897
-0.027207
0.009029
0.053216
0.065417
0.075561
0.074006
0.045746
0.013433
-0.017166
-0.051415
-0.094366
-0.133944
-0.165030
-0.191507
-0.201557
-0.186728
-0.177359
-0.163743
-0.124450
-0.071150
-0.031673
0.012372
0.034069
0.055651
0.062176
0.055065
0.043786
0.012446
-0.023739
-0.066474
-0.108698
-0.143868
-0.159340
-0.178988
-0.189290
-0.179907
-0.170178
-0.153096
-0.117345
-0.088651
-0.049202
0.012112
0.023403
0.044823
0.071690
0.078471
0.050854
0.009483
-0.036281
-0.071020
-0.109815
-0.148478
-0.190952
-0.205943
-0.201669
-0.192033
-0.168004
-0.142732
-0.104213
-0.062281
-0.018416
0.023763
0.049334
0.070752
0.072053
0.059108
0.039638
0.001926
-0.046979
-0.077641
-0.121856
-0.170354
-0.191516
-0.207074
-0.214474
-0.188314
-0.175352
-0.144833
-0.102381
-0.055101
-0.001879
0.044279
0.080460
0.092480
0.101388
0.086751
0.064281
0.026826
-0.014732
-0.063686
-0.111120
-0.147219
-0.175238
-0.198773
-0.214229
-0.197320
-0.169276
-0.124423
-0.072715
-0.003864
0.030474
0.070086
0.103563
0.119782
0.128986
0.109829
0.096022
0.069731
0.021939
-0.034299
-0.074509
-0.127188
-0.176258
-0.187010
-0.187344
-0.180180
-0.173260
-0.143529
-0.095236
-0.027099
0.017138
0.078079
0.110539
0.135981
0.141574
0.140839
0.126560
0.090527
0.056925
0.013853
-0.030225
-0.082398
-0.127271
-0.148986
-0.164057
-0.164073
-0.136676
-0.106568
-0.074261
-0.031686
0.015127
0.054366
0.071212
0.100837
0.111117
0.092900
0.091003
0.047422
0.005541
-0.040684
-0.079326
-0.121179
-0.163565
-0.186675
-0.205296
-0.201196
-0.182725
-0.162085
-0.121036
-0.079912
-0.033159
0.011375
0.041940
0.057883
0.074277
0.071342
0.055216
0.026700
-0.016872
-0.063641
-0.110891
-0.153603
-0.185487
-0.209533
-0.229778
-0.227681
-0.211546
-0.189336
-0.164946
-0.115745
-0.060356
-0.020436
0.025390
0.035738
0.045833
0.042634
0.025008
0.003342
-0.027862
-0.073864
-0.129140
-0.164343
-0.200912
-0.218961
-0.221226
-0.230269
-0.202868
-0.157708
-0.116619
-0.076218
-0.037496
-0.005738
0.026362
0.040516
0.055573
0.037733
0.024342
-0.008774
-0.044698
-0.086736
-0.127564
-0.161326
-0.199239
-0.222414
-0.231313
-0.214027
-0.197560
-0.165745
-0.123386
-0.074022
-0.028660
-0.002926
0.017687
0.031190
0.042828
0.041695
0.030178
-0.002623
-0.045709
-0.100614
-0.152174
-0.184941
-0.195449
-0.198690
-0.224756
-0.219416
-0.206848
-0.176782
-0.131416
-0.082875
-0.039662
-0.004493
0.030222
0.042849
0.048632
0.057519
0.043804
0.032072
-0.005752
-0.048094
-0.077097
-0.097475
-0.115771
-0.108773
-0.116171
-0.096763
-0.060787
0.002330
0.067942
0.140597
0.205233
0.275486
0.337280
0.389139
0.429427
0.446129
0.451450
0.431642
0.427144
0.412802
0.391642
0.385580
0.400844
0.412630
0.440761
0.487779
0.553282
0.629843
0.690791
0.735409
0.780679
0.826642
0.843645
0.845114
0.828232
0.784355
0.716187
0.612055
0.510983
0.398291
0.287764
0.194367
0.114946
0.047203
-0.008970
-0.035415
-0.029089
-0.023255
0.003756
0.058565
0.116311
0.154281
0.175895
0.184731
0.191905
0.176190
0.142843
0.117343
0.082735
0.026205
-0.037114
-0.085830
-0.130603
-0.148991
-0.160569
-0.160893
-0.145568
-0.123947
-0.085219
-0.029333
0.017222
0.067845
0.100033
0.118983
0.117374
0.123837
0.112798
0.074925
0.038015
-0.007251
-0.062328
-0.107414
-0.135740
-0.158883
-0.170773
-0.182689
-0.176156
-0.141460
-0.102360
-0.056253
0.002232
0.019758
0.061039
0.092937
0.122652
0.112642
0.086654
0.067402
0.029448
-0.024742
-0.073464
-0.118049
-0.138566
-0.163634
-0.169519
-0.161117
-0.142455
-0.109186
-0.087136
-0.051843
-0.010025
0.032094
0.074452
0.092312
0.116826
0.114436
0.091427
0.064187
0.022679
-0.015218
-0.054270
-0.081941
-0.117653
-0.141814
-0.152616
-0.149956
-0.126844
-0.098202
-0.057176
-0.004324
0.033378
0.064520
0.099454
0.102470
0.123953
0.133264
0.103166
0.081707
0.046885
0.003331
-0.037066
-0.086661
-0.114678
-0.120197
-0.121339
-0.112720
-0.090948
-0.056147
-0.010225
0.031047
0.081633
0.116163
0.143195
0.152264
0.158078
0.152936
0.125402
0.084718
0.055651
0.025647
-0.022598
-0.055437
-0.072273
-0.089123
-0.097232
-0.082265
-0.063034
-0.034809
0.021052
0.065397
0.102879
0.146975
0.180213
0.195588
0.203384
0.189533
0.159183
0.135553
0.101336
0.049118
0.006372
-0.034138
-0.058626
-0.059779
-0.065236
-0.051183
-0.035310
0.000550
0.050580
0.092364
0.142947
0.189456
0.234376
0.241316
0.232891
0.224448
0.202722
0.168547
0.121026
0.074563
0.025773
-0.010862
-0.043965
-0.055623
-0.066476
-0.065423
-0.040092
0.010461
0.049281
0.096796
0.132318
0.177440
0.212787
0.237681
0.251757
0.233961
0.209230
0.169382
0.130201
0.078761
0.013055
-0.032577
-0.060302
-0.075952
-0.090596
-0.081838
-0.053152
-0.020197
0.018897
0.065765
0.107957
0.153655
0.195838
0.220291
0.232561
0.221690
0.193244
0.155018
0.102275
0.053543
-0.002957
-0.047486
-0.082220
-0.103619
-0.119215
-0.115117
-0.100144
-0.069565
-0.037345
0.015455
0.072672
0.116821
0.143729
0.159562
0.172490
0.171487
0.149064
0.110848
0.063023
0.015608
-0.026680
-0.074079
-0.113676
-0.147837
-0.168934
-0.178210
-0.147357
-0.110716
-0.069562
-0.019335
0.019669
0.052249
0.096286
0.127347
0.131365
0.117349
0.104387
0.075570
0.026325
-0.021048
-0.072108
-0.113132
-0.153838
-0.172360
-0.189581
-0.180323
-0.161982
-0.139695
-0.106823
-0.067186
-0.022346
0.012348
0.057623
0.080709
0.092176
0.096475
0.064936
0.047955
0.003367
-0.035433
-0.080944
-0.126868
-0.156572
-0.179125
-0.175315
-0.183158
-0.158337
-0.152474
-0.108502
-0.066312
-0.023235
0.015127
0.049763
0.078685
0.082928
0.067529
0.049107
0.024688
-0.018005
-0.043009
-0.076991
-0.114963
-0.138583
-0.162330
-0.190380
-0.172712
-0.154574
-0.129610
-0.089364
-0.039662
0.001415
0.035747
0.062385
0.076626
0.077863
0.070505
0.056010
0.035201
-0.008869
-0.050016
-0.103536
-0.135825
-0.160158
-0.161716
-0.175340
-0.175729
-0.147011
-0.118695
-0.071843
-0.022180
0.015739
0.057401
0.082137
0.090216
0.100516
0.084849
0.071326
0.034870
-0.006392
-0.052587
-0.109725
-0.144889
-0.169515
-0.190372
-0.188314
-0.170677
-0.144299
-0.115535
-0.076079
-0.045152
-0.005020
0.042516
0.094390
0.116710
0.106971
0.102216
0.076703
0.046925
-0.008880
-0.042953
-0.095052
-0.143302
-0.169718
-0.180578
-0.196315
-0.167779
-0.153112
-0.124731
-0.072833
-0.027636
0.018336
0.055882
0.096594
0.111730
0.123300
0.112273
0.083857
0.052646
0.007093
-0.049032
-0.094722
-0.138464
-0.176549
-0.185821
-0.196773
-0.200651
-0.170576
-0.137578
-0.097185
-0.057559
-0.002251
0.043764
0.084804
0.100075
0.109986
0.108069
0.089437
0.051019
0.016398
-0.033460
-0.093598
-0.128720
-0.160626
-0.204336
-0.206989
-0.189806
-0.172018
-0.151524
-0.102319
-0.058308
-0.006630
0.035098
0.068541
0.091880
0.110371
0.109851
0.096994
0.061803
0.016500
-0.028809
-0.075715
-0.127022
-0.162464
-0.188222
-0.207922
-0.210970
-0.195390
-0.166174
-0.112358
-0.066689
-0.028963
0.019170
0.052765
0.077621
0.082435
0.071311
0.066182
0.040190
-0.000276
-0.044466
-0.081273
-0.110694
-0.149024
-0.178059
-0.181153
-0.187525
-0.170701
-0.143624
-0.113010
-0.069779
-0.028679
0.011473
0.040516
0.066735
0.077354
0.070583
0.041635
0.015375
-0.014394
-0.056538
-0.093714
-0.137409
-0.175687
-0.206733
-0.208933
-0.195405
-0.180927
-0.144055
-0.102181
-0.067043
-0.026622
0.010779
0.041620
0.055081
0.054530
0.055618
0.032054
0.008886
-0.022643
-0.058765
-0.107836
-0.137737
-0.163437
-0.181605
-0.186645
-0.173553
-0.161961
-0.140033
-0.102783
-0.049246
-0.011611
0.018608
0.056217
0.069137
0.053267
0.050629
0.029691
0.017080
-0.026429
-0.074402
-0.106355
-0.151707
-0.181329
-0.193300
-0.189034
-0.177760
-0.157018
-0.132588
-0.086830
-0.041874
0.009921
0.057060
0.074215
0.101048
0.093294
0.088565
0.058522
0.018590
-0.014025
-0.059266
-0.110680
-0.146124
-0.171958
-0.175856
-0.167369
-0.159518
-0.135161
-0.107757
-0.056989
-0.012822
0.033524
0.081961
0.108444
0.128892
0.123836
0.110053
0.082892
0.060677
0.021806
-0.038108
-0.084297
-0.128858
-0.164153
-0.180492
-0.177189
-0.167595
-0.146152
-0.104102
-0.062442
-0.014232
0.045468
0.095537
0.138639
0.149237
0.154846
0.145983
0.113390
0.076778
0.025216
-0.011461
-0.063430
-0.111826
-0.142151
-0.172719
-0.186231
-0.190750
-0.173096
-0.138663
-0.093434
-0.037974
0.019095
0.061057
0.096098
0.111654
0.119960
0.102883
0.077133
0.044383
0.005388
-0.050515
-0.101048
-0.159684
-0.185143
-0.211646
-0.210875
-0.216160
-0.192000
-0.162661
-0.128715
-0.084104
-0.036535
0.008892
0.047229
0.070670
0.074635
0.075187
0.055666
0.012496
-0.014801
-0.060295
-0.117582
-0.152453
-0.195598
-0.232043
-0.239006
-0.236173
-0.218826
-0.182324
-0.147402
-0.102458
-0.058455
-0.023882
0.016217
0.047291
0.060226
0.047288
0.028775
0.007716
-0.020250
-0.066978
-0.111699
-0.160519
-0.206212
-0.231386
-0.236873
-0.243183
-0.229432
-0.193900
-0.152243
-0.112911
-0.051624
-0.009410
0.016159
0.033208
0.037233
0.032971
0.017382
-0.005395
-0.034162
-0.080807
-0.132030
-0.156716
-0.191564
-0.219317
-0.227257
-0.218798
-0.200090
-0.167236
-0.133689
-0.091008
-0.051843
-0.011661
0.015385
0.028817
0.030658
0.026516
0.015513
-0.024888
-0.055447
-0.102940
-0.145583
-0.175364
-0.214995
-0.238385
-0.233526
-0.209858
-0.194468
-0.158946
-0.136310
-0.102467
-0.059636
-0.004118
0.035747
0.049027
0.067610
0.070966
0.057011
0.038982
0.003600
-0.026223
-0.053426
-0.066758
-0.087674
-0.081003
-0.059353
-0.024360
0.012931
0.061931
0.131039
0.218750
0.289485
0.370372
0.435913
0.484267
0.512381
0.531500
0.534714
0.536928
0.558632
0.538709
0.534058
0.527638
0.537295
0.550951
0.574716
0.592943
0.633813
0.666362
0.725074
0.742325
0.758886
0.771990
0.788615
0.783815
0.727643
0.635492
0.549450
0.458567
0.370965
0.270221
0.158647
0.077482
-0.000459
-0.038000
-0.052305
-0.062438
-0.035997
-0.007618
0.039104
0.078933
0.105568
0.130905
0.173711
0.185820
0.184195
0.179512
0.158296
0.116607
0.061356
0.003111
-0.052801
-0.100268
-0.125691
-0.157277
-0.161194
-0.159811
-0.145975
-0.116339
-0.074684
-0.023981
0.028334
0.065598
0.090748
0.113185
0.126312
0.128540
0.100159
0.081122
0.015839
-0.030430
-0.086886
-0.135835
-0.166834
-0.185983
-0.199847
-0.190260
-0.173810
-0.144732
-0.114544
-0.055152
-0.022177
0.024038
0.059243
0.101268
0.114001
0.105313
0.087285
0.049656
0.014945
-0.037463
-0.086019
-0.117044
-0.150134
-0.180027
-0.182727
-0.184510
-0.166811
-0.142215
-0.103547
-0.055524
0.005618
0.042167
0.073384
0.100254
0.112978
0.108311
0.106850
0.067136
0.021697
-0.004253
-0.061611
-0.098965
-0.134793
-0.145361
-0.149954
-0.143773
-0.132203
-0.107691
-0.070904
-0.027740
0.011880
0.057494
0.092186
0.115371
0.112935
0.112620
0.095105
0.056751
0.029654
-0.010028
-0.048536
-0.069599
-0.102566
-0.126667
-0.131789
-0.134150
-0.103393
-0.068578
-0.032970
0.011984
0.061218
0.112071
0.140946
0.153544
0.151328
0.139143
0.125066
0.105360
0.068481
0.020583
-0.026254
-0.058824
-0.077985
-0.092994
-0.096309
-0.077418
-0.050662
-0.016779
0.024094
0.058471
0.108290
0.142375
0.170155
0.194212
0.198913
0.193190
0.167066
0.132018
0.095882
0.052359
0.006577
-0.030391
-0.052481
-0.066241
-0.067464
-0.049012
-0.025942
0.008834
0.054556
0.092887
0.138024
0.183603
0.221788
0.239876
0.248696
0.225127
0.195426
0.154036
0.103050
0.057691
0.019021
-0.013354
-0.043794
-0.065209
-0.070320
-0.062049
-0.053080
-0.011309
0.022884
0.102642
0.141174
0.175063
0.208268
0.231781
0.235655
0.225223
0.209445
0.168240
0.109873
0.071456
0.027345
-0.026323
-0.066800
-0.078074
-0.085013
-0.071625
-0.053487
-0.016847
0.016987
0.051553
0.105590
0.152687
0.190176
0.203656
0.206277
0.193447
0.180183
0.141515
0.084728
0.036615
-0.003251
-0.055671
-0.100029
-0.133681
-0.146170
-0.134490
-0.117827
-0.085813
-0.050516
0.000768
0.041150
0.082889
0.127378
0.148843
0.163594
0.145168
0.133766
0.110483
0.065711
0.017890
-0.040089
-0.082728
-0.114261
-0.138537
-0.158224
-0.158057
-0.145593
-0.120334
-0.083028
-0.026373
0.018341
0.038796
0.065753
0.084046
0.108536
0.091834
0.080759
0.056394
0.013811
-0.032911
-0.070299
-0.115442
-0.154206
-0.170042
-0.180894
-0.166303
-0.153956
-0.128570
-0.094823
-0.047283
-0.018725
0.019100
0.043155
0.071991
0.076050
0.077162
0.060150
0.023528
-0.007547
-0.057573
-0.101141
-0.144737
-0.168385
-0.189823
-0.192460
-0.188030
-0.166716
-0.122946
-0.065472
-0.035676
-0.005618
0.036004
0.065912
0.072634
0.077345
0.062764
0.038214
0.006856
-0.035733
-0.063976
-0.100278
-0.149043
-0.186504
-0.195622
-0.187150
-0.171792
-0.157313
-0.125110
-0.075499
-0.042764
-0.002599
0.049057
0.074852
0.081976
0.090573
0.072284
0.050394
0.023292
-0.016605
-0.070469
-0.115312
-0.151214
-0.187402
-0.188805
-0.189634
-0.162933
-0.139102
-0.105627
-0.069254
-0.038056
0.001932
0.056262
0.080836
0.105183
0.099264
0.082818
0.060765
0.011501
-0.029001
-0.078446
-0.116678
-0.144958
-0.170075
-0.189563
-0.200041
-0.173122
-0.142932
-0.105768
-0.063277
-0.026340
0.027957
0.053429
0.089604
0.119390
0.123289
0.108748
0.084953
0.038380
0.001950
-0.045427
-0.097638
-0.147369
-0.180396
-0.201564
-0.203756
-0.186184
-0.164222
-0.125163
-0.078882
-0.026569
0.014518
0.062108
0.100271
0.116273
0.128618
0.120298
0.104772
0.055966
0.012581
-0.034653
-0.076389
-0.126487
-0.162898
-0.194838
-0.211882
-0.199265
-0.167488
-0.138090
-0.101691
-0.048851
0.001026
0.041974
0.078568
0.106005
0.116028
0.099786
0.079500
0.046931
0.010974
-0.024399
-0.071047
-0.117877
-0.154954
-0.187287
-0.201125
-0.186575
-0.176876
-0.152762
-0.113375
-0.075946
-0.018817
0.022242
0.054458
0.086434
0.111391
0.093604
0.062906
0.045841
0.007121
-0.029886
-0.084979
-0.129235
-0.163035
-0.183255
-0.193524
-0.193268
-0.175885
-0.148487
-0.104004
-0.066702
-0.025475
0.010254
0.043881
0.067722
0.072617
0.073868
0.065100
0.047237
0.004247
-0.055606
-0.097756
-0.129651
-0.154727
-0.183223
-0.195519
-0.180186
-0.157049
-0.125612
-0.095879
-0.061818
-0.018887
0.023764
0.049409
0.063439
0.072236
0.058318
0.044080
0.011557
-0.016600
-0.054951
-0.101035
-0.134357
-0.168252
-0.189253
-0.192732
-0.184558
-0.169078
-0.134609
-0.104979
-0.069661
-0.024245
0.014372
0.047900
0.064103
0.063415
0.050536
0.040719
0.009914
-0.036221
-0.076943
-0.111630
-0.159874
-0.184329
-0.194872
-0.192120
-0.177422
-0.158538
-0.137913
-0.086238
-0.050314
-0.004357
0.029502
0.062090
0.080929
0.079103
0.059525
0.040129
0.001503
-0.036173
-0.080445
-0.125347
-0.176648
-0.191232
-0.200659
-0.211232
-0.198730
-0.172491
-0.134640
-0.087092
-0.041419
-0.004291
0.042826
0.067680
0.081539
0.082481
0.071288
0.053650
0.003123
-0.050749
-0.088772
-0.116902
-0.162159
-0.208118
-0.219697
-0.213396
-0.193831
-0.167795
-0.132591
-0.082693
-0.032240
0.023472
0.060893
0.097763
0.129349
0.124988
0.118273
0.085883
0.047337
0.004510
-0.040397
-0.094799
-0.136208
-0.169056
-0.176302
-0.188674
-0.175888
-0.157561
-0.111910
-0.056136
-0.015773
0.026659
0.062125
0.095849
0.117745
0.124200
0.124271
0.094991
0.068373
0.009081
-0.030778
-0.075635
-0.121974
-0.156126
-0.167040
-0.173120
-0.169434
-0.141974
-0.124601
-0.067966
-0.015017
0.029037
0.077688
0.117336
0.140599
0.156598
0.162552
0.119342
0.086075
0.039258
-0.016280
-0.060995
-0.094445
-0.136751
-0.168773
-0.195276
-0.187147
-0.171419
-0.134137
-0.091325
-0.045498
-0.007266
0.034029
0.069490
0.095284
0.096760
0.099486
0.073851
0.038383
-0.008725
-0.040735
-0.085390
-0.134956
-0.171885
-0.186368
-0.189636
-0.187841
-0.182016
-0.148253
-0.120270
-0.086630
-0.049824
-0.013308
0.018936
0.043712
0.057014
0.057745
0.028708
0.006567
-0.030337
-0.074503
-0.114445
-0.159082
-0.192941
-0.213645
-0.227578
-0.224774
-0.210367
-0.173376
-0.121641
-0.078128
-0.045793
-0.006273
0.026255
0.041752
0.034430
0.029147
0.010573
-0.012584
-0.054672
-0.094548
-0.133953
-0.179613
-0.200572
-0.220000
-0.224892
-0.221541
-0.191055
-0.138692
-0.110910
-0.085169
-0.049409
-0.015575
0.027503
0.037666
0.045730
0.032287
0.001224
-0.029316
-0.065569
-0.109818
-0.148507
-0.181784
-0.205233
-0.223186
-0.229372
-0.217039
-0.195812
-0.162596
-0.114399
-0.075916
-0.020694
0.009584
0.034772
0.056515
0.048011
0.036837
0.014297
-0.013725
-0.061899
-0.101471
-0.149656
-0.194412
-0.210747
-0.239168
-0.253664
-0.236179
-0.199230
-0.178986
-0.114479
-0.063551
-0.010828
0.036103
0.079851
0.112792
0.122765
0.122480
0.107229
0.090824
0.065550
0.029670
-0.005045
-0.044832
-0.059216
-0.057406
-0.032946
0.001520
0.072718
0.127904
0.200218
0.280357
0.371551
0.450035
0.525247
0.572182
0.617542
0.641295
0.640770
0.642223
0.656717
0.648776
0.644381
0.632048
0.606263
0.600415
0.592697
0.590799
0.619867
0.629985
0.650856
0.687347
0.707881
0.713038
0.689777
0.645032
0.593713
0.531492
0.448981
0.365264
0.261171
0.169712
0.089728
0.028581
-0.013912
-0.042365
-0.056873
-0.065100
-0.052067
-0.024661
0.003126
0.044159
0.080283
0.116107
0.151493
0.161899
0.178940
0.166595
0.137388
0.111099
0.062945
0.005582
-0.045773
-0.089152
-0.123249
-0.152115
-0.159829
-0.164551
-0.144308
-0.116703
-0.082217
-0.030972
0.003636
0.031588
0.069170
0.111106
0.110980
0.107397
0.094326
0.057474
0.029258
-0.029824
-0.073032
-0.110231
-0.140086
-0.167559
-0.183731
-0.183642
-0.163843
-0.132680
-0.096011
-0.071811
-0.006355
0.046420
0.061485
0.094046
0.104968
0.092020
0.089435
0.050086
0.018664
-0.034121
-0.076612
-0.110635
-0.154922
-0.176693
-0.177613
-0.155638
-0.134343
-0.107755
-0.069579
-0.017999
0.007707
0.049207
0.077856
0.089673
0.110510
0.099678
0.071063
0.038695
0.008610
-0.014032
-0.044070
-0.081117
-0.118774
-0.136282
-0.144263
-0.139811
-0.126439
-0.092910
-0.053732
-0.014594
0.025505
0.064705
0.098355
0.109866
0.114284
0.105367
0.084585
0.064413
0.026920
-0.002644
-0.047544
-0.082839
-0.107500
-0.118021
-0.125069
-0.108954
-0.068610
-0.035397
0.000410
0.042507
0.077158
0.112251
0.151849
0.171608
0.168468
0.161393
0.143169
0.105262
0.061497
0.002846
-0.029167
-0.058984
-0.079760
-0.101077
-0.102950
-0.089336
-0.051270
-0.014296
0.030189
0.080773
0.128539
0.159683
0.190724
0.210785
0.217622
0.214523
0.184254
0.155179
0.111603
0.053612
0.010736
-0.032393
-0.060308
-0.075972
-0.078711
-0.069926
-0.040829
-0.024243
0.022084
0.101083
0.154051
0.200217
0.238532
0.248576
0.250912
0.248502
0.220725
0.187135
0.132798
0.070441
0.026537
-0.016155
-0.040992
-0.069191
-0.087239
-0.072778
-0.046292
-0.017518
0.034782
0.090640
0.135923
0.182041
0.214942
0.237482
0.247036
0.240541
0.218789
0.183638
0.137885
0.089421
0.045336
-0.009692
-0.050510
-0.070827
-0.079864
-0.084984
-0.074195
-0.039814
-0.001852
0.054554
0.104773
0.136359
0.182959
0.200714
0.211699
0.215657
0.191006
0.151826
0.102244
0.052759
0.015677
-0.025283
-0.070416
-0.097664
-0.119556
-0.110668
-0.101850
-0.068771
-0.042228
0.012708
0.053151
0.096861
0.110581
0.137638
0.146809
0.143766
0.123598
0.112356
0.055065
0.008048
-0.025282
-0.063578
-0.100319
-0.127632
-0.144659
-0.140599
-0.128499
-0.102776
-0.063833
-0.024787
0.013370
0.051956
0.069636
0.090291
0.099971
0.098877
0.073483
0.045259
0.008745
-0.040392
-0.069997
-0.112419
-0.150219
-0.169922
-0.181782
-0.169311
-0.145241
-0.116356
-0.085069
-0.036734
-0.007482
0.013442
0.054363
0.084404
0.087909
0.074253
0.051461
0.016014
-0.015334
-0.070048
-0.116158
-0.146482
-0.176692
-0.197755
-0.198546
-0.180466
-0.160717
-0.124099
-0.093157
-0.042640
0.002820
0.045606
0.076804
0.086579
0.087613
0.077081
0.058368
0.028080
-0.014689
-0.063174
-0.119254
-0.160531
-0.186544
-0.193502
-0.194132
-0.185987
-0.154077
-0.110790
-0.075306
-0.028060
0.013678
0.058174
0.090914
0.104932
0.105428
0.088271
0.058056
0.030663
-0.016355
-0.050210
-0.102058
-0.146376
-0.180797
-0.196024
-0.189424
-0.177444
-0.160883
-0.127920
-0.083862
-0.032882
0.018551
0.061123
0.091128
0.115372
0.113461
0.110270
0.084189
0.047154
0.001226
-0.045063
-0.089202
-0.136105
-0.166951
-0.196088
-0.204509
-0.197316
-0.173625
-0.130023
-0.079230
-0.024883
0.018354
0.058417
0.094991
0.126107
0.136754
0.125936
0.103068
0.059791
0.015154
-0.038656
-0.082546
-0.135916
-0.171779
-0.193368
-0.199395
-0.200082
-0.172590
-0.145950
-0.103757
-0.054023
0.002839
0.055732
0.088768
0.112278
0.121852
0.108560
0.084219
0.060275
0.027042
-0.023708
-0.075922
-0.121060
-0.158017
-0.177582
-0.187080
-0.197106
-0.175194
-0.132177
-0.096158
-0.048445
-0.014750
0.032371
0.071893
0.095088
0.106470
0.106678
0.085950
0.056937
0.018688
-0.027154
-0.081029
-0.105533
-0.147650
-0.173407
-0.185452
-0.181865
-0.168123
-0.130339
-0.098707
-0.063880
-0.025910
0.022022
0.059044
0.078555
0.074143
0.061725
0.049284
0.016116
-0.020112
-0.050743
-0.089535
-0.121001
-0.142716
-0.164762
-0.179510
-0.170098
-0.150061
-0.121831
-0.088362
-0.052261
-0.017196
0.024720
0.059174
0.086669
0.081551
0.070482
0.050604
0.013414
-0.018665
-0.060978
-0.092755
-0.135104
-0.159638
-0.183459
-0.188080
-0.179364
-0.155302
-0.123835
-0.079921
-0.050624
-0.007869
0.027189
0.051964
0.058058
0.059742
0.057494
0.046188
0.016714
-0.026682
-0.079761
-0.122312
-0.163266
-0.196891
-0.213031
-0.202832
-0.183804
-0.159082
-0.122577
-0.092534
-0.027431
0.021710
0.055101
0.075602
0.088615
0.090966
0.078451
0.060906
0.011515
-0.028944
-0.083816
-0.139919
-0.165134
-0.188675
-0.219123
-0.220088
-0.202296
-0.190539
-0.150178
-0.110704
-0.052815
0.004981
0.031466
0.059476
0.085100
0.099041
0.090604
0.059089
0.012541
-0.033818
-0.098922
-0.130659
-0.165811
-0.217103
-0.245938
-0.242726
-0.217810
-0.190373
-0.144705
-0.100289
-0.038996
0.006971
0.046567
0.083393
0.098639
0.100166
0.089591
0.071594
0.046834
0.014088
-0.049400
-0.090614
-0.137668
-0.162898
-0.195508
-0.203536
-0.197161
-0.177865
-0.132615
-0.094695
-0.051439
0.011884
0.061889
0.098979
0.133340
0.140230
0.129075
0.110320
0.063039
0.020390
-0.020211
-0.070944
-0.120634
-0.162564
-0.180989
-0.189614
-0.191337
-0.174400
-0.136532
-0.084775
-0.029081
0.022298
0.063001
0.104800
0.131706
0.138082
0.138362
0.124580
0.087142
0.051455
0.017163
-0.037470
-0.085139
-0.113941
-0.143080
-0.144555
-0.138812
-0.130408
-0.103623
-0.074739
-0.032211
0.005463
0.040662
0.071818
0.098046
0.103292
0.103861
0.078902
0.049220
0.006641
-0.041017
-0.084772
-0.115328
-0.160428
-0.198446
-0.200002
-0.191224
-0.165769
-0.133128
-0.112152
-0.066340
-0.018526
0.009573
0.038695
0.061879
0.066970
0.059476
0.043664
-0.000584
-0.038010
-0.072060
-0.119705
-0.156330
-0.181599
-0.203011
-0.210497
-0.202676
-0.176755
-0.153998
-0.103620
-0.060480
-0.019397
-0.001634
0.017652
0.043769
0.059825
0.055390
0.033553
-0.014976
-0.053815
-0.103617
-0.155692
-0.180872
-0.210525
-0.221720
-0.229272
-0.220869
-0.192128
-0.151223
-0.103354
-0.058272
-0.018246
0.023011
0.052593
0.076409
0.069952
0.047026
0.020837
-0.015951
-0.059714
-0.115066
-0.153087
-0.200241
-0.223695
-0.241679
-0.240921
-0.232755
-0.208351
-0.166047
-0.118246
-0.067659
-0.021193
0.018691
0.048403
0.061322
0.060851
0.045980
0.028997
-0.009839
-0.058229
-0.110064
-0.164317
-0.193622
-0.230956
-0.254758
-0.264357
-0.255566
-0.224626
-0.177160
-0.132511
-0.083898
-0.037457
0.022743
0.051181
0.073699
0.076444
0.071367
0.044230
0.002446
-0.030961
-0.081637
-0.119658
-0.128829
-0.160310
-0.164049
-0.154775
-0.126720
-0.089073
-0.055455
0.007016
0.075272
0.144039
0.204737
0.259007
0.306359
0.349924
0.380172
0.386760
0.396940
0.381442
0.354653
0.325297
0.325514
0.302050
0.303000
0.336925
0.372272
0.432000
0.510570
0.590173
0.662453
0.733634
0.767445
0.795237
0.816118
0.824589
0.814249
0.792832
0.720002
0.642916
0.529570
0.434153
0.330578
0.225575
0.153681
0.100471
0.058863
0.029589
0.023176
0.045346
0.071841
0.102845
0.145691
0.157451
0.170243
0.178343
0.155552
0.124096
0.080703
0.043966
0.012995
-0.035494
-0.073790
-0.099108
-0.123893
-0.136028
-0.122785
-0.107756
-0.077412
-0.053040
-0.005531
0.031834
0.062222
0.084427
0.101959
0.107309
0.099695
0.073164
0.037520
-0.002905
-0.037135
-0.079923
-0.120943
-0.162859
-0.160983
-0.164534
-0.167864
-0.137117
-0.098736
-0.059808
-0.022342
0.027378
0.062201
0.092079
0.101573
0.098714
0.092053
0.070869
0.026174
-0.019754
-0.063791
-0.115484
-0.141451
-0.181265
-0.191940
-0.181336
-0.165582
-0.127195
-0.093520
-0.069230
-0.030563
0.016200
0.066661
0.108305
0.117588
0.121127
0.110253
0.085189
0.038197
-0.005085
-0.048062
-0.102466
-0.133561
-0.159972
-0.174346
-0.184952
-0.172433
-0.145361
-0.100793
-0.058317
-0.002487
0.044569
0.096594
0.127996
0.148377
0.146454
0.141236
0.115221
0.084735
0.030977
-0.010980
-0.074440
-0.103479
-0.146717
-0.169421
-0.175548
-0.170820
-0.138679
-0.098442
-0.039639
0.010182
0.058738
0.115654
0.156240
0.180318
0.192354
0.188196
0.170545
0.132772
0.087121
0.050585
-0.007405
-0.049069
-0.091444
-0.119663
-0.127575
-0.123657
-0.102028
-0.063505
-0.016660
0.043144
0.083052
0.128447
0.172301
0.194669
0.202610
0.207786
0.188177
0.161767
0.123153
0.070371
0.027696
-0.011764
-0.044889
-0.062603
-0.077558
-0.065319
-0.052929
-0.015575
0.029376
0.065549
0.117588
0.163199
0.196200
0.218414
0.231282
0.223371
0.211726
0.183836
0.141161
0.106788
0.068279
0.025693
-0.011231
-0.026587
-0.044731
-0.045862
-0.035007
0.000788
0.046022
0.085054
0.125333
0.169983
0.197208
0.216900
0.230955
0.206038
0.198486
0.164521
0.125779
0.085865
0.036907
-0.001130
-0.037354
-0.048306
-0.052323
-0.049408
-0.027694
0.000806
0.042491
0.084791
0.121445
0.177556
0.192212
0.204791
0.201283
0.191823
0.182942
0.154005
0.096877
0.049920
0.001419
-0.036961
-0.071385
-0.083867
-0.085353
-0.080929
-0.059135
-0.020518
0.013924
0.050641
0.107582
0.134768
0.160225
0.159876
0.170587
0.169153
0.143486
0.111028
0.051175
-0.002720
-0.051765
-0.098249
-0.128765
-0.142018
-0.155519
-0.148254
-0.125369
-0.083674
-0.032980
0.007267
0.056338
0.094095
0.118787
0.138295
0.146144
0.143678
0.105094
0.070543
0.019977
-0.047821
-0.098079
-0.151676
-0.176919
-0.185979
-0.195783
-0.188761
-0.159123
-0.124984
-0.068734
-0.021379
0.024904
0.070501
0.095289
0.102016
0.103155
0.106179
0.089084
0.056446
0.008186
-0.050684
-0.105010
-0.159024
-0.187635
-0.209134
-0.217735
-0.208603
-0.189063
-0.149861
-0.095942
-0.054730
-0.008421
0.039341
0.070244
0.092300
0.099724
0.094724
0.076991
0.041927
-0.008359
-0.031851
-0.074805
-0.122262
-0.162349
-0.186890
-0.191096
-0.185061
-0.176965
-0.146767
-0.096433
-0.053643
-0.010386
0.025814
0.061315
0.074827
0.097303
0.092462
0.063294
0.023929
0.010154
-0.026696
-0.067248
-0.115106
-0.154800
-0.173337
-0.183038
-0.186974
-0.158261
-0.132984
-0.089789
-0.055227
-0.008991
0.028782
0.071874
0.091222
0.102607
0.090893
0.069377
0.048879
0.007480
-0.037026
-0.081177
-0.130605
-0.154303
-0.158211
-0.168260
-0.159858
-0.153399
-0.121709
-0.074876
-0.017845
0.027703
0.055138
0.073876
0.094238
0.102828
0.092770
0.078202
0.046214
-0.003388
-0.049431
-0.081054
-0.119367
-0.136938
-0.161276
-0.177916
-0.159549
-0.134856
-0.096553
-0.059549
-0.014804
0.022511
0.077488
0.103617
0.101079
0.108317
0.096255
0.074577
0.044939
-0.009229
-0.049516
-0.101095
-0.139889
-0.170923
-0.183996
-0.185081
-0.166891
-0.140975
-0.119190
-0.089407
-0.029123
0.021748
0.069034
0.094586
0.105366
0.107460
0.103768
0.077656
0.039971
-0.005129
-0.060173
-0.104235
-0.145853
-0.182508
-0.196751
-0.201026
-0.184389
-0.160345
-0.119805
-0.073057
-0.029422
0.026571
0.065308
0.089147
0.115738
0.118915
0.105272
0.086995
0.035108
-0.010257
-0.054721
-0.104090
-0.158278
-0.192108
-0.216601
-0.218777
-0.197898
-0.170953
-0.135536
-0.086772
-0.050480
0.006562
0.069706
0.100662
0.109960
0.113983
0.100969
0.080544
0.044519
0.003151
-0.048097
-0.091984
-0.137262
-0.172219
-0.200768
-0.212900
-0.209637
-0.188826
-0.162255
-0.126788
-0.070740
-0.009139
0.040533
0.061892
0.100403
0.112559
0.106387
0.083462
0.046188
-0.004324
-0.055394
-0.093713
-0.139033
-0.172481
-0.200397
-0.210081
-0.198981
-0.174862
-0.154855
-0.112468
-0.068448
-0.022817
0.023581
0.057152
0.075331
0.089876
0.080924
0.064596
0.037218
-0.009025
-0.063044
-0.101704
-0.129973
-0.165373
-0.181324
-0.195970
-0.185359
-0.164776
-0.148478
-0.108334
-0.079298
-0.032081
0.001505
0.037514
0.063981
0.079549
0.090410
0.068234
0.030646
-0.007475
-0.051010
-0.082771
-0.128260
-0.161570
-0.186560
-0.191683
-0.187178
-0.173902
-0.130685
-0.094212
-0.055239
-0.001502
0.040243
0.060732
0.086528
0.100965
0.098665
0.080875
0.048956
0.009123
-0.049714
-0.088407
-0.126323
-0.145205
-0.146918
-0.161090
-0.155309
-0.118036
-0.084781
-0.045830
0.001212
0.030355
0.081120
0.096953
0.118905
0.117330
0.106008
0.079721
0.041899
0.002339
-0.040255
-0.091467
-0.134133
-0.154542
-0.164378
-0.182913
-0.161833
-0.124968
-0.081115
-0.033720
0.008174
0.059023
0.103247
0.125997
0.143023
0.138606
0.118893
0.109107
0.086572
0.049767
-0.006518
-0.060179
-0.104998
-0.134628
-0.152394
-0.154735
-0.139988
-0.121801
-0.086279
-0.040050
0.002211
0.039391
0.083836
0.114642
0.138582
0.133504
0.120174
0.093117
0.054613
0.002032
-0.070137
-0.120793
-0.141460
-0.170887
-0.209666
-0.220031
-0.205894
-0.179869
-0.132565
-0.086600
-0.050710
0.005875
0.061953
0.087228
0.105396
0.094415
0.094551
0.076092
0.043377
-0.000806
-0.063061
-0.114166
-0.166624
-0.206029
-0.221861
-0.231099
-0.225855
-0.206283
-0.170631
-0.130485
-0.085084
-0.040827
0.006663
0.054455
0.075037
0.081888
0.081674
0.060978
0.013791
-0.023680
-0.080803
-0.132393
-0.170521
-0.195278
-0.215441
-0.228728
-0.226524
-0.213192
-0.179893
-0.139613
-0.087502
-0.029715
0.013046
0.043727
0.071955
0.073236
0.076753
0.055756
0.025319
-0.014343
-0.076343
-0.123457
-0.163962
-0.197309
-0.228601
-0.239442
-0.228177
-0.205452
-0.179734
-0.144011
-0.084940
-0.031859
0.008706
0.049443
0.066237
0.072488
0.075013
0.049783
0.030612
-0.012055
-0.063895
-0.101979
-0.156641
-0.190338
-0.208982
-0.217254
-0.225037
-0.219615
-0.184040
-0.136147
-0.079274
-0.039145
0.005096
0.031968
0.069036
0.090387
0.092434
0.075677
0.052189
0.035808
0.008088
-0.026981
-0.033474
-0.054058
-0.063435
-0.062451
-0.039478
-0.004921
0.042937
0.098078
0.178777
0.246787
0.319870
0.376623
0.432212
0.472276
0.489968
0.490694
0.488402
0.475602
0.472239
0.462631
0.469900
0.469543
0.483169
0.522683
0.568221
0.608245
0.629751
0.675975
0.739507
0.769521
0.793856
0.812265
0.788903
0.747078
0.668921
0.582893
0.491836
0.383268
0.285952
0.202723
0.115522
0.040735
-0.015376
-0.038223
-0.053467
-0.048364
-0.016525
0.029527
0.073146
0.132068
0.145324
0.175414
0.183853
0.178602
0.184399
0.157340
0.120292
0.074382
0.010750
-0.041553
-0.080452
-0.140931
-0.173872
-0.178662
-0.155942
-0.120237
-0.078371
-0.040040
0.020225
0.055546
0.103553
0.127839
0.150310
0.148781
0.141479
0.117374
0.070441
0.021539
-0.024499
-0.074596
-0.122242
-0.160695
-0.186833
-0.193031
-0.181150
-0.159322
-0.114548
-0.075864
-0.012717
0.034911
0.074643
0.117886
0.136180
0.142868
0.132282
0.117179
0.082874
0.037893
-0.019042
-0.066071
-0.111827
-0.141859
-0.168731
-0.184764
-0.186034
-0.164908
-0.126581
-0.075923
-0.021364
0.023862
0.086573
0.123143
0.144231
0.147137
0.145683
0.121886
0.093137
0.056994
0.007043
-0.046013
-0.099591
-0.132548
-0.149355
-0.168203
-0.159794
-0.133010
-0.094353
-0.050603
-0.016093
0.033353
0.082148
0.120923
0.154901
0.157240
0.162323
0.147000
0.122995
0.077039
0.043685
-0.005164
-0.056276
-0.095621
-0.122046
-0.126613
-0.114900
-0.090736
-0.061609
-0.033734
0.030471
0.080863
0.108407
0.134970
0.170573
0.182185
0.180315
0.164683
0.132394
0.097537
0.048042
0.011612
-0.020929
-0.051594
-0.071045
-0.077799
-0.066040
-0.040196
-0.017645
0.026281
0.073326
0.114689
0.149030
0.189887
0.209010
0.209403
0.209739
0.193424
0.172289
0.131031
0.087530
0.044248
0.008642
-0.019822
-0.037386
-0.039159
-0.028092
-0.010168
0.022198
0.073888
0.118633
0.161901
0.189550
0.231669
0.239922
0.241175
0.241038
0.203340
0.159335
0.135004
0.098391
0.046353
-0.006884
-0.037595
-0.034815
-0.025622
-0.018498
-0.005207
0.027823
0.069414
0.129626
0.173586
0.194669
0.228156
0.249878
0.260182
0.235715
0.206401
0.166233
0.130789
0.077212
0.025368
-0.007355
-0.048845
-0.063987
-0.064188
-0.046830
-0.014763
0.027898
0.059520
0.104838
0.147948
0.186059
0.221072
0.224683
0.250730
0.228048
0.193785
0.150301
0.090864
0.044634
-0.001717
-0.040718
-0.076591
-0.099943
-0.105508
-0.102898
-0.085689
-0.048108
-0.006103
0.049898
0.105585
0.138819
0.181003
0.194033
0.203136
0.194641
0.174688
0.138222
0.077012
0.012097
-0.043908
-0.095763
-0.129015
-0.149138
-0.160062
-0.152991
-0.127403
-0.095782
-0.055397
0.003681
0.052525
0.099451
0.118518
0.129550
0.135337
0.133694
0.127733
0.091040
0.043908
-0.015143
-0.071366
-0.099466
-0.139949
-0.170441
-0.190859
-0.196079
-0.166307
-0.120347
-0.072948
-0.022466
0.016754
0.061290
0.103221
0.130367
0.133348
0.127396
0.112779
0.078148
0.040198
-0.015930
-0.071536
-0.107578
-0.149143
-0.167681
-0.180896
-0.174214
-0.170581
-0.128658
-0.097695
-0.039165
0.003111
0.053883
0.083592
0.102720
0.115324
0.113770
0.094422
0.070693
0.031057
-0.019062
-0.067883
-0.108289
-0.142320
-0.157997
-0.158139
-0.157718
-0.138466
-0.103741
-0.070825
-0.033528
0.015643
0.054696
0.083103
0.096232
0.106625
0.102454
0.099101
0.052111
0.001711
-0.040138
-0.082005
-0.115887
-0.140494
-0.154309
-0.152379
-0.152771
-0.134293
-0.110506
-0.057383
-0.026801
0.033900
0.069347
0.093221
0.105765
0.119485
0.104608
0.068651
0.033085
0.010844
-0.021734
-0.078234
-0.117846
-0.138612
-0.139405
-0.145606
-0.140460
-0.114441
-0.086147
-0.056205
-0.002019
0.040233
0.085945
0.115642
0.133531
0.133631
0.126886
0.091470
0.054771
0.016813
-0.024110
-0.070705
-0.113858
-0.138501
-0.158168
-0.167769
-0.158085
-0.133001
-0.093959
-0.042167
0.002981
0.054124
0.087819
0.122928
0.142919
0.139771
0.124657
0.103776
0.058281
0.018515
-0.031191
-0.083339
-0.125751
-0.155796
-0.188061
-0.182494
-0.167078
-0.142002
-0.097288
-0.052898
-0.005202
0.052644
0.080647
0.123224
0.137279
0.145894
0.134445
0.103431
0.070159
0.026922
-0.033030
-0.066609
-0.108033
-0.142319
-0.171836
-0.192884
-0.188466
-0.153493
-0.116035
-0.068357
-0.018991
0.030462
0.071161
0.110749
0.129376
0.144118
0.133475
0.117081
0.080170
0.029612
-0.028164
-0.072212
-0.114491
-0.158823
-0.185943
-0.200516
-0.196908
-0.182194
-0.152649
-0.096621
-0.043363
0.009462
0.052364
0.093876
0.118898
0.124798
0.125637
0.106168
0.075087
0.037306
-0.012827
-0.056335
-0.103079
-0.134911
-0.168749
-0.178963
-0.171856
-0.172232
-0.135740
-0.092833
-0.046870
-0.001410
0.030572
0.071430
0.085044
0.093059
0.100397
0.100545
0.080544
0.037002
-0.022084
-0.073583
-0.119752
-0.161017
-0.177429
-0.181801
-0.165492
-0.147437
-0.119732
-0.078781
-0.040034
0.009374
0.042908
0.068716
0.087481
0.103900
0.098132
0.088925
0.063710
0.016696
-0.035175
-0.082596
-0.118007
-0.158951
-0.174499
-0.180325
-0.176731
-0.165549
-0.135236
-0.086391
-0.031347
0.012130
0.050018
0.073075
0.087015
0.096782
0.089306
0.061055
0.024706
-0.008448
-0.044802
-0.090926
-0.126320
-0.147219
-0.158257
-0.161060
-0.149713
-0.138535
-0.102999
-0.068508
-0.021508
0.025243
0.062496
0.099716
0.109251
0.113258
0.102944
0.082811
0.044795
-0.006303
-0.049431
-0.093577
-0.132449
-0.156851
-0.166962
-0.173244
-0.147181
-0.113466
-0.079899
-0.029854
0.029530
0.073195
0.120821
0.151059
0.154134
0.157944
0.146609
0.121692
0.087165
0.035576
-0.017597
-0.071285
-0.111881
-0.138727
-0.164024
-0.175789
-0.161565
-0.135753
-0.093892
-0.036509
0.019383
0.076573
0.122418
0.150828
0.178956
0.183752
0.179586
0.143953
0.115207
0.068232
0.010831
-0.044922
-0.091258
-0.124349
-0.136427
-0.147119
-0.145031
-0.125285
-0.087899
-0.048640
-0.005995
0.045955
0.090253
0.120808
0.159375
0.175923
0.167087
0.138524
0.089777
0.036162
-0.024666
-0.070707
-0.125585
-0.172247
-0.194092
-0.199293
-0.195903
-0.161540
-0.124151
-0.072813
-0.031465
0.017892
0.062942
0.103393
0.122555
0.128294
0.119266
0.101471
0.056963
0.004793
-0.037199
-0.095251
-0.136587
-0.173646
-0.199172
-0.217632
-0.211251
-0.191326
-0.151591
-0.106567
-0.068122
-0.021341
0.010222
0.049919
0.069206
0.072256
0.065830
0.056151
0.030536
-0.003121
-0.041413
-0.093117
-0.127599
-0.174536
-0.188478
-0.206112
-0.200772
-0.176896
-0.146635
-0.102544
-0.060501
-0.015182
0.017632
0.053753
0.066104
0.070882
0.072354
0.056394
0.026690
-0.012911
-0.055788
-0.108988
-0.146870
-0.171724
-0.194709
-0.197913
-0.191515
-0.178794
-0.144002
-0.106755
-0.063066
-0.017268
0.017530
0.059866
0.070821
0.075336
0.062126
0.048629
0.010084
-0.025299
-0.066071
-0.114278
-0.153107
-0.178283
-0.188495
-0.196209
-0.189361
-0.170099
-0.139218
-0.102402
-0.060606
-0.007824
0.016770
0.042446
0.060008
0.060965
0.052541
0.038259
0.014780
-0.022249
-0.040824
-0.085896
-0.104499
-0.124611
-0.114850
-0.103102
-0.075415
-0.033847
0.020103
0.061915
0.122759
0.198881
0.246821
0.293059
0.343154
0.377434
0.399590
0.412655
0.428819
0.414791
0.395434
0.368737
0.369641
0.377364
0.390638
0.429208
0.493654
0.551459
0.625915
0.711702
0.780057
0.852143
0.883151
0.916948
0.939651
0.920058
0.881841
0.840127
0.772117
0.676353
0.562594
0.451721
0.337462
0.245461
0.171810
0.124184
0.074212
0.045627
0.066758
0.101499
0.131312
0.181210
0.226741
0.247981
0.258416
0.263402
0.252168
0.209416
0.165254
0.117543
0.055005
-0.006052
-0.061874
-0.094062
-0.123242
-0.136876
-0.128498
-0.098981
-0.058086
-0.031934
0.002566
0.062660
0.106797
0.142541
0.155382
0.162674
0.154665
0.135676
0.095249
0.059227
0.000912
-0.050541
-0.089012
-0.140537
-0.169179
-0.179468
-0.181448
-0.156349
-0.124421
-0.077161
-0.021414
0.036050
0.077424
0.106320
0.126297
0.140616
0.130977
0.110605
0.091403
0.050669
0.007991
-0.046523
-0.093779
-0.133605
-0.160997
-0.170899
-0.166519
-0.152165
-0.121649
-0.072301
-0.013510
0.027590
0.070449
0.113786
0.135810
0.137745
0.133901
0.114413
0.087397
0.045901
-0.000214
-0.039328
-0.065919
-0.100491
-0.125088
-0.128582
-0.128101
-0.112462
-0.080967
-0.044420
0.001949
0.038277
0.075482
0.120419
0.141525
0.140361
0.140097
0.116005
0.079850
0.054910
0.021513
-0.015039
-0.052712
-0.081131
-0.114173
-0.114618
-0.106921
-0.075485
-0.040259
0.004497
0.046373
0.094633
0.128473
0.156450
0.184013
0.181224
0.166557
0.151073
0.131777
0.090334
0.042334
0.000236
-0.037043
-0.067574
-0.087679
-0.074471
-0.063016
-0.046624
-0.009957
0.037672
0.085685
0.142808
0.174159
0.194281
0.212537
0.223910
0.217749
0.195223
0.157240
0.116588
0.071877
0.024782
-0.018166
-0.052883
-0.066152
-0.076527
-0.052153
-0.018348
0.018335
0.066244
0.119557
0.166328
0.207935
0.243583
0.275070
0.279929
0.266566
0.227572
0.199022
0.161300
0.107421
0.039939
-0.005514
-0.023091
-0.030070
-0.048006
-0.039099
-0.013112
0.025533
0.058702
0.103223
0.165837
0.211018
0.254841
0.274399
0.281756
0.264530
0.245900
0.204517
0.152530
0.114999
0.055002
0.006301
-0.037876
-0.059482
-0.065909
-0.055892
-0.030624
-0.004720
0.038162
0.086905
0.139228
0.184730
0.213619
0.250517
0.254957
0.258461
0.220242
0.190734
0.142846
0.100620
0.048011
0.003408
-0.038334
-0.070861
-0.083890
-0.088350
-0.067412
-0.039207
0.002361
0.032738
0.074196
0.140922
0.174553
0.185112
0.194024
0.189803
0.165229
0.126337
0.084185
0.036999
-0.009928
-0.052764
-0.089965
-0.113656
-0.114896
-0.120826
-0.109004
-0.076674
-0.044572
-0.003386
0.043497
0.086680
0.113661
0.137579
0.126791
0.108965
0.098472
0.082064
0.037685
-0.021147
-0.069908
-0.094835
-0.115870
-0.132855
-0.136031
-0.123556
-0.116937
-0.083348
-0.044541
-0.010446
0.041905
0.073713
0.092706
0.107523
0.109388
0.104316
0.076001
0.046391
0.000235
-0.042326
-0.081612
-0.125226
-0.154217
-0.165282
-0.168963
-0.159323
-0.145803
-0.117908
-0.063730
-0.011473
0.032747
0.072269
0.108759
0.116744
0.125934
0.107732
0.084076
0.038967
0.004050
-0.052173
-0.096599
-0.130524
-0.154532
-0.170960
-0.169312
-0.159798
-0.137563
-0.100219
-0.057637
-0.005635
0.036305
0.085215
0.117914
0.140841
0.149649
0.133985
0.106799
0.061162
0.014901
-0.032864
-0.079779
-0.123872
-0.155778
-0.192654
-0.193811
-0.184872
-0.150125
-0.106044
-0.060614
-0.009866
0.036114
0.094778
0.121938
0.145693
0.155826
0.148108
0.115033
0.078664
0.040439
-0.015273
-0.078980
-0.130942
-0.156907
-0.182013
-0.201762
-0.184413
-0.165049
-0.119074
-0.070726
-0.021781
0.025323
0.082453
0.110950
0.151268
0.161718
0.159570
0.129485
0.095174
0.045749
-0.009811
-0.052842
-0.105540
-0.144312
-0.154744
-0.176254
-0.164752
-0.138350
-0.109278
-0.064380
-0.018636
0.017047
0.070439
0.096023
0.139292
0.158621
0.144864
0.124288
0.084590
0.054052
-0.001725
-0.051133
-0.099940
-0.133303
-0.155576
-0.164218
-0.154134
-0.138061
-0.114354
-0.076161
-0.028832
0.017757
0.073437
0.104024
0.121130
0.135766
0.130644
0.096627
0.066221
0.036600
-0.002516
-0.047399
-0.099186
-0.128195
-0.141399
-0.159146
-0.150561
-0.145592
-0.118921
-0.074744
-0.025835
0.013089
0.069856
0.093204
0.112131
0.131766
0.114957
0.095932
0.060985
0.013499
-0.027078
-0.076278
-0.105407
-0.135343
-0.148995
-0.164032
-0.159670
-0.130079
-0.099690
-0.063725
-0.019438
0.024773
0.069978
0.084707
0.104427
0.110421
0.099449
0.069719
0.037926
-0.001813
-0.041876
-0.085601
-0.121510
-0.148384
-0.161517
-0.169170
-0.157073
-0.139071
-0.108133
-0.060729
-0.016494
0.024153
0.074840
0.101619
0.113851
0.123854
0.110053
0.083456
0.045449
0.000139
-0.051147
-0.101811
-0.157273
-0.169609
-0.189628
-0.194090
-0.181335
-0.169800
-0.118702
-0.067889
-0.014832
0.033557
0.072812
0.105172
0.124007
0.128935
0.115457
0.085094
0.055954
0.008282
-0.047196
-0.105844
-0.154650
-0.189289
-0.201666
-0.206252
-0.199465
-0.163675
-0.131628
-0.084121
-0.032331
-0.001573
0.055211
0.097224
0.120587
0.127176
0.107995
0.094036
0.046869
0.004428
-0.043750
-0.103145
-0.153703
-0.175627
-0.197991
-0.207639
-0.192068
-0.168544
-0.135176
-0.083712
-0.036505
0.007353
0.058437
0.096715
0.134548
0.152691
0.140535
0.104800
0.078574
0.036488
-0.008910
-0.063719
-0.119332
-0.150567
-0.172443
-0.179332
-0.162263
-0.140306
-0.111634
-0.069935
-0.009929
0.036694
0.077176
0.126692
0.152658
0.167183
0.148899
0.129253
0.095349
0.043030
0.001949
-0.047109
-0.098849
-0.127982
-0.152774
-0.152716
-0.147885
-0.126275
-0.107202
-0.059684
-0.032745
0.024863
0.091864
0.122923
0.150629
0.159308
0.150742
0.144240
0.102530
0.068531
0.028922
-0.014563
-0.053304
-0.098199
-0.113335
-0.149918
-0.144563
-0.132228
-0.097700
-0.059637
-0.014916
0.026664
0.054234
0.088101
0.103709
0.124931
0.106874
0.086499
0.054554
0.000985
-0.045284
-0.091993
-0.123278
-0.150613
-0.153049
-0.159324
-0.160838
-0.150336
-0.108311
-0.070163
-0.038739
0.010697
0.043397
0.065138
0.081887
0.097326
0.085979
0.060184
0.021669
-0.024710
-0.072863
-0.117924
-0.155287
-0.188951
-0.215054
-0.214252
-0.201590
-0.176055
-0.130897
-0.099165
-0.049716
-0.006082
0.040047
0.067510
0.072433
0.073252
0.054176
0.029550
0.000637
-0.030627
-0.086012
-0.129702
-0.172447
-0.204420
-0.215336
-0.224436
-0.214789
-0.187905
-0.141427
-0.096418
-0.058984
-0.014690
0.038471
0.078877
0.091390
0.087965
0.082666
0.048477
0.006005
-0.039349
-0.080443
-0.133378
-0.185578
-0.213677
-0.231087
-0.240854
-0.239132
-0.208987
-0.170505
-0.120438
-0.066364
-0.009216
0.031808
0.059662
0.075148
0.090343
0.079304
0.059185
0.013283
-0.022020
-0.073978
-0.132020
-0.181739
-0.221248
-0.241182
-0.260893
-0.236469
-0.218280
-0.181275
-0.141845
-0.095290
-0.049258
0.009400
0.047505
0.069409
0.085953
0.080505
0.064369
0.033842
0.006215
-0.028914
-0.067862
-0.113006
-0.128926
-0.139294
-0.125814
-0.109706
-0.077076
-0.036635
0.017946
0.091934
0.155715
0.223219
0.282088
0.328111
0.382429
0.414768
0.447166
0.454384
0.459085
0.440277
0.439399
0.432191
0.420521
0.435804
0.474478
0.525061
0.569669
0.621176
0.680997
0.748598
0.813047
0.860675
0.887651
0.892996
0.869483
0.840656
0.808365
0.743672
0.659879
0.553846
0.444237
0.340774
0.259060
0.176362
0.102993
0.066987
0.048842
0.069525
0.089090
0.125905
0.164138
0.204157
0.214440
0.222917
0.209483
0.188739
0.160708
0.120169
0.076026
0.019707
-0.033376
-0.069223
-0.113202
-0.125633
-0.138572
-0.121866
-0.095111
-0.066506
-0.018054
0.025320
0.049494
0.083520
0.117395
0.131416
0.134301
0.121582
0.089234
0.053889
0.010051
-0.040181
-0.082859
-0.135762
-0.160299
-0.186851
-0.191427
-0.182571
-0.144549
-0.109682
-0.066897
-0.015753
0.022641
0.053432
0.084688
0.116930
0.131752
0.109956
0.082993
0.048263
0.003018
-0.038482
-0.090632
-0.129137
-0.171233
-0.188152
-0.194823
-0.188883
-0.166818
-0.123829
-0.074108
-0.019960
0.036349
0.075022
0.113454
0.133190
0.142243
0.133097
0.113734
0.074939
0.028006
-0.023792
-0.072458
-0.119816
-0.162821
-0.179328
-0.190484
-0.180284
-0.156138
-0.118381
-0.068192
-0.018550
0.032072
0.081857
0.101320
0.134931
0.152908
0.155945
0.139857
0.101222
0.055826
0.002144
-0.044758
-0.087295
-0.123151
-0.152591
-0.163557
-0.163226
-0.134291
-0.094699
-0.051882
0.003928
0.046467
0.092050
0.136402
0.164044
0.172605
0.179947
0.157562
0.120846
0.094094
0.050022
-0.000103
-0.043356
-0.079195
-0.100228
-0.112922
-0.100892
-0.077757
-0.050843
-0.013691
0.033259
0.076814
0.117594
0.149934
0.178632
0.179919
0.179092
0.162431
0.159935
0.124472
0.079722
0.033887
-0.006712
-0.044864
-0.058296
-0.068839
-0.059659
-0.048958
-0.011259
0.029670
0.076359
0.118374
0.163222
0.199688
0.209756
0.220979
0.210756
0.190215
0.149249
0.112797
0.077562
0.044664
0.010699
-0.030585
-0.050077
-0.061884
-0.057750
-0.022064
0.028794
0.061222
0.104146
0.149871
0.172392
0.204995
0.222162
0.219574
0.202302
0.188533
0.158314
0.120248
0.072950
0.022590
-0.022190
-0.046803
-0.073510
-0.070566
-0.052501
-0.041960
-0.007217
0.030004
0.082264
0.137470
0.177164
0.214410
0.221492
0.218260
0.202674
0.178879
0.138662
0.092070
0.036463
-0.015527
-0.067116
-0.103826
-0.121815
-0.136000
-0.117011
-0.094109
-0.054152
-0.013283
0.034455
0.079232
0.113819
0.149480
0.170331
0.169608
0.165991
0.139398
0.102930
0.055449
0.006655
-0.053328
-0.104736
-0.145603
-0.168271
-0.184010
-0.179423
-0.160980
-0.122700
-0.074994
-0.036734
0.016071
0.066127
0.115608
0.124591
0.136405
0.128059
0.094255
0.062059
0.017998
-0.035671
-0.076733
-0.125435
-0.159884
-0.187078
-0.198917
-0.202359
-0.195354
-0.161114
-0.113103
-0.061424
-0.014831
0.026480
0.063957
0.085388
0.090607
0.081025
0.063586
0.042538
0.006342
-0.044571
-0.093508
-0.127935
-0.167075
-0.201277
-0.196648
-0.192646
-0.175182
-0.147255
-0.100477
-0.066415
-0.020700
0.021570
0.052346
0.073746
0.076129
0.076991
0.058047
0.019360
-0.022532
-0.074772
-0.107170
-0.144429
-0.175480
-0.190715
-0.197804
-0.198050
-0.182022
-0.160423
-0.111368
-0.066757
-0.033066
0.016685
0.061750
0.091390
0.094821
0.087293
0.049568
0.020176
-0.027900
-0.080508
-0.115744
-0.148173
-0.187735
-0.205331
-0.215044
-0.207567
-0.176117
-0.131685
-0.092996
-0.044537
0.008490
0.042290
0.082369
0.103103
0.097590
0.085886
0.056546
0.021756
-0.030950
-0.056583
-0.111859
-0.159768
-0.202810
-0.218188
-0.223281
-0.222467
-0.189737
-0.139940
-0.093176
-0.029463
0.016937
0.050558
0.094815
0.114597
0.126276
0.114175
0.094001
0.050418
0.001705
-0.048938
-0.100250
-0.141639
-0.176273
-0.206210
-0.214834
-0.206653
-0.181692
-0.159563
-0.113966
-0.051466
-0.016592
0.036072
0.078187
0.102178
0.112779
0.106980
0.077514
0.055069
0.013355
-0.046455
-0.082228
-0.130261
-0.168831
-0.188688
-0.199723
-0.207482
-0.185538
-0.152917
-0.102413
-0.054783
-0.002797
0.028318
0.056622
0.074963
0.092711
0.099203
0.076303
0.039969
0.002173
-0.052795
-0.092599
-0.135305
-0.167711
-0.185847
-0.194294
-0.198103
-0.179892
-0.161071
-0.124934
-0.068132
-0.015517
0.019213
0.059774
0.079676
0.091016
0.081010
0.052205
0.021945
-0.026769
-0.057627
-0.098876
-0.144993
-0.181999
-0.202321
-0.196757
-0.191072
-0.168700
-0.147257
-0.096959
-0.063854
-0.013550
0.033859
0.071275
0.075891
0.080247
0.064646
0.032386
0.004127
-0.043758
-0.082294
-0.123637
-0.155354
-0.186467
-0.202201
-0.205156
-0.188438
-0.172230
-0.149340
-0.108149
-0.055572
0.003850
0.043888
0.077948
0.092242
0.088063
0.078934
0.037008
-0.005952
-0.043878
-0.088875
-0.131359
-0.176207
-0.213100
-0.232693
-0.225856
-0.217709
-0.201554
-0.162918
-0.122907
-0.064279
-0.016556
0.020142
0.063540
0.086955
0.091389
0.073028
0.043021
0.017775
-0.032322
-0.087843
-0.143180
-0.175681
-0.217040
-0.248854
-0.251925
-0.236374
-0.206869
-0.165105
-0.117537
-0.076117
-0.024445
0.028883
0.058776
0.080559
0.094143
0.080711
0.048025
0.011037
-0.034821
-0.082081
-0.139136
-0.174577
-0.203312
-0.238601
-0.249539
-0.249947
-0.221202
-0.188088
-0.150847
-0.092237
-0.028195
0.024675
0.069551
0.093006
0.096431
0.086022
0.053964
0.031672
-0.011189
-0.069468
-0.121522
-0.171126
-0.211534
-0.227739
-0.240094
-0.238668
-0.218917
-0.188687
-0.151420
-0.104816
-0.045032
0.001254
0.043741
0.070445
0.075483
0.077258
0.053283
0.032999
-0.011049
-0.066162
-0.107997
-0.151098
-0.190674
-0.216309
-0.224528
-0.217842
-0.197510
-0.156667
-0.121836
-0.072070
-0.020297
0.023459
0.056395
0.089597
0.095570
0.090352
0.082307
0.047054
0.001533
-0.041962
-0.074782
-0.118957
-0.156534
-0.185162
-0.199542
-0.197975
-0.177981
-0.151835
-0.108832
-0.050071
-0.015488
0.022615
0.064769
0.081948
0.103938
0.095834
0.066384
0.040438
0.001046
-0.027752
-0.064814
-0.104382
-0.139950
-0.163550
-0.166037
-0.163437
-0.146293
-0.109215
-0.066627
-0.025822
0.006160
0.034515
0.081396
0.104942
0.102679
0.094035
0.072797
0.029478
-0.011101
-0.045847
-0.105828
-0.147911
-0.198693
-0.223057
-0.217125
-0.201403
-0.172299
-0.146310
-0.114603
-0.069737
-0.016032
0.023453
0.046346
0.061356
0.061371
0.055204
0.023663
-0.016602
-0.057240
-0.093714
-0.134411
-0.180880
-0.205320
-0.234367
-0.238587
-0.232342
-0.205617
-0.174783
-0.118638
-0.080161
-0.037212
-0.000037
0.030640
0.047915
0.053130
0.024621
-0.001404
-0.035807
-0.091197
-0.136267
-0.183162
-0.214098
-0.246017
-0.268208
-0.267741
-0.260381
-0.229257
-0.197989
-0.146057
-0.094137
-0.049751
-0.011697
0.014008
0.046643
0.050171
0.043994
0.004899
-0.028015
-0.075819
-0.127592
-0.178738
-0.225985
-0.251916
-0.272451
-0.285383
-0.296019
-0.259275
-0.209169
-0.148805
-0.092157
-0.049981
-0.017110
0.016558
0.048846
0.041726
0.033261
0.017834
-0.020248
-0.073272
-0.116057
-0.169024
-0.213708
-0.256388
-0.291957
-0.302717
-0.284300
-0.242175
-0.210735
-0.157990
-0.104730
-0.046099
-0.010264
0.015415
0.044582
0.057168
0.042025
0.021042
-0.021296
-0.075282
-0.122700
-0.163116
-0.208422
-0.242820
-0.264834
-0.272816
-0.262518
-0.228584
-0.179779
-0.131071
-0.076425
-0.005788
0.060596
0.120681
0.158145
0.177154
0.184753
0.175400
0.173356
0.136738
0.123771
0.102593
0.074524
0.071847
0.064173
0.079687
0.129927
0.179221
0.251874
0.325014
0.382296
0.458960
0.537602
0.608817
0.685175
0.730944
0.771012
0.764280
0.764151
0.724693
0.671738
0.637002
0.590715
0.547236
0.496729
0.456689
0.412788
0.374552
0.351961
0.326370
0.310614
0.295160
0.293233
0.275178
0.249427
0.212987
0.178302
0.142881
0.108340
0.057266
0.010089
-0.033326
-0.085100
-0.123922
-0.149839
-0.158873
-0.161952
-0.133106
-0.117946
-0.068635
-0.028248
0.013490
0.046083
0.068544
0.090441
0.098673
0.075038
0.047949
0.018105
-0.012223
-0.059743
-0.111135
-0.160808
-0.187901
-0.207285
-0.209010
-0.193216
-0.178011
-0.144311
-0.117346
-0.067070
-0.019844
0.034538
0.061816
0.073880
0.071568
0.053311
0.029655
-0.003300
-0.056844
-0.095535
-0.136306
-0.179490
-0.214606
-0.229215
-0.242073
-0.223961
-0.204421
-0.172676
-0.115476
-0.068652
-0.024397
0.022236
0.056845
0.078855
0.085990
0.063051
0.035065
-0.002144
-0.054219
-0.104394
-0.152299
-0.188170
-0.221990
-0.236555
-0.255410
-0.242856
-0.208183
-0.162917
-0.112158
-0.055834
-0.011866
0.039420
0.064377
0.085041
0.090113
0.084046
0.065299
0.041132
-0.001366
-0.062390
-0.123977
-0.172296
-0.210545
-0.233669
-0.233166
-0.231225
-0.201635
-0.163829
-0.122140
-0.063274
-0.012920
0.040344
0.073895
0.106678
0.117567
0.114896
0.099057
0.053595
0.016071
-0.032129
-0.076321
-0.116653
-0.164080
-0.186960
-0.198215
-0.192544
-0.184896
-0.144295
-0.091669
-0.037556
0.011884
0.058067
0.098139
0.145867
0.174813
0.153841
0.142336
0.104829
0.062007
0.016162
-0.024150
-0.080709
-0.112980
-0.141753
-0.161377
-0.155532
-0.142121
-0.101868
-0.053333
0.003674
0.047896
0.095267
0.130922
0.152883
0.156975
0.166205
0.147195
0.116337
0.074510
0.034055
-0.007001
-0.045559
-0.078454
-0.104908
-0.108061
-0.112483
-0.095574
-0.064662
-0.032572
0.015054
0.057563
0.102247
0.142162
0.158882
0.169949
0.160900
0.152993
0.109683
0.083058
0.041145
-0.011547
-0.061884
-0.073686
-0.093825
-0.107501
-0.124829
-0.118940
-0.075604
-0.045305
0.000547
0.046695
0.096543
0.128736
0.157969
0.163728
0.153580
0.124495
0.091738
0.052496
0.006033
-0.041987
-0.082277
-0.108982
-0.143320
-0.151543
-0.136435
-0.119407
-0.079990
-0.041450
0.001240
0.021767
0.050228
0.083629
0.099535
0.105194
0.095548
0.070782
0.033673
-0.004550
-0.047394
-0.093581
-0.135526
-0.168303
-0.197397
-0.206009
-0.187283
-0.179165
-0.136774
-0.100220
-0.058326
-0.020844
0.015977
0.030409
0.046183
0.054423
0.039366
0.018929
-0.022994
-0.073032
-0.118804
-0.161518
-0.192642
-0.214688
-0.234092
-0.228642
-0.241081
-0.216727
-0.188191
-0.144542
-0.102368
-0.062695
-0.019507
0.007643
0.031326
0.027201
0.020905
-0.000721
-0.057256
-0.091424
-0.145345
-0.189123
-0.234428
-0.264110
-0.292844
-0.293638
-0.279456
-0.254819
-0.216997
-0.169557
-0.128195
-0.086161
-0.038975
-0.005483
0.019652
0.010366
0.000777
-0.025991
-0.066180
-0.120408
-0.165901
-0.209967
-0.258525
-0.289292
-0.313925
-0.307577
-0.302143
-0.275869
-0.236142
-0.192192
-0.134863
-0.085626
-0.041372
-0.006612
0.013338
0.018298
0.013062
-0.018969
-0.061078
-0.110504
-0.156999
-0.198928
-0.250214
-0.288557
-0.306326
-0.307172
-0.308635
-0.274337
-0.251978
-0.209471
-0.151938
-0.100915
-0.057938
-0.008335
0.020400
0.035165
0.016203
-0.016886
-0.064257
-0.100093
-0.145113
-0.191525
-0.238244
-0.285721
-0.306018
-0.317923
-0.310099
-0.288944
-0.256806
-0.218564
-0.172716
-0.114481
-0.061389
-0.014164
0.004846
0.010755
0.010596
-0.004019
-0.032584
-0.083701
-0.137803
-0.194896
-0.229266
-0.274554
-0.301341
-0.308702
-0.301554
-0.288801
-0.246694
-0.207367
-0.156131
-0.102729
-0.054080
-0.024856
0.002288
0.013382
0.011189
-0.009955
-0.042961
-0.086603
-0.135232
-0.178082
-0.219861
-0.263897
-0.295069
-0.307979
-0.299295
-0.287770
-0.263294
-0.215372
-0.175490
-0.126813
-0.090802
-0.055336
-0.025094
-0.018757
-0.020502
-0.026610
-0.070102
-0.097152
-0.162210
-0.198792
-0.232728
-0.266781
-0.286059
-0.301409
-0.301850
-0.292999
-0.261322
-0.218709
-0.174587
-0.131985
-0.100045
-0.062992
-0.023175
-0.012654
-0.027732
-0.039375
-0.080290
-0.113086
-0.159106
-0.210976
-0.250215
-0.282891
-0.299971
-0.308177
-0.302201
-0.282905
-0.256961
-0.223437
-0.179246
-0.138539
-0.106731
-0.077155
-0.065066
-0.061383
-0.057292
-0.079086
-0.103523
-0.146078
-0.185730
-0.226850
-0.256692
-0.298734
-0.320880
-0.331222
-0.314670
-0.301514
-0.265726
-0.223667
-0.175439
-0.139908
-0.103296
-0.072169
-0.051430
-0.044791
-0.053079
-0.081197
-0.108878
-0.146445
-0.191255
-0.236143
-0.275574
-0.312705
-0.345827
-0.359265
-0.350814
-0.296334
-0.255596
-0.227555
-0.176262
-0.132126
-0.095973
-0.079815
-0.057804
-0.055482
-0.079127
-0.098494
-0.123573
-0.150180
-0.206538
-0.255431
-0.295769
-0.329774
-0.347662
-0.350706
-0.346598
-0.313063
-0.289525
-0.236764
-0.188731
-0.147334
-0.106526
-0.072596
-0.056091
-0.044278
-0.067224
-0.085346
-0.130720
-0.171771
-0.224137
-0.271945
-0.319314
-0.345080
-0.372075
-0.363121
-0.345394
-0.317920
-0.292890
-0.253246
-0.205791
-0.158482
-0.113439
-0.073901
-0.058525
-0.051422
-0.061110
-0.091155
-0.135292
-0.182054
-0.230855
-0.281650
-0.318983
-0.352279
-0.372492
-0.372274
-0.357384
-0.335601
-0.302262
-0.244860
-0.205498
-0.151115
-0.107101
-0.075310
-0.056026
-0.045871
-0.058087
-0.084732
-0.131557
-0.156813
-0.206327
-0.252751
-0.299062
-0.333417
-0.361085
-0.357953
-0.340736
-0.331616
-0.301347
-0.250920
-0.196256
-0.138791
-0.097318
-0.057799
-0.026158
-0.016400
-0.027518
-0.038119
-0.084447
-0.128086
-0.184882
-0.234120
-0.289160
-0.330378
-0.353208
-0.366532
-0.376571
-0.352359
-0.314763
-0.258513
-0.183796
-0.124927
-0.079228
-0.041766
-0.030123
-0.016620
-0.014163
-0.032097
-0.059551
-0.104057
-0.169100
-0.217357
-0.261623
-0.294570
-0.319290
-0.326841
-0.316528
-0.316430
-0.282775
-0.254151
-0.208971
-0.164283
-0.111964
-0.081640
-0.057584
-0.040519
-0.044169
-0.072016
-0.105945
-0.149701
-0.190581
-0.239567
-0.288890
-0.330332
-0.352799
-0.390163
-0.375331
-0.370026
-0.338013
-0.297516
-0.250074
-0.206396
-0.164517
-0.130380
-0.104948
-0.076886
-0.094986
-0.105719
-0.141946
-0.187960
-0.235488
-0.268840
-0.327395
-0.357489
-0.382615
-0.394544
-0.382971
-0.370377
-0.352054
-0.313118
-0.269205
-0.235277
-0.186352
-0.150747
-0.130081
-0.110614
-0.120594
-0.141867
-0.173797
-0.207291
-0.242064
-0.288910
-0.323947
-0.366554
-0.382368
-0.407938
-0.402868
-0.392417
-0.365221
-0.327268
-0.266703
-0.237974
-0.200067
-0.171402
-0.148428
-0.122318
-0.133277
-0.149878
-0.178126
-0.214689
-0.257092
-0.308473
-0.346747
-0.376082
-0.396025
-0.412834
-0.415327
-0.394786
-0.364660
-0.307915
-0.263519
-0.215773
-0.183092
-0.151583
-0.139967
-0.130926
-0.134616
-0.164166
-0.199779
-0.229234
-0.276607
-0.335273
-0.385903
-0.402299
-0.412921
-0.413975
-0.396778
-0.379504
-0.348074
-0.302666
-0.257713
-0.220121
-0.179259
-0.156851
-0.133197
-0.130141
-0.145330
-0.171654
-0.210182
-0.242887
-0.272557
-0.310106
-0.338136
-0.362011
-0.370947
-0.365310
-0.336977
-0.293268
-0.247838
-0.183507
-0.116289
-0.065970
-0.012607
0.044733
0.080497
0.102805
0.110417
0.113227
0.098411
0.085685
0.068001
0.048323
0.033201
0.025676
0.041586
0.045676
0.088848
0.158683
0.235580
0.316534
0.401373
0.497968
0.574519
0.639167
0.672742
0.685485
0.674866
0.643768
0.587662
0.532164
0.466072
0.383201
0.271223
0.147237
0.064430
-0.003980
-0.035466
-0.059212
-0.079666
-0.080960
-0.075027
-0.048875
-0.020775
0.007377
0.019400
0.014412
-0.008191
-0.044661
-0.070203
-0.130477
-0.174934
-0.225188
-0.280531
-0.322920
-0.352113
-0.374446
-0.365075
-0.339145
-0.308908
-0.263173
-0.216096
-0.168051
-0.126387
-0.081785
-0.051309
-0.042942
-0.049919
-0.067269
-0.115727
-0.156923
-0.203583
-0.253849
-0.302056
-0.350016
-0.373808
-0.401276
-0.395130
-0.382433
-0.344204
-0.300952
-0.261020
-0.206479
-0.153832
-0.111697
-0.093854
-0.083373
-0.083369
-0.102696
-0.133464
-0.180898
-0.222606
-0.269338
-0.315435
-0.350392
-0.375466
-0.389183
-0.397136
-0.367703
-0.341671
-0.293688
-0.256067
-0.203442
-0.153311
-0.126803
-0.105542
-0.091978
-0.086872
-0.103471
-0.114260
-0.155374
-0.202368
-0.262737
-0.299856
-0.337327
-0.354555
-0.374593
-0.368319
-0.355850
-0.315842
-0.278384
-0.236962
-0.186362
-0.143175
-0.109530
-0.083013
-0.071235
-0.080818
-0.090726
-0.119085
-0.150771
-0.192633
-0.239143
-0.280163
-0.316614
-0.335687
-0.344922
-0.334543
-0.315582
-0.297199
-0.244761
-0.201850
-0.153090
-0.111834
-0.082269
-0.066472
-0.059460
-0.066707
-0.089987
-0.109347
-0.153791
-0.197876
-0.235019
-0.268807
-0.279148
-0.299126
-0.308544
-0.298857
-0.270476
-0.240202
-0.198528
-0.151431
-0.104642
-0.060861
-0.027825
-0.012073
-0.016892
-0.023488
-0.037969
-0.061548
-0.108693
-0.152139
-0.197005
-0.245496
-0.269615
-0.281215
-0.282008
-0.265254
-0.241700
-0.224738
-0.165285
-0.121396
-0.073149
-0.023079
0.015644
0.026806
0.032422
0.018469
-0.014352
-0.044912
-0.092891
-0.120902
-0.167290
-0.214425
-0.247401
-0.270023
-0.266299
-0.262015
-0.227946
-0.191003
-0.150999
-0.109215
-0.063139
-0.016552
0.027291
0.041826
0.041695
0.034953
0.005558
-0.026269
-0.074222
-0.122879
-0.185916
-0.226934
-0.263871
-0.289028
-0.300144
-0.289904
-0.272201
-0.228796
-0.182240
-0.124273
-0.071839
-0.023924
0.011428
0.030932
0.034711
0.019243
0.000016
-0.035108
-0.079476
-0.140755
-0.191009
-0.249730
-0.290823
-0.313171
-0.317532
-0.324088
-0.297693
-0.264632
-0.225973
-0.179567
-0.130617
-0.087998
-0.052121
-0.034348
-0.020894
-0.017665
-0.044744
-0.075203
-0.116602
-0.176313
-0.235274
-0.291067
-0.334109
-0.359944
-0.376778
-0.374282
-0.354113
-0.320649
-0.268678
-0.221552
-0.181389
-0.139217
-0.111818
-0.073619
-0.062445
-0.063147
-0.098947
-0.119877
-0.173661
-0.218106
-0.277704
-0.319346
-0.362329
-0.405901
-0.411002
-0.395719
-0.383368
-0.355209
-0.304235
-0.256532
-0.205952
-0.165238
-0.126864
-0.105527
-0.099480
-0.090376
-0.114868
-0.153311
-0.192478
-0.226931
-0.283862
-0.329863
-0.376959
-0.396687
-0.411389
-0.407904
-0.393337
-0.362795
-0.322632
-0.284053
-0.235554
-0.194761
-0.160002
-0.138478
-0.122449
-0.127140
-0.149677
-0.174224
-0.201199
-0.244393
-0.284472
-0.330715
-0.365041
-0.391984
-0.399082
-0.407975
-0.385279
-0.354685
-0.325811
-0.286391
-0.232940
-0.191224
-0.146801
-0.136583
-0.129802
-0.121667
-0.138228
-0.176347
-0.220886
-0.248897
-0.282793
-0.312289
-0.355820
-0.375092
-0.397476
-0.391455
-0.359170
-0.331185
-0.295431
-0.264534
-0.213159
-0.167492
-0.145285
-0.130623
-0.123520
-0.119889
-0.146150
-0.173092
-0.221855
-0.257480
-0.297253
-0.338447
-0.371250
-0.390374
-0.391064
-0.382730
-0.373356
-0.335416
-0.286061
-0.242709
-0.200468
-0.152584
-0.119641
-0.104042
-0.104372
-0.111699
-0.132200
-0.178085
-0.196491
-0.244373
-0.297932
-0.339031
-0.368040
-0.382876
-0.388886
-0.377010
-0.357015
-0.312896
-0.266574
-0.219536
-0.183906
-0.150507
-0.111628
-0.090041
-0.086820
-0.096145
-0.130238
-0.168756
-0.211945
-0.259276
-0.302230
-0.338847
-0.377792
-0.395301
-0.404711
-0.394036
-0.365769
-0.321222
-0.278471
-0.227005
-0.185740
-0.151342
-0.118689
-0.093339
-0.089414
-0.093753
-0.123112
-0.161560
-0.208300
-0.240076
-0.288193
-0.337220
-0.374576
-0.398358
-0.409713
-0.406815
-0.386025
-0.339146
-0.290631
-0.234262
-0.183177
-0.145559
-0.121844
-0.093598
-0.083969
-0.086095
-0.122895
-0.152114
-0.210143
-0.262981
-0.311104
-0.346950
-0.380135
-0.405991
-0.416090
-0.402605
-0.381145
-0.344232
-0.295577
-0.245841
-0.194816
-0.154444
-0.122148
-0.092078
-0.075148
-0.084253
-0.108884
-0.150293
-0.191247
-0.238236
-0.287010
-0.343752
-0.373961
-0.408474
-0.419524
-0.409992
-0.403373
-0.356666
-0.321561
-0.261850
-0.209194
-0.163902
-0.133449
-0.098149
-0.093831
-0.098882
-0.119125
-0.143857
-0.193118
-0.250635
-0.297881
-0.337143
-0.375111
-0.402957
-0.409786
-0.412086
-0.390748
-0.361447
-0.320632
-0.276676
-0.217455
-0.174785
-0.137660
-0.113379
-0.103346
-0.099678
-0.128168
-0.150852
-0.198328
-0.258688
-0.299829
-0.349714
-0.371541
-0.391034
-0.406491
-0.397236
-0.392856
-0.350522
-0.318654
-0.281628
-0.236375
-0.196514
-0.161358
-0.122383
-0.108530
-0.105402
-0.129519
-0.166878
-0.198150
-0.244194
-0.284647
-0.319535
-0.358131
-0.374814
-0.392867
-0.396110
-0.371821
-0.339526
-0.309825
-0.265566
-0.215429
-0.169926
-0.129988
-0.100445
-0.084564
-0.095423
-0.115839
-0.129234
-0.168377
-0.222993
-0.265274
-0.301111
-0.328422
-0.347994
-0.360741
-0.359159
-0.336138
-0.310379
-0.275087
-0.219902
-0.167106
-0.123428
-0.092451
-0.083706
-0.087178
-0.093148
-0.094278
-0.126670
-0.168790
-0.218262
-0.262398
-0.304119
-0.336623
-0.360777
-0.360157
-0.350605
-0.321701
-0.279030
-0.252234
-0.200764
-0.157169
-0.126479
-0.096995
-0.070740
-0.058763
-0.069046
-0.086688
-0.113727
-0.157069
-0.200079
-0.234562
-0.270460
-0.301491
-0.331656
-0.340172
-0.340737
-0.316841
-0.285636
-0.245566
-0.194967
-0.159696
-0.131337
-0.093480
-0.077468
-0.076011
-0.096499
-0.115879
-0.163565
-0.195476
-0.238921
-0.290876
-0.326979
-0.360565
-0.371297
-0.384916
-0.378277
-0.345055
-0.318922
-0.275834
-0.227405
-0.201554
-0.160187
-0.110338
-0.097342
-0.105574
-0.111544
-0.141059
-0.183483
-0.223464
-0.274179
-0.328231
-0.366690
-0.391624
-0.406316
-0.413255
-0.404166
-0.382442
-0.327592
-0.295041
-0.260598
-0.210916
-0.158218
-0.127636
-0.108445
-0.111255
-0.111374
-0.146095
-0.178505
-0.225819
-0.282725
-0.330506
-0.364968
-0.388737
-0.412126
-0.419104
-0.416901
-0.391903
-0.346767
-0.304292
-0.243276
-0.193817
-0.159547
-0.119687
-0.095316
-0.089303
-0.100632
-0.132623
-0.170947
-0.212700
-0.263241
-0.326462
-0.367064
-0.399396
-0.416585
-0.431010
-0.425846
-0.392313
-0.358471
-0.315103
-0.258331
-0.212890
-0.168566
-0.126922
-0.098102
-0.089262
-0.090955
-0.115410
-0.156768
-0.195863
-0.256150
-0.305833
-0.347454
-0.377549
-0.409476
-0.428405
-0.435086
-0.415887
-0.375620
-0.331474
-0.274167
-0.225836
-0.166286
-0.123710
-0.082310
-0.074144
-0.069500
-0.073424
-0.092885
-0.115441
-0.154039
-0.195151
-0.219439
-0.252821
-0.258836
-0.255106
-0.252061
-0.216393
-0.165301
-0.100003
-0.010273
0.077679
0.147126
0.215934
0.276590
0.317855
0.339355
0.350879
0.345915
0.329489
0.319313
0.319672
0.314783
0.313478
0.319110
0.352144
0.377233
0.424529
0.458570
0.495493
0.556473
0.583414
0.603299
0.624823
0.616546
0.582582
0.534700
0.439928
0.351051
0.255005
0.149372
0.055242
-0.034142
-0.108781
-0.163606
-0.198400
-0.225777
-0.226353
-0.213632
-0.180210
-0.135065
-0.097319
-0.071508
-0.043945
-0.025867
-0.017925
-0.015475
-0.025803
-0.056463
-0.089894
-0.148341
-0.197361
-0.249329
-0.281395
-0.298284
-0.304111
-0.303169
-0.279289
-0.241193
-0.205198
-0.167419
-0.123645
-0.088386
-0.055977
-0.047934
-0.037875
-0.044141
-0.073179
-0.109062
-0.141350
-0.196617
-0.231175
-0.279051
-0.308836
-0.328055
-0.335710
-0.333317
-0.313909
-0.279409
-0.239228
-0.185809
-0.128153
-0.093928
-0.065963
-0.056490
-0.039809
-0.045757
-0.068614
-0.114595
-0.151289
-0.192111
-0.250379
-0.299874
-0.319218
-0.328725
-0.326676
-0.325604
-0.299518
-0.252022
-0.210589
-0.160771
-0.119409
-0.070199
-0.039880
-0.023628
-0.015295
-0.033498
-0.053602
-0.093174
-0.133476
-0.184610
-0.240858
-0.277562
-0.309711
-0.320911
-0.321933
-0.318577
-0.291736
-0.245395
-0.204657
-0.156770
-0.108476
-0.051948
-0.005357
0.009553
0.008611
-0.003134
-0.021983
-0.057249
-0.092816
-0.136434
-0.186908
-0.246339
-0.279023
-0.303841
-0.307126
-0.292604
-0.269685
-0.233241
-0.190065
-0.125447
-0.063819
-0.013030
0.017516
0.041612
0.059519
0.048090
0.031790
-0.006664
-0.042402
-0.098262
-0.152429
-0.197941
-0.228325
-0.246249
-0.249742
-0.254537
-0.233341
-0.198005
-0.153367
-0.099687
-0.047890
0.000476
0.045615
0.068412
0.086732
0.084437
0.073762
0.045508
-0.001120
-0.046810
-0.093240
-0.142107
-0.182950
-0.205535
-0.224667
-0.219273
-0.200983
-0.154203
-0.109742
-0.070147
-0.024161
0.029518
0.066002
0.099184
0.103056
0.101517
0.097662
0.070431
0.023319
-0.027776
-0.084121
-0.137124
-0.157443
-0.180390
-0.188368
-0.189765
-0.170227
-0.151837
-0.112844
-0.073367
-0.018471
0.025014
0.054547
0.066608
0.090542
0.099858
0.085877
0.039956
0.004759
-0.045038
-0.082085
-0.132938
-0.155780
-0.183446
-0.207030
-0.204142
-0.190510
-0.164188
-0.122968
-0.076345
-0.039643
0.001360
0.029357
0.060189
0.070813
0.062119
0.037582
0.007068
-0.016805
-0.065229
-0.112432
-0.156738
-0.186794
-0.213139
-0.234980
-0.238154
-0.217046
-0.183132
-0.139161
-0.099627
-0.068400
-0.032423
-0.003901
0.017986
0.024986
0.015006
-0.007143
-0.035670
-0.079015
-0.121521
-0.169520
-0.208389
-0.241727
-0.256549
-0.271854
-0.273475
-0.258994
-0.211845
-0.188473
-0.147239
-0.093795
-0.049243
-0.027582
-0.020188
-0.018784
-0.032373
-0.049537
-0.079480
-0.118442
-0.169312
-0.202714
-0.246825
-0.278137
-0.305845
-0.308935
-0.301050
-0.271643
-0.250348
-0.202974
-0.166324
-0.124513
-0.084047
-0.044483
-0.019116
-0.016071
-0.025944
-0.046329
-0.091992
-0.136894
-0.180335
-0.226416
-0.265787
-0.298896
-0.311309
-0.315470
-0.299054
-0.288959
-0.253910
-0.216276
-0.163618
-0.117324
-0.079960
-0.043957
-0.016368
-0.016652
-0.021463
-0.043655
-0.086569
-0.129487
-0.173553
-0.219011
-0.274468
-0.302564
-0.316932
-0.319561
-0.301629
-0.273721
-0.241566
-0.198531
-0.141998
-0.094758
-0.044513
-0.028165
-0.013525
-0.003804
-0.011005
-0.034446
-0.079772
-0.124056
-0.158491
-0.210493
-0.255892
-0.294675
-0.321795
-0.328204
-0.293060
-0.267179
-0.229015
-0.191181
-0.147039
-0.088425
-0.046306
-0.022154
0.000458
0.006617
0.001397
-0.011593
-0.055562
-0.094968
-0.156715
-0.203547
-0.249743
-0.283300
-0.305453
-0.304421
-0.296819
-0.269041
-0.236763
-0.186578
-0.138473
-0.090130
-0.041678
-0.002399
0.021906
0.027866
0.013917
0.005832
-0.034960
-0.080383
-0.133644
-0.190470
-0.239544
-0.262341
-0.291505
-0.303482
-0.291031
-0.269788
-0.240711
-0.183189
-0.140759
-0.087001
-0.037617
-0.007731
0.011318
0.029042
0.021886
-0.002375
-0.037424
-0.080866
-0.131927
-0.189741
-0.227465
-0.267470
-0.288698
-0.312670
-0.303431
-0.288738
-0.248080
-0.200668
-0.136117
-0.101668
-0.045619
-0.001317
0.024891
0.041317
0.041302
0.001405
-0.032168
-0.070317
-0.120269
-0.166395
-0.214238
-0.239598
-0.264271
-0.290129
-0.294871
-0.276674
-0.253868
-0.203923
-0.155902
-0.106752
-0.057084
-0.024526
0.008619
0.016918
-0.002125
-0.009398
-0.031626
-0.076030
-0.125405
-0.176866
-0.218147
-0.260357
-0.274388
-0.287845
-0.287681
-0.283560
-0.244225
-0.206485
-0.163460
-0.114725
-0.067902
-0.037278
0.002942
0.010142
-0.004429
-0.022057
-0.050492
-0.086255
-0.126601
-0.169805
-0.206789
-0.242688
-0.271994
-0.287415
-0.279745
-0.261234
-0.228235
-0.196749
-0.159424
-0.114488
-0.069803
-0.031322
-0.016377
-0.002937
-0.000837
-0.022355
-0.050465
-0.096692
-0.141963
-0.178933
-0.221424
-0.261845
-0.275865
-0.281149
-0.276995
-0.257060
-0.223757
-0.196095
-0.155852
-0.111883
-0.070700
-0.033204
-0.024662
-0.019404
-0.019442
-0.034493
-0.066825
-0.106136
-0.138756
-0.175402
-0.220832
-0.258308
-0.286444
-0.284481
-0.277283
-0.261357
-0.227883
-0.182988
-0.140335
-0.095387
-0.059485
-0.032554
-0.020810
-0.009023
-0.018827
-0.033070
-0.064384
-0.107351
-0.144555
-0.200067
-0.221371
-0.244398
-0.270047
-0.268416
-0.261902
-0.241314
-0.216637
-0.166445
-0.119834
-0.068086
-0.015018
0.013825
0.031249
0.038086
0.027597
0.002895
-0.031156
-0.075219
-0.109666
-0.157390
-0.199819
-0.230290
-0.250010
-0.252320
-0.239959
-0.219267
-0.178573
-0.133062
-0.085593
-0.040515
-0.009435
0.019919
0.032698
0.046695
0.028497
0.012400
-0.032089
-0.075150
-0.107021
-0.161632
-0.197970
-0.227433
-0.254260
-0.264837
-0.246016
-0.220349
-0.177325
-0.133577
-0.089030
-0.026022
0.028570
0.053302
0.078315
0.094272
0.087842
0.062173
0.015991
-0.038207
-0.093859
-0.153233
-0.191106
-0.224853
-0.253277
-0.270129
-0.272030
-0.249522
-0.204624
-0.154438
-0.113422
-0.060144
-0.019078
0.009980
0.035614
0.041956
0.033242
0.013906
-0.028538
-0.076085
-0.123077
-0.177889
-0.221142
-0.258788
-0.286121
-0.296994
-0.298366
-0.276780
-0.237693
-0.195052
-0.151213
-0.084566
-0.035063
-0.016122
0.018734
0.015230
0.013475
0.006454
-0.027576
-0.076544
-0.121945
-0.171454
-0.223700
-0.266451
-0.292085
-0.314505
-0.307591
-0.299119
-0.252220
-0.213338
-0.158960
-0.113667
-0.070204
-0.032348
-0.008687
-0.000673
-0.008876
-0.019741
-0.045918
-0.085625
-0.123378
-0.185471
-0.228853
-0.255781
-0.276254
-0.293399
-0.288519
-0.276170
-0.254395
-0.213984
-0.160206
-0.114875
-0.075585
-0.035243
-0.021940
-0.006296
-0.012516
-0.012076
-0.055010
-0.095179
-0.122426
-0.176674
-0.211305
-0.246987
-0.273521
-0.289030
-0.300430
-0.279757
-0.255420
-0.217223
-0.179301
-0.127081
-0.082505
-0.049353
-0.021015
-0.016268
-0.016866
-0.032669
-0.063944
-0.094597
-0.143533
-0.192164
-0.215706
-0.252982
-0.281618
-0.279795
-0.275011
-0.255199
-0.214384
-0.176023
-0.130636
-0.075127
-0.026915
0.022637
0.049339
0.071291
0.081631
0.073610
0.057051
0.040498
0.002741
-0.033146
-0.065866
-0.067261
-0.062452
-0.039952
-0.006169
0.035133
0.101161
0.183941
0.257505
0.337170
0.402455
0.460030
0.507788
0.541093
0.560464
0.576367
0.588436
0.584772
0.583929
0.568110
0.563143
0.561510
0.548754
0.548503
0.561094
0.571322
0.573597
0.605951
0.622439
0.648484
0.633299
0.581365
0.529026
0.466739
0.395330
0.323248
0.246385
0.150262
0.051622
-0.024291
-0.081396
-0.118716
-0.140011
-0.146554
-0.147530
-0.118778
-0.091230
-0.048845
-0.012048
0.030572
0.073214
0.108421
0.135255
0.122244
0.098743
0.079796
0.055037
0.013359
-0.053502
-0.107444
-0.158417
-0.198931
-0.222210
-0.226329
-0.217977
-0.202684
-0.169363
-0.118037
-0.078997
-0.030160
0.014637
0.065395
0.087045
0.093572
0.083275
0.061549
0.025402
-0.019636
-0.075241
-0.129358
-0.178225
-0.219154
-0.238401
-0.247215
-0.225880
-0.203614
-0.192676
-0.143845
-0.094174
-0.037920
0.006145
0.043441
0.066084
0.078236
0.082505
0.061170
0.026272
-0.016633
-0.058479
-0.109355
-0.147426
-0.186382
-0.213464
-0.216306
-0.222813
-0.208551
-0.173132
-0.143884
-0.095210
-0.039897
0.009789
0.052116
0.074776
0.088069
0.090253
0.062883
0.036677
-0.012800
-0.047616
-0.088214
-0.126828
-0.154113
-0.180089
-0.191026
-0.184287
-0.174525
-0.147390
-0.110944
-0.070101
-0.015658
0.025618
0.068283
0.081374
0.098257
0.098985
0.088940
0.057805
0.025193
-0.009903
-0.057612
-0.097884
-0.124754
-0.146731
-0.154380
-0.150246
-0.145063
-0.105650
-0.059483
-0.010667
0.029913
0.067076
0.103846
0.121901
0.134034
0.125522
0.113068
0.074808
0.046314
-0.002600
-0.038777
-0.073181
-0.109791
-0.112501
-0.113559
-0.099983
-0.080953
-0.051806
-0.018474
0.029038
0.076599
0.113748
0.156595
0.180986
0.178989
0.171885
0.140367
0.111635
0.074842
0.024323
-0.011525
-0.048559
-0.090084
-0.098191
-0.095291
-0.084535
-0.050116
-0.010565
0.029416
0.068606
0.118350
0.160792
0.179428
0.208536
0.206092
0.196048
0.176774
0.152404
0.109021
0.059571
-0.000682
-0.032606
-0.072612
-0.103331
-0.102464
-0.088469
-0.069866
-0.032333
0.003104
0.065315
0.116416
0.165048
0.199416
0.216267
0.219247
0.209989
0.189331
0.141609
0.091859
0.035257
-0.013861
-0.065283
-0.100108
-0.109251
-0.121798
-0.107372
-0.081354
-0.050635
-0.004700
0.039149
0.089056
0.134602
0.167269
0.180814
0.190463
0.185497
0.155364
0.118689
0.075296
0.013389
-0.040602
-0.079069
-0.128703
-0.152064
-0.171148
-0.169783
-0.152603
-0.124820
-0.080524
-0.021992
0.026745
0.066166
0.108955
0.126574
0.129598
0.127132
0.106679
0.079474
0.034562
-0.024010
-0.068798
-0.115600
-0.160063
-0.186156
-0.204594
-0.205374
-0.183733
-0.153284
-0.117689
-0.065312
-0.037323
0.010378
0.048149
0.079745
0.099458
0.091194
0.073968
0.045197
0.004703
-0.040922
-0.105274
-0.152576
-0.183203
-0.210215
-0.224824
-0.208772
-0.180849
-0.163924
-0.128946
-0.086524
-0.030182
0.012985
0.051700
0.059766
0.072349
0.079012
0.056251
0.031070
-0.006323
-0.054931
-0.100127
-0.141772
-0.174616
-0.210992
-0.214943
-0.211675
-0.189822
-0.150900
-0.113936
-0.083455
-0.034232
0.001259
0.033645
0.050158
0.063903
0.060919
0.037820
0.005891
-0.040998
-0.074368
-0.116417
-0.156417
-0.184800
-0.203048
-0.202948
-0.192723
-0.165471
-0.133194
-0.107683
-0.050986
-0.014757
0.019527
0.049724
0.066793
0.072119
0.068023
0.041577
0.013091
-0.025312
-0.070677
-0.110596
-0.137411
-0.169291
-0.182578
-0.196318
-0.199466
-0.172281
-0.137601
-0.092866
-0.041353
0.004709
0.044923
0.075641
0.085600
0.096575
0.086201
0.057867
0.031057
-0.020516
-0.069633
-0.114032
-0.154930
-0.181028
-0.200207
-0.203700
-0.199456
-0.168717
-0.140519
-0.098102
-0.048225
-0.003261
0.031288
0.088452
0.098789
0.102851
0.090791
0.075473
0.035143
-0.011887
-0.051415
-0.113555
-0.157490
-0.196356
-0.222802
-0.226827
-0.211183
-0.176929
-0.137165
-0.083700
-0.033468
-0.000890
0.058949
0.100045
0.116570
0.125560
0.120476
0.101398
0.053810
0.004163
-0.043750
-0.083429
-0.138042
-0.175656
-0.208099
-0.213562
-0.213705
-0.194394
-0.163350
-0.104814
-0.055901
-0.006691
0.039442
0.075160
0.110309
0.117695
0.110972
0.087278
0.054412
0.006165
-0.042882
-0.091445
-0.127521
-0.170212
-0.201863
-0.213905
-0.197426
-0.169800
-0.158172
-0.114656
-0.074893
-0.015760
0.027640
0.070038
0.094262
0.093026
0.087924
0.066366
0.045946
0.010264
-0.039312
-0.083580
-0.125949
-0.171589
-0.192649
-0.204349
-0.212458
-0.189695
-0.161270
-0.121427
-0.070764
-0.032394
0.008148
0.048435
0.078414
0.095455
0.085870
0.069156
0.037169
-0.004441
-0.045184
-0.077357
-0.129355
-0.178488
-0.194595
-0.197114
-0.183616
-0.181791
-0.163870
-0.123489
-0.084022
-0.048168
0.004451
0.034397
0.046691
0.057844
0.055190
0.035473
0.005936
-0.034710
-0.071955
-0.112030
-0.157179
-0.173435
-0.185297
-0.200032
-0.185236
-0.152518
-0.137365
-0.098243
-0.064681
-0.030020
0.007985
0.043923
0.066278
0.078710
0.077372
0.039604
0.008642
-0.030445
-0.074608
-0.119179
-0.165716
-0.195953
-0.210797
-0.209753
-0.197816
-0.167263
-0.134941
-0.094903
-0.052689
-0.011061
0.039218
0.065073
0.067310
0.066249
0.060938
0.035374
0.009259
-0.030444
-0.084639
-0.119878
-0.158416
-0.196081
-0.212281
-0.217270
-0.219305
-0.197471
-0.161727
-0.105408
-0.048533
-0.007779
0.036399
0.071446
0.086583
0.094651
0.084264
0.058592
0.023065
-0.012772
-0.068893
-0.119646
-0.169431
-0.201904
-0.223073
-0.228357
-0.221056
-0.200419
-0.155644
-0.117092
-0.059343
-0.020263
0.022358
0.075967
0.099404
0.100228
0.086259
0.065071
0.031290
-0.011352
-0.064559
-0.113900
-0.161022
-0.206621
-0.221905
-0.233189
-0.232833
-0.216245
-0.176343
-0.133290
-0.087564
-0.034686
0.021057
0.060121
0.085116
0.088950
0.085723
0.077397
0.043135
-0.000373
-0.057185
-0.106237
-0.155376
-0.188159
-0.220581
-0.231655
-0.229567
-0.200590
-0.163011
-0.123327
-0.084272
-0.043387
0.012272
0.053819
0.086982
0.099259
0.096660
0.087714
0.061386
0.017451
-0.028929
-0.074789
-0.108779
-0.143818
-0.168661
-0.190095
-0.177417
-0.157042
-0.133253
-0.091862
-0.040890
0.005514
0.046720
0.064910
0.109038
0.119350
0.118672
0.096829
0.066635
0.023917
-0.015201
-0.058303
-0.098229
-0.138177
-0.158182
-0.172530
-0.159344
-0.147017
-0.123244
-0.077526
-0.040735
0.003967
0.052389
0.084481
0.109000
0.122713
0.118672
0.099307
0.069434
0.045295
-0.008458
-0.045118
-0.078450
-0.105117
-0.126243
-0.135710
-0.139883
-0.126968
-0.102055
-0.064530
-0.021050
0.013951
0.047399
0.069498
0.083605
0.101654
0.082767
0.068996
0.037260
0.002320
-0.049808
-0.098980
-0.149430
-0.179924
-0.191508
-0.207797
-0.187107
-0.162654
-0.124244
-0.081079
-0.044433
-0.003464
0.041022
0.062511
0.101372
0.111333
0.101600
0.060766
0.017740
-0.039399
-0.072808
-0.117449
-0.161800
-0.201813
-0.229921
-0.236037
-0.223780
-0.193746
-0.159925
-0.124177
-0.068804
-0.016944
0.028119
0.050991
0.074596
0.079120
0.072671
0.050568
0.010130
-0.030588
-0.091573
-0.141218
-0.192917
-0.219073
-0.229626
-0.240347
-0.234841
-0.214350
-0.172720
-0.133720
-0.075256
-0.020260
0.038163
0.055044
0.081344
0.093491
0.081989
0.057994
0.026360
-0.022034
-0.075667
-0.111066
-0.171212
-0.197632
-0.225327
-0.238835
-0.241716
-0.212013
-0.185727
-0.136345
-0.098306
-0.055920
-0.000707
0.043676
0.066191
0.082349
0.073723
0.052311
0.031112
-0.012023
-0.060785
-0.109696
-0.158712
-0.202002
-0.227268
-0.241093
-0.249033
-0.226255
-0.191889
-0.158526
-0.105678
-0.063979
-0.027884
-0.016342
0.035589
0.073383
0.077184
0.044565
0.011708
-0.006443
-0.031160
-0.072359
-0.107833
-0.133682
-0.142881
-0.131048
-0.108528
-0.085783
-0.049186
-0.008847
0.054096
0.125000
0.184516
0.239530
0.287789
0.333490
0.354117
0.363138
0.371423
0.376007
0.376454
0.365194
0.341639
0.343935
0.349797
0.388045
0.427851
0.476776
0.559235
0.646156
0.715903
0.781375
0.861988
0.890514
0.899956
0.905829
0.903014
0.852258
0.808746
0.746859
0.681586
0.595222
0.474718
0.377972
0.293367
0.226038
0.181913
0.140599
0.103550
0.104927
0.129801
0.152748
0.183807
0.217405
0.233660
0.225110
0.215083
0.190236
0.139707
0.084552
0.039172
-0.012559
-0.056863
-0.082704
-0.099396
-0.110723
-0.114453
-0.082564
-0.057425
-0.013590
0.024921
0.069013
0.105896
0.127949
0.135689
0.138159
0.131759
0.101626
0.064620
0.022074
-0.031180
-0.071857
-0.126872
-0.155413
-0.178627
-0.176417
-0.163359
-0.127624
-0.091286
-0.052705
-0.011054
0.027264
0.069297
0.105191
0.126706
0.125144
0.122131
0.095877
0.059286
0.016660
-0.039981
-0.073431
-0.130389
-0.151545
-0.185059
-0.199005
-0.184300
-0.148431
-0.118313
-0.071800
-0.015295
0.032281
0.073163
0.111515
0.130660
0.143649
0.130875
0.103058
0.088527
0.051117
-0.004434
-0.062915
-0.102724
-0.139284
-0.157069
-0.164007
-0.175613
-0.156711
-0.125367
-0.066116
-0.014615
0.032306
0.084282
0.117803
0.146483
0.159546
0.178305
0.160931
0.125578
0.074403
0.018777
-0.032893
-0.070211
-0.113835
-0.129747
-0.142874
-0.131518
-0.115860
-0.087625
-0.044207
0.012058
0.052109
0.097528
0.136603
0.162130
0.174615
0.178994
0.176249
0.145042
0.099671
0.057136
0.019113
-0.033661
-0.061119
-0.089360
-0.092788
-0.083125
-0.072332
-0.054380
-0.002594
0.035303
0.084768
0.127800
0.170433
0.193538
0.200740
0.196036
0.179493
0.159513
0.131342
0.093995
0.052714
0.010049
-0.022182
-0.034477
-0.041627
-0.035539
-0.018141
0.010772
0.043705
0.101852
0.148974
0.188880
0.218821
0.235748
0.238899
0.226666
0.200573
0.179947
0.149924
0.107652
0.058236
0.025828
-0.013245
-0.025515
-0.018513
-0.012451
0.002439
0.033994
0.061610
0.113674
0.154150
0.204377
0.239626
0.260758
0.247652
0.230861
0.217063
0.184104
0.150007
0.103914
0.060302
0.019231
-0.019788
-0.033241
-0.043747
-0.028081
-0.000021
0.024464
0.055694
0.097798
0.146567
0.205833
0.235986
0.250061
0.254367
0.236139
0.213040
0.165152
0.126416
0.075433
0.032473
-0.015163
-0.045591
-0.078479
-0.088818
-0.076275
-0.050810
-0.022797
0.024510
0.069083
0.117838
0.160519
0.197161
0.216267
0.213693
0.205801
0.178660
0.130807
0.091978
0.035414
-0.018647
-0.063984
-0.112867
-0.134537
-0.141023
-0.123432
-0.105157
-0.078148
-0.044939
0.022562
0.075098
0.117110
0.146423
0.170131
0.175911
0.175136
0.147771
0.111471
0.067171
0.009345
-0.037141
-0.078475
-0.118914
-0.154547
-0.170215
-0.166486
-0.147440
-0.121283
-0.079439
-0.023507
0.025135
0.071530
0.117756
0.135194
0.141239
0.135360
0.115197
0.087752
0.048276
-0.001861
-0.054522
-0.101727
-0.138055
-0.175564
-0.185968
-0.182422
-0.165043
-0.134209
-0.104014
-0.047033
-0.008858
0.033016
0.085118
0.115424
0.116899
0.111269
0.097825
0.070759
0.038480
-0.010479
-0.052633
-0.090406
-0.125890
-0.151893
-0.155579
-0.162931
-0.145461
-0.121550
-0.088179
-0.040529
0.009723
0.045705
0.081553
0.103612
0.108629
0.113859
0.095727
0.067699
0.026471
-0.010526
-0.070279
-0.094458
-0.114456
-0.142574
-0.148688
-0.137710
-0.117403
-0.095509
-0.067836
-0.033554
0.005264
0.061050
0.102987
0.112184
0.114202
0.114686
0.100666
0.068048
0.036393
-0.010748
-0.060116
-0.095632
-0.118416
-0.138763
-0.148972
-0.134870
-0.113705
-0.075857
-0.042794
0.006673
0.045168
0.089273
0.116805
0.134107
0.138627
0.132230
0.103801
0.069134
0.028943
-0.028501
-0.075042
-0.101666
-0.118723
-0.143815
-0.144288
-0.152838
-0.121683
-0.084783
-0.051177
0.016034
0.060590
0.091674
0.117356
0.144485
0.149067
0.137351
0.109887
0.077922
0.044354
-0.007797
-0.058646
-0.114622
-0.145005
-0.161084
-0.171286
-0.158889
-0.137099
-0.103597
-0.054904
-0.006146
0.053319
0.094254
0.123003
0.156305
0.160504
0.152206
0.120049
0.085153
0.040787
-0.012630
-0.053008
-0.100557
-0.136973
-0.167847
-0.177722
-0.159270
-0.136063
-0.104887
-0.071104
-0.015132
0.052138
0.095623
0.129395
0.144602
0.153885
0.140680
0.124861
0.085243
0.049785
0.002097
-0.050217
-0.096076
-0.138894
-0.158397
-0.170733
-0.176307
-0.150978
-0.113596
-0.085607
-0.036034
0.007795
0.068368
0.117334
0.140683
0.143183
0.149641
0.120083
0.092975
0.059216
0.009794
-0.044924
-0.099603
-0.128288
-0.151695
-0.162402
-0.161569
-0.143459
-0.124669
-0.084949
-0.042531
0.012101
0.046364
0.088090
0.112692
0.110175
0.109033
0.096651
0.069972
0.045069
-0.011364
-0.051270
-0.079772
-0.109724
-0.140931
-0.160051
-0.158180
-0.148644
-0.107673
-0.076548
-0.028863
0.003028
0.039788
0.087638
0.102478
0.102845
0.105301
0.091132
0.068060
0.025712
-0.018436
-0.059228
-0.093412
-0.131002
-0.143551
-0.150120
-0.149732
-0.130970
-0.100362
-0.067492
-0.018084
0.016581
0.050454
0.082748
0.107480
0.114025
0.099942
0.073721
0.040489
0.010626
-0.036471
-0.080090
-0.125027
-0.160252
-0.172908
-0.167499
-0.153207
-0.120137
-0.085936
-0.053912
-0.010726
0.033060
0.077599
0.110810
0.127270
0.129315
0.120711
0.091169
0.056828
0.015319
-0.032930
-0.087144
-0.117563
-0.153112
-0.172375
-0.181560
-0.176922
-0.153171
-0.108176
-0.069054
-0.032250
0.026837
0.061360
0.108385
0.134905
0.141962
0.134086
0.102503
0.071111
0.031994
-0.022424
-0.067164
-0.118611
-0.158496
-0.177031
-0.182983
-0.179592
-0.148817
-0.121011
-0.083149
-0.023367
0.028300
0.075569
0.113743
0.130278
0.142545
0.137851
0.108462
0.078999
0.040243
-0.016988
-0.068887
-0.108811
-0.145458
-0.167723
-0.191468
-0.179729
-0.163136
-0.119407
-0.079508
-0.037755
0.008987
0.057166
0.093636
0.113104
0.133302
0.144717
0.127917
0.083601
0.044090
0.005538
-0.050761
-0.094525
-0.141467
-0.157451
-0.177369
-0.169525
-0.162219
-0.132332
-0.091834
-0.044614
0.004915
0.041946
0.081981
0.115818
0.119886
0.118121
0.105503
0.086189
0.041376
0.002214
-0.045351
-0.083443
-0.128175
-0.147117
-0.159679
-0.159871
-0.139230
-0.116982
-0.072831
-0.035521
0.005737
0.054960
0.088751
0.110034
0.131346
0.114940
0.085922
0.061284
0.032240
-0.013519
-0.053888
-0.083140
-0.124135
-0.145973
-0.147969
-0.128698
-0.108399
-0.091680
-0.053062
-0.017725
0.016909
0.058753
0.090355
0.120729
0.128571
0.113677
0.098315
0.058620
0.027619
-0.013300
-0.063838
-0.103288
-0.140313
-0.157320
-0.165799
-0.147936
-0.118861
-0.089582
-0.052010
-0.004217
0.046828
0.079493
0.110843
0.126676
0.131488
0.116192
0.096691
0.057896
0.022742
-0.023785
-0.069012
-0.118213
-0.149269
-0.167720
-0.168332
-0.164314
-0.130026
-0.095211
-0.049183
-0.000875
0.045674
0.085945
0.125950
0.146171
0.150109
0.137149
0.112749
0.071309
0.029406
-0.017429
-0.059518
-0.104357
-0.145574
-0.167379
-0.175092
-0.169383
-0.146596
-0.116518
-0.062737
-0.015482
0.033392
0.085423
0.116681
0.146635
0.151908
0.151644
0.120518
0.089311
0.051167
-0.000148
-0.056542
-0.095698
-0.137123
-0.165146
-0.176387
-0.171639
-0.139661
-0.112803
-0.065854
-0.015157
0.031506
0.091444
0.124626
0.150229
0.162214
0.164124
0.151329
0.127031
0.087275
0.041272
-0.012717
-0.063931
-0.101056
-0.112558
-0.125371
-0.126669
-0.102242
-0.074649
-0.032032
0.008308
0.073868
0.101596
0.138529
0.160823
0.165947
0.164873
0.144557
0.108804
0.076411
0.031905
0.005330
-0.032727
-0.066362
-0.089195
-0.108044
-0.118358
-0.095398
-0.061586
-0.021407
0.029830
0.084165
0.127327
0.153392
0.180573
0.187193
0.183036
0.168099
0.139592
0.101573
0.070114
0.022725
-0.027910
-0.058572
-0.082604
-0.093818
-0.099851
-0.084837
-0.065369
-0.024484
0.012377
0.055888
0.100417
0.133911
0.156177
0.149149
0.145594
0.125064
0.094596
0.049950
0.008957
-0.045024
-0.079312
-0.102782
-0.123982
-0.139345
-0.141455
-0.114072
-0.074632
-0.037968
0.011984
0.058531
0.098845
0.128052
0.142889
0.152106
0.135132
0.112302
0.076476
0.024340
-0.024743
-0.070551
-0.111934
-0.138292
-0.169271
-0.174409
-0.169577
-0.141569
-0.109658
-0.066626
-0.021004
0.039395
0.074688
0.115541
0.139518
0.156374
0.146257
0.115803
0.071870
0.031653
-0.013543
-0.069024
-0.128425
-0.168468
-0.183069
-0.183478
-0.163060
-0.143368
-0.107604
-0.064687
-0.027964
0.028141
0.083106
0.116773
0.140599
0.151234
0.131279
0.117914
0.092034
0.052454
-0.003298
-0.046706
-0.101649
-0.140837
-0.159448
-0.174411
-0.169469
-0.157400
-0.127083
-0.074165
-0.024958
0.021433
0.069194
0.095645
0.135642
0.138443
0.136907
0.122973
0.092762
0.047140
0.009140
-0.048599
-0.084099
-0.131517
-0.169377
-0.182663
-0.164623
-0.149832
-0.122842
-0.085171
-0.042331
0.008965
0.052573
0.092154
0.124444
0.140807
0.153380
0.152995
0.127632
0.105884
0.079224
0.046623
0.020810
-0.007669
-0.008396
-0.018240
-0.004228
0.040698
0.086177
0.146831
0.202184
0.279346
0.344840
0.422633
0.491064
0.536278
0.581335
0.590243
0.587773
0.576719
0.571010
0.566143
0.573023
0.578851
0.593809
0.625384
0.658770
0.715083
0.776298
0.806936
0.840758
0.883780
0.894847
0.901306
0.906574
0.887553
0.850248
0.774003
0.661878
0.561051
0.458894
0.349622
0.262198
0.174241
0.103835
0.069310
0.063823
0.081122
0.099806
0.134989
0.176395
0.201952
0.245329
0.246881
0.260826
0.261203
0.234387
0.207203
0.165508
0.121368
0.076965
0.022038
-0.019786
-0.039594
-0.067276
-0.072606
-0.070687
-0.047833
-0.012211
0.029563
0.069839
0.103621
0.140360
0.180150
0.203159
0.203470
0.191686
0.157039
0.125228
0.088628
0.040262
-0.003549
-0.050013
-0.073260
-0.090028
-0.101206
-0.103116
-0.080908
-0.046134
0.003731
0.056083
0.102193
0.132682
0.162120
0.186347
0.204577
0.195803
0.180918
0.132215
0.083242
0.046793
-0.006673
-0.051173
-0.080353
-0.110863
-0.125617
-0.113109
-0.091909
-0.062277
-0.027355
0.043049
0.103814
0.139680
0.177914
0.203068
0.212349
0.202194
0.173693
0.162142
0.120055
0.078915
0.023453
-0.016365
-0.061699
-0.094138
-0.102274
-0.091065
-0.068198
-0.041761
0.000177
0.043928
0.092086
0.141200
0.184098
0.217773
0.220414
0.222552
0.209092
0.178455
0.145971
0.106775
0.052254
-0.000649
-0.032539
-0.053875
-0.066216
-0.063284
-0.049649
-0.010030
0.027588
0.072570
0.116946
0.153836
0.186540
0.226517
0.240368
0.240028
0.227448
0.185753
0.147851
0.109877
0.063128
0.034411
0.012658
-0.005096
-0.012149
0.002431
0.030007
0.054927
0.092276
0.130285
0.166970
0.201967
0.229539
0.264208
0.272947
0.268165
0.256489
0.232447
0.189447
0.142911
0.109754
0.085572
0.048492
0.039275
0.029054
0.038333
0.048870
0.081285
0.121516
0.166853
0.220281
0.254815
0.283660
0.301550
0.308442
0.295131
0.268425
0.241678
0.206164
0.173420
0.127506
0.089054
0.066008
0.043815
0.033942
0.044131
0.061818
0.103588
0.143600
0.188664
0.240734
0.274016
0.312179
0.331798
0.336764
0.318093
0.282931
0.247170
0.207629
0.167599
0.120685
0.075459
0.047593
0.017263
0.016207
0.026311
0.048471
0.087482
0.126752
0.171120
0.223711
0.266696
0.292123
0.314531
0.320624
0.311362
0.287816
0.251608
0.197505
0.145133
0.095331
0.053466
0.017851
-0.022882
-0.039011
-0.032546
-0.012563
0.025190
0.086448
0.124100
0.159315
0.202331
0.248693
0.278151
0.284730
0.268811
0.249265
0.217159
0.173011
0.125247
0.068937
0.015097
-0.011269
-0.044371
-0.061716
-0.067472
-0.055468
-0.014250
0.024119
0.066623
0.115552
0.166130
0.190016
0.210738
0.226732
0.220185
0.208086
0.174784
0.127657
0.082912
0.029698
-0.005317
-0.038561
-0.079026
-0.091652
-0.091879
-0.075376
-0.047371
-0.004550
0.027933
0.069964
0.111615
0.152760
0.173065
0.177647
0.179969
0.166305
0.144270
0.108999
0.062254
0.014658
-0.025267
-0.059423
-0.083971
-0.095321
-0.086384
-0.077506
-0.042016
0.002327
0.030531
0.066162
0.095709
0.130967
0.157953
0.176588
0.170124
0.148225
0.121068
0.080957
0.038296
-0.000178
-0.049459
-0.087184
-0.095500
-0.101740
-0.102934
-0.078099
-0.031767
0.013278
0.053303
0.094352
0.122518
0.145104
0.166101
0.170101
0.158927
0.147326
0.116301
0.068822
0.027106
-0.008799
-0.053404
-0.070437
-0.083399
-0.084937
-0.078695
-0.046335
-0.015499
0.012307
0.057965
0.101330
0.133369
0.163694
0.193108
0.194368
0.179822
0.169818
0.131712
0.083372
0.046193
-0.000073
-0.043532
-0.073096
-0.109328
-0.100084
-0.090311
-0.061287
-0.026364
0.023503
0.067221
0.118703
0.148899
0.180994
0.204857
0.217610
0.209645
0.184650
0.145320
0.107529
0.054613
-0.003635
-0.039080
-0.076373
-0.094320
-0.109362
-0.112741
-0.077507
-0.043592
0.006708
0.057587
0.099796
0.145257
0.185712
0.209860
0.223623
0.209080
0.184013
0.156418
0.120260
0.061855
0.011924
-0.030654
-0.068028
-0.099062
-0.109449
-0.110070
-0.091004
-0.057196
-0.017018
0.029233
0.077749
0.117549
0.159414
0.194295
0.218909
0.221533
0.198903
0.163688
0.120396
0.064447
0.027427
-0.024815
-0.059225
-0.085963
-0.110607
-0.109088
-0.094230
-0.061115
-0.016057
0.026680
0.078888
0.117900
0.157596
0.190273
0.212520
0.194832
0.178213
0.143069
0.104598
0.060736
0.021954
-0.025933
-0.056246
-0.083901
-0.096032
-0.077929
-0.062963
-0.046979
-0.012716
0.032305
0.071555
0.114056
0.143800
0.164990
0.173393
0.185463
0.159417
0.118202
0.073867
0.041267
0.015590
-0.016344
-0.055572
-0.086748
-0.094356
-0.090424
-0.069536
-0.029513
-0.003709
0.032551
0.082465
0.122920
0.137846
0.153041
0.175536
0.163687
0.138535
0.103668
0.071117
0.033787
-0.010913
-0.064391
-0.089926
-0.115056
-0.116397
-0.111551
-0.078387
-0.038844
-0.001179
0.041112
0.096432
0.129708
0.159142
0.169819
0.170445
0.159776
0.143667
0.112468
0.061449
0.012052
-0.026088
-0.073523
-0.108349
-0.120608
-0.113018
-0.107563
-0.084068
-0.045563
-0.003482
0.036419
0.077917
0.122205
0.154883
0.187396
0.182128
0.163682
0.128630
0.134427
0.068513
-0.001346
-0.036667
-0.075353
-0.106336
-0.119517
-0.126604
-0.116743
-0.105027
-0.056769
-0.009002
0.039351
0.070251
0.113601
0.175824
0.190742
0.181825
0.184413
0.154370
0.120569
0.083510
0.033425
-0.012028
-0.070507
-0.097698
-0.133009
-0.117033
-0.114495
-0.112929
-0.078030
-0.038274
0.016145
0.071480
0.114800
0.162658
0.198469
0.212416
0.199072
0.168973
0.110102
0.069860
0.028747
-0.000028
-0.044199
-0.092690
-0.119128
-0.129111
-0.126523
-0.111151
-0.084810
-0.030042
0.024467
0.047805
0.093210
0.131697
0.157420
0.158682
0.171302
0.181084
0.156168
0.104680
0.033853
-0.020038
-0.053609
-0.090182
-0.106433
-0.125491
-0.126972
-0.111569
-0.075938
-0.041546
0.012131
0.055806
0.095317
0.133312
0.156168
0.174961
0.170331
0.149232
0.120300
0.089976
0.049630
0.011201
-0.026990
-0.081924
-0.111332
-0.100096
-0.093441
-0.088602
-0.077721
-0.036410
0.010489
0.066019
0.097259
0.130409
0.153528
0.151575
0.137389
0.108527
0.088132
0.044732
0.013407
-0.027146
-0.060602
-0.069959
-0.070037
-0.096541
-0.089236
-0.076900
-0.047068
0.000503
0.028569
0.063641
0.104842
0.146648
0.169487
0.174695
0.163112
0.134452
0.101806
0.062759
0.023740
-0.006597
-0.058488
-0.092615
-0.118459
-0.126897
-0.106704
-0.074976
-0.046484
-0.007554
0.038831
0.071675
0.119205
0.148189
0.158811
0.178715
0.172760
0.146403
0.107996
0.082021
0.035405
-0.014754
-0.056655
-0.090820
-0.103322
-0.098304
-0.087559
-0.064017
-0.017468
0.033254
0.087804
0.119247
0.159552
0.190039
0.223799
0.233330
0.223312
0.197501
0.153603
0.111467
0.062924
0.018865
-0.024484
-0.066347
-0.093681
-0.102578
-0.087520
-0.059382
-0.021753
0.015934
0.051656
0.102160
0.153441
0.205770
0.223904
0.238750
0.227262
0.228043
0.202368
0.158264
0.106543
0.058419
-0.005220
-0.031767
-0.051331
-0.076135
-0.072863
-0.048733
-0.025705
0.008698
0.058017
0.086778
0.119647
0.153497
0.181440
0.201978
0.206442
0.184089
0.158895
0.115742
0.084561
