0.208981
0.243088
0.276848
0.376280
0.354643
0.347187
0.333359
0.292227
0.299647
0.316228
0.255219
0.174683
0.119758
0.072276
0.062010
0.050761
0.051114
0.074732
0.097917
0.192296
0.253047
0.272997
0.304608
0.363964
0.391640
0.391458
0.348928
0.326325
0.281397
0.231953
0.170080
0.123671
0.092502
0.094379
0.079067
0.062528
0.060948
0.078984
0.118687
0.163345
0.195753
0.215652
0.245693
0.298435
0.342919
0.345534
0.347340
0.377476
0.304269
0.210435
0.156936
0.120528
0.067304
0.059843
0.046847
0.058294
0.100088
0.101394
0.121609
0.169143
0.230626
0.288537
0.302893
0.329420
0.350613
0.317983
0.323006
0.308119
0.281772
0.246520
0.199938
0.136838
0.094135
0.062093
0.049339
0.077464
0.069489
0.084557
0.126894
0.143598
0.181612
0.234633
0.286077
0.312807
0.344754
0.379144
0.369250
0.322440
0.301688
0.273769
0.202125
0.112951
0.106659
0.090609
0.084307
0.066773
0.055779
0.060246
0.086672
0.151969
0.233622
0.289522
0.325534
0.353668
0.363449
0.398255
0.367428
0.353804
0.316445
0.271890
0.221936
0.173958
0.122342
0.087164
0.069611
0.082459
0.056141
0.090646
0.161740
0.170044
0.228906
0.275518
0.292203
0.342338
0.354783
0.367708
0.370419
0.368691
0.315471
0.277533
0.237710
0.167570
0.099068
0.069104
0.082986
0.060037
0.123038
0.189538
0.246007
0.221818
0.240040
0.267694
0.317115
0.360873
0.426237
0.434111
0.431621
0.383617
0.333941
0.265028
0.238476
0.192878
0.181522
0.143239
0.078556
0.087428
0.115181
0.149004
0.172432
0.187057
0.260603
0.289644
0.324597
0.370224
0.400422
0.409887
0.397076
0.348646
0.297544
0.267314
0.253721
0.218790
0.177374
0.113378
0.132750
0.109330
0.120094
0.185050
0.165615
0.194587
0.256290
0.320624
0.348049
0.367054
0.411715
0.416947
0.428435
0.418737
0.378748
0.331886
0.255621
0.244021
0.177565
0.133879
0.093183
0.103932
0.111097
0.125499
0.167259
0.209097
0.276411
0.295713
0.364955
0.441895
0.447709
0.412788
0.368435
0.367668
0.376054
0.329632
0.259557
0.195197
0.159467
0.116623
0.118934
0.095709
0.104209
0.146262
0.182162
0.222496
0.265526
0.347957
0.370956
0.408492
0.453495
0.447210
0.424272
0.392028
0.363030
0.309911
0.253353
0.249417
0.199331
0.144780
0.150889
0.163092
0.175740
0.172745
0.202958
0.239536
0.283066
0.348865
0.377581
0.401753
0.448789
0.444580
0.420833
0.452445
0.440532
0.362135
0.291750
0.241335
0.222991
0.236687
0.219521
0.193096
0.176617
0.170791
0.189268
0.237647
0.291923
0.368224
0.441723
0.469351
0.487058
0.484956
0.444556
0.430159
0.399573
0.362007
0.299539
0.270262
0.252397
0.247684
0.220960
0.188543
0.199245
0.250960
0.277952
0.302006
0.339047
0.396466
0.462603
0.461390
0.470032
0.502838
0.494362
0.466593
0.409255
0.404325
0.372863
0.289105
0.232425
0.212284
0.193916
0.169629
0.188027
0.203836
0.242774
0.281087
0.315740
0.341989
0.412218
0.435122
0.479909
0.471584
0.457212
0.448518
0.411207
0.382521
0.341575
0.261850
0.194537
0.170062
0.166117
0.197981
0.130029
0.156218
0.218560
0.233044
0.267358
0.332660
0.369665
0.419562
0.447316
0.465537
0.402789
0.364825
0.374541
0.336515
0.287063
0.250590
0.204406
0.184620
0.156009
0.151880
0.150139
0.172335
0.213220
0.252751
0.317474
0.375732
0.385104
0.414813
0.463789
0.467678
0.439396
0.406797
0.375457
0.355890
0.310251
0.282207
0.182285
0.117166
0.146429
0.155183
0.134964
0.157890
0.207361
0.275917
0.326381
0.364947
0.392647
0.417690
0.435548
0.437823
0.424915
0.392635
0.350530
0.278409
0.284825
0.235394
0.187948
0.168231
0.164261
0.128549
0.149319
0.189779
0.191520
0.201154
0.258658
0.367043
0.412136
0.418524
0.438815
0.439997
0.419512
0.379815
0.323637
0.314141
0.312046
0.269133
0.192822
0.152525
0.144285
0.139722
0.176058
0.223493
0.273283
0.317853
0.360796
0.420040
0.520576
0.555479
0.588176
0.635778
0.567693
0.526056
0.609797
0.611274
0.582369
0.567670
0.560908
0.580962
0.584531
0.612300
0.633488
0.668587
0.761188
0.867849
0.920105
1.044321
1.161025
1.214708
1.262990
1.281746
1.279397
1.246092
1.245740
1.174226
1.077676
0.996655
0.937623
0.925716
0.866710
0.776703
0.705969
0.658677
0.635685
0.651753
0.653071
0.636168
0.667393
0.677430
0.664403
0.682691
0.673264
0.644364
0.607428
0.533681
0.468972
0.403304
0.364322
0.336734
0.272032
0.263672
0.246768
0.267563
0.295292
0.333925
0.411018
0.436892
0.465712
0.509708
0.549939
0.541639
0.517438
0.476771
0.455693
0.424342
0.400548
0.338633
0.270014
0.241375
0.199651
0.193869
0.213053
0.226512
0.276839
0.321417
0.380431
0.413499
0.465121
0.477010
0.531733
0.545643
0.503378
0.457726
0.436544
0.426413
0.352788
0.299133
0.260182
0.244901
0.257386
0.230692
0.210356
0.225662
0.262147
0.316182
0.335720
0.377077
0.416529
0.459572
0.491909
0.495455
0.531772
0.546182
0.461021
0.410943
0.361549
0.283479
0.246842
0.204498
0.184749
0.210931
0.228816
0.227650
0.295476
0.313441
0.382985
0.450691
0.490636
0.494568
0.527783
0.535863
0.553136
0.537837
0.474105
0.434376
0.381457
0.311466
0.262683
0.241992
0.224013
0.227391
0.246806
0.250206
0.273094
0.336395
0.382026
0.477843
0.511128
0.492799
0.486757
0.550455
0.553790
0.588298
0.523381
0.465341
0.410899
0.367580
0.319702
0.287236
0.258722
0.264959
0.280989
0.282248
0.296753
0.315651
0.372483
0.449707
0.491604
0.536548
0.568731
0.566646
0.541150
0.499578
0.498494
0.443048
0.413411
0.385828
0.380982
0.321081
0.282798
0.296997
0.303763
0.306186
0.304145
0.336670
0.408188
0.516736
0.579976
0.596490
0.582633
0.618337
0.571938
0.548268
0.526044
0.477189
0.441031
0.394115
0.338036
0.279836
0.254672
0.295596
0.341361
0.344865
0.358639
0.359995
0.410757
0.469690
0.541773
0.550215
0.558495
0.542827
0.550061
0.536444
0.506727
0.469338
0.451748
0.372638
0.302277
0.273638
0.250875
0.248679
0.290428
0.334972
0.345970
0.360447
0.421786
0.485608
0.516329
0.541068
0.519493
0.515926
0.560644
0.517428
0.495958
0.453260
0.403064
0.351974
0.302780
0.271789
0.255148
0.235227
0.243577
0.248339
0.270239
0.328695
0.379197
0.410860
0.483329
0.505116
0.499727
0.503597
0.516199
0.511786
0.467576
0.418826
0.398938
0.336111
0.288691
0.234581
0.203877
0.201006
0.246816
0.265434
0.276292
0.320515
0.357339
0.410421
0.461453
0.498246
0.520930
0.494552
0.446992
0.436055
0.437145
0.395753
0.322784
0.323919
0.325461
0.284309
0.233727
0.179994
0.183034
0.214320
0.272838
0.338569
0.369040
0.392740
0.439952
0.430805
0.478664
0.502932
0.482816
0.452991
0.466234
0.406754
0.291789
0.267478
0.227503
0.219378
0.188411
0.156534
0.196979
0.235886
0.245086
0.314193
0.330107
0.374242
0.429075
0.452324
0.488777
0.498249
0.442343
0.446025
0.414360
0.377795
0.344587
0.307409
0.251096
0.231813
0.232353
0.182255
0.151091
0.195727
0.249182
0.277569
0.318961
0.381616
0.425823
0.447574
0.490515
0.512362
0.499082
0.476070
0.426787
0.402520
0.342223
0.281797
0.266710
0.226607
0.170431
0.141387
0.160735
0.187932
0.256594
0.312039
0.339141
0.378067
0.404964
0.440163
0.479985
0.529940
0.513858
0.432744
0.381467
0.351802
0.338140
0.371122
0.320655
0.228527
0.210641
0.185753
0.178739
0.206637
0.234554
0.276948
0.330495
0.384312
0.420058
0.451165
0.469191
0.491990
0.454418
0.420398
0.409930
0.379368
0.321874
0.269943
0.230254
0.196879
0.181561
0.166646
0.143464
0.191490
0.244265
0.291894
0.349821
0.366828
0.372253
0.454878
0.463940
0.494165
0.490340
0.487083
0.427458
0.378203
0.305204
0.281910
0.247938
0.198061
0.163490
0.132424
0.145218
0.162945
0.238185
0.284430
0.359607
0.373731
0.398906
0.410122
0.450127
0.443633
0.417527
0.442705
0.437142
0.392352
0.342853
0.264853
0.199289
0.175049
0.145266
0.152258
0.199640
0.195619
0.234847
0.253712
0.259921
0.349151
0.415977
0.394670
0.486118
0.454976
0.473609
0.448050
0.398649
0.341489
0.300156
0.244972
0.221689
0.186719
0.150305
0.138264
0.152211
0.200676
0.232042
0.265395
0.321177
0.370347
0.383855
0.434685
0.467182
0.484547
0.476188
0.478778
0.438968
0.373463
0.326168
0.282038
0.240468
0.218279
0.200512
0.182871
0.160516
0.180330
0.226015
0.294159
0.338712
0.372500
0.414406
0.456220
0.442393
0.443558
0.452734
0.418609
0.397296
0.388817
0.307996
0.259658
0.217574
0.212154
0.154028
0.157419
0.168957
0.237518
0.262622
0.290191
0.352294
0.419562
0.458154
0.462890
0.504704
0.501838
0.492548
0.452449
0.406356
0.376531
0.339517
0.284604
0.246286
0.212324
0.178396
0.172557
0.193558
0.183232
0.242140
0.270251
0.306304
0.333584
0.378643
0.420245
0.466546
0.459049
0.426322
0.396654
0.379080
0.322631
0.242639
0.184305
0.190031
0.210101
0.154394
0.131262
0.101226
0.113820
0.163974
0.197989
0.242411
0.282510
0.312019
0.380494
0.419014
0.413490
0.411590
0.365803
0.298220
0.270685
0.183123
0.099306
0.169388
0.187707
0.201075
0.144097
0.091751
0.114646
0.184321
0.227420
0.255049
0.270261
0.308055
0.336652
0.353184
0.357774
0.329345
0.297251
0.290934
0.272368
0.213508
0.177997
0.181410
0.139222
0.100625
0.078436
0.047619
0.044804
0.077911
0.138444
0.210386
0.249197
0.300645
0.323141
0.318607
0.309877
0.337058
0.355735
0.327340
0.299149
0.238987
0.163244
0.126491
0.112098
0.095097
0.049009
0.049755
0.063291
0.103899
0.156409
0.190505
0.231107
0.266566
0.292633
0.325141
0.335284
0.318323
0.281282
0.275260
0.235484
0.203566
0.174340
0.132684
0.068195
0.014873
0.034727
0.058839
0.093782
0.138049
0.214330
0.298486
0.333100
0.366997
0.406076
0.426424
0.439739
0.468005
0.473870
0.464609
0.449661
0.392217
0.415468
0.385404
0.336576
0.382930
0.450851
0.494870
0.529845
0.577176
0.663379
0.817873
0.900882
0.984947
1.046826
1.100613
1.115901
1.140298
1.132417
1.106156
1.064189
1.003102
0.997306
0.935653
0.847790
0.785258
0.707733
0.638833
0.614147
0.598190
0.601240
0.594295
0.580337
0.559493
0.549250
0.577581
0.566700
0.543516
0.531961
0.475275
0.428648
0.389218
0.293547
0.240866
0.179200
0.134147
0.141291
0.158280
0.171862
0.183129
0.207786
0.288495
0.386729
0.419570
0.351123
0.356223
0.382508
0.376835
0.363494
0.314024
0.260347
0.201626
0.167365
0.131599
0.096780
0.091704
0.054858
0.103751
0.136571
0.113494
0.162604
0.212246
0.253027
0.292892
0.321679
0.347658
0.384321
0.375393
0.308738
0.262786
0.255146
0.191554
0.123007
0.101886
0.054712
0.029998
0.006973
0.029813
0.108962
0.097894
0.084745
0.174252
0.251434
0.332377
0.355707
0.333710
0.382702
0.342372
0.321156
0.287557
0.245312
0.221320
0.183025
0.099797
0.054437
0.034974
0.029104
0.015654
0.065996
0.119900
0.137540
0.189328
0.248057
0.269941
0.298090
0.323014
0.333944
0.340757
0.339398
0.315696
0.242119
0.197123
0.119342
0.101061
0.058227
0.044043
0.057798
0.060192
0.067070
0.089756
0.144497
0.196348
0.242776
0.291385
0.337392
0.385810
0.384179
0.366308
0.351462
0.332590
0.268543
0.168719
0.115471
0.089763
0.086684
0.071883
0.026298
0.098467
0.147616
0.153589
0.152146
0.240369
0.271343
0.254303
0.330492
0.399751
0.414332
0.383726
0.362610
0.321697
0.290231
0.236781
0.180401
0.137381
0.136253
0.113643
0.065775
0.082324
0.091309
0.106288
0.167532
0.225798
0.263670
0.331610
0.372761
0.387419
0.395234
0.371177
0.328402
0.291746
0.240175
0.163924
0.167981
0.102593
0.066034
0.053026
0.052144
0.042878
0.123635
0.190274
0.219513
0.218075
0.222360
0.284629
0.363472
0.418398
0.436768
0.389030
0.313201
0.275225
0.245449
0.246289
0.178848
0.119802
0.087102
0.032474
0.001938
0.022416
0.080745
0.113459
0.127325
0.186255
0.243628
0.286066
0.320839
0.336593
0.338574
0.331223
0.316163
0.282614
0.231348
0.155494
0.122915
0.072724
0.034137
0.049885
0.045821
0.004537
-0.000755
0.038589
0.138856
0.168015
0.238871
0.266759
0.304081
0.285296
0.305358
0.267006
0.253505
0.242007
0.205955
0.134688
0.075447
0.035954
-0.010428
0.016881
0.003347
-0.024286
-0.000304
0.055422
0.127246
0.179289
0.205641
0.230018
0.240061
0.275644
0.264809
0.255326
0.200417
0.186408
0.181012
0.167379
0.089297
0.003976
-0.014334
-0.070814
-0.046410
-0.022433
-0.025204
0.003781
0.031862
0.106905
0.165010
0.207331
0.238674
0.249883
0.287938
0.257441
0.236676
0.173898
0.134516
0.094711
0.045521
0.002202
-0.049013
-0.038050
-0.058943
-0.087183
-0.055044
-0.056421
0.004384
0.050815
0.135860
0.209556
0.282714
0.317740
0.291457
0.238676
0.185199
0.192218
0.151538
0.123167
0.045406
-0.018912
-0.056239
-0.041943
-0.068440
-0.067164
-0.033303
-0.025210
0.000140
0.004351
0.121749
0.194500
0.308246
0.333426
0.291283
0.253368
0.198562
0.148312
0.131447
0.117089
0.060230
-0.014903
-0.039423
-0.080494
-0.066140
-0.065217
-0.081078
-0.044242
0.000870
0.066944
0.128622
0.173830
0.244222
0.253626
0.250823
0.225074
0.198724
0.169404
0.146927
0.077374
0.027520
-0.021238
-0.039045
-0.072404
-0.106303
-0.086984
-0.074308
0.042229
0.071941
0.082716
0.117471
0.169063
0.189130
0.220011
0.249658
0.233877
0.204085
0.183340
0.118122
0.065678
0.019748
-0.033147
-0.064083
-0.072184
-0.067873
-0.103406
-0.085017
-0.035721
0.005050
0.064361
0.131943
0.167707
0.222902
0.208256
0.204210
0.219535
0.192560
0.116369
0.059324
0.038936
0.003639
-0.003868
-0.055632
-0.077928
-0.082522
-0.045363
-0.033576
-0.048562
-0.030810
0.015643
0.112901
0.143296
0.200183
0.203939
0.226679
0.206305
0.199879
0.140412
0.089107
0.062034
-0.012702
-0.054236
-0.101998
-0.112623
-0.110196
-0.073216
-0.082153
-0.009861
0.023096
0.047925
0.097915
0.147836
0.180112
0.187259
0.205366
0.199095
0.159921
0.167592
0.123283
0.062532
0.024839
-0.015629
-0.060493
-0.071692
-0.118971
-0.076571
-0.063141
-0.018721
0.032654
0.060480
0.104549
0.137449
0.153428
0.196198
0.242617
0.222522
0.224602
0.194828
0.108533
0.051289
0.030116
-0.024828
-0.066836
-0.097749
-0.086822
-0.098951
-0.072830
-0.030534
0.017855
0.098203
0.120040
0.165665
0.247383
0.265205
0.285942
0.184142
0.184521
0.154829
0.108267
0.040205
0.035209
-0.019140
-0.047195
-0.067405
-0.090692
-0.065377
-0.048313
-0.026392
-0.010217
0.043983
0.076133
0.126864
0.133842
0.183089
0.220593
0.315626
0.287054
0.174792
0.065662
0.047900
-0.008215
-0.083559
-0.109338
-0.096274
-0.110374
-0.114439
-0.104828
-0.041823
-0.008701
0.027108
0.056568
0.067540
0.101362
0.125975
0.152843
0.137248
0.110527
0.051433
0.008256
-0.020368
-0.022973
-0.045849
-0.120542
-0.155205
-0.191934
-0.179031
-0.127813
-0.084328
-0.056158
-0.002782
0.074528
0.089404
0.082674
0.131538
0.151516
0.128560
0.092069
0.078186
0.029545
-0.010234
-0.069281
-0.131534
-0.189089
-0.190145
-0.176141
-0.178969
-0.156056
-0.116260
-0.082747
-0.017027
0.015413
0.055424
0.130396
0.137998
0.150207
0.127339
0.080582
0.046346
-0.034467
-0.069634
-0.102278
-0.103516
-0.138535
-0.182622
-0.178179
-0.159482
-0.132240
-0.094495
-0.050111
-0.032661
0.022989
0.096945
0.140445
0.114752
0.166052
0.139597
0.088357
0.021213
-0.050372
-0.006731
-0.061545
-0.109020
-0.163543
-0.186106
-0.187745
-0.236339
-0.218131
-0.132862
-0.086246
-0.006607
0.052986
0.099171
0.135624
0.146359
0.156004
0.154844
0.177560
0.177610
0.112596
0.048749
0.039133
0.014869
-0.000246
0.002144
0.013418
0.041635
0.043672
0.118058
0.196147
0.261813
0.358437
0.413039
0.509432
0.542001
0.555938
0.610742
0.635773
0.632139
0.612841
0.618695
0.601980
0.571454
0.573922
0.528835
0.506205
0.493779
0.477972
0.516950
0.537684
0.537621
0.547997
0.521582
0.506524
0.493069
0.449820
0.417378
0.354980
0.331278
0.311925
0.199032
0.064362
0.023463
-0.050792
-0.053081
-0.068832
-0.064408
-0.036407
-0.007211
0.017168
0.056902
0.097767
0.129520
0.168631
0.182817
0.157142
0.145950
0.151588
0.123256
0.074610
0.006972
-0.051077
-0.089786
-0.114841
-0.127851
-0.130951
-0.122370
-0.106128
-0.087060
-0.052421
-0.036749
0.013969
0.067649
0.104814
0.124031
0.130197
0.112134
0.106256
0.080254
0.035852
-0.041925
-0.122148
-0.185106
-0.195232
-0.127166
-0.148094
-0.165028
-0.186328
-0.154259
-0.091792
-0.005903
0.074098
0.091406
0.089666
0.123900
0.128842
0.133853
0.120515
0.085431
0.018992
-0.028938
-0.037441
-0.096704
-0.172113
-0.168994
-0.159655
-0.167340
-0.141556
-0.109256
-0.077184
-0.015171
0.027610
0.059401
0.083980
0.127011
0.133891
0.119428
0.105012
0.100543
0.039648
-0.025120
-0.085660
-0.123107
-0.151175
-0.154803
-0.173925
-0.188072
-0.132502
-0.075881
-0.054609
-0.030765
0.024698
0.061019
0.111340
0.157094
0.165577
0.176821
0.145404
0.093206
0.047884
0.011022
-0.031543
-0.076398
-0.134844
-0.161100
-0.206278
-0.199404
-0.170564
-0.138534
-0.093514
-0.023128
0.043241
0.114367
0.221409
0.230102
0.197091
0.160278
0.141526
0.151788
0.081521
0.020403
-0.067659
-0.080132
-0.065639
-0.081579
-0.118532
-0.093401
-0.082702
-0.060359
-0.004629
0.016214
0.078242
0.167135
0.175431
0.174667
0.169813
0.159074
0.163161
0.149278
0.117506
0.057666
-0.017687
-0.064225
-0.073408
-0.106497
-0.118316
-0.101703
-0.082411
-0.076319
-0.004248
0.060811
0.091502
0.106093
0.124970
0.142281
0.213587
0.221577
0.178413
0.124145
0.037767
-0.013570
-0.035260
-0.067355
-0.086820
-0.132386
-0.149566
-0.146301
-0.107676
-0.075263
-0.041537
0.014430
0.094887
0.122128
0.155819
0.169812
0.158573
0.132419
0.140547
0.100087
0.055871
0.015162
-0.067447
-0.106318
-0.167437
-0.150722
-0.171915
-0.165785
-0.140466
-0.080985
-0.037690
0.007201
-0.011258
0.034852
0.088271
0.101140
0.149958
0.136424
0.112508
0.054094
0.018124
-0.052338
-0.074548
-0.123354
-0.186601
-0.197752
-0.181808
-0.176091
-0.129522
-0.124848
-0.103410
-0.065655
0.002887
0.018566
0.075813
0.091379
0.085821
0.085806
0.066504
0.030675
-0.008023
-0.059117
-0.135718
-0.195141
-0.212818
-0.241849
-0.235577
-0.215677
-0.191467
-0.160422
-0.143753
-0.057651
-0.020797
0.005801
0.024818
0.031995
0.021149
0.026526
0.046864
0.028143
-0.026902
-0.077986
-0.143735
-0.193988
-0.224013
-0.239346
-0.236635
-0.244339
-0.213350
-0.208206
-0.182367
-0.150826
-0.049217
-0.000428
0.021432
0.088126
0.139536
0.093292
0.011106
0.009877
-0.044766
-0.106752
-0.135966
-0.179152
-0.250285
-0.271435
-0.236079
-0.217430
-0.192314
-0.188019
-0.160934
-0.082442
-0.032172
-0.005293
0.047521
0.057203
0.061447
0.020668
-0.000785
-0.048189
-0.101637
-0.109587
-0.170684
-0.234339
-0.252943
-0.240741
-0.241342
-0.260331
-0.223023
-0.169688
-0.123001
-0.095433
-0.037772
0.020294
0.059309
0.056121
0.055764
0.062543
0.030043
0.003847
-0.058811
-0.138210
-0.159355
-0.182600
-0.248394
-0.267098
-0.195083
-0.172478
-0.194431
-0.206304
-0.181042
-0.067147
0.030174
0.035895
0.029656
0.025353
0.020936
0.044495
0.019949
-0.042978
-0.091722
-0.130628
-0.154645
-0.174719
-0.200683
-0.230608
-0.277534
-0.250799
-0.242267
-0.213726
-0.154404
-0.113833
-0.053882
-0.007218
0.012602
0.071627
0.086378
0.027991
0.010480
0.002492
-0.048004
-0.081233
-0.167390
-0.235225
-0.265654
-0.266786
-0.299032
-0.301928
-0.212158
-0.137849
-0.124138
-0.124400
-0.080809
-0.065815
-0.029403
0.040147
0.073458
0.023192
0.030134
-0.002060
-0.019302
-0.066464
-0.135766
-0.199700
-0.203651
-0.206318
-0.231711
-0.217051
-0.194304
-0.173862
-0.146840
-0.104112
-0.044769
0.004351
0.071267
0.074901
0.045134
0.058394
0.034958
-0.006054
-0.021261
-0.064593
-0.120261
-0.187933
-0.234031
-0.235562
-0.249701
-0.233805
-0.234083
-0.191051
-0.131145
-0.047851
0.029028
-0.001365
-0.004039
0.026627
0.046611
0.056667
-0.011938
-0.016137
-0.006139
-0.034351
-0.042852
-0.095133
-0.177648
-0.232223
-0.219956
-0.240021
-0.197697
-0.150811
-0.094847
-0.082767
-0.084026
0.018387
0.130204
0.122808
0.047742
0.043746
0.016322
0.000070
-0.059520
-0.090799
-0.158924
-0.187791
-0.181267
-0.242361
-0.296138
-0.314300
-0.255412
-0.209880
-0.105813
-0.072714
-0.081552
-0.028680
-0.004505
0.031784
0.053361
0.080879
0.053321
-0.020262
-0.069338
-0.138829
-0.221074
-0.257487
-0.284718
-0.315789
-0.283196
-0.297507
-0.302612
-0.269464
-0.177415
-0.111189
-0.064127
-0.002784
-0.012655
-0.007603
0.022709
-0.030761
-0.061629
-0.066844
-0.118842
-0.177950
-0.257778
-0.286238
-0.297426
-0.281486
-0.273775
-0.333425
-0.308407
-0.247267
-0.187560
-0.142213
-0.096232
-0.093193
-0.088617
-0.030716
-0.056524
-0.062072
-0.073372
-0.096694
-0.071997
-0.098266
-0.171012
-0.215143
-0.321040
-0.313373
-0.323040
-0.314484
-0.295772
-0.238791
-0.191037
-0.165255
-0.155681
-0.158944
-0.095635
-0.039832
-0.026802
-0.023765
-0.040174
-0.062378
-0.115339
-0.180200
-0.270314
-0.311833
-0.321858
-0.320047
-0.298461
-0.280536
-0.299861
-0.302962
-0.236602
-0.201745
-0.128530
-0.108855
-0.076983
-0.013389
0.007452
-0.037154
-0.061646
-0.083793
-0.127598
-0.165055
-0.219066
-0.277748
-0.299091
-0.276689
-0.276366
-0.248330
-0.209913
-0.190619
-0.128076
-0.078595
-0.009204
0.103720
0.117444
0.166264
0.209514
0.244699
0.244109
0.236887
0.183200
0.239063
0.173829
0.150879
0.132842
0.186719
0.236356
0.254026
0.342441
0.404824
0.427733
0.492754
0.586003
0.640532
0.690746
0.685330
0.677724
0.674623
0.644892
0.582449
0.480976
0.345298
0.235500
0.144504
0.078943
0.046591
-0.007426
-0.073981
-0.097411
-0.079110
-0.111413
-0.097419
-0.031788
0.022228
0.075923
0.101597
0.088390
0.048423
0.014473
0.022971
-0.020388
-0.052953
-0.088430
-0.124521
-0.192779
-0.246271
-0.251104
-0.246425
-0.254032
-0.204564
-0.138454
-0.092584
-0.037632
-0.024940
0.013860
0.059525
0.023872
0.006953
-0.013889
-0.049067
-0.107852
-0.144155
-0.141678
-0.187506
-0.241914
-0.238542
-0.239628
-0.284293
-0.278351
-0.211728
-0.156333
-0.148904
-0.090010
-0.018686
0.007778
0.082371
0.047545
-0.007646
-0.017211
-0.059708
-0.097932
-0.132156
-0.171962
-0.229166
-0.261918
-0.326477
-0.379852
-0.321304
-0.274817
-0.223152
-0.171765
-0.141959
-0.106453
-0.037323
-0.013761
0.016609
0.017233
-0.028189
-0.000584
0.011794
-0.034108
-0.047140
-0.125970
-0.202828
-0.257688
-0.291955
-0.280604
-0.227811
-0.184155
-0.174461
-0.169350
-0.156508
-0.087280
-0.019879
0.020845
0.046385
0.030503
0.026345
0.039053
-0.024758
-0.054248
-0.092209
-0.155631
-0.199528
-0.217813
-0.244688
-0.231447
-0.213731
-0.189999
-0.177984
-0.164895
-0.113612
-0.031640
0.042420
0.014409
0.108626
0.162230
0.101141
0.059494
0.060284
-0.018564
-0.081057
-0.109639
-0.138715
-0.236727
-0.234613
-0.165640
-0.164354
-0.152096
-0.110403
-0.101301
-0.049956
-0.030660
-0.004161
0.054558
0.123984
0.101628
0.095885
0.073652
0.039867
0.009536
-0.031222
-0.140710
-0.169782
-0.212159
-0.179870
-0.159400
-0.159465
-0.171862
-0.139088
-0.128786
-0.057818
-0.000095
0.037583
0.054113
0.069963
0.116173
0.164044
0.117091
0.100387
0.045050
-0.000799
-0.067863
-0.118167
-0.181924
-0.197979
-0.190923
-0.230115
-0.200345
-0.131221
-0.075761
-0.028758
0.028095
0.050751
0.095899
0.113528
0.141554
0.106846
0.089427
0.059028
-0.031621
-0.081362
-0.113407
-0.149873
-0.196229
-0.232876
-0.216877
-0.208870
-0.177167
-0.131891
-0.099963
-0.033974
0.007698
0.053568
0.097008
0.050960
0.037035
0.044739
0.044239
-0.008973
-0.025338
-0.064398
-0.121994
-0.179744
-0.183381
-0.208393
-0.239913
-0.263521
-0.250950
-0.189339
-0.115030
-0.057534
-0.042603
-0.008745
0.027786
0.055676
0.068685
0.036556
0.014341
0.009038
-0.081973
-0.137771
-0.197529
-0.220345
-0.323566
-0.256044
-0.222865
-0.233575
-0.252994
-0.227448
-0.158010
-0.143251
-0.041212
0.049969
0.078891
0.042294
0.019593
-0.010502
0.014939
0.015375
-0.073325
-0.191526
-0.174320
-0.190997
-0.224599
-0.259115
-0.306301
-0.269982
-0.236546
-0.189839
-0.158766
-0.126299
-0.070363
-0.050719
-0.041779
0.032467
0.058313
0.014535
-0.003142
-0.036422
-0.061670
-0.086178
-0.147000
-0.232976
-0.256880
-0.276580
-0.297535
-0.240123
-0.242103
-0.228358
-0.212533
-0.161409
-0.081725
-0.037973
-0.034948
0.009335
0.024545
0.027481
0.009993
0.008106
-0.048645
-0.100768
-0.157208
-0.194793
-0.234593
-0.265804
-0.289364
-0.256636
-0.270848
-0.243032
-0.242500
-0.160430
-0.092834
-0.028907
-0.001629
0.029420
0.012417
0.056606
0.079578
0.026886
-0.098604
-0.134779
-0.158278
-0.194013
-0.261578
-0.300272
-0.287070
-0.288858
-0.246105
-0.215408
-0.166504
-0.110593
-0.061256
-0.022603
0.022900
0.040599
0.054441
0.038213
0.023840
-0.014155
-0.054099
-0.104569
-0.171633
-0.241011
-0.234595
-0.219896
-0.223871
-0.251421
-0.231168
-0.176759
-0.132742
-0.070111
-0.061865
-0.071518
0.015976
0.035616
0.036884
0.029291
0.022596
-0.000165
-0.077142
-0.104427
-0.131934
-0.155939
-0.220526
-0.259757
-0.220413
-0.251087
-0.237525
-0.195672
-0.184766
-0.125168
-0.080795
-0.013350
0.029473
0.052923
0.061337
0.074470
0.022714
-0.007706
-0.070941
-0.102742
-0.135523
-0.192540
-0.165802
-0.190346
-0.230758
-0.214320
-0.225306
-0.197013
-0.150713
-0.093037
-0.049712
-0.008308
0.034260
0.071756
0.100804
0.094946
0.066961
0.000741
-0.069680
-0.089996
-0.118768
-0.138978
-0.179215
-0.229315
-0.297113
-0.250610
-0.199162
-0.199640
-0.155543
-0.132796
-0.105653
-0.008742
0.065526
0.086316
0.077824
0.037057
0.041635
0.045191
0.022455
-0.046633
-0.133882
-0.183086
-0.165473
-0.198009
-0.236070
-0.258535
-0.195951
-0.158117
-0.093075
-0.062208
-0.012544
0.019024
0.032019
0.037773
0.069952
0.091801
0.044994
0.045022
0.031934
-0.057464
-0.120750
-0.134623
-0.168538
-0.243361
-0.248743
-0.256468
-0.235677
-0.213185
-0.142931
-0.140771
-0.110845
-0.081591
-0.055102
-0.012992
0.066612
0.034286
0.019213
-0.048765
-0.087542
-0.120431
-0.171013
-0.218291
-0.250368
-0.255503
-0.289787
-0.290574
-0.260658
-0.223466
-0.191871
-0.171966
-0.112153
-0.053508
-0.026663
-0.002730
-0.009638
-0.018342
-0.035810
-0.068891
-0.120311
-0.148507
-0.190635
-0.239590
-0.295809
-0.323992
-0.281437
-0.286615
-0.277516
-0.206966
-0.179045
-0.155662
-0.116445
-0.046688
0.010924
0.029139
-0.013262
0.010178
-0.001230
-0.047209
-0.089965
-0.136237
-0.185240
-0.259668
-0.303837
-0.302474
-0.301018
-0.296226
-0.271704
-0.225986
-0.190928
-0.164397
-0.109472
-0.054416
-0.003308
0.038798
0.029692
-0.020033
-0.042254
-0.072732
-0.128152
-0.191869
-0.182423
-0.202932
-0.260206
-0.306766
-0.321920
-0.326563
-0.304027
-0.253270
-0.191712
-0.155392
-0.141503
-0.075299
-0.042553
-0.004306
-0.003383
-0.030126
-0.022446
-0.080048
-0.078672
-0.117085
-0.186848
-0.175167
-0.199972
-0.237965
-0.185516
-0.162055
-0.176178
-0.130321
-0.065206
-0.007400
0.091117
0.127129
0.200937
0.224528
0.336723
0.367500
0.336432
0.322351
0.315887
0.303238
0.307783
0.306879
0.317884
0.365074
0.394855
0.408665
0.465733
0.524155
0.548576
0.602880
0.640947
0.710098
0.691595
0.707254
0.711422
0.718630
0.649801
0.522396
0.380713
0.238407
0.186073
0.081144
0.010148
-0.017043
-0.057735
-0.116194
-0.090405
-0.050271
-0.042066
-0.000016
0.054814
0.111111
0.132919
0.167399
0.168319
0.146572
0.065567
0.043250
0.045024
-0.011267
-0.075504
-0.117370
-0.176949
-0.180856
-0.244416
-0.248061
-0.181697
-0.081046
-0.076985
-0.070791
-0.062287
-0.052839
0.002835
0.057688
0.094711
0.084972
0.015363
0.007719
-0.034659
-0.097379
-0.140322
-0.162359
-0.208587
-0.247628
-0.261583
-0.224960
-0.220131
-0.193394
-0.159169
-0.106902
-0.055829
-0.005889
0.039853
0.063049
0.063943
0.063313
0.061048
0.031523
-0.052688
-0.105643
-0.182005
-0.199261
-0.200630
-0.208265
-0.250895
-0.197767
-0.245449
-0.173721
-0.150284
-0.078906
-0.042122
-0.013851
0.012971
0.055000
0.055122
0.046757
0.050814
0.013765
-0.063107
-0.126473
-0.110143
-0.101845
-0.138063
-0.178817
-0.163568
-0.205768
-0.210119
-0.151695
-0.111988
-0.060623
-0.038804
-0.004507
0.063831
0.085866
0.083672
0.095161
0.059532
0.024013
-0.012537
-0.075666
-0.091349
-0.129472
-0.174822
-0.196584
-0.212282
-0.226011
-0.202268
-0.171932
-0.098627
-0.052911
0.001746
0.106454
0.106131
0.093662
0.124743
0.159653
0.105427
0.080188
0.023283
0.001175
-0.051324
-0.099832
-0.140300
-0.188474
-0.192231
-0.180665
-0.159868
-0.087422
-0.048726
-0.004869
0.032615
0.093642
0.116675
0.152039
0.133452
0.130445
0.096330
0.064915
0.052484
0.041124
-0.003415
-0.100016
-0.128073
-0.109545
-0.108319
-0.138546
-0.154699
-0.078184
-0.039870
-0.005268
0.047476
0.094466
0.229412
0.253768
0.181069
0.115134
0.122753
0.122997
0.055341
-0.004263
-0.052018
-0.109197
-0.143882
-0.199317
-0.204050
-0.100830
-0.067060
-0.069044
-0.031544
0.016954
0.053863
0.092709
0.112411
0.151918
0.138318
0.100519
0.068348
0.112167
0.092375
0.018369
-0.056784
-0.108739
-0.138143
-0.166357
-0.185363
-0.173871
-0.116246
-0.100638
-0.073529
-0.037787
0.018463
0.057797
0.120445
0.120103
0.132910
0.105561
0.081892
0.046030
-0.015646
-0.065217
-0.106623
-0.140784
-0.120142
-0.127624
-0.164623
-0.181431
-0.158750
-0.112096
-0.086183
-0.072408
-0.017100
0.069068
0.085429
0.090089
0.098114
0.072341
0.062109
0.020043
0.011039
-0.032886
-0.090062
-0.135278
-0.162173
-0.170348
-0.191243
-0.209322
-0.209689
-0.143434
-0.087133
-0.042802
-0.012104
0.019075
0.025378
0.072093
0.078182
0.101598
0.098304
0.066682
-0.020860
-0.103888
-0.142124
-0.192037
-0.183141
-0.217757
-0.224044
-0.175158
-0.174004
-0.190021
-0.130048
-0.068413
-0.025485
-0.005555
0.066983
0.090028
0.116852
0.109931
0.067664
0.028416
-0.025263
-0.059702
-0.097471
-0.156011
-0.208053
-0.253327
-0.217416
-0.216835
-0.164650
-0.137201
-0.070866
-0.068626
-0.022633
0.013770
0.012445
0.060721
0.112373
0.074982
0.100587
0.054447
-0.009701
-0.055404
-0.126988
-0.118133
-0.144271
-0.208723
-0.214302
-0.183139
-0.192276
-0.142049
-0.134492
-0.076290
0.001037
0.063548
0.090860
0.102073
0.113621
0.138323
0.088094
0.031488
-0.009271
-0.052586
-0.070533
-0.116076
-0.156633
-0.175003
-0.188617
-0.198751
-0.196176
-0.182946
-0.143968
-0.030988
0.022636
0.083066
0.101218
0.109159
0.109516
0.105192
0.094308
0.060777
0.012668
-0.014807
-0.130914
-0.136917
-0.174502
-0.191809
-0.197089
-0.153258
-0.132887
-0.115405
-0.079533
-0.042220
0.005522
0.022449
0.049603
0.114563
0.125146
0.101873
0.084529
0.033280
-0.014537
-0.071876
-0.122301
-0.141424
-0.168190
-0.187221
-0.187943
-0.206061
-0.155775
-0.119895
-0.075381
-0.035730
0.029270
0.064074
0.107529
0.099531
0.100590
0.089238
0.068394
0.065716
0.067043
-0.019428
-0.102759
-0.148336
-0.170509
-0.191557
-0.193422
-0.183606
-0.222353
-0.115589
-0.039238
-0.008303
0.075601
0.082023
0.089123
0.084383
0.143567
0.166057
0.127161
0.051987
0.010399
-0.045904
-0.108095
-0.119416
-0.153037
-0.115493
-0.205590
-0.156755
-0.092291
-0.061354
-0.064905
-0.046766
-0.011091
0.061568
0.150967
0.143999
0.141226
0.124879
0.094944
0.098381
0.052273
0.005164
-0.051248
-0.077932
-0.101180
-0.142289
-0.145524
-0.142592
-0.133761
-0.108014
-0.054631
-0.018776
0.048299
0.112910
0.144453
0.119836
0.153249
0.154978
0.117272
0.055240
0.005669
-0.012120
-0.045962
-0.080473
-0.126778
-0.155879
-0.189576
-0.193541
-0.172379
-0.128810
-0.087426
-0.038398
0.020103
0.058801
0.111919
0.112261
0.113106
0.069253
0.049021
0.041540
-0.021375
-0.058359
-0.079867
-0.132673
-0.177369
-0.201605
-0.213290
-0.212386
-0.194000
-0.143452
-0.096281
-0.070410
-0.039272
-0.027025
-0.015979
0.041085
0.102437
0.093338
0.029329
0.010669
0.002704
-0.062002
-0.107413
-0.127765
-0.229404
-0.244020
-0.239302
-0.197604
-0.209870
-0.194479
-0.125209
-0.055930
-0.031904
-0.002292
0.040890
0.052576
0.079040
0.084379
0.074316
0.020038
-0.027038
-0.095880
-0.135243
-0.154561
-0.175643
-0.244689
-0.275242
-0.252127
-0.231891
-0.162568
-0.119669
-0.077472
-0.023724
0.047114
0.105525
0.081453
0.044928
0.073784
0.067726
0.019821
-0.062596
-0.073061
-0.113095
-0.133365
-0.187710
-0.193391
-0.222598
-0.247030
-0.206581
-0.170754
-0.113032
-0.083457
-0.088119
-0.010831
0.031078
0.061655
0.100809
0.091162
0.033615
-0.030009
-0.055520
-0.096090
-0.119036
-0.172791
-0.167756
-0.185059
-0.217028
-0.218861
-0.149669
-0.090959
-0.070056
-0.011343
0.036460
0.101321
0.193922
0.257603
0.284629
0.289207
0.258533
0.287984
0.317639
0.326621
0.325516
0.310689
0.316269
0.334258
0.341622
0.412400
0.497708
0.581235
0.654516
0.731019
0.813697
0.888737
0.953860
0.970446
0.971855
0.988168
0.927720
0.867779
0.799661
0.732394
0.683282
0.587275
0.471370
0.335438
0.255258
0.239389
0.231247
0.145029
0.135554
0.190238
0.219748
0.283625
0.280488
0.275124
0.322685
0.286948
0.246596
0.183518
0.116217
0.034069
-0.005833
-0.030752
-0.089337
-0.139076
-0.142661
-0.152586
-0.111637
-0.073138
-0.036768
0.000169
0.053563
0.104199
0.108626
0.134008
0.137651
0.134868
0.132692
0.079633
-0.001633
-0.085949
-0.067225
-0.104200
-0.106992
-0.149856
-0.099558
-0.177344
-0.164655
-0.155255
-0.094651
-0.039378
-0.000859
0.065059
0.107623
0.131257
0.131121
0.081445
0.039904
0.095055
0.057380
-0.038113
-0.109518
-0.119713
-0.146995
-0.153572
-0.168459
-0.163384
-0.153138
-0.115758
-0.082995
-0.024738
0.035739
0.078092
0.093546
0.104131
0.108131
0.118516
0.098526
0.056122
0.029378
-0.014998
-0.076194
-0.093998
-0.127616
-0.161068
-0.184023
-0.152911
-0.126216
-0.159374
-0.072657
0.050171
0.063910
0.114251
0.131194
0.129633
0.147454
0.140461
0.124019
0.066760
0.032841
0.006542
-0.061198
-0.074787
-0.138543
-0.156164
-0.156323
-0.136804
-0.100247
-0.054707
-0.024933
0.039288
0.079013
0.072151
0.084401
0.108667
0.188706
0.211526
0.165725
0.114140
0.062154
0.002949
-0.043844
-0.026540
-0.024179
-0.068292
-0.120304
-0.109487
-0.083209
-0.058503
-0.003495
0.064085
0.104549
0.120388
0.154447
0.145565
0.191805
0.197729
0.195841
0.177460
0.125890
0.141754
0.063834
-0.035435
-0.052268
-0.049419
-0.053867
-0.075129
-0.066462
-0.045816
-0.004879
0.059044
0.126211
0.191572
0.210270
0.230169
0.254159
0.229819
0.209525
0.141180
0.117676
0.069407
0.012069
-0.003855
-0.013803
-0.021143
-0.101986
-0.108468
-0.041590
-0.006441
-0.001742
0.051945
0.097148
0.113186
0.154564
0.228068
0.214182
0.202592
0.198990
0.125778
0.107738
0.057162
0.002490
-0.052913
-0.083346
-0.085658
-0.120983
-0.125074
-0.102234
-0.055237
0.000790
0.055286
0.058129
0.096276
0.108542
0.165189
0.207609
0.166422
0.160597
0.138421
0.090190
0.040522
-0.009584
-0.025629
-0.094320
-0.138399
-0.140306
-0.142173
-0.139891
-0.128440
-0.066927
0.008955
0.078603
0.112601
0.110554
0.127545
0.170192
0.147165
0.144079
0.081213
0.054528
0.032729
-0.036815
-0.122316
-0.164645
-0.189012
-0.222364
-0.208519
-0.138080
-0.100895
-0.067712
-0.006806
0.070180
0.061929
0.082306
0.147522
0.175443
0.085213
0.095000
0.090874
0.042329
-0.042162
-0.065385
-0.089077
-0.135234
-0.179997
-0.185763
-0.165470
-0.173926
-0.153937
-0.097970
-0.042674
0.034117
0.067210
0.060194
0.074227
0.128669
0.108526
0.067163
0.040260
0.007275
-0.047135
-0.057135
-0.078401
-0.140453
-0.200384
-0.219798
-0.207438
-0.141856
-0.091875
-0.083315
-0.037337
0.011929
0.087823
0.034492
0.034301
0.140913
0.147476
0.088825
0.008180
-0.009089
-0.053839
-0.091132
-0.123693
-0.163858
-0.213617
-0.182160
-0.160889
-0.145420
-0.114396
-0.066080
-0.017274
0.044993
0.079847
0.090345
0.127224
0.139819
0.137578
0.103364
0.068673
0.002934
-0.027030
-0.107782
-0.117643
-0.120449
-0.160589
-0.187982
-0.190387
-0.188967
-0.129784
-0.081326
-0.049772
0.001603
0.073307
0.087596
0.109609
0.142251
0.124500
0.132166
0.092825
0.062132
-0.001073
-0.090642
-0.122069
-0.153119
-0.176301
-0.192841
-0.178868
-0.159363
-0.159783
-0.117656
-0.034855
0.041251
0.077216
0.134820
0.135078
0.134815
0.137735
0.133648
0.093198
0.023856
-0.029905
-0.089207
-0.161780
-0.219775
-0.222445
-0.196334
-0.120150
-0.111072
-0.072413
0.023913
0.051092
0.052679
0.056687
0.099031
0.142433
0.149595
0.135292
0.128849
0.100838
0.033488
-0.055325
-0.082372
-0.112330
-0.150555
-0.191068
-0.180341
-0.170665
-0.143688
-0.119806
-0.091360
-0.038614
-0.001501
0.048244
0.071469
0.111624
0.132764
0.147043
0.099195
0.066794
0.021804
-0.001542
-0.071588
-0.129535
-0.179705
-0.195472
-0.195246
-0.185799
-0.157614
-0.139047
-0.099094
-0.038970
0.028383
0.089340
0.155233
0.169630
0.167382
0.157666
0.120533
0.060537
0.031060
0.004548
-0.029935
-0.099301
-0.142456
-0.191253
-0.196340
-0.164086
-0.116997
-0.124764
-0.075069
0.026680
0.066566
0.061836
0.097521
0.126979
0.172942
0.158468
0.141839
0.087740
0.065371
-0.002597
-0.039074
-0.084349
-0.169521
-0.208381
-0.165086
-0.144183
-0.101448
-0.077124
-0.056967
0.004378
0.088392
0.119215
0.148154
0.170182
0.165439
0.137775
0.080645
0.088247
0.056268
0.005299
-0.026508
-0.049942
-0.102110
-0.148846
-0.173251
-0.139257
-0.108875
-0.107216
-0.051669
-0.034080
0.016275
0.088311
0.129461
0.148412
0.132680
0.115689
0.094357
0.052259
0.012479
-0.027836
-0.088623
-0.099410
-0.156657
-0.187214
-0.185308
-0.191493
-0.175772
-0.128766
-0.081359
-0.040033
-0.007336
0.028482
0.058181
0.052592
0.075039
0.097140
0.057224
0.021830
-0.022252
-0.075841
-0.118316
-0.174150
-0.274834
-0.226486
-0.193675
-0.226161
-0.232470
-0.200951
-0.133143
-0.077438
-0.034296
0.010800
0.074957
0.096607
0.105078
0.074377
0.049708
0.018022
-0.033858
-0.087186
-0.134412
-0.169957
-0.196334
-0.237809
-0.255486
-0.232196
-0.207939
-0.211223
-0.179709
-0.105075
-0.020429
0.025824
0.064868
0.064067
0.035630
0.055738
0.057603
0.040089
0.000818
-0.049463
-0.107330
-0.182293
-0.206126
-0.232706
-0.246349
-0.213840
-0.183930
-0.183814
-0.128741
-0.077374
-0.049789
-0.018632
0.011706
0.049432
0.082134
0.071304
0.048107
0.031202
-0.033661
-0.086229
-0.140612
-0.203158
-0.245410
-0.261439
-0.271127
-0.230570
-0.182734
-0.168476
-0.157654
-0.116186
-0.051381
-0.041855
0.051844
0.094729
0.126163
0.150938
0.089623
0.034646
0.019059
0.022531
-0.019585
-0.023657
-0.019237
-0.040401
-0.038839
-0.005103
0.058382
0.103630
0.165846
0.253006
0.365153
0.453702
0.472889
0.555395
0.598960
0.648511
0.701442
0.698638
0.690007
0.693780
0.717939
0.705028
0.716491
0.659346
0.645862
0.613029
0.656363
0.670431
0.746347
0.778219
0.733086
0.690889
0.648107
0.618359
0.612205
0.543650
0.457899
0.364644
0.284057
0.184084
0.135799
0.066874
-0.020762
-0.033951
-0.032700
-0.028522
-0.025744
-0.055825
-0.043695
0.101388
0.103863
0.097395
0.157892
0.182501
0.196877
0.183301
0.145001
0.060630
0.037359
0.011005
-0.042922
-0.108665
-0.124371
-0.170971
-0.169336
-0.156336
-0.174615
-0.194920
-0.125189
-0.029556
0.055034
0.058533
0.055219
0.118027
0.130298
0.126772
0.100591
0.082701
0.019309
-0.037512
-0.113918
-0.134332
-0.196609
-0.201771
-0.214666
-0.224888
-0.210708
-0.157762
-0.097646
-0.058397
-0.028509
0.022534
0.060307
0.078854
0.060880
0.077257
0.051671
0.061552
0.034812
0.038494
-0.054415
-0.150163
-0.149080
-0.181316
-0.181540
-0.172687
-0.166531
-0.115639
-0.071903
-0.034160
0.011639
0.039166
0.059440
0.104891
0.117146
0.085305
0.052565
0.002824
-0.006265
-0.008778
-0.036531
-0.107649
-0.189176
-0.210448
-0.180852
-0.178155
-0.140221
-0.155712
-0.042321
-0.017176
-0.000308
0.047953
0.111925
0.127303
0.139480
0.130438
0.106472
0.101879
0.051045
-0.014617
-0.035440
-0.063139
-0.118038
-0.172897
-0.178398
-0.145031
-0.104812
-0.104564
-0.055764
0.011438
0.023835
0.082550
0.123440
0.151775
0.163790
0.185394
0.160982
0.093405
0.058000
-0.004775
-0.005301
-0.027138
-0.094435
-0.129910
-0.126515
-0.133952
-0.118110
-0.067051
-0.019220
0.018397
0.064550
0.138805
0.174584
0.165725
0.176793
0.185492
0.149662
0.105723
0.069662
0.033815
-0.006103
-0.053104
-0.096452
-0.138942
-0.102993
-0.104619
-0.068616
-0.031053
-0.019223
0.001658
0.032937
0.086400
0.143925
0.153868
0.201707
0.181486
0.179677
0.135705
0.063107
0.039037
-0.004421
-0.027622
-0.051405
-0.111502
-0.134796
-0.139681
-0.135635
-0.095507
-0.046135
0.011675
0.066629
0.105493
0.114365
0.093377
0.106222
0.132643
0.148797
0.107023
0.047129
0.010989
-0.023749
-0.075569
-0.111517
-0.192516
-0.178424
-0.167495
-0.143965
-0.084039
-0.054400
0.009540
0.055339
0.095969
0.107016
0.116447
0.118544
0.111993
0.106425
0.074658
0.023789
-0.046847
-0.107606
-0.140778
-0.169956
-0.183870
-0.147854
-0.151127
-0.120899
-0.142871
-0.120465
-0.034648
-0.021931
0.023409
0.075763
0.076166
0.079442
0.104322
0.093769
0.063413
0.004927
-0.047004
-0.108517
-0.146090
-0.216807
-0.241453
-0.223953
-0.202159
-0.261669
-0.162333
-0.127325
-0.084536
-0.034258
0.025804
0.029531
0.092750
0.112208
0.108891
0.081490
0.021803
-0.048284
-0.079978
-0.125909
-0.190299
-0.220424
-0.250915
-0.264651
-0.256367
-0.207494
-0.163698
-0.136084
-0.100882
-0.053757
-0.007475
0.008236
0.072430
0.088391
0.085698
0.053852
0.011058
-0.041900
-0.102181
-0.143777
-0.194241
-0.196541
-0.214832
-0.224755
-0.220890
-0.229182
-0.188297
-0.120822
-0.071264
-0.032319
0.041810
0.039308
0.077344
0.078076
0.072573
0.053323
-0.002085
-0.046785
-0.065337
-0.107330
-0.148836
-0.189337
-0.244433
-0.230917
-0.232049
-0.227286
-0.176242
-0.128162
-0.059936
-0.015304
0.008108
0.014225
0.057916
0.096837
0.076779
0.070248
0.004892
-0.036729
-0.069440
-0.068849
-0.099952
-0.172625
-0.268643
-0.249175
-0.225079
-0.201707
-0.179473
-0.159288
-0.100051
-0.020675
0.047594
0.091833
0.096875
0.060736
0.057102
0.074923
0.031107
-0.006669
-0.040295
-0.113985
-0.158788
-0.135457
-0.132756
-0.196115
-0.249211
-0.202709
-0.150670
-0.115912
-0.075437
-0.038983
0.019097
0.047565
0.073692
0.077133
0.036159
0.058996
0.025324
-0.020121
-0.058590
-0.106460
-0.161049
-0.200857
-0.228533
-0.228328
-0.226564
-0.212402
-0.194576
-0.111665
-0.067375
-0.039292
-0.008436
0.045438
0.057939
0.052495
0.044737
0.066293
0.045809
-0.035446
-0.053526
-0.090576
-0.142990
-0.155413
-0.219932
-0.277871
-0.231416
-0.184888
-0.178087
-0.132004
-0.111269
-0.069668
-0.044580
-0.041201
-0.003319
0.023320
0.071909
0.081667
0.051800
0.017795
-0.031618
-0.117472
-0.161722
-0.194133
-0.206741
-0.201548
-0.218213
-0.240770
-0.191589
-0.076281
0.018250
-0.014360
0.012817
0.033611
0.041443
0.035576
0.047176
0.045851
0.006646
-0.037551
-0.108776
-0.161591
-0.197820
-0.233356
-0.248648
-0.214711
-0.250195
-0.231384
-0.186767
-0.193503
-0.123257
-0.020279
-0.000491
-0.007695
-0.004182
0.040807
0.089079
0.078853
-0.004817
-0.053611
-0.084231
-0.137378
-0.195387
-0.272963
-0.254603
-0.249689
-0.278588
-0.283354
-0.211903
-0.142312
-0.073099
-0.050143
0.022922
0.052491
0.040965
0.068742
0.114100
0.099661
0.041823
-0.023430
-0.089805
-0.132286
-0.175407
-0.219587
-0.254312
-0.270119
-0.250431
-0.172027
-0.169974
-0.167843
-0.096190
-0.050280
-0.023254
0.013204
0.034665
0.064539
0.060391
0.022583
0.001771
-0.058742
-0.108824
-0.109689
-0.140913
-0.225742
-0.248218
-0.246186
-0.222785
-0.205872
-0.176900
-0.134710
-0.035220
-0.008835
0.065186
0.073925
0.033069
0.071741
0.079918
0.059958
0.031518
-0.048722
-0.077155
-0.116068
-0.152885
-0.209779
-0.192270
-0.197733
-0.214177
-0.198606
-0.172827
-0.130811
-0.094052
-0.010938
0.087298
0.114716
0.119468
0.122765
0.120757
0.069101
0.053678
0.019016
-0.044265
-0.140025
-0.172056
-0.198065
-0.195678
-0.218997
-0.202396
-0.226089
-0.171905
-0.101921
-0.078220
-0.038212
0.013582
0.035479
0.042313
0.047401
0.054694
0.038741
0.006069
-0.040284
-0.087718
-0.177300
-0.204413
-0.235562
-0.260226
-0.274293
-0.260490
-0.220238
-0.198195
-0.167905
-0.099688
-0.051856
-0.028488
-0.011552
0.021017
0.064576
0.049784
0.015673
-0.041464
-0.089072
-0.146308
-0.200138
-0.278068
-0.275850
-0.263052
-0.202540
-0.201414
-0.247797
-0.205914
-0.169790
-0.095073
-0.044268
-0.020278
0.003546
-0.006081
-0.009946
0.020573
0.008055
-0.018724
-0.061901
-0.133863
-0.145841
-0.172920
-0.232240
-0.251683
-0.264252
-0.282988
-0.238628
-0.218023
-0.163934
-0.089665
-0.052322
-0.052960
-0.029436
0.004594
0.030583
0.041626
0.011556
-0.047403
-0.081154
-0.129327
-0.145688
-0.214982
-0.262157
-0.279323
-0.281779
-0.270316
-0.242346
-0.213034
-0.173042
-0.131457
-0.096904
-0.057522
-0.029625
0.017842
0.011630
0.009983
-0.009816
-0.035833
-0.070059
-0.120387
-0.182600
-0.225782
-0.257080
-0.265509
-0.285856
-0.306778
-0.275817
-0.221235
-0.173649
-0.096965
-0.045041
-0.041766
-0.001852
0.044126
0.052868
0.064004
0.086178
0.088764
0.054326
-0.017466
-0.058114
-0.087610
-0.123129
-0.104525
-0.084754
-0.054624
0.016219
0.063579
0.123359
0.199694
0.275889
0.299903
0.492326
0.619592
0.658516
0.637795
0.626732
0.631940
0.643826
0.607101
0.627804
0.609243
0.590578
0.559958
0.523343
0.503066
0.538585
0.559968
0.582133
0.642138
0.720646
0.761589
0.686935
0.526976
0.473160
0.426487
0.341204
0.289515
0.161851
0.007124
0.019389
0.038564
-0.067184
-0.077818
-0.074092
-0.061214
-0.088490
-0.069011
-0.004667
0.013659
0.034910
0.059968
0.129486
0.134156
0.112525
0.093085
0.071210
0.038895
-0.017038
-0.060239
-0.113239
-0.135016
-0.171507
-0.200443
-0.221918
-0.243228
-0.220202
-0.184458
-0.132577
-0.088151
-0.033207
0.000113
0.025408
0.057994
0.068039
0.042623
0.010710
-0.046223
-0.081698
-0.100349
-0.129150
-0.146760
-0.182654
-0.213584
-0.258711
-0.271537
-0.259352
-0.179569
-0.087795
-0.075051
-0.076422
-0.049856
0.037818
0.057448
0.053055
0.050415
0.036294
0.018418
-0.025214
-0.065923
-0.076803
-0.116406
-0.194647
-0.221694
-0.271576
-0.281657
-0.170583
-0.156460
-0.117535
-0.109861
-0.071482
-0.020141
0.028615
0.050422
0.054954
0.039291
0.008491
-0.011809
-0.027725
-0.079615
-0.110153
-0.152294
-0.199892
-0.236516
-0.244837
-0.229688
-0.178071
-0.172995
-0.143112
-0.109786
-0.073860
-0.000122
0.088892
0.091194
0.113060
0.123348
0.072939
0.066935
-0.017909
-0.061635
-0.106840
-0.138260
-0.155008
-0.186450
-0.192403
-0.196541
-0.174089
-0.138698
-0.085162
-0.054540
0.020021
0.084714
0.087087
0.098891
0.149687
0.153289
0.110852
0.078243
0.000154
-0.033554
-0.062059
-0.118631
-0.164662
-0.177209
-0.180419
-0.162707
-0.142125
-0.072568
-0.017163
0.026574
0.055521
0.081551
0.118161
0.121819
0.153935
0.167463
0.115464
0.093398
0.006370
-0.029411
-0.079584
-0.137628
-0.171631
-0.116913
-0.093065
-0.137917
-0.146723
-0.109642
-0.040441
0.044512
0.086693
0.075284
0.094076
0.127340
0.111279
0.089962
0.071655
0.074190
0.059069
0.036742
-0.007450
-0.089787
-0.125870
-0.155376
-0.167243
-0.152803
-0.123379
-0.089410
-0.039559
0.011327
0.055584
0.086444
0.118363
0.130707
0.120259
0.125917
0.120263
0.058155
0.016618
-0.011877
-0.077310
-0.151059
-0.192221
-0.214056
-0.180360
-0.171098
-0.199478
-0.167856
-0.083304
-0.000128
0.093161
0.117061
0.088396
0.069968
0.086598
0.097419
0.078269
0.023525
-0.026459
-0.066853
-0.095108
-0.148969
-0.196639
-0.213568
-0.215945
-0.187550
-0.183005
-0.153574
-0.121776
-0.086300
-0.036570
0.034172
0.037500
0.055553
0.085736
0.084724
0.037869
-0.025669
-0.069062
-0.066585
-0.109206
-0.172834
-0.233663
-0.260595
-0.291289
-0.254484
-0.229822
-0.196817
-0.110021
-0.063936
-0.038051
-0.001843
0.065648
0.050694
0.054600
0.057945
0.039315
0.006980
-0.057751
-0.116106
-0.174014
-0.189305
-0.180096
-0.237609
-0.253753
-0.294451
-0.245146
-0.176465
-0.156496
-0.109800
-0.035265
0.015555
0.027508
0.056421
0.064528
0.052112
0.008080
-0.036846
-0.058350
-0.072706
-0.057963
-0.152538
-0.258479
-0.273326
-0.297634
-0.274347
-0.250929
-0.194643
-0.128325
-0.102372
-0.057186
0.013298
0.045452
0.054217
0.060858
0.050201
0.033431
-0.005790
-0.031050
-0.069084
-0.118601
-0.172670
-0.231020
-0.255465
-0.269003
-0.261497
-0.214784
-0.164282
-0.175552
-0.111504
-0.032721
0.011909
0.051034
0.071038
0.084543
0.062733
0.019813
-0.002314
-0.028768
-0.046175
-0.101982
-0.174115
-0.214786
-0.210046
-0.210607
-0.248801
-0.266549
-0.210867
-0.113340
-0.054882
-0.026282
0.013598
0.032106
0.082510
0.101502
0.094771
0.053083
0.001002
-0.066175
-0.110751
-0.156295
-0.184091
-0.217969
-0.220485
-0.210360
-0.226536
-0.171058
-0.143507
-0.106802
-0.071653
-0.022842
0.005259
0.051150
0.060528
0.061020
0.056893
0.050042
0.008320
-0.040902
-0.061386
-0.128972
-0.132644
-0.177253
-0.207694
-0.222863
-0.225403
-0.188407
-0.167940
-0.154526
-0.100107
-0.052678
-0.011018
0.026969
0.092225
0.065427
0.052122
0.014032
-0.008811
-0.047901
-0.112188
-0.114658
-0.156663
-0.182968
-0.198915
-0.225291
-0.226162
-0.193056
-0.187841
-0.157079
-0.104505
-0.062701
-0.016541
0.001186
0.023505
0.046935
0.051089
0.037081
0.012459
-0.031619
-0.082526
-0.122401
-0.157053
-0.198744
-0.225899
-0.240160
-0.240690
-0.232865
-0.173750
-0.137442
-0.071786
-0.008851
0.018347
0.034225
0.037708
0.060171
0.029413
0.001919
-0.021499
-0.053595
-0.072250
-0.115161
-0.132598
-0.153617
-0.197177
-0.254740
-0.251650
-0.210659
-0.161409
-0.099793
-0.078951
-0.044282
-0.003101
0.028537
0.039151
0.059001
0.057726
0.038019
-0.002975
-0.048471
-0.095694
-0.138742
-0.173204
-0.203384
-0.209517
-0.235593
-0.247415
-0.233782
-0.236722
-0.143423
-0.085312
-0.037333
0.055567
0.076390
0.049737
0.055790
0.031976
0.053350
-0.005560
-0.054137
-0.089715
-0.128766
-0.163747
-0.209613
-0.250287
-0.267002
-0.234566
-0.219454
-0.198150
-0.149900
-0.087236
-0.066570
-0.034365
-0.007870
0.028745
0.079198
0.060593
0.043550
-0.011099
-0.045983
-0.082605
-0.129990
-0.197205
-0.277702
-0.281835
-0.271361
-0.247330
-0.230888
-0.229613
-0.161773
-0.103139
-0.067089
-0.034619
-0.009212
0.053003
0.124147
0.062566
0.043172
0.018750
-0.001225
-0.035876
-0.123377
-0.234998
-0.253711
-0.245804
-0.253375
-0.302581
-0.266579
-0.179765
-0.144172
-0.107612
-0.067480
-0.015163
0.014204
0.050930
0.032531
0.030238
0.005698
-0.030729
-0.085791
-0.111414
-0.130825
-0.175527
-0.222413
-0.258120
-0.285948
-0.279709
-0.242994
-0.168964
-0.146981
-0.109650
-0.041899
-0.018210
-0.021039
0.047651
0.062342
0.010044
0.017159
0.011288
-0.062531
-0.106849
-0.147971
-0.181605
-0.238274
-0.252371
-0.244039
-0.240873
-0.228936
-0.195733
-0.146293
-0.096292
-0.047606
-0.009656
0.029957
0.042388
0.042615
0.077600
0.048457
0.005886
-0.054287
-0.092733
-0.143042
-0.210026
-0.222409
-0.223856
-0.219247
-0.264967
-0.218492
-0.154180
-0.086441
-0.048725
-0.014687
0.015189
0.075222
0.104270
0.070251
0.064805
0.035345
0.014876
0.010957
-0.047166
-0.095369
-0.140611
-0.169177
-0.199032
-0.183185
-0.198802
-0.185367
-0.166498
-0.100016
-0.039802
-0.018855
0.028203
0.079841
0.077315
0.082532
0.054619
0.055825
0.008957
-0.043765
-0.099280
-0.125900
-0.176340
-0.206391
-0.189979
-0.185184
-0.224795
-0.193731
-0.121038
-0.103044
-0.106193
-0.061304
-0.020507
0.027746
0.051700
0.030521
0.027027
0.045179
-0.003366
-0.036075
-0.092056
-0.148379
-0.226820
-0.253083
-0.284131
-0.295275
-0.271912
-0.245906
-0.194968
-0.160772
-0.104343
-0.072770
-0.029364
0.001349
0.021725
0.034469
0.015943
0.000954
-0.046893
-0.092284
-0.137336
-0.205549
-0.231217
-0.231483
-0.235120
-0.194601
-0.257148
-0.249656
-0.226937
-0.184539
-0.126842
-0.076100
-0.008467
0.007237
0.019454
0.034314
-0.035506
-0.026183
-0.013507
-0.038637
-0.110905
-0.174456
-0.219233
-0.224587
-0.243167
-0.256100
-0.266287
-0.294005
-0.229679
-0.166951
-0.134587
-0.090530
-0.041953
-0.013142
0.013897
0.016463
-0.005297
-0.018906
-0.040572
-0.021817
-0.094739
-0.170811
-0.227562
-0.257235
-0.276655
-0.292860
-0.297783
-0.280997
-0.250230
-0.171962
-0.132984
-0.106222
-0.049189
-0.008127
0.014754
-0.007344
-0.025009
-0.017167
-0.015253
-0.052480
-0.106125
-0.169224
-0.210372
-0.229244
-0.238095
-0.258143
-0.241105
-0.170960
-0.148833
-0.078257
-0.053469
0.002170
0.065455
0.096936
0.143516
0.184083
0.181580
0.139565
0.106906
0.127329
0.124590
0.136317
0.116392
0.190593
0.209361
0.235425
0.264998
0.283605
0.323038
0.395643
0.512053
0.618520
0.644438
0.735414
0.774979
0.798319
0.788606
0.753696
0.747323
0.703269
0.627087
0.546555
0.465247
0.411569
0.334354
0.256992
0.192283
0.138425
0.126840
0.127101
0.127799
0.149140
0.157169
0.166823
0.188510
0.191345
0.159447
0.161673
0.120538
0.054387
0.001057
-0.042969
-0.064332
-0.138350
-0.176005
-0.203766
-0.171646
-0.160584
-0.130476
-0.096155
-0.052526
0.003793
0.031789
0.053609
0.044974
0.060271
0.066557
0.074209
0.025544
-0.025325
-0.054459
-0.088268
-0.141659
-0.230862
-0.225829
-0.216066
-0.173406
-0.186957
-0.176732
-0.141712
-0.090061
-0.071957
-0.015176
0.026355
0.077769
0.107294
0.073684
0.027671
0.043701
0.002124
-0.077421
-0.131883
-0.179813
-0.227703
-0.268828
-0.232571
-0.216656
-0.262722
-0.218792
-0.198368
-0.133650
-0.055543
0.014963
0.077084
0.076111
0.108812
0.096168
0.116288
0.104122
0.003933
-0.066407
-0.112893
-0.170752
-0.184424
-0.212808
-0.206075
-0.189572
-0.174111
-0.162768
-0.120700
-0.061641
-0.020741
0.026179
0.057829
0.064510
0.098425
0.076380
0.070054
0.047549
-0.003092
-0.031464
-0.092792
-0.146788
-0.173583
-0.176747
-0.190384
-0.186094
-0.163465
-0.138171
-0.051244
-0.031984
0.010736
0.065724
0.096357
0.127218
0.120421
0.115226
0.088621
0.021304
0.023943
-0.013685
-0.062800
-0.110281
-0.139092
-0.153917
-0.174495
-0.171772
-0.152707
-0.103768
-0.063018
-0.010466
0.026568
0.071776
0.089551
0.158960
0.178402
0.123321
0.089198
0.094123
0.059516
0.017285
-0.033283
-0.078212
-0.112033
-0.110829
-0.116769
-0.097416
-0.111529
-0.102326
-0.018273
0.040428
0.073724
0.118441
0.158748
0.152426
0.154721
0.148812
0.132414
0.083810
0.035015
0.011152
0.011260
-0.024617
-0.075783
-0.118682
-0.120549
-0.158250
-0.159546
-0.125687
-0.061282
-0.071273
0.056527
0.198011
0.250671
0.241360
0.159887
0.114929
0.128471
0.114300
0.048413
0.008823
-0.038770
0.001534
-0.030770
-0.082721
-0.122225
-0.137411
-0.131802
-0.045286
-0.008908
-0.001732
0.043790
0.088540
0.130343
0.145115
0.143142
0.151925
0.134021
0.110120
0.067822
0.019328
-0.035895
-0.084477
-0.123798
-0.164266
-0.179833
-0.167767
-0.148925
-0.131311
-0.084598
-0.055249
0.008406
0.061918
0.119033
0.130062
0.114039
0.075489
0.091285
0.053941
0.024988
-0.029121
-0.094819
-0.141099
-0.153916
-0.172753
-0.186187
-0.185528
-0.145686
-0.144804
-0.120584
-0.092341
-0.055020
-0.024272
0.049252
0.098077
0.101919
0.059566
0.056215
0.021809
-0.014050
-0.045664
-0.097738
-0.139006
-0.190485
-0.221379
-0.243999
-0.225510
-0.184492
-0.148391
-0.101140
-0.076491
-0.024964
0.018854
0.072856
0.110174
0.097965
0.090857
0.061066
0.038851
-0.024183
-0.076031
-0.137951
-0.177318
-0.208069
-0.228875
-0.222245
-0.225645
-0.203473
-0.178678
-0.151117
-0.081711
-0.062422
0.011925
0.049167
0.056901
0.076847
0.098998
0.070650
0.080077
0.054848
0.019438
-0.022253
-0.123853
-0.189414
-0.251462
-0.182739
-0.164990
-0.155598
-0.163713
-0.141154
-0.097665
-0.034278
0.019037
0.063006
0.062930
0.056875
0.067140
0.077144
0.062743
0.031033
-0.045640
-0.147795
-0.158974
-0.187896
-0.213880
-0.220501
-0.203691
-0.143909
-0.117398
-0.111509
-0.077660
-0.028189
-0.006467
0.070784
0.084008
0.106233
0.073212
0.036819
0.019008
-0.028170
-0.053039
-0.137158
-0.155292
-0.164344
-0.179435
-0.193192
-0.181230
-0.199488
-0.156618
-0.109826
-0.057317
-0.022554
0.037261
0.071336
0.083650
0.061614
0.065529
0.058782
0.038744
0.012142
-0.028265
-0.084722
-0.132053
-0.165449
-0.182277
-0.198419
-0.206447
-0.187064
-0.165208
-0.101370
-0.079243
-0.009849
0.049445
0.093208
0.111689
0.111422
0.092966
0.067320
0.029998
-0.038975
-0.083436
-0.158326
-0.165069
-0.162278
-0.186270
-0.200153
-0.186278
-0.181576
-0.112419
-0.081352
-0.084223
-0.021276
-0.000936
0.039266
0.061876
0.107337
0.129680
0.088432
0.005493
-0.047357
-0.080580
-0.112694
-0.175767
-0.166518
-0.201668
-0.213872
-0.175397
-0.160531
-0.136287
-0.094992
-0.058873
-0.026196
0.038726
0.072234
0.080657
0.065626
0.043207
0.024245
-0.011538
-0.051225
-0.068401
-0.086151
-0.111503
-0.191274
-0.218676
-0.227516
-0.209163
-0.175805
-0.135221
-0.095050
-0.082280
-0.057688
0.004605
0.050575
0.075296
0.062304
0.056809
0.051208
0.032984
-0.002217
-0.061625
-0.128093
-0.167344
-0.202798
-0.233277
-0.235199
-0.212378
-0.199709
-0.154501
-0.130659
-0.088532
-0.046351
0.010194
0.046056
0.063358
0.088338
0.073224
0.044395
0.022453
-0.018976
-0.114245
-0.130225
-0.161524
-0.221300
-0.254856
-0.252004
-0.250803
-0.225471
-0.199138
-0.136994
-0.082863
-0.005493
0.025888
0.068052
0.083305
0.068900
0.071047
0.051349
0.028862
-0.007350
-0.089113
-0.169167
-0.194315
-0.211870
-0.232463
-0.245166
-0.219940
-0.178448
-0.225319
-0.172089
-0.082506
-0.018793
0.016630
0.059464
0.069076
0.054498
0.026100
0.056800
0.049533
-0.007399
-0.057327
-0.121152
-0.198669
-0.187459
-0.203440
-0.250857
-0.262420
-0.216339
-0.156884
-0.131637
-0.099080
-0.038154
0.011448
0.056499
0.068666
0.092548
0.091129
0.054731
-0.016585
-0.053947
-0.081329
-0.122717
-0.157736
-0.181346
-0.204601
-0.213629
-0.201532
-0.183342
-0.160519
-0.122854
-0.085054
-0.049753
0.011479
0.043747
0.040251
0.075176
0.069662
0.034945
0.012851
-0.033103
-0.100080
-0.137619
-0.177534
-0.207467
-0.238985
-0.230965
-0.215702
-0.189048
-0.162834
-0.120431
-0.086494
-0.042525
0.018352
0.072318
0.068655
0.050972
0.050575
0.042480
0.015625
-0.032351
-0.084323
-0.123764
-0.167026
-0.203158
-0.210585
-0.244926
-0.243240
-0.247999
-0.190367
-0.106196
-0.097296
-0.058329
0.006575
0.056572
0.072318
0.072352
0.070444
0.058656
0.003573
-0.044628
-0.073883
-0.126894
-0.172436
-0.217444
-0.248592
-0.244973
-0.252003
-0.223604
-0.181147
-0.181089
-0.123928
-0.063106
-0.000116
0.020303
0.035027
0.054681
0.037225
0.083754
0.087152
0.039156
-0.064137
-0.103519
-0.146503
-0.191873
-0.253877
-0.283630
-0.291528
-0.244115
-0.174869
-0.100853
-0.031322
0.019176
0.047731
0.083008
0.060581
0.073096
0.079332
0.048135
0.027156
0.056277
0.033725
-0.045082
-0.106741
-0.161535
-0.178766
-0.173474
-0.192332
-0.156118
-0.093808
-0.069429
-0.036446
-0.012546
0.030626
0.079392
0.140049
0.162326
0.122719
0.093608
0.096537
0.076557
0.003493
-0.069894
-0.114423
-0.114007
-0.131306
-0.149086
-0.166131
-0.129584
-0.115539
-0.085698
-0.026262
0.021091
0.058996
0.074099
0.055441
0.094769
0.116951
0.069507
0.024003
-0.002996
-0.045981
-0.135421
-0.169618
-0.169604
-0.188030
-0.217658
-0.191807
-0.196703
-0.166161
-0.144567
-0.075684
-0.011331
0.046949
0.050569
0.098640
0.096577
0.073465
0.044971
0.012140
-0.039091
-0.081852
-0.135951
-0.196844
-0.192066
-0.239782
-0.221628
-0.236567
-0.218981
-0.182568
-0.130129
-0.093464
-0.064118
-0.029846
0.017382
0.095362
0.087238
0.052348
0.057528
0.037980
-0.004212
-0.082218
-0.110571
-0.183652
-0.203830
-0.231159
-0.234365
-0.275963
-0.240798
-0.201094
-0.119861
-0.038527
-0.011403
0.034948
0.055081
0.099031
0.082938
0.049698
0.048222
0.006146
-0.051311
-0.107792
-0.137888
-0.185433
-0.223264
-0.218396
-0.242489
-0.231308
-0.221287
-0.167365
-0.110446
-0.097750
-0.062402
0.002543
0.044274
0.073831
0.079345
0.054021
0.061250
0.046558
-0.034609
-0.088447
-0.154230
-0.191050
-0.234446
-0.278336
-0.286638
-0.279536
-0.248436
-0.222013
-0.193423
-0.168740
-0.066206
0.014177
0.035725
0.001709
0.032998
0.070016
0.050487
0.052538
0.054006
-0.027493
-0.096567
-0.149964
-0.092024
-0.058728
-0.062194
-0.071341
-0.077585
-0.030547
0.051661
0.121835
0.197380
0.244351
0.310076
0.361769
0.395236
0.400496
0.410767
0.421258
0.423503
0.399269
0.366760
0.364071
0.373385
0.387446
0.412734
0.483959
0.544263
0.600585
0.643605
0.679781
0.711711
0.746382
0.780027
0.768854
0.754972
0.694320
0.640766
0.594020
0.452304
0.330478
0.211389
0.190756
0.106814
0.007075
-0.084990
-0.083609
-0.052391
-0.025861
0.000741
0.046195
0.066913
0.139293
0.146280
0.149651
0.159668
0.136879
0.124393
0.106412
0.075722
0.023850
-0.037551
-0.108409
-0.161133
-0.184347
-0.166855
-0.141498
-0.105757
-0.116417
-0.104923
-0.058924
0.003185
0.015985
0.078007
0.096704
0.063553
0.069226
0.063937
0.039795
0.001014
-0.045119
-0.100308
-0.131389
-0.171359
-0.209404
-0.205236
-0.185512
-0.159292
-0.123300
-0.105273
-0.075913
-0.032316
-0.015085
0.020230
0.066058
0.101959
0.107928
0.088784
0.028853
-0.022546
-0.071729
-0.116277
-0.151027
-0.189743
-0.172952
-0.175992
-0.183761
-0.187833
-0.158738
-0.115297
-0.073828
-0.003711
0.004039
0.017761
0.088725
0.112807
0.109652
0.077143
0.021218
-0.014214
-0.051034
-0.096947
-0.150659
-0.206005
-0.223061
-0.217344
-0.200181
-0.175981
-0.148254
-0.084214
-0.070477
-0.036699
0.044726
0.110632
0.122788
0.093867
0.080065
0.075773
0.064196
0.010703
-0.054926
-0.091974
-0.096083
-0.130295
-0.216627
-0.183990
-0.171597
-0.104561
-0.010345
-0.034015
-0.032800
0.013062
0.092412
0.154034
0.159212
0.143256
0.120460
0.093572
0.074114
0.076214
0.025042
-0.013626
-0.056670
-0.085526
-0.130534
-0.131123
-0.133908
-0.109639
-0.086299
-0.035318
0.008714
0.050391
0.103433
0.149414
0.166395
0.173010
0.196990
0.166699
0.128598
0.098471
0.014701
-0.012252
-0.037949
-0.051157
-0.081583
-0.109008
-0.098171
-0.062626
-0.037317
-0.000486
0.030438
0.091837
0.144513
0.183378
0.197322
0.218614
0.214222
0.179452
0.166513
0.091971
0.027723
-0.016563
-0.035593
-0.059150
-0.078846
-0.104202
-0.103361
-0.067100
-0.049436
-0.006220
0.065145
0.105468
0.119125
0.148562
0.177726
0.174521
0.182578
0.170526
0.130586
0.104993
0.018430
-0.036746
-0.048175
-0.119541
-0.139769
-0.147127
-0.118328
-0.103678
-0.047108
0.009224
0.058497
0.069136
0.089947
0.119675
0.144261
0.155671
0.175366
0.136045
0.094259
0.048032
-0.007083
-0.048030
-0.066056
-0.108990
-0.150356
-0.201843
-0.147424
-0.117596
-0.102463
-0.078521
-0.027651
0.020035
0.063464
0.073950
0.082029
0.084064
0.092170
0.077920
0.030598
0.010047
-0.057057
-0.122504
-0.129039
-0.168825
-0.173980
-0.200314
-0.207785
-0.219037
-0.184362
-0.126874
-0.057959
-0.011926
0.034211
0.064980
0.077163
0.073705
0.088223
0.069481
0.035512
-0.009220
-0.079877
-0.118912
-0.147438
-0.177941
-0.193987
-0.209388
-0.207414
-0.193153
-0.163482
-0.113700
-0.087604
-0.041010
-0.005537
0.022257
0.041853
0.053645
0.065094
0.051459
0.020973
-0.009395
-0.076456
-0.133328
-0.160834
-0.191415
-0.224522
-0.234407
-0.222074
-0.228006
-0.179647
-0.120301
-0.062897
-0.048291
0.019809
0.058026
0.062676
0.054094
0.051884
0.022437
0.010484
-0.055757
-0.130981
-0.096290
-0.132332
-0.204482
-0.279774
-0.311680
-0.329368
-0.252495
-0.177871
-0.102906
-0.031883
-0.001649
0.041359
0.076016
0.113134
0.145015
0.130802
0.115562
0.058681
0.001820
-0.068105
-0.155267
-0.178154
-0.169796
-0.188748
-0.198115
-0.197519
-0.168636
-0.141885
-0.086135
-0.046776
-0.009923
0.027234
0.053130
0.097431
0.108521
0.109014
0.069237
0.027497
-0.023367
-0.086718
-0.129332
-0.156265
-0.173005
-0.146422
-0.189763
-0.153184
-0.155195
-0.161962
-0.162027
-0.087442
-0.027156
0.024627
0.082227
0.070934
0.120869
0.096732
0.050523
0.040358
-0.006482
-0.041003
-0.080196
-0.132388
-0.167442
-0.198571
-0.225328
-0.231302
-0.176438
-0.133114
-0.064854
-0.061754
-0.020107
0.023134
0.071191
0.100719
0.116285
0.110766
0.089134
0.057209
0.003874
-0.054627
-0.094866
-0.123355
-0.193145
-0.211212
-0.197255
-0.177798
-0.179787
-0.159000
-0.152675
-0.099910
-0.074829
-0.037879
0.109523
0.155737
0.190400
0.182498
0.088036
0.039195
-0.018727
-0.044145
-0.085035
-0.140956
-0.209295
-0.230443
-0.197232
-0.200658
-0.186770
-0.171569
-0.159871
-0.060422
0.003756
0.046286
0.049135
0.087876
0.093477
0.076842
0.041256
0.010499
-0.030742
-0.085001
-0.118520
-0.136184
-0.178046
-0.196959
-0.202314
-0.221983
-0.234736
-0.206626
-0.125011
-0.040266
0.008421
0.051204
0.037993
0.041913
0.064124
0.081579
0.054757
0.026945
-0.016434
-0.069076
-0.109781
-0.113713
-0.161827
-0.202800
-0.213770
-0.220052
-0.191220
-0.180355
-0.116032
-0.061196
-0.017675
0.022157
0.040554
0.082793
0.086159
0.084032
0.056657
0.005671
-0.005615
-0.041770
-0.093921
-0.144666
-0.182254
-0.209275
-0.220975
-0.208037
-0.224180
-0.188828
-0.144436
-0.124412
-0.010079
0.072341
0.093744
0.063888
0.113018
0.094282
0.062934
0.030018
-0.019916
-0.058966
-0.111628
-0.165687
-0.201364
-0.212331
-0.215659
-0.211013
-0.191794
-0.189306
-0.137064
-0.066975
-0.015088
0.006518
0.026852
0.025577
0.070155
0.074944
0.031270
0.019238
-0.013501
-0.063639
-0.088437
-0.143569
-0.215131
-0.239759
-0.222233
-0.213892
-0.162094
-0.151439
-0.116776
-0.052594
-0.023789
-0.026644
0.018059
0.034399
0.053213
0.057527
0.045013
0.030947
-0.030449
-0.086277
-0.126745
-0.173139
-0.227575
-0.228183
-0.234884
-0.167747
-0.188034
-0.153678
-0.132031
-0.082514
-0.014875
0.046290
0.032288
0.072928
0.100502
0.062910
0.017051
-0.006827
-0.028600
-0.075684
-0.096046
-0.133514
-0.200123
-0.237007
-0.206864
-0.189385
-0.187016
-0.160106
-0.098985
-0.050930
-0.041768
0.028616
0.050734
0.078838
0.114203
0.093453
0.076751
0.020054
-0.016425
-0.107680
-0.137881
-0.150819
-0.158680
-0.163167
-0.157834
-0.142430
-0.126723
-0.093606
-0.069853
-0.014892
0.023083
0.082641
0.109317
0.109575
0.103560
0.113574
0.107724
0.073747
0.008157
-0.020068
-0.069862
-0.113330
-0.151644
-0.175734
-0.184975
-0.175697
-0.171645
-0.169970
-0.128504
-0.025576
0.017908
0.050006
0.095487
0.122860
0.118487
0.109743
0.092120
0.072156
0.040254
-0.045382
-0.085502
-0.131820
-0.090166
-0.110260
-0.139171
-0.156349
-0.142150
-0.108797
-0.054309
-0.006175
0.068345
0.093250
0.084171
0.124376
0.116789
0.098982
0.083095
0.045761
-0.016585
-0.026729
-0.057793
-0.114758
-0.181761
-0.221941
-0.198918
-0.185450
-0.155061
-0.118322
-0.077465
-0.042301
-0.022589
0.042426
0.082451
0.095084
0.100605
0.077835
0.069240
0.025056
-0.047165
-0.099622
-0.131070
-0.124610
-0.161478
-0.180041
-0.242282
-0.222000
-0.211539
-0.203877
-0.159157
-0.085776
-0.047508
0.030513
0.028373
0.048665
0.066638
0.022960
0.032565
0.007140
-0.052436
-0.105285
-0.140135
-0.183508
-0.171353
-0.210225
-0.232209
-0.218890
-0.206958
-0.217866
-0.140011
-0.068853
-0.013633
0.037649
0.067162
0.065598
0.044235
0.033848
0.033524
-0.005241
-0.053638
-0.060690
-0.107044
-0.146499
-0.196654
-0.222053
-0.237878
-0.228491
-0.235708
-0.193578
-0.121420
-0.087002
-0.062290
-0.005518
0.023544
0.057144
0.035238
0.032462
0.029921
0.015314
-0.023968
-0.067861
-0.121662
-0.158001
-0.190031
-0.226435
-0.249176
-0.261066
-0.242283
-0.169809
-0.140217
-0.082530
-0.059085
-0.014878
0.008245
0.039992
0.034275
0.043555
0.026737
0.009713
-0.005866
-0.052069
-0.108608
-0.135779
-0.169924
-0.182681
-0.197971
-0.111099
-0.073276
-0.062856
-0.003373
0.023510
0.108406
0.186647
0.247091
0.279732
0.320401
0.356873
0.404550
0.387770
0.355232
0.372749
0.393797
0.407881
0.390639
0.376321
0.393635
0.470972
0.503024
0.585817
0.651861
0.728996
0.797632
0.853490
0.881650
0.894357
0.890863
0.842415
0.750615
0.737874
0.652029
0.567544
0.449802
0.360514
0.259455
0.154502
0.134844
0.101910
0.067510
0.038245
0.086410
0.133465
0.187287
0.194503
0.223379
0.263359
0.250631
0.190006
0.131596
0.098293
0.104721
0.045101
-0.024666
-0.069123
-0.125580
-0.175117
-0.168101
-0.130083
-0.133353
-0.073557
-0.059141
-0.033587
0.021264
0.041112
0.097381
0.118667
0.118355
0.154818
0.122576
0.094395
0.037665
-0.029376
-0.066781
-0.132811
-0.214829
-0.268030
-0.236156
-0.175094
-0.138687
-0.103120
-0.098322
-0.049459
-0.009056
0.060645
0.101761
0.095398
0.098864
0.105912
0.103319
0.071992
0.018701
-0.020226
-0.057672
-0.110181
-0.181730
-0.184031
-0.178106
-0.178498
-0.186112
-0.172480
-0.121496
-0.033306
0.017838
0.080688
0.075777
0.098631
0.114847
0.120466
0.096945
0.003418
0.002175
0.000367
-0.057597
-0.100916
-0.135084
-0.160439
-0.182212
-0.163055
-0.160504
-0.106654
-0.058403
-0.047662
0.028692
0.081647
0.096963
0.146211
0.142954
0.124195
0.112194
0.096413
0.035543
-0.021674
-0.050091
-0.067953
-0.115460
-0.161148
-0.203123
-0.193164
-0.133956
-0.049179
0.052174
0.042935
0.065777
0.074865
0.145959
0.183412
0.176697
0.176614
0.154208
0.134821
0.091187
0.031009
-0.049238
-0.087325
-0.066141
-0.080390
-0.141513
-0.097977
-0.064517
-0.022071
0.001786
0.055243
0.124497
0.170150
0.209240
0.212113
0.225878
0.206621
0.181597
0.149365
0.121451
0.080733
0.009989
-0.055068
-0.082557
-0.059192
-0.043987
-0.033133
-0.002348
0.021739
0.015758
0.053818
0.103908
0.146325
0.198129
0.231675
0.238192
0.199577
0.166354
0.163021
0.143167
0.131695
0.042209
0.007685
-0.054940
-0.099364
-0.075313
-0.052977
-0.011222
0.008551
0.052203
0.103586
0.143370
0.157438
0.181131
0.189781
0.223668
0.246148
0.213280
0.175286
0.102969
0.074833
0.025288
-0.041418
-0.028879
-0.061545
-0.096156
-0.080817
-0.088410
-0.029746
-0.010522
0.031103
0.094990
0.125693
0.160132
0.212831
0.215715
0.207458
0.191047
0.154010
0.113148
0.081084
0.051790
-0.041956
-0.092375
-0.136489
-0.167991
-0.105539
-0.086723
-0.061141
-0.034118
0.047947
0.074351
0.092534
0.116798
0.156821
0.153760
0.151155
0.127669
0.099375
0.025022
-0.049718
-0.072959
-0.108827
-0.094476
-0.165171
-0.209551
-0.182215
-0.157252
-0.135223
-0.066935
-0.000670
0.023681
0.045099
0.063574
0.118189
0.154969
0.127263
0.127682
0.108014
0.069254
-0.065114
-0.160730
-0.120672
-0.100136
-0.166195
-0.201029
-0.170765
-0.131708
-0.113073
-0.115618
-0.067706
-0.012636
0.071457
0.092756
0.085174
0.091504
0.090424
0.104683
0.079285
0.028306
-0.020194
-0.094362
-0.132781
-0.152383
-0.202461
-0.186018
-0.194451
-0.160640
-0.129578
-0.092107
-0.052228
0.004669
0.062428
0.102654
0.110070
0.107571
0.106221
0.081261
0.063463
0.013708
-0.058283
-0.141668
-0.170076
-0.189624
-0.175964
-0.204357
-0.220422
-0.186480
-0.128015
-0.069682
-0.045165
0.016762
0.072458
0.102663
0.115578
0.093645
0.098020
0.069907
-0.005289
0.005695
-0.026215
-0.059442
-0.150840
-0.208646
-0.143926
-0.114630
-0.104390
-0.167483
-0.145032
-0.130698
-0.047979
0.006149
0.036925
0.076299
0.146755
0.111496
0.072110
0.048232
0.067656
0.055694
0.004177
-0.064469
-0.131591
-0.128954
-0.157806
-0.179960
-0.173419
-0.166660
-0.108485
-0.055434
-0.016130
0.003887
0.068929
0.084587
0.126584
0.141045
0.120377
0.090580
0.069712
0.042277
0.005771
-0.050940
-0.107017
-0.137651
-0.151765
-0.173313
-0.193364
-0.162572
-0.119504
-0.079023
-0.047009
0.000959
0.060691
0.117237
0.146277
0.142545
0.122134
0.077124
0.061244
0.027774
-0.002111
-0.059795
-0.118094
-0.164769
-0.196506
-0.187228
-0.209422
-0.173606
-0.076824
-0.064191
-0.026014
0.009342
0.105553
0.068969
0.069205
0.112186
0.176366
0.107616
0.009388
0.005143
0.001953
-0.034072
-0.143794
-0.190277
-0.167895
-0.138026
-0.139543
-0.173516
-0.130448
-0.013413
0.035908
0.012438
0.031998
0.052711
0.107114
0.119010
0.104754
0.135992
0.149278
-0.009470
-0.123310
-0.079588
-0.076147
-0.121001
-0.154993
-0.189872
-0.209599
-0.180197
-0.114927
-0.071735
-0.067773
-0.030537
0.075623
0.080415
0.087771
0.156878
0.122465
0.040231
0.071277
0.052006
0.022345
-0.052608
-0.082029
-0.150055
-0.273355
-0.169563
-0.146096
-0.117816
-0.131823
-0.078312
-0.044367
0.001745
0.034869
0.075432
0.107276
0.108988
0.077966
0.105838
0.078875
0.053178
-0.007153
-0.078325
-0.113396
-0.171872
-0.261200
-0.240316
-0.155717
-0.096893
-0.088258
-0.044463
-0.009638
0.015853
0.044785
0.071857
0.061296
0.099210
0.126931
0.114192
0.071974
0.012162
-0.040311
-0.091105
-0.159584
-0.217725
-0.209343
-0.180855
-0.143774
-0.118690
-0.124616
-0.069006
-0.046754
-0.041363
0.034120
0.088358
0.094640
0.103598
0.095426
0.087865
0.092886
0.034632
-0.063545
-0.068723
-0.147440
-0.202087
-0.214989
-0.211212
-0.200512
-0.153957
-0.125032
-0.067032
-0.004278
0.060966
0.076281
0.037105
0.069578
0.120896
0.110391
0.061793
-0.022939
-0.004243
-0.048335
-0.082782
-0.127340
-0.148132
-0.186057
-0.181940
-0.172010
-0.167390
-0.172128
-0.106431
-0.003103
0.026113
0.021430
0.062931
0.123432
0.120436
0.105031
0.105053
0.044332
-0.000500
-0.056548
-0.094566
-0.075282
-0.136108
-0.198598
-0.219023
-0.192120
-0.175365
-0.141923
-0.097232
-0.048280
-0.014223
0.055926
0.094811
0.128914
0.124576
0.069879
0.064935
0.058117
0.048995
-0.008732
-0.054404
-0.089675
-0.142052
-0.164786
-0.156354
-0.116651
-0.135376
-0.088794
-0.026616
-0.002970
0.000928
0.031739
0.127963
0.176524
0.164116
0.140181
0.109795
0.093239
0.052411
0.009747
-0.042614
-0.064558
-0.112642
-0.135731
-0.171942
-0.157585
-0.079935
-0.005635
-0.071467
-0.066138
-0.010851
0.017392
0.124645
0.152898
0.135010
0.130052
0.046054
0.114391
0.132790
0.097565
0.067128
-0.031978
-0.060443
-0.119154
-0.177399
-0.154262
-0.107676
-0.060971
-0.003863
0.044012
0.041683
0.078613
0.096618
0.114214
0.135853
0.134354
0.100462
0.093486
0.041291
-0.015239
-0.055468
-0.117627
-0.154795
-0.156056
-0.167210
-0.158308
-0.140126
-0.104845
-0.106933
-0.035666
-0.019347
0.008249
0.080256
0.096656
0.122023
0.099273
0.077352
0.069145
0.022739
-0.043181
-0.092775
-0.108624
-0.156005
-0.168408
-0.210426
-0.171003
-0.189379
-0.151598
-0.144178
-0.051754
-0.018559
0.002257
0.026101
0.057837
0.081930
0.088371
0.072274
0.047663
-0.013499
-0.076074
-0.120474
-0.122141
-0.151293
-0.189246
-0.197584
-0.202416
-0.199741
-0.117772
-0.090796
-0.076353
-0.063712
-0.004938
0.074190
0.141832
0.105008
0.070327
0.069049
0.035862
-0.013934
-0.046537
-0.085580
-0.122237
-0.180979
-0.200855
-0.184725
-0.189541
-0.200240
-0.143714
-0.102983
-0.052137
-0.049649
0.027617
0.015275
0.013196
0.047208
0.050009
0.088317
0.061527
0.013263
-0.037414
-0.081232
-0.153539
-0.155807
-0.138363
-0.164951
-0.170599
-0.138126
-0.147592
-0.176526
-0.097490
-0.016463
0.005078
0.035582
0.069608
0.118747
0.121175
0.083547
0.086998
0.074737
-0.003570
-0.035032
-0.063243
-0.070925
-0.092455
-0.073733
-0.043553
-0.044411
-0.012292
0.089076
0.209837
0.220119
0.273013
0.381218
0.432911
0.452913
0.446610
0.487598
0.481366
0.483146
0.473827
0.472970
0.470702
0.454724
0.442417
0.466575
0.568187
0.604301
0.610666
0.650894
0.695319
0.742586
0.766944
0.768596
0.751806
0.765475
0.733919
0.645510
0.529149
0.408932
0.285023
0.214817
0.161203
0.092496
0.003160
-0.022957
-0.051079
-0.011417
0.020227
0.062482
0.091994
0.083402
0.108911
0.149530
0.193804
0.177690
0.158223
0.130201
0.115032
0.070749
0.013404
0.002151
-0.057362
-0.130127
-0.139234
-0.137622
-0.154491
-0.141619
-0.130088
-0.083107
0.011811
0.076017
0.102817
0.138182
0.145045
0.133199
0.107273
0.099976
0.058987
0.010221
-0.014582
-0.084274
-0.133241
-0.131009
-0.193002
-0.182290
-0.102002
-0.058607
-0.038569
-0.032902
-0.033319
-0.001598
0.046242
0.059446
0.142633
0.174860
0.139398
0.110200
0.085849
0.062071
-0.033705
-0.067379
-0.097457
-0.096249
-0.128016
-0.167936
-0.190151
-0.149270
-0.098690
-0.062832
-0.030957
-0.007729
0.025458
0.086198
0.083579
0.121781
0.137698
0.118150
0.093147
0.056372
-0.004335
-0.073247
-0.103451
-0.116068
-0.111710
-0.144064
-0.133594
-0.121384
-0.076767
-0.044298
-0.035471
-0.049326
0.040426
0.078739
0.124415
0.193565
0.216072
0.187874
0.106277
0.050399
0.045602
0.036906
-0.051776
-0.103096
-0.184285
-0.162472
-0.097835
-0.093791
-0.062682
-0.023105
0.024845
0.049129
0.097717
0.159058
0.176906
0.154490
0.170302
0.180414
0.156630
0.102950
0.066614
-0.003543
-0.028407
-0.027602
-0.067221
-0.104452
-0.144352
-0.074794
-0.043047
0.002517
0.051170
0.099914
0.159096
0.194974
0.210888
0.250723
0.246165
0.181448
0.161532
0.132647
0.091835
0.037687
-0.010163
-0.043854
-0.065219
-0.077359
-0.049812
-0.078690
-0.008614
0.029001
0.027135
0.102717
0.129117
0.213584
0.270689
0.262214
0.215474
0.226080
0.165418
0.138313
0.126343
0.073961
0.025991
-0.010975
-0.024132
-0.052241
-0.061036
-0.041398
0.003877
0.036093
0.075992
0.121063
0.149986
0.204774
0.218905
0.219687
0.197959
0.192022
0.157719
0.127739
0.066876
0.050137
0.009808
-0.022024
-0.050882
-0.070561
-0.056311
-0.044259
-0.022061
0.002208
0.020315
0.083242
0.122204
0.175620
0.226320
0.178169
0.160280
0.138732
0.096076
0.046617
0.043635
0.025228
-0.003468
-0.074280
-0.079542
-0.106573
-0.121671
-0.129706
-0.097066
-0.041674
-0.019093
0.045522
0.088678
0.157462
0.144562
0.137583
0.163642
0.144993
0.062868
0.052626
-0.010100
-0.066954
-0.064311
-0.117052
-0.098935
-0.148293
-0.225781
-0.208662
-0.161401
-0.012990
0.044318
0.022936
0.046853
0.092496
0.146969
0.174290
0.150772
0.122788
0.065093
0.000424
-0.056253
-0.111572
-0.120277
-0.160441
-0.210051
-0.195802
-0.209635
-0.150994
-0.119101
-0.094661
-0.053214
-0.009478
0.031417
0.058581
0.068677
0.068344
0.071074
0.044024
0.030206
-0.008711
-0.038259
-0.094133
-0.124147
-0.163752
-0.183525
-0.221601
-0.201093
-0.182498
-0.160702
-0.121938
-0.055344
-0.017786
0.040973
0.072870
0.057964
0.086384
0.098927
0.066701
0.026292
-0.028939
-0.048937
-0.077773
-0.133548
-0.159868
-0.178070
-0.205014
-0.187846
-0.189517
-0.150958
-0.106609
-0.078686
-0.056437
0.079082
0.108492
0.059789
0.063507
0.086406
0.098102
0.063398
0.011784
-0.057190
-0.091238
-0.137735
-0.164663
-0.222047
-0.226756
-0.215901
-0.119811
-0.105708
-0.049036
0.002019
0.034547
0.068581
0.131681
0.099490
0.124733
0.153562
0.093485
0.028797
-0.012392
-0.009435
-0.054200
-0.121825
-0.159438
-0.200963
-0.202589
-0.183720
-0.152312
-0.127125
-0.106340
-0.041450
0.011164
0.043219
0.083545
0.095501
0.129368
0.133118
0.099896
0.057509
0.017764
-0.033488
-0.086856
-0.131713
-0.161520
-0.197738
-0.171539
-0.172984
-0.175863
-0.128875
-0.118204
-0.043125
0.050688
0.108592
0.096325
0.131685
0.161562
0.133824
0.099968
0.067915
0.022326
-0.036612
-0.105657
-0.098112
-0.037759
-0.164621
-0.231020
-0.238000
-0.224821
-0.164648
-0.085183
0.033100
0.024096
-0.047232
0.054773
0.103691
0.099620
0.142185
0.123575
0.050652
0.037422
-0.001468
-0.096245
-0.167555
-0.155792
-0.142595
-0.176308
-0.161903
-0.143008
-0.109944
-0.079046
0.009505
0.052345
0.063271
0.074196
0.085517
0.111669
0.129441
0.112389
0.116123
0.065696
-0.020789
-0.098825
-0.109520
-0.161247
-0.179378
-0.178830
-0.171451
-0.171352
-0.121113
-0.089063
-0.057918
-0.026500
0.062550
0.100209
0.124097
0.097820
0.078723
0.044395
0.023451
-0.012906
-0.053956
-0.075397
-0.113186
-0.140051
-0.167995
-0.195595
-0.241199
-0.207772
-0.123132
-0.069717
-0.046887
-0.030706
-0.018804
0.052378
0.107943
0.105202
0.077666
0.070189
0.060391
-0.008329
-0.042820
-0.113550
-0.176673
-0.181359
-0.176703
-0.172777
-0.184181
-0.156723
-0.140522
-0.107247
-0.076116
-0.032060
0.015447
0.032189
0.060911
0.108088
0.088916
0.027630
0.040295
-0.008980
-0.046165
-0.114572
-0.117887
-0.188035
-0.188161
-0.201062
-0.181762
-0.150466
-0.172431
-0.118597
-0.027218
0.011056
0.036826
0.052487
0.066741
0.063860
0.086866
0.040628
0.023674
0.025296
-0.058983
-0.124336
-0.139599
-0.142874
-0.177933
-0.203809
-0.196154
-0.167680
-0.168418
-0.132962
-0.067415
0.021322
0.105144
0.093994
0.096999
0.120318
0.076908
0.058806
0.007312
-0.010621
-0.041535
-0.079348
-0.171025
-0.182877
-0.196456
-0.207132
-0.201519
-0.201901
-0.138142
-0.074942
-0.050507
0.013988
0.046192
0.071663
0.096321
0.120820
0.128236
0.102532
0.060937
0.003099
-0.052150
-0.087837
-0.096270
-0.179066
-0.188457
-0.176084
-0.193421
-0.192524
-0.134017
-0.076663
-0.033059
0.055703
0.118503
0.145570
0.109883
0.119048
0.091439
0.064467
0.033057
0.024173
-0.021729
-0.077083
-0.080522
-0.156677
-0.158915
-0.152941
-0.130435
-0.164834
-0.138046
-0.080252
-0.008702
0.047153
0.123910
0.152749
0.146183
0.132947
0.158403
0.154676
0.141084
0.131294
0.100168
0.039647
-0.037790
-0.154362
-0.178727
-0.170355
-0.139840
-0.128129
-0.090724
-0.047621
-0.022558
0.021497
0.042547
0.088971
0.125196
0.118536
0.125466
0.108089
0.055868
-0.005555
-0.047542
-0.063468
-0.149701
-0.164710
-0.170180
-0.180799
-0.128909
-0.145471
-0.163751
-0.132065
-0.002236
0.032761
0.066175
0.075456
0.115677
0.096042
0.070326
0.047715
0.035570
0.025654
-0.023626
-0.101341
-0.148872
-0.158528
-0.204265
-0.224939
-0.203068
-0.175695
-0.173909
-0.127928
-0.099270
-0.032907
-0.001379
0.054145
0.070585
0.068802
0.052256
0.052411
0.020305
-0.031817
-0.078129
-0.120018
-0.132964
-0.185930
-0.235844
-0.245553
-0.223025
-0.201812
-0.182397
-0.156463
-0.101337
-0.070704
0.003324
0.090427
0.091769
0.055424
0.065444
0.104979
0.047780
0.004762
-0.056578
-0.084553
-0.130532
-0.173540
-0.169756
-0.188421
-0.221550
-0.217571
-0.146968
-0.105883
-0.051032
-0.009523
0.006457
0.040062
0.019408
0.091016
0.065345
-0.015127
-0.024591
-0.049225
-0.068993
-0.085672
-0.109653
-0.144204
-0.207846
-0.199908
-0.215046
-0.201186
-0.168226
-0.142699
-0.081420
-0.025137
0.006957
0.099562
0.121307
0.126719
0.130815
0.120057
0.089763
0.074990
0.048156
-0.001194
0.001346
-0.016818
-0.040874
-0.024903
0.004051
0.065818
0.121504
0.186102
0.290975
0.382343
0.459003
0.517731
0.591092
0.578079
0.601018
0.633418
0.679764
0.651420
0.656083
0.643960
0.639533
0.637132
0.601573
0.532610
0.608795
0.650825
0.645389
0.680388
0.713399
0.753309
0.706764
0.617006
0.604382
0.554226
0.507900
0.453531
0.357808
0.233297
0.121028
0.025548
0.077884
0.039705
0.000259
-0.052537
-0.033899
-0.026124
-0.004890
0.020020
0.049779
0.077232
0.094942
0.139501
0.164571
0.222531
0.236959
0.153723
0.112282
0.069098
0.028477
-0.016633
-0.060224
-0.113290
-0.138430
-0.141448
-0.144518
-0.156425
-0.154711
-0.089380
-0.029272
0.053142
0.075622
0.106664
0.097646
0.129725
0.129189
0.098696
0.046002
0.023480
-0.000100
-0.070241
-0.098629
-0.157738
-0.175714
-0.164518
-0.183853
-0.174319
-0.125758
-0.041624
-0.053488
-0.067409
0.027520
0.065517
0.058788
0.118174
0.159167
0.124953
0.075310
0.032385
-0.004691
-0.060073
-0.121884
-0.163080
-0.176111
-0.165359
-0.180252
-0.158999
-0.112147
-0.063205
-0.028199
0.016584
0.041184
0.062562
0.067248
0.050882
0.108065
0.109178
0.107589
0.118202
0.127442
0.035416
-0.029052
-0.110957
-0.131056
-0.132938
-0.128472
-0.136596
-0.115557
-0.078986
0.010707
0.071191
0.103065
0.143464
0.151885
0.149632
0.140115
0.112748
0.116026
0.102873
0.043004
-0.005713
-0.056645
-0.120466
-0.143106
-0.147079
-0.145625
-0.094821
-0.023606
0.005787
0.037964
0.090262
0.131662
0.163412
0.169082
0.187281
0.182745
0.163579
0.147637
0.115992
0.069197
0.004323
-0.021552
-0.047802
-0.056955
-0.070384
-0.074648
-0.034436
-0.009188
0.027632
0.066619
0.131023
0.163786
0.199115
0.203763
0.229368
0.223627
0.169908
0.133103
0.146284
0.102898
0.062777
-0.013978
-0.028568
-0.037495
-0.044277
-0.064306
-0.026171
0.023861
0.079975
0.106641
0.161795
0.209299
0.202118
0.233509
0.234490
0.257847
0.225759
0.161665
0.148614
0.108669
0.069772
0.000148
-0.021022
-0.065488
-0.090308
-0.033901
-0.010402
0.027379
0.091135
0.083925
0.149147
0.197511
0.234579
0.226412
0.216455
0.217699
0.205213
0.165154
0.115046
0.069063
0.007916
-0.021167
-0.023872
-0.077781
-0.102381
-0.145544
-0.094327
0.007343
0.078904
0.135106
0.125534
0.150735
0.183430
0.234744
0.237988
0.235238
0.163713
0.087595
0.062390
0.048778
0.004060
-0.022015
-0.054214
-0.107843
-0.121067
-0.082533
-0.073691
-0.065718
-0.068622
-0.020611
0.067100
0.125326
0.160722
0.193035
0.170524
0.139978
0.125518
0.092605
0.045636
0.011516
-0.022590
-0.109638
-0.134054
-0.150110
-0.144255
-0.134525
-0.123269
-0.104181
-0.069581
-0.013501
0.019339
0.050439
0.081600
0.101877
0.124232
0.115779
0.104689
0.085675
0.038808
-0.020395
-0.080283
-0.110838
-0.117958
-0.145466
-0.201328
-0.205253
-0.160545
-0.117423
-0.068424
-0.021727
0.024891
0.074417
0.089219
0.121783
0.081764
0.085690
0.092987
0.044363
-0.005373
-0.030626
-0.032456
-0.109829
-0.175983
-0.163761
-0.153049
-0.141632
-0.154217
-0.140746
-0.114742
-0.041128
-0.015947
0.061306
0.124614
0.154382
0.119129
0.093858
0.097135
0.065380
-0.013704
-0.044194
-0.097655
-0.104679
-0.086714
-0.149438
-0.200796
-0.196121
-0.190703
-0.134629
-0.084751
-0.011442
0.069469
0.073860
0.087846
0.139383
0.156886
0.134888
0.106844
0.096328
0.042779
-0.009980
-0.047780
-0.090407
-0.086445
-0.121491
-0.162412
-0.231309
-0.203353
-0.126409
-0.059210
-0.016553
-0.007253
0.072736
0.106492
0.132254
0.137170
0.112373
0.103530
0.076246
0.018116
-0.006664
-0.014130
-0.065754
-0.113366
-0.155927
-0.172805
-0.170922
-0.153918
-0.116702
-0.071628
-0.024428
0.012575
0.059518
0.103207
0.129602
0.124926
0.113519
0.092394
0.066980
0.032912
0.007577
-0.073275
-0.138290
-0.132772
-0.103225
-0.116479
-0.127224
-0.155974
-0.135817
-0.088579
-0.020447
0.042851
0.079019
0.088417
0.147160
0.152590
0.136137
0.159067
0.102045
0.037605
-0.006829
-0.054381
-0.164771
-0.154561
-0.149931
-0.142160
-0.189268
-0.163608
-0.108652
-0.052242
-0.009197
0.046023
0.082639
0.105555
0.126309
0.143784
0.163602
0.118998
0.076396
0.017556
-0.038572
-0.076335
-0.091314
-0.129134
-0.198453
-0.198468
-0.169035
-0.161959
-0.144954
-0.111655
-0.070480
0.012830
0.094346
0.110132
0.145660
0.142636
0.123466
0.088713
0.061241
0.020500
-0.009128
-0.048379
-0.095965
-0.133142
-0.166165
-0.163423
-0.187675
-0.158264
-0.115308
-0.093493
-0.065231
-0.017102
0.056365
0.075785
0.109083
0.060223
0.126801
0.132419
0.096453
0.039246
-0.038524
-0.126851
-0.117837
-0.135648
-0.162315
-0.168976
-0.170168
-0.148135
-0.085273
-0.068491
-0.047708
0.005050
0.024312
0.057878
0.119726
0.129222
0.133611
0.104647
0.058434
-0.008712
-0.060708
-0.066691
-0.102285
-0.120440
-0.177166
-0.170768
-0.189060
-0.158181
-0.112725
-0.058929
-0.017843
0.013065
0.073760
0.093249
0.101417
0.092026
0.098931
0.096768
0.052146
0.000166
-0.045847
-0.086359
-0.133644
-0.150624
-0.157587
-0.163986
-0.143529
-0.158538
-0.180438
-0.152835
-0.062641
0.025098
0.031432
0.073446
0.141541
0.147290
0.128325
0.105598
0.065388
0.021270
-0.019343
-0.079692
-0.119343
-0.145644
-0.194725
-0.201291
-0.186687
-0.131562
-0.134824
-0.088533
-0.039623
-0.005989
0.012360
0.070306
0.092578
0.104428
0.101921
0.077056
0.051214
0.028923
-0.017067
-0.060325
-0.093013
-0.139531
-0.171044
-0.204353
-0.133657
-0.110339
-0.102838
-0.124781
-0.086031
0.023414
0.064252
0.114132
0.132854
0.141962
0.150562
0.127976
0.077121
0.037721
-0.001925
-0.033875
-0.085488
-0.105618
-0.152145
-0.111954
-0.125910
-0.112948
-0.071986
-0.045347
0.036762
0.089939
0.107624
0.147881
0.185424
0.168820
0.162338
0.166685
0.125086
0.060668
0.030024
-0.011190
-0.056862
-0.080901
-0.106415
-0.108527
-0.110574
-0.094647
-0.072131
0.008006
0.062708
0.101578
0.125747
0.153506
0.194360
0.203679
0.151682
0.111393
0.103535
0.079687
0.032249
-0.052227
-0.136182
-0.140466
-0.136798
-0.126455
-0.154034
-0.124364
-0.088628
-0.085583
-0.016711
-0.000733
0.048065
0.092186
0.154288
0.178869
0.159149
0.130954
0.093529
0.046756
-0.004484
-0.037457
-0.105935
-0.140835
-0.155212
-0.149104
-0.146225
-0.162584
-0.152571
-0.091439
-0.051705
-0.020325
0.028788
0.058927
0.090628
0.120687
0.133317
0.074487
0.020014
-0.046613
-0.044679
-0.073775
-0.117404
-0.185254
-0.203719
-0.183175
-0.158864
-0.132235
-0.125183
-0.109795
-0.030391
0.008591
0.023945
0.063519
0.075664
0.089316
0.092343
0.043579
0.010355
-0.027408
-0.044986
-0.094760
-0.120764
-0.130462
-0.161329
-0.170136
-0.201307
-0.176079
-0.151517
-0.086340
-0.048023
0.007058
0.064978
0.092183
0.104000
0.108336
0.069805
0.043519
-0.011227
-0.043926
-0.045151
-0.088050
-0.150728
-0.163328
-0.179745
-0.197269
-0.202843
-0.182924
-0.129355
-0.090536
-0.066763
-0.022280
0.016113
0.064012
0.091329
0.103363
0.077448
0.058382
0.023948
-0.000020
0.000588
-0.040402
-0.128069
-0.164864
-0.182762
-0.152222
-0.133045
-0.126165
-0.082581
-0.042948
0.033787
0.104770
0.161708
0.209654
0.261101
0.309753
0.297186
0.301186
0.284432
0.265063
0.263286
0.261201
0.267710
0.258868
0.281732
0.303497
0.316109
0.338832
0.413555
0.506114
0.599458
0.683311
0.766634
0.830215
0.877042
0.887507
0.870589
0.827542
0.801109
0.744714
0.676331
0.553150
0.497193
0.445168
0.349954
0.275023
0.231299
0.203117
0.181284
0.170394
0.165604
0.170487
0.196240
0.222850
0.230462
0.216965
0.218263
0.200882
0.158644
0.109636
0.041635
0.005733
-0.021885
-0.073051
-0.128514
-0.135616
-0.121730
-0.113819
-0.106424
-0.021854
0.011761
0.008035
0.059842
0.133595
0.193523
0.175243
0.150396
0.141150
0.084823
0.037492
-0.000797
-0.044424
-0.084519
-0.100827
-0.109733
-0.128327
-0.138786
-0.130428
-0.066908
-0.045846
-0.013530
-0.006207
0.036401
0.085863
0.115377
0.098190
0.121636
0.099666
0.077659
0.041508
-0.001776
-0.063450
-0.090579
-0.116055
-0.152752
-0.187484
-0.206819
-0.159916
-0.075111
-0.033224
-0.022282
-0.005036
0.046974
0.104414
0.163689
0.155232
0.152816
0.096906
0.073561
0.037490
-0.012837
-0.028870
-0.079365
-0.112910
-0.122993
-0.169067
-0.129022
-0.123171
-0.079947
-0.025725
0.023663
0.067042
0.081003
0.078097
0.101877
0.157099
0.144200
0.102034
0.087978
0.056817
0.002393
-0.014608
-0.053045
-0.090499
-0.123785
-0.144799
-0.135036
-0.113116
-0.050812
-0.010195
0.020360
0.052708
0.061802
0.128858
0.206871
0.237057
0.202827
0.220724
0.156496
0.107800
0.043145
0.004877
-0.007274
-0.036494
-0.076836
-0.093354
-0.108242
-0.092743
-0.048379
-0.031042
0.065494
0.125938
0.166458
0.210322
0.214232
0.204271
0.181799
0.207167
0.148271
0.113146
0.087267
0.068113
0.032448
-0.005674
-0.042470
-0.065129
-0.069532
-0.029598
0.011889
0.061261
0.117477
0.129788
0.167984
0.233276
0.215792
0.231178
0.241328
0.224172
0.210412
0.171114
0.126356
0.082355
0.048001
-0.002164
-0.011836
-0.018501
-0.013243
-0.011326
0.041867
0.074346
0.113294
0.152493
0.193309
0.230320
0.261919
0.272302
0.274288
0.214898
0.220172
0.174039
0.065360
0.023973
0.026135
-0.022296
-0.055781
-0.067784
-0.050180
-0.024999
0.011117
0.049944
0.096620
0.134662
0.172179
0.220202
0.234484
0.255438
0.240680
0.187968
0.135345
0.122178
0.077705
0.042255
-0.003829
-0.051220
-0.067259
-0.061856
-0.076582
-0.079878
-0.052627
-0.009665
0.024289
0.087493
0.121019
0.115443
0.153188
0.163743
0.175316
0.172689
0.158132
0.100564
0.029332
0.009615
-0.024655
-0.064384
-0.112676
-0.150862
-0.161844
-0.142456
-0.112985
-0.017387
0.052388
0.063419
0.105556
0.127733
0.077595
0.081511
0.088488
0.057220
0.065637
-0.008103
-0.073191
-0.107677
-0.075159
-0.019838
-0.050669
-0.148929
-0.194400
-0.181091
-0.060400
-0.014784
-0.003311
0.002220
0.059529
0.101009
0.113146
0.108412
0.095399
0.073791
0.035606
-0.008246
-0.039620
-0.071964
-0.113020
-0.155957
-0.209712
-0.182278
-0.149583
-0.138033
-0.120995
-0.084888
-0.040312
0.011107
0.049446
0.087239
0.111268
0.115520
0.090813
0.076920
0.075597
0.034480
-0.061925
-0.136282
-0.150659
-0.187811
-0.198205
-0.185555
-0.193609
-0.182417
-0.161638
-0.109224
-0.048846
0.008442
0.058128
0.093300
0.100211
0.115153
0.129382
0.106061
0.075740
0.012508
-0.029541
-0.076364
-0.161858
-0.182924
-0.185016
-0.184876
-0.175149
-0.168697
-0.121530
-0.088657
-0.050310
-0.023394
0.035448
0.072611
0.122997
0.141194
0.128340
0.067931
0.045554
0.024049
-0.015957
-0.063208
-0.095862
-0.130282
-0.152239
-0.164308
-0.183808
-0.168971
-0.116613
-0.050851
-0.017083
0.004438
0.022610
0.077298
0.107383
0.104520
0.106756
0.055172
-0.021660
-0.075659
-0.053212
-0.042915
-0.076602
-0.068533
-0.157827
-0.152347
-0.166919
-0.124417
-0.087120
-0.058035
-0.034012
-0.002797
0.017274
0.079303
0.097478
0.095182
0.091547
0.071351
0.039663
0.007507
-0.045194
-0.073016
-0.118809
-0.163440
-0.197589
-0.194849
-0.190473
-0.153989
-0.084747
-0.060905
-0.039421
-0.033368
0.028461
0.080162
0.161221
0.155461
0.123216
0.099120
0.092885
0.008218
0.018160
-0.029194
-0.123389
-0.205480
-0.232486
-0.208165
-0.198889
-0.176057
-0.143508
-0.081554
-0.017056
0.000262
0.027491
0.067024
0.108565
0.123944
0.134374
0.105677
0.062563
0.024438
-0.055379
-0.092904
-0.120038
-0.119170
-0.159555
-0.179064
-0.203282
-0.195179
-0.159030
-0.124997
-0.080102
-0.030487
0.017006
0.016962
0.061920
0.126095
0.155080
0.117934
0.048035
-0.025454
-0.106244
-0.094769
-0.092993
-0.122855
-0.197245
-0.171797
-0.170619
-0.169573
-0.113352
-0.077007
-0.049926
-0.035032
0.017863
0.008460
0.036840
0.081492
0.084462
0.072059
0.064119
0.032146
-0.013752
-0.063070
-0.109424
-0.149215
-0.207700
-0.199664
-0.174033
-0.167045
-0.141251
-0.105879
-0.055723
0.003000
0.032936
0.034758
0.062626
0.078054
0.086231
0.026748
0.016101
0.008764
-0.022292
-0.086365
-0.146771
-0.169061
-0.189635
-0.193428
-0.204127
-0.154650
-0.101125
-0.069769
-0.027849
0.018115
0.040660
0.055391
0.086015
0.131840
0.137518
0.105807
0.030243
-0.022240
-0.085329
-0.117654
-0.162323
-0.125193
-0.138960
-0.174435
-0.167836
-0.173657
-0.151022
-0.102161
-0.036188
0.057613
0.084541
0.111017
0.115696
0.146473
0.150199
0.127925
0.084347
0.032236
-0.004046
-0.046525
-0.111152
-0.164724
-0.181946
-0.168730
-0.147327
-0.126126
-0.122989
-0.098576
-0.070746
-0.015922
0.060809
0.111237
0.126990
0.158766
0.155333
0.117796
0.103939
0.045570
0.012942
-0.061843
-0.095613
-0.106546
-0.114545
-0.150615
-0.117006
-0.132443
-0.079211
-0.056921
-0.026289
0.019101
0.074535
0.110523
0.132223
0.142695
0.128475
0.110278
0.090357
0.026931
-0.017066
-0.077707
-0.113826
-0.145256
-0.178427
-0.191531
-0.172557
-0.118153
-0.098278
-0.058198
-0.058554
-0.019346
-0.000006
0.009712
0.090259
0.119119
0.013509
-0.016639
0.008896
0.006715
-0.026518
-0.086261
-0.138659
-0.176360
-0.175089
-0.210783
-0.243487
-0.235508
-0.179615
-0.117412
-0.076321
-0.041362
-0.042544
0.010745
0.123233
0.183010
0.145454
0.078413
0.026189
-0.030781
-0.111091
-0.170368
-0.168315
-0.186393
-0.188391
-0.215584
-0.231139
-0.224666
-0.157023
-0.111308
-0.044804
-0.007329
0.037377
0.055388
0.059979
0.102681
0.090062
0.056102
0.022411
-0.021721
-0.077155
-0.111871
-0.148675
-0.213807
-0.229475
-0.242219
-0.241491
-0.198747
-0.151813
-0.127936
-0.087310
-0.046134
0.017367
0.039809
0.066304
0.064950
0.068335
0.054925
0.024544
-0.023686
-0.065189
-0.089862
-0.150418
-0.185512
-0.181932
-0.209027
-0.205428
-0.192857
-0.163990
-0.116318
-0.076914
-0.045850
-0.022496
0.006703
0.005626
0.023853
0.025267
0.047088
0.044772
0.010697
-0.004759
-0.040447
-0.095419
-0.115060
-0.121774
-0.098585
-0.081474
-0.066433
-0.010527
0.053499
0.094616
0.178707
0.234872
0.263096
0.321300
0.373201
0.381119
0.392978
0.499326
0.474244
0.480179
0.435482
0.389785
0.372091
0.401136
0.441151
0.541677
0.593624
0.644908
0.726601
0.755209
0.825094
0.898292
0.911986
0.899433
0.821399
0.836171
0.794520
0.699471
0.590014
0.418130
0.303761
0.234181
0.189507
0.111475
-0.006722
-0.048429
0.015677
0.047027
0.081195
0.108823
0.131381
0.160320
0.172099
0.216618
0.223505
0.218627
0.164472
0.125136
0.066308
0.013094
0.003524
-0.038718
-0.075070
-0.096998
-0.117984
-0.127154
-0.127106
-0.074545
-0.044930
-0.012687
0.037038
0.069705
0.109237
0.133761
0.164526
0.120468
0.099815
0.073127
0.023255
-0.014020
-0.068097
-0.101947
-0.134596
-0.138939
-0.144605
-0.175155
-0.151916
-0.116179
-0.054987
-0.016406
0.006033
0.034453
0.091310
0.122169
0.133285
0.114430
0.090960
0.043656
0.008596
-0.028621
-0.041914
-0.106063
-0.149396
-0.183123
-0.157852
-0.119135
-0.125665
-0.089903
-0.059628
0.002500
0.026172
0.048508
0.071844
0.100694
0.103378
0.095596
0.090827
0.060684
0.016321
0.000713
-0.015530
-0.039214
-0.095404
-0.163278
-0.159709
-0.122101
-0.133599
-0.069127
0.003501
0.006168
0.058094
0.119100
0.155055
0.167435
0.179456
0.155593
0.081361
0.077225
0.026192
0.005950
-0.033417
-0.081748
-0.097607
-0.135208
-0.160453
-0.128618
-0.107702
-0.061737
-0.014308
0.040330
0.094390
0.126003
0.157240
0.169788
0.195520
0.170755
0.146859
0.129339
0.114628
0.055572
-0.001381
-0.048360
-0.096591
-0.128493
-0.116030
-0.112937
-0.104051
-0.044246
0.030855
0.079826
0.110614
0.161785
0.194642
0.174693
0.220849
0.242190
0.210843
0.191695
0.134686
0.094668
0.045763
0.031825
-0.013972
-0.065871
-0.080146
-0.098067
-0.047252
0.006282
0.042494
0.082785
0.148050
0.170450
0.182338
0.205569
0.220622
0.247298
0.216397
0.179236
0.151773
0.114433
0.047383
0.009720
-0.002116
-0.057214
-0.058223
-0.056158
-0.030324
-0.024357
0.065014
0.115516
0.152860
0.195332
0.213047
0.253577
0.273984
0.224179
0.202501
0.175582
0.127572
0.053361
0.037749
0.037182
-0.019649
-0.086687
-0.023232
-0.041524
-0.038083
0.025085
0.065910
0.087833
0.139901
0.165709
0.139105
0.220011
0.258994
0.251168
0.215417
0.148275
0.099665
0.053855
-0.003102
-0.049690
-0.069118
-0.096401
-0.104904
-0.104533
-0.076941
-0.049360
-0.003633
0.037320
0.096873
0.139541
0.193038
0.172901
0.173002
0.168535
0.157696
0.124454
0.073243
0.013333
-0.051892
-0.101726
-0.099506
-0.134411
-0.149077
-0.146681
-0.115131
-0.104626
-0.086398
-0.029058
0.027131
0.073289
0.110681
0.137547
0.145187
0.131195
0.107078
0.078779
0.042704
0.013770
-0.043281
-0.098729
-0.114324
-0.151961
-0.138881
-0.137532
-0.127685
-0.086279
-0.039135
-0.002189
0.025523
0.057561
0.078704
0.103276
0.118392
0.134541
0.093168
0.038881
-0.016143
-0.052182
-0.055201
-0.105777
-0.131110
-0.128952
-0.173961
-0.189043
-0.150753
-0.078352
-0.004235
0.034008
0.034724
0.041419
0.084637
0.087480
0.090551
0.067080
0.023686
0.088155
0.030699
-0.001534
-0.024323
-0.102616
-0.154531
-0.160617
-0.131781
-0.108089
-0.114656
-0.087225
-0.063060
-0.013624
0.033414
0.079571
0.107639
0.134307
0.111254
0.112677
0.096966
0.069462
0.047087
-0.005367
-0.047220
-0.107217
-0.195739
-0.212090
-0.164233
-0.147947
-0.158319
-0.107898
-0.116868
-0.059089
0.000311
0.076238
0.134901
0.137856
0.142117
0.136484
0.130865
0.095954
0.041686
-0.036338
-0.075214
-0.096370
-0.121622
-0.117834
-0.125857
-0.142347
-0.175741
-0.150314
-0.084210
-0.010553
0.049067
0.070244
0.086940
0.127510
0.163502
0.133508
0.110460
0.086701
0.048244
0.005834
-0.029605
-0.082303
-0.140054
-0.170251
-0.151835
-0.138572
-0.121548
-0.109023
-0.083409
-0.015763
0.025072
0.037354
0.049528
0.116809
0.159922
0.159687
0.151665
0.060448
-0.044706
-0.090581
-0.047143
-0.055419
-0.086798
-0.117415
-0.169853
-0.137781
-0.116343
-0.099248
-0.047233
0.009691
0.038071
0.086618
0.095293
0.124661
0.145667
0.106985
0.082887
0.048409
0.013020
-0.037129
-0.092164
-0.138179
-0.139090
-0.162026
-0.170267
-0.159392
-0.137671
-0.123735
-0.062067
-0.003754
0.028086
0.068488
0.103076
0.122886
0.110219
0.104460
0.096745
0.050750
0.019835
-0.023914
-0.065223
-0.097204
-0.150038
-0.166924
-0.173842
-0.179135
-0.161333
-0.151813
-0.100602
-0.034093
0.025473
0.060946
0.084709
0.112050
0.116049
0.086100
0.086887
0.085354
0.048768
-0.024533
-0.093055
-0.108587
-0.116694
-0.167499
-0.204730
-0.158098
-0.143603
-0.149262
-0.105272
-0.050127
0.019455
0.049081
0.086174
0.095327
0.079528
0.045965
0.047028
0.054105
0.041626
0.000626
-0.054985
-0.126035
-0.157727
-0.156956
-0.170668
-0.142866
-0.144256
-0.124283
-0.059209
-0.040313
0.025629
0.063585
0.026306
0.115603
0.131965
0.123901
0.068241
0.031570
0.033722
0.014839
-0.045726
-0.088291
-0.105401
-0.119210
-0.118895
-0.130020
-0.119215
-0.096635
-0.062349
-0.006411
0.067389
0.099077
0.149633
0.181855
0.186437
0.147028
0.111370
0.038807
0.014084
-0.011503
-0.045641
-0.093627
-0.151921
-0.164009
-0.104451
-0.130751
-0.124953
-0.070026
-0.016702
0.025642
0.082183
0.126019
0.147000
0.148903
0.165865
0.161616
0.138398
0.111039
0.071144
0.006733
-0.067197
-0.117655
-0.115159
-0.129732
-0.154146
-0.158335
-0.135926
-0.097784
-0.048142
-0.012968
0.039677
0.101609
0.115231
0.124472
0.134350
0.145194
0.108550
0.083236
0.014176
-0.023117
-0.034428
-0.100055
-0.130699
-0.161627
-0.175946
-0.210733
-0.236014
-0.151445
-0.085134
-0.026665
0.022463
0.048658
0.056295
0.047741
0.053480
0.024195
0.027007
0.110401
0.054983
-0.041320
-0.091512
-0.126016
-0.148735
-0.204349
-0.197310
-0.189627
-0.170208
-0.149755
-0.124621
-0.096516
-0.058120
0.003372
0.042047
0.043321
0.061258
0.056022
0.041491
0.029326
-0.023191
-0.077995
-0.115707
-0.149245
-0.154034
-0.188605
-0.196836
-0.199534
-0.172459
-0.140612
-0.116996
-0.073717
-0.018353
0.007502
0.047023
0.056566
0.069602
0.078578
0.075724
0.025668
-0.035924
-0.117930
-0.107536
-0.132986
-0.172980
-0.194581
-0.198274
-0.208434
-0.216690
-0.167190
-0.110588
-0.057998
-0.013284
0.051945
0.074555
0.060651
0.051351
0.052097
0.012108
-0.023738
-0.022220
-0.085545
-0.136706
-0.139850
-0.176900
-0.195435
-0.198304
-0.220457
-0.190312
-0.196055
-0.114610
-0.030465
0.043658
0.096292
0.145248
0.198109
0.199555
0.226655
0.209349
0.179824
0.169832
0.176082
0.131105
0.098921
0.114998
0.122217
0.166336
0.203462
0.269902
0.351377
0.407844
0.451029
0.534177
0.629739
0.750870
0.807777
0.853101
0.876955
0.910233
0.932270
0.875808
0.808185
0.775095
0.760758
0.667376
0.636801
0.647291
0.616484
0.585153
0.529166
0.480539
0.464722
0.441580
0.437395
0.394986
0.357384
0.333409
0.309013
0.280051
0.255145
0.202513
0.149812
0.087664
0.024242
-0.029652
-0.063705
-0.109095
-0.071558
-0.057100
-0.040988
0.000952
0.014046
0.060390
0.115869
0.160119
0.160459
0.172935
0.153599
0.119627
0.107012
0.049189
-0.011717
-0.043114
-0.091441
-0.117020
-0.138194
-0.162570
-0.146952
-0.145611
-0.111017
-0.053133
-0.002730
0.038286
0.091166
0.115866
0.127970
0.098117
0.126374
0.063829
0.075904
0.050038
-0.004735
-0.081621
-0.120814
-0.146249
-0.141372
-0.167428
-0.156389
-0.115242
-0.095810
-0.087770
-0.055112
0.007980
0.075310
0.111237
0.116691
0.120723
0.131005
0.110202
0.099255
0.060438
-0.023027
-0.072885
-0.091264
-0.104237
-0.144312
-0.172449
-0.154615
-0.172781
-0.152012
-0.153147
-0.032180
0.057769
0.128154
0.182738
0.150824
0.127150
0.162635
0.165207
0.122521
0.058614
0.001381
-0.032407
-0.051817
-0.082328
-0.130145
-0.127611
-0.132128
-0.094756
-0.070575
-0.083586
0.038046
0.095568
0.115739
0.119767
0.136098
0.141056
0.164726
0.150736
0.171987
0.128465
0.038288
-0.048706
-0.044166
-0.057630
-0.081185
-0.095045
-0.113919
-0.067683
-0.023348
-0.010865
0.053003
0.125015
0.162471
0.155160
0.217561
0.259603
0.259516
0.196101
0.136926
0.108110
0.081092
0.029915
-0.003993
-0.024204
-0.039354
-0.029424
-0.052410
-0.026015
0.013903
0.061162
0.075964
0.144060
0.195389
0.235544
0.209476
0.237519
0.262736
0.241690
0.202094
0.145409
0.118869
0.067475
0.017834
-0.012483
-0.012025
-0.036581
-0.050004
-0.038905
0.013401
0.037942
0.074199
0.170710
0.243207
0.278681
0.275201
0.258753
0.259908
0.214872
0.184779
0.138165
0.136328
0.095539
0.037961
-0.008654
-0.027156
-0.041659
-0.034308
0.002640
0.011399
0.055167
0.085852
0.141683
0.169911
0.217871
0.273486
0.263288
0.252988
0.229617
0.198878
0.148386
0.097393
0.025815
-0.051473
-0.061650
-0.053360
-0.063639
-0.068955
-0.068572
-0.034009
0.009688
0.087255
0.087008
0.103686
0.128359
0.205885
0.201097
0.193259
0.150523
0.116812
0.079435
0.042506
-0.000370
-0.051775
-0.120618
-0.106739
-0.114406
-0.116299
-0.117710
-0.103188
-0.062755
-0.016137
0.057836
0.111964
0.119486
0.111845
0.153822
0.149639
0.115189
0.068504
0.046934
0.010882
-0.054466
-0.101503
-0.146583
-0.160547
-0.149918
-0.146299
-0.124810
-0.101671
-0.074579
-0.020884
-0.015546
0.000236
0.073292
0.085638
0.103234
0.124283
0.098507
0.058553
0.038537
-0.023815
-0.080960
-0.111307
-0.133561
-0.186212
-0.196445
-0.188000
-0.168981
-0.118781
-0.076010
-0.033565
0.010298
0.064475
0.098250
0.103182
0.119071
0.101503
0.062703
0.021855
0.012111
-0.033609
-0.081423
-0.125742
-0.157971
-0.180134
-0.196910
-0.196977
-0.210632
-0.189904
-0.102293
-0.061577
-0.017454
0.044675
0.106388
0.119414
0.113514
0.131289
0.076057
0.005336
0.009929
-0.043467
-0.110842
-0.128484
-0.171313
-0.170464
-0.157700
-0.141156
-0.130711
-0.105632
-0.088044
-0.053242
-0.014477
0.015945
0.013953
0.088870
0.105975
0.092393
0.091657
0.068867
0.017447
-0.044862
-0.074242
-0.122418
-0.157637
-0.169369
-0.190456
-0.181651
-0.149606
-0.121567
-0.066102
0.015134
0.035683
0.042138
0.081237
0.080548
0.084631
0.070344
0.079781
0.079513
0.026042
-0.013026
-0.045997
-0.081555
-0.143007
-0.180502
-0.181693
-0.158072
-0.124790
-0.101862
-0.066862
-0.025478
-0.007144
0.048898
0.103397
0.114946
0.115053
0.090429
0.084223
0.050930
0.008135
-0.038752
-0.071153
-0.132064
-0.162291
-0.156816
-0.138736
-0.159736
-0.164065
-0.108991
-0.059710
-0.030173
-0.021203
0.043280
0.139242
0.133784
0.109188
0.095408
0.065513
0.050937
0.019369
-0.023342
-0.067527
-0.110646
-0.150132
-0.175826
-0.198002
-0.199022
-0.158664
-0.113355
-0.083562
-0.053786
-0.022537
0.013952
0.038540
0.098211
0.106345
0.113683
0.099569
0.074134
0.022641
-0.046552
-0.112037
-0.156960
-0.193837
-0.237265
-0.216455
-0.177991
-0.157576
-0.114822
-0.079971
-0.053553
0.017364
0.040015
0.056232
0.061365
0.070592
0.103823
0.110730
0.072956
0.001508
-0.010755
-0.065469
-0.106720
-0.158594
-0.184683
-0.188454
-0.164698
-0.140861
-0.115285
-0.114512
-0.062784
0.008765
0.072298
0.126952
0.111128
0.088261
0.050949
0.028648
0.028301
-0.016253
-0.056693
-0.114307
-0.151124
-0.180843
-0.181878
-0.180946
-0.196336
-0.190301
-0.170779
-0.077390
0.023443
0.032028
0.068587
0.089258
0.091977
0.080848
0.086673
0.067316
0.039310
-0.005998
-0.065296
-0.091511
-0.130778
-0.170280
-0.186079
-0.170373
-0.177586
-0.141528
-0.114394
-0.085965
-0.008206
0.016930
0.066369
0.082881
0.084073
0.110582
0.120737
0.130839
0.112461
0.064753
-0.013352
-0.067442
-0.103849
-0.128407
-0.160745
-0.182091
-0.219062
-0.201492
-0.117728
-0.096647
-0.044028
0.017633
0.068770
0.144905
0.108989
0.152341
0.144137
0.114928
0.097534
0.076546
0.041043
-0.034241
-0.097863
-0.136775
-0.145369
-0.132371
-0.135377
-0.108146
-0.070862
-0.044661
-0.010412
0.050351
0.079102
0.108212
0.148281
0.121941
0.163150
0.147236
0.106452
0.046399
-0.000833
-0.044900
-0.093740
-0.118189
-0.126546
-0.151248
-0.150857
-0.136714
-0.146589
-0.117223
-0.057642
-0.010380
0.023399
0.059216
0.085405
0.104471
0.070749
0.059769
-0.013012
0.029624
-0.000396
-0.105595
-0.168522
-0.157072
-0.146705
-0.184703
-0.199964
-0.144333
-0.126346
-0.073320
-0.066832
-0.032965
0.004192
0.026298
0.075789
0.094151
0.088516
0.033658
0.006204
-0.052775
-0.087614
-0.148363
-0.169765
-0.186936
-0.234445
-0.225402
-0.219097
-0.175629
-0.150292
-0.130003
-0.085161
-0.002292
0.042695
0.073363
0.066090
0.052767
0.041815
0.056728
0.023388
-0.015041
-0.055058
-0.118882
-0.158522
-0.203204
-0.221742
-0.206364
-0.232743
-0.197983
-0.172247
-0.116060
-0.067276
-0.040227
0.003345
0.047286
0.082383
0.088956
0.047157
0.037903
0.024682
-0.013040
-0.051047
-0.108245
-0.162722
-0.204795
-0.209826
-0.245250
-0.220179
-0.211579
-0.172584
-0.109584
-0.071934
-0.051373
-0.049245
0.023904
0.054556
0.089400
0.074814
0.037275
0.005264
-0.023001
-0.080735
-0.132722
-0.180126
-0.171505
-0.141669
-0.155107
-0.157906
-0.117075
-0.073079
0.009768
0.061696
0.101704
0.148878
0.184527
0.215701
0.236311
0.275465
0.278906
0.283493
0.263915
0.259432
0.283870
0.264547
0.271811
0.300785
0.316531
0.348952
0.391971
0.489527
0.537475
0.610857
0.690314
0.818981
0.928702
0.942305
0.913675
0.848411
0.840705
0.795990
0.777278
0.699836
0.623976
0.546712
0.444427
0.348896
0.258089
0.198480
0.150368
0.146878
0.156347
0.179490
0.212700
0.219230
0.198663
0.228689
0.228130
0.199286
0.189395
0.145771
0.081514
0.025498
0.000759
-0.057400
-0.084693
-0.087110
-0.120476
-0.100158
-0.063961
-0.054947
-0.007664
-0.019103
0.009029
0.089541
0.137221
0.149391
0.157339
0.145305
0.140863
0.086623
0.023367
-0.016417
-0.076490
-0.129388
-0.154762
-0.154749
-0.165568
-0.158940
-0.135971
-0.128241
-0.079406
-0.033114
-0.006371
0.043860
0.065097
0.097395
0.113138
0.116621
0.105425
0.062648
0.018665
-0.034065
-0.100930
-0.125733
-0.175110
-0.189240
-0.201259
-0.166659
-0.112622
-0.075660
-0.096414
-0.049018
0.020588
0.062849
0.100905
0.139875
0.156232
0.146170
0.113781
0.066258
0.011475
-0.037257
-0.097466
-0.106892
-0.112564
-0.149024
-0.154023
-0.164382
-0.131238
-0.089108
-0.021445
0.028389
0.068384
0.085412
0.119055
0.140151
0.119242
0.068884
0.084499
0.082444
0.062903
0.022348
-0.029238
-0.099393
-0.126677
-0.153177
-0.114684
-0.116124
-0.088941
-0.084575
-0.048616
0.011861
0.063916
0.102223
0.144435
0.154944
0.153036
0.145494
0.136389
0.117559
0.068598
0.046256
-0.034747
-0.099286
-0.106204
-0.097586
-0.110362
-0.088674
-0.071500
-0.032293
0.012846
0.044509
0.083831
0.143938
0.172627
0.197055
0.190721
0.181287
0.161899
0.141251
0.120858
0.076415
-0.001935
-0.017686
-0.056706
-0.094519
-0.111760
-0.107831
-0.094889
-0.068893
0.032925
0.126878
0.203588
0.211662
0.173004
0.180840
0.207384
0.203776
0.179781
0.196383
0.113279
0.069096
0.056156
0.015851
-0.028742
-0.068154
-0.068256
-0.044268
-0.024776
-0.001245
0.032108
0.097557
0.157831
0.174116
0.189635
0.209277
0.207462
0.212788
0.213515
0.192339
0.126478
0.043862
0.011178
-0.033345
-0.107661
-0.082957
-0.070035
-0.025876
-0.024226
-0.014616
0.043415
0.079293
0.104903
0.128993
0.169691
0.222593
0.218316
0.189449
0.164128
0.136276
0.078785
0.032781
-0.006590
-0.033633
-0.049908
-0.108826
-0.130762
-0.082783
-0.067635
-0.040944
-0.008712
0.052884
0.095622
0.135601
0.147693
0.172102
0.150899
0.156954
0.123377
0.074226
0.031042
-0.003489
-0.058276
-0.092991
-0.116498
-0.160276
-0.150372
-0.113225
-0.101350
-0.072147
-0.046607
-0.010281
0.040478
0.067266
0.110905
0.149793
0.118921
0.088527
0.095389
0.082543
0.056060
-0.021668
-0.052377
-0.074136
-0.114575
-0.182713
-0.195119
-0.163044
-0.134288
-0.094462
-0.068402
-0.032948
-0.012849
0.043052
0.077981
0.094918
0.098983
0.064064
0.081375
0.083014
0.056095
0.004394
-0.037109
-0.082591
-0.129648
-0.156636
-0.173580
-0.166072
-0.160725
-0.138623
-0.097756
-0.038697
0.002927
0.035819
0.071054
0.108156
0.111704
0.101562
0.080602
0.059608
0.036693
-0.005770
-0.069378
-0.138803
-0.149703
-0.156472
-0.191099
-0.174353
-0.118332
-0.099043
-0.084416
-0.007506
0.058526
0.073556
0.067938
0.109515
0.105828
0.065309
0.057711
0.017287
-0.011759
-0.060473
-0.054711
-0.038530
-0.086170
-0.149567
-0.180532
-0.166244
-0.129394
-0.076827
-0.032078
0.000367
0.032304
0.071946
0.086124
0.110083
0.114506
0.076579
0.074636
0.055364
0.024467
-0.011242
-0.078874
-0.133553
-0.152158
-0.149499
-0.159170
-0.156999
-0.099996
-0.054614
-0.038520
-0.012716
0.036178
0.067182
0.099838
0.134358
0.158736
0.170725
0.147717
0.078162
-0.007987
-0.027890
-0.043441
-0.066203
-0.152440
-0.185648
-0.172315
-0.147467
-0.120170
-0.100353
-0.056908
-0.003448
0.018925
0.049270
0.094642
0.139833
0.140927
0.135629
0.111859
0.067486
0.010591
-0.027789
-0.058704
-0.104713
-0.125984
-0.139617
-0.144250
-0.142867
-0.137055
-0.128052
-0.075776
0.003919
0.039829
0.068977
0.089993
0.113273
0.129459
0.117509
0.105118
0.071726
0.010979
-0.020416
-0.039935
-0.100842
-0.150594
-0.152130
-0.144619
-0.145064
-0.104680
-0.080903
-0.066768
-0.049084
0.051190
0.051560
0.087696
0.117767
0.135732
0.112239
0.071654
0.044254
0.021625
-0.019881
-0.066020
-0.102010
-0.142737
-0.172483
-0.191979
-0.163119
-0.141871
-0.086324
-0.051050
-0.000300
0.038007
0.068747
0.112800
0.123915
0.130170
0.107841
0.105961
0.088074
0.023052
-0.013806
-0.086940
-0.137080
-0.177713
-0.212673
-0.162178
-0.133196
-0.109665
-0.097025
-0.036323
0.007038
0.056326
0.086652
0.122153
0.140924
0.122508
0.127858
0.099653
0.072541
0.037162
-0.003300
-0.060846
-0.121466
-0.155070
-0.182049
-0.169742
-0.127356
-0.128769
-0.093703
-0.064167
-0.023163
0.048507
0.094008
0.082161
0.111596
0.147006
0.146180
0.119287
0.078537
0.035463
-0.005437
-0.043991
-0.095987
-0.146922
-0.156541
-0.140330
-0.135282
-0.156356
-0.116414
-0.054061
0.007823
0.046191
0.105678
0.113265
0.137268
0.148194
0.122955
0.139148
0.106487
0.060130
0.017120
-0.019663
-0.043589
-0.056550
-0.099936
-0.118831
-0.093021
-0.081343
-0.072858
-0.018835
0.019363
0.077350
0.128874
0.153589
0.167817
0.177043
0.167293
0.112361
0.071541
0.049669
0.008919
-0.045863
-0.038708
-0.093269
-0.132215
-0.080678
-0.072063
-0.100525
-0.085033
-0.030157
0.019977
0.099230
0.143525
0.177059
0.180174
0.194521
0.191922
0.149808
0.097802
0.034731
-0.018522
-0.006212
-0.011416
-0.073793
-0.082264
-0.080058
-0.072385
-0.078753
-0.050332
-0.026903
0.005456
0.037553
0.075468
0.134482
0.143613
0.135755
0.182049
0.187878
0.144927
0.122455
0.045542
-0.055906
-0.120373
-0.124230
-0.148598
-0.169001
-0.158562
-0.132255
-0.079464
-0.083039
-0.037110
0.043875
0.075529
0.114803
0.110905
0.107696
0.090770
0.087077
0.042833
0.003784
-0.047497
-0.083230
-0.106616
-0.145810
-0.194059
-0.179478
-0.161718
-0.189395
-0.131601
-0.094015
-0.058640
-0.029503
0.044995
0.104036
0.110355
0.094894
0.076944
0.060675
0.038868
0.029532
-0.027710
-0.088646
-0.129545
-0.133014
-0.162912
-0.184013
-0.174263
-0.154759
-0.132931
-0.102931
-0.079072
-0.050008
0.020485
0.093860
0.139890
0.115868
0.135812
0.101079
0.034843
0.029813
-0.012864
-0.059096
-0.086696
-0.134998
-0.166335
-0.203591
-0.205729
-0.161788
-0.110617
-0.063165
0.014492
0.048067
0.066280
0.092619
0.102044
0.115193
0.119909
0.109940
0.058188
0.020592
-0.029370
-0.084222
-0.100734
-0.136437
-0.153463
-0.152059
-0.138209
-0.109284
-0.073949
-0.014377
0.054796
0.131599
0.175782
0.226973
0.250042
0.284307
0.267968
0.264244
0.259419
0.258532
0.290899
0.244999
0.207816
0.204729
0.217357
0.247058
0.261083
0.327736
0.398628
0.467847
0.550224
0.625732
0.689040
0.764074
0.809776
0.862332
0.889012
0.869592
0.845098
0.834782
0.804071
0.715463
0.646774
0.570817
0.553804
0.514763
0.447367
0.379319
0.360121
0.316810
0.357398
0.294505
0.339673
0.357443
0.276448
0.270484
0.262079
0.231687
0.205772
0.148219
0.107780
0.047344
-0.007915
-0.025367
-0.043394
-0.056535
-0.020155
-0.052770
-0.038247
0.020127
0.125901
0.144662
0.148068
0.229882
0.216214
0.214974
0.196128
0.165110
0.149023
0.057927
-0.007206
-0.036627
-0.061093
-0.072102
-0.055514
-0.074584
-0.056574
-0.042219
-0.030933
-0.030655
0.011972
0.073016
0.117710
0.146828
0.188624
0.193571
0.193005
0.156298
0.120542
0.078709
0.040879
0.017219
-0.031788
-0.088484
-0.130144
-0.147835
-0.140617
-0.087784
-0.047149
0.009520
0.065549
0.094396
0.108282
0.126529
0.161004
0.177421
0.200872
0.152440
0.092085
0.072050
0.053311
0.026322
-0.015732
-0.014966
-0.059667
-0.081416
-0.089726
-0.082351
-0.038135
0.009948
0.036404
0.059837
0.119388
0.158456
0.191125
0.219582
0.218987
0.195618
0.126712
0.095370
0.085876
0.036833
0.001143
-0.046412
-0.102762
-0.155067
-0.080800
0.004209
0.047836
0.093816
0.112068
0.144376
0.187584
0.222320
0.207062
0.200774
0.227383
0.205819
0.167050
0.133010
0.125888
0.080194
0.015639
0.011238
-0.020862
-0.042867
-0.026205
0.004512
0.071338
0.089444
0.098267
0.184028
0.230798
0.242872
0.258104
0.237917
0.268260
0.256377
0.244494
0.196302
0.115410
0.068425
0.066128
0.014813
0.001965
-0.000653
-0.006870
0.032512
0.069387
0.094836
0.153253
0.221114
0.276712
0.318118
0.302503
0.324029
0.333182
0.305375
0.262427
0.193485
0.158870
0.103236
0.063307
0.053961
0.020508
0.004624
0.009110
0.023503
0.057486
0.085408
0.173721
0.286119
0.302919
0.335116
0.349764
0.372321
0.336716
0.276764
0.247652
0.187272
0.161788
0.121477
0.081084
0.058710
0.008497
0.022210
0.045101
0.084161
0.117919
0.137645
0.157500
0.222094
0.251220
0.250541
0.275754
0.296345
0.310130
0.278214
0.250103
0.196523
0.132796
0.097241
0.080674
0.042942
0.037005
0.021111
0.007364
0.053916
0.105324
0.111987
0.138296
0.191877
0.229365
0.264315
0.240186
0.256824
0.262519
0.249455
0.192617
0.164109
0.151358
0.085807
0.008001
-0.010968
-0.013284
-0.029411
-0.019393
-0.005989
0.029719
0.053607
0.111252
0.161593
0.208038
0.231153
0.209347
0.222653
0.225214
0.202271
0.166566
0.141368
0.096659
0.045042
-0.029465
-0.067913
-0.053748
-0.060113
-0.067757
-0.047218
0.004867
0.043868
0.073342
0.125455
0.207135
0.240378
0.223602
0.195053
0.176996
0.200015
0.167900
0.157730
0.094365
0.036194
-0.011381
-0.068913
-0.087078
-0.088615
-0.101972
-0.051834
-0.037740
0.031303
0.064429
0.086393
0.124079
0.166874
0.213672
0.225181
0.183745
0.178685
0.154839
0.133825
0.047405
-0.011142
-0.032473
-0.033639
-0.039832
-0.052363
-0.082754
-0.027159
-0.005953
0.017764
0.033979
0.094888
0.182472
0.198838
0.222145
0.240215
0.232611
0.156539
0.122690
0.080244
0.073713
0.047319
-0.002480
-0.034967
-0.068149
-0.120067
-0.092341
0.015883
0.061074
0.072639
0.084544
0.106759
0.166721
0.193794
0.206054
0.217347
0.213934
0.217329
0.189065
0.125703
0.097556
0.010800
0.022034
-0.030182
-0.042650
-0.066294
-0.056673
-0.039726
-0.036889
0.024461
0.099969
0.151069
0.162056
0.208277
0.222683
0.203793
0.221379
0.232961
0.185035
0.138937
0.092305
0.029770
-0.011988
-0.030873
-0.045861
-0.036534
-0.043495
-0.026783
0.001551
0.043031
0.086765
0.128309
0.175589
0.221625
0.232392
0.217116
0.258389
0.202840
0.170234
0.126216
0.083768
0.051702
0.028377
-0.032535
-0.062050
-0.065307
-0.059992
-0.045528
-0.000811
0.072778
0.111471
0.134051
0.165944
0.215491
0.222298
0.186864
0.182372
0.178698
0.174320
0.132549
0.095504
0.028617
-0.010867
-0.035097
-0.042077
-0.053891
-0.028976
-0.039295
0.012974
0.046975
0.084759
0.113578
0.157839
0.204831
0.226659
0.228542
0.207651
0.177874
0.155125
0.112176
0.054439
0.031663
-0.014538
-0.025728
-0.060369
-0.067343
-0.070652
-0.022450
0.018576
0.050930
0.101652
0.153249
0.165809
0.180375
0.175267
0.207894
0.197237
0.206255
0.181428
0.117870
0.045261
0.007483
-0.040715
-0.079588
-0.070137
-0.102746
-0.082770
-0.027536
-0.010593
0.022980
0.050607
0.114792
0.172971
0.204333
0.193827
0.208713
0.216519
0.201817
0.188663
0.160515
0.111573
0.033275
-0.019861
-0.089646
-0.089446
-0.088069
-0.063063
-0.076288
-0.041092
0.026205
0.096498
0.134462
0.152342
0.208392
0.249076
0.242160
0.223580
0.202191
0.166142
0.138476
0.068640
0.030540
-0.012028
-0.062823
-0.073444
-0.060507
-0.038756
0.047009
0.080311
0.100219
0.100357
0.136122
0.193568
0.207676
0.233168
0.230377
0.265134
0.230081
0.207931
0.164506
0.117109
0.093499
0.074621
0.032312
-0.001631
-0.026247
-0.031898
-0.001070
0.007106
0.051858
0.129753
0.182521
0.219403
0.255645
0.283263
0.269841
0.256347
0.227754
0.196042
0.166510
0.100592
0.058793
0.046379
0.040265
0.014854
0.003302
0.007655
0.030473
0.073465
0.148207
0.164377
0.183750
0.240639
0.280880
0.270359
0.252086
0.261309
0.235547
0.155864
0.162708
0.125757
0.086199
0.033578
-0.005302
-0.026328
-0.038520
-0.020669
-0.021029
-0.002119
0.043703
0.090925
0.144441
0.184501
0.212756
0.199554
0.220049
0.210109
0.202924
0.140659
0.109359
0.057316
0.009548
0.005640
-0.032413
-0.067033
-0.081696
-0.111281
-0.075087
-0.039622
0.000744
0.066656
0.138423
0.187757
0.177763
0.167902
0.183372
0.174837
0.178780
0.158569
0.111919
0.046982
0.015937
-0.019266
-0.056205
-0.069030
-0.086754
-0.071149
-0.030633
-0.027734
-0.008810
0.038857
0.077436
0.130350
0.150336
0.179412
0.181797
0.167483
0.156507
0.124949
0.093224
0.024816
0.001637
0.004561
-0.038588
-0.053876
-0.082547
-0.070678
-0.043354
-0.028894
-0.001757
0.074257
0.123316
0.135063
0.191977
0.199528
0.175331
0.190313
0.183374
0.125508
0.072032
0.043127
-0.001297
-0.043294
-0.086160
-0.070117
-0.077786
-0.068096
-0.068746
-0.022159
0.015107
0.078891
0.148957
0.173853
0.193705
0.178912
0.200223
0.190284
0.184715
0.168490
0.116798
0.063942
0.030664
0.024087
0.003136
-0.002772
0.041315
0.056078
0.083866
0.136453
0.177223
0.277887
0.331498
0.366194
0.399439
0.477518
0.508966
0.513465
0.504178
0.526079
0.508746
0.498859
0.490860
0.465640
0.502936
0.509286
0.513711
0.577379
0.634652
0.696774
0.819260
0.888127
0.892372
0.921203
0.968329
1.001682
0.991950
0.950362
0.903949
0.850639
0.749349
0.668354
0.562214
0.450357
0.327539
0.246889
0.185473
0.169876
0.164735
0.155511
0.172891
0.169161
0.214175
0.245534
0.256891
0.288483
0.294994
0.265256
0.278755
0.246138
0.202436
0.165425
0.132726
0.081682
0.080089
0.043921
0.001431
0.011247
0.012204
0.079923
0.090546
0.136230
0.200195
0.235137
0.253198
0.271766
0.280341
0.259592
0.214782
0.172854
0.117528
0.097761
0.055177
0.022358
-0.027658
-0.078724
-0.068702
-0.042830
-0.022841
0.037340
0.101578
0.114086
0.152397
0.162698
0.193851
0.249178
0.274423
0.291857
0.271513
0.209045
0.148229
0.091491
0.021949
-0.020960
-0.037028
-0.055586
-0.051931
-0.032735
-0.006494
0.030259
0.060686
0.118026
0.167355
0.214943
0.236368
0.256286
0.236373
0.228842
0.230141
0.199458
0.125711
0.098810
0.118283
0.061658
0.019232
-0.001362
-0.018331
-0.010288
0.008104
0.027278
0.059362
0.097990
0.108569
0.195696
0.264526
0.299069
0.309142
0.275622
0.244194
0.212809
0.190941
0.141614
0.115906
0.058191
0.019606
0.013013
0.004451
-0.013397
0.010126
0.049834
0.110419
0.178402
0.218816
0.259700
0.289622
0.278525
0.328698
0.332661
0.305382
0.234927
0.208474
0.163310
0.119140
0.094038
0.047699
0.043793
0.020922
0.036552
0.072998
0.078978
0.161211
0.217905
0.250313
0.293259
0.290565
0.291614
0.303361
0.318400
0.298694
0.277489
0.234700
0.170772
0.130073
0.087763
0.051829
0.049263
0.050794
0.082098
0.112994
0.141386
0.186612
0.250972
0.290738
0.305765
0.322543
0.381446
0.396376
0.430433
0.401400
0.308729
0.268060
0.230556
0.194396
0.140877
0.090906
0.065944
0.075182
0.097345
0.112906
0.145438
0.177708
0.193504
0.253855
0.325787
0.347978
0.341548
0.322093
0.309717
0.336443
0.329564
0.277175
0.218727
0.180919
0.134868
0.095063
0.088941
0.088613
0.102667
0.084862
0.123449
0.190496
0.204114
0.207662
0.256104
0.299964
0.333007
0.332827
0.329964
0.299636
0.298657
0.246974
0.197752
0.153552
0.115153
0.084230
0.033008
0.041430
0.036574
0.050148
0.061144
0.109103
0.163539
0.245124
0.232184
0.229780
0.289718
0.323125
0.293840
0.298249
0.242774
0.225300
0.164995
0.090826
0.056573
0.014684
-0.025184
-0.004145
0.028203
0.045870
0.068051
0.111107
0.153973
0.204599
0.225120
0.223967
0.261469
0.268862
0.228403
0.209085
0.218148
0.165118
0.122174
0.094668
0.043156
0.024759
-0.014395
-0.060925
-0.045243
-0.007891
0.005622
0.078798
0.150637
0.206574
0.246262
0.241264
0.229085
0.242946
0.266422
0.254457
0.226335
0.170682
0.122399
0.064353
0.022253
-0.029661
-0.064455
-0.050155
-0.042716
-0.054482
-0.004765
0.070781
0.111657
0.155459
0.176426
0.216599
0.250170
0.260816
0.278280
0.250762
0.205598
0.165154
0.106234
0.045556
0.014976
-0.027946
-0.023539
-0.028729
-0.042222
0.015177
0.051458
0.082541
0.121803
0.164317
0.174419
0.217440
0.242628
0.252956
0.244426
0.221638
0.215426
0.146355
0.067830
0.045917
0.027105
-0.009770
-0.017254
-0.007976
-0.022621
-0.004779
0.022888
0.021175
0.111493
0.167796
0.204007
0.261118
0.244837
0.246824
0.232981
0.200570
0.177705
0.198892
0.106844
0.026974
-0.004923
0.019307
0.047530
0.041834
0.004695
0.002245
0.028709
0.082092
0.132402
0.188119
0.204911
0.240234
0.269651
0.285430
0.260678
0.235103
0.215128
0.149644
0.106312
0.070338
0.036387
0.003579
-0.042292
-0.025672
0.000836
0.018771
0.026914
0.057932
0.110877
0.162629
0.232401
0.259112
0.251632
0.253279
0.207958
0.208121
0.189312
0.144287
0.105223
0.070771
0.038369
-0.005253
-0.032974
-0.019657
-0.035019
-0.050617
0.021419
0.093454
0.121079
0.166546
0.192583
0.229340
0.261312
0.272799
0.247097
0.213630
0.182195
0.172125
0.125466
0.068249
0.005928
-0.030192
-0.040041
-0.045446
-0.053448
-0.025590
0.011193
0.036873
0.061271
0.127818
0.167944
0.221776
0.255391
0.271575
0.227497
0.188366
0.182022
0.138145
0.062785
0.004662
-0.020320
0.028640
-0.049926
-0.058546
-0.038393
-0.007003
0.014566
0.058921
0.096380
0.122062
0.195328
0.198467
