-0.067885
-0.001463
0.077795
0.104682
0.105181
0.095159
0.111455
0.126421
0.082731
0.024334
-0.047790
-0.090506
-0.128900
-0.116808
-0.146762
-0.164423
-0.156537
-0.131995
-0.099479
-0.042723
-0.017720
0.004074
0.069153
0.120023
0.145937
0.144579
0.150324
0.136407
0.044665
0.054923
-0.002430
-0.039050
-0.065165
-0.111296
-0.134670
-0.149786
-0.163339
-0.096415
-0.044145
-0.013295
0.013411
0.080398
0.110927
0.133913
0.150116
0.180319
0.192512
0.169479
0.129459
0.083842
0.026339
-0.011562
-0.048405
-0.042777
-0.056839
-0.065291
-0.090981
-0.126094
-0.098313
-0.034542
0.009347
0.043473
0.108702
0.142715
0.180291
0.185866
0.173069
0.191694
0.143278
0.147117
0.062692
0.004043
-0.064276
-0.071854
-0.080213
-0.081265
-0.032242
-0.044556
-0.045408
0.008673
0.052558
0.092075
0.130414
0.188311
0.222785
0.250377
0.209135
0.178791
0.124127
0.084790
0.056413
-0.050283
-0.073087
-0.068937
-0.106016
-0.140032
-0.107150
-0.070749
-0.038224
0.008077
0.033420
0.054518
0.109487
0.171322
0.210667
0.216674
0.211132
0.177626
0.135406
0.113109
0.063873
0.011383
-0.064352
-0.127041
-0.149305
-0.163923
-0.145451
-0.124074
-0.096340
-0.067156
-0.020388
0.055421
0.090598
0.127456
0.128492
0.125464
0.118323
0.083995
0.060129
0.013750
-0.002535
-0.061289
-0.099176
-0.123643
-0.167570
-0.132051
-0.151434
-0.164946
-0.116146
-0.086528
-0.090346
-0.039244
0.017251
0.047330
0.061512
0.104521
0.127028
0.118178
0.083926
0.036497
-0.009379
-0.035817
-0.064308
-0.107284
-0.159824
-0.211208
-0.185170
-0.152713
-0.126110
-0.115498
-0.063015
0.000606
0.060995
0.106085
0.108957
0.131800
0.090446
0.078155
0.034644
0.004499
-0.036848
-0.071708
-0.124094
-0.177725
-0.196979
-0.197009
-0.201788
-0.194125
-0.159038
-0.126186
-0.077269
-0.000448
0.063249
0.081645
0.086726
0.092330
0.118834
0.060508
0.043590
-0.000337
-0.058846
-0.091587
-0.115464
-0.152695
-0.225056
-0.261533
-0.229263
-0.195137
-0.133274
-0.066687
-0.038985
0.015556
0.032189
0.092229
0.125583
0.109290
0.081660
0.062156
0.037712
0.009448
-0.034133
-0.121086
-0.156661
-0.191147
-0.219261
-0.250302
-0.238803
-0.193698
-0.131700
-0.081504
-0.035029
0.006392
0.031982
0.061596
0.093661
0.099070
0.087722
0.082688
0.068063
0.027370
-0.046519
-0.065059
-0.085562
-0.166123
-0.157629
-0.154957
-0.154055
-0.145735
-0.134907
-0.091301
-0.054357
0.015369
0.059850
0.067144
0.083044
0.073478
0.086764
0.089592
0.058123
0.034559
-0.019931
-0.097342
-0.135345
-0.159897
-0.177638
-0.166244
-0.188595
-0.157579
-0.099215
-0.079920
-0.006895
0.013672
0.057280
0.082646
0.107776
0.122691
0.091362
0.094792
0.067220
0.010414
-0.033828
-0.077066
-0.109611
-0.150591
-0.178709
-0.185092
-0.169981
-0.132696
-0.103544
-0.065366
-0.047152
-0.040005
-0.008178
0.030916
0.058419
0.087268
0.097070
0.072450
0.032255
-0.006534
-0.067142
-0.134155
-0.165521
-0.192371
-0.211281
-0.151449
-0.148957
-0.148047
-0.117348
-0.079592
-0.008754
0.066330
0.105516
0.143373
0.131784
0.105299
0.051757
0.020758
-0.065957
-0.054662
-0.041779
-0.095301
-0.130387
-0.145329
-0.179914
-0.190611
-0.217886
-0.178306
-0.111693
-0.066363
-0.010744
0.046970
0.088867
0.082301
0.035450
0.023271
0.078500
0.131110
0.088028
0.034696
-0.018664
-0.082485
-0.151823
-0.182849
-0.190986
-0.192293
-0.150474
-0.132743
-0.120385
-0.057356
0.010799
0.024675
0.070044
0.091118
0.126326
0.197932
0.148116
0.127530
0.112659
0.072841
0.000724
-0.022266
-0.051248
-0.114534
-0.124915
-0.127150
-0.168326
-0.144475
-0.086698
-0.084809
-0.114115
-0.060360
0.016876
0.089544
0.102842
0.103961
0.092317
0.150957
0.147435
0.083582
0.022469
-0.042394
-0.058371
-0.077359
-0.088363
-0.130069
-0.137430
-0.144071
-0.127145
-0.067602
0.046589
0.136530
0.140250
0.145879
0.117344
0.134363
0.124702
0.122677
0.099673
0.046687
0.020717
-0.014702
-0.065745
-0.123229
-0.162079
-0.180713
-0.170721
-0.149385
-0.113991
-0.086670
-0.049012
-0.006982
0.060785
0.100532
0.118554
0.139182
0.109045
0.091454
0.074010
0.028500
0.004324
-0.095173
-0.143430
-0.158823
-0.199647
-0.246139
-0.239889
-0.180952
-0.125568
-0.041007
-0.034358
-0.018463
0.012134
0.032653
0.069132
0.079728
0.076569
0.073266
0.057317
0.022033
-0.058229
-0.103501
-0.152854
-0.186935
-0.172555
-0.208244
-0.196051
-0.221467
-0.167980
-0.115972
-0.078860
-0.045275
-0.015654
0.015126
0.045543
0.058823
0.052548
0.034030
0.000485
-0.052803
-0.106477
-0.130202
-0.167619
-0.199404
-0.192578
-0.165390
-0.123550
-0.156413
-0.168500
-0.178784
-0.129249
-0.039366
0.015867
0.079770
0.069898
0.081304
0.063578
0.008714
-0.026610
-0.033087
-0.084348
-0.144857
-0.170519
-0.202533
-0.233858
-0.247405
-0.220826
-0.187284
-0.146282
-0.097801
-0.009335
0.023577
-0.011425
0.014001
0.062435
0.096162
0.084844
0.046996
0.010101
-0.023346
-0.035064
-0.046250
-0.087645
-0.184151
-0.195619
-0.165997
-0.157786
-0.108482
-0.074352
-0.012007
0.065846
0.161851
0.232985
0.235238
0.248971
0.293804
0.328051
0.339055
0.331149
0.327393
0.339774
0.311950
0.306756
0.296912
0.276694
0.273236
0.307154
0.397432
0.459465
0.525686
0.600487
0.685056
0.778531
0.808591
0.823480
0.823594
0.839297
0.780272
0.749633
0.683785
0.607086
0.535458
0.415614
0.325467
0.221155
0.120465
0.096077
0.112150
0.109307
0.099561
0.113346
0.138171
0.167933
0.198114
0.219304
0.207129
0.175936
0.105435
0.060896
0.080522
0.046523
0.017589
-0.009826
-0.033458
-0.104762
-0.154369
-0.159005
-0.141634
-0.081837
-0.041141
0.001577
0.053522
0.097877
0.097374
0.114599
0.133847
0.116208
0.125078
0.069379
0.019496
-0.026942
-0.066545
-0.117181
-0.162654
-0.194412
-0.160443
-0.143070
-0.115523
-0.099171
-0.084196
-0.061503
-0.027238
0.037257
0.101008
0.134099
0.144442
0.106693
0.105272
0.045912
-0.019171
-0.063693
-0.055601
-0.143274
-0.161682
-0.150649
-0.125419
-0.137609
-0.137832
-0.108563
-0.107447
-0.049261
0.036646
0.084135
0.089128
0.148857
0.140861
0.136117
0.045879
0.053188
0.050015
-0.019538
-0.065158
-0.134016
-0.188101
-0.169729
-0.127642
-0.127336
-0.133825
-0.112953
-0.055550
-0.007457
0.042672
0.073814
0.129830
0.164295
0.173941
0.149501
0.120070
0.106007
0.059882
0.008572
-0.023659
-0.083211
-0.119784
-0.146756
-0.153118
-0.164340
-0.178937
-0.116801
-0.047727
0.007411
0.057978
0.101263
0.125353
0.165849
0.194810
0.173174
0.149882
0.123931
0.084832
0.070875
0.023612
-0.019939
-0.078251
-0.119273
-0.129390
-0.111308
-0.096236
-0.039971
0.017528
0.066975
0.135028
0.157663
0.161173
0.159739
0.192150
0.205191
0.181709
0.158331
0.118561
0.076260
0.010001
-0.035768
-0.068420
-0.080849
-0.080495
-0.077890
-0.048260
-0.023730
0.038673
0.082975
0.122544
0.175013
0.169377
0.203649
0.234516
0.237916
0.224356
0.196105
0.150333
0.094483
0.046998
-0.010831
-0.037241
-0.049337
-0.052260
-0.052405
0.005839
0.045937
0.040071
0.052935
0.051735
0.137455
0.217127
0.238463
0.212508
0.193263
0.184597
0.173808
0.120345
0.054632
-0.020292
-0.066414
-0.051268
-0.082807
-0.108907
-0.079825
-0.045775
-0.025254
0.011868
0.057211
0.080701
0.120885
0.157261
0.148863
0.199434
0.218618
0.174152
0.130106
0.083636
0.044245
-0.012065
-0.035887
-0.056706
-0.112988
-0.154255
-0.178872
-0.131143
-0.079598
-0.036795
0.024060
0.055596
0.085065
0.127895
0.126958
0.129604
0.146554
0.153081
0.117189
0.077119
0.016204
-0.033410
-0.099792
-0.103949
-0.089819
-0.093220
-0.137587
-0.163430
-0.112688
-0.041448
0.002428
0.060574
0.085360
0.099989
0.117766
0.116756
0.114598
0.092748
0.054108
-0.008009
-0.055523
-0.093720
-0.110437
-0.139786
-0.160758
-0.192528
-0.157327
-0.112503
-0.106013
-0.080057
-0.056627
-0.010928
0.059364
0.091677
0.089692
0.073080
0.048733
0.057274
0.069836
0.014755
-0.031763
-0.089002
-0.162236
-0.200289
-0.206546
-0.213927
-0.226338
-0.203680
-0.150402
-0.096322
-0.053688
-0.008669
0.031633
0.052838
0.106661
0.126302
0.126360
0.110772
0.087283
0.043147
-0.015438
-0.051249
-0.096351
-0.187615
-0.181839
-0.178695
-0.193233
-0.151688
-0.128424
-0.100784
-0.016406
0.019675
0.043923
0.088315
0.110344
0.120334
0.106810
0.103922
0.076069
0.027351
-0.006922
-0.044973
-0.085895
-0.119874
-0.155746
-0.189979
-0.172898
-0.142460
-0.113924
-0.073643
-0.028823
0.020776
0.053578
0.078520
0.079396
0.104409
0.107571
0.094427
0.062411
0.017837
-0.024782
-0.097884
-0.130704
-0.140221
-0.147465
-0.157335
-0.137084
-0.124236
-0.106091
-0.073390
-0.022475
0.029800
0.067333
0.086682
0.105217
0.113782
0.088981
0.080632
0.054447
0.015929
-0.048153
-0.078177
-0.089204
-0.126771
-0.163397
-0.176320
-0.162225
-0.143186
-0.115449
-0.052228
-0.015426
0.014564
0.053760
0.099833
0.107364
0.101617
0.098874
0.083653
0.062745
0.012524
-0.038525
-0.081461
-0.125310
-0.157543
-0.192363
-0.196138
-0.199090
-0.182211
-0.155721
-0.117529
-0.060310
-0.008548
0.055955
0.097037
0.108416
0.107851
0.081895
0.070996
0.033001
0.011504
-0.019788
-0.067208
-0.125780
-0.188267
-0.236418
-0.253274
-0.220939
-0.155728
-0.173878
-0.159909
-0.091750
-0.034726
0.052076
0.088312
0.095679
0.086036
0.106403
0.087445
0.056606
0.023415
-0.016875
-0.082547
-0.138850
-0.174683
-0.196818
-0.207782
-0.177915
-0.159378
-0.138980
-0.104176
-0.072532
-0.019154
0.025051
0.054029
0.072726
0.076586
0.066996
0.066986
0.044314
0.008422
-0.052635
-0.095798
-0.141996
-0.172192
-0.193398
-0.199382
-0.186796
-0.174017
-0.133819
-0.066351
-0.044389
-0.008656
0.020515
0.045829
0.083389
0.081601
0.052816
0.053756
0.026549
-0.014763
-0.045664
-0.100067
-0.135988
-0.166306
-0.191547
-0.200131
-0.191257
-0.159762
-0.113843
-0.061920
-0.041324
-0.003239
0.038300
0.079716
0.094091
0.111001
0.127318
0.122659
0.110077
0.043328
-0.017992
-0.093244
-0.135925
-0.163676
-0.198059
-0.217460
-0.178078
-0.175385
-0.146053
-0.112514
-0.052426
0.028652
0.051877
0.091852
0.119890
0.130632
0.155523
0.121346
0.070447
0.055856
0.029184
-0.046701
-0.064754
-0.122242
-0.145872
-0.155021
-0.141079
-0.126798
-0.113619
-0.051084
0.006538
0.049448
0.076619
0.095377
0.124776
0.142485
0.139064
0.115008
0.073957
0.038403
-0.023809
-0.089789
-0.127380
-0.163813
-0.195007
-0.206756
-0.208258
-0.173089
-0.134567
-0.090216
-0.041353
0.002066
0.046870
0.076042
0.082294
0.093256
0.081227
0.038697
0.015258
-0.017398
-0.067414
-0.110333
-0.170080
-0.205239
-0.240982
-0.251281
-0.236846
-0.232002
-0.170398
-0.139471
-0.105897
-0.061929
-0.013884
0.007062
0.012908
0.023122
0.015669
0.012670
-0.006863
-0.054292
-0.119220
-0.182714
-0.226818
-0.229940
-0.217318
-0.237749
-0.222689
-0.208589
-0.184550
-0.160099
-0.115963
-0.087149
-0.055608
-0.004199
0.030161
0.065839
0.054100
0.009364
-0.015781
-0.061035
-0.123011
-0.184968
-0.232472
-0.256574
-0.267474
-0.262295
-0.261943
-0.253176
-0.213830
-0.179560
-0.132177
-0.056523
-0.030148
0.004464
0.041239
0.041129
0.031078
-0.012138
-0.027056
-0.042725
-0.092558
-0.139682
-0.178900
-0.219297
-0.279986
-0.289486
-0.250172
-0.239757
-0.212781
-0.148138
-0.117374
-0.082190
-0.044611
0.000353
0.011171
0.036112
0.036702
0.003807
-0.020091
-0.049942
-0.088285
-0.118753
-0.160127
-0.196835
-0.228259
-0.212519
-0.160879
-0.133893
-0.102363
-0.044664
-0.004433
0.069986
0.146160
0.203306
0.222061
0.246440
0.278148
0.283399
0.295281
0.286919
0.283473
0.267846
0.259075
0.264344
0.290643
0.313075
0.349762
0.437343
0.506566
0.598225
0.682237
0.750948
0.804938
0.843016
0.841333
0.853728
0.810259
0.779788
0.763850
0.687056
0.604602
0.476045
0.337262
0.254628
0.181482
0.116490
0.059487
0.049023
0.050500
0.053970
0.096840
0.144728
0.171832
0.190150
0.198268
0.186492
0.176096
0.133098
0.087341
0.023690
-0.020022
-0.059757
-0.108478
-0.130111
-0.159835
-0.178859
-0.170386
-0.151368
-0.150200
-0.103207
-0.063926
-0.042747
-0.005646
0.028874
0.068777
0.074234
0.076600
0.053251
0.028677
-0.019016
-0.082403
-0.115452
-0.163059
-0.223845
-0.229717
-0.221113
-0.222059
-0.199105
-0.170997
-0.123483
-0.071255
-0.028055
0.011951
0.043230
0.052299
0.033421
0.042053
0.037684
0.004357
-0.030494
-0.086416
-0.137309
-0.180931
-0.250074
-0.226353
-0.214443
-0.207729
-0.178789
-0.157917
-0.125090
-0.080889
-0.046777
-0.006617
0.035075
0.048986
0.057651
0.071644
0.057231
0.022981
-0.021082
-0.072530
-0.131732
-0.172330
-0.186557
-0.199657
-0.215049
-0.217168
-0.189077
-0.165073
-0.125084
-0.083702
-0.039908
-0.000829
0.042552
0.058923
0.062947
0.057463
0.042365
0.023452
-0.019368
-0.054246
-0.099114
-0.136166
-0.161484
-0.184468
-0.184768
-0.192718
-0.165898
-0.139220
-0.111964
-0.077630
-0.035745
0.027897
0.056860
0.086510
0.121376
0.147373
0.148642
0.116698
0.054716
-0.013903
-0.053681
-0.087937
-0.113190
-0.159365
-0.179170
-0.151539
-0.115785
-0.076634
-0.032981
0.016027
0.056469
0.103444
0.124335
0.146635
0.159535
0.150612
0.127627
0.096987
0.064968
0.017469
-0.035898
-0.083560
-0.100731
-0.119651
-0.115717
-0.124192
-0.108522
-0.075666
-0.033226
0.015030
0.061105
0.119925
0.158375
0.182947
0.184939
0.168030
0.144825
0.111767
0.069775
0.035457
-0.026997
-0.077773
-0.101619
-0.121477
-0.121423
-0.126102
-0.097697
-0.081851
-0.035132
0.006181
0.050807
0.102475
0.128495
0.162037
0.173750
0.132639
0.115797
0.116092
0.062122
0.005765
-0.042670
-0.086471
-0.115635
-0.142789
-0.164123
-0.158939
-0.143143
-0.094347
-0.048186
0.000030
0.037939
0.070052
0.113558
0.133544
0.134267
0.127710
0.103008
0.077690
0.001246
-0.020466
-0.064571
-0.121330
-0.155167
-0.158112
-0.162838
-0.174548
-0.147711
-0.101000
-0.066255
-0.040819
-0.019742
0.031358
0.071721
0.080811
0.083799
0.060926
0.030579
0.014721
-0.021383
-0.064181
-0.108972
-0.164989
-0.194178
-0.213618
-0.217446
-0.219201
-0.203049
-0.181504
-0.149346
-0.093688
-0.035963
0.020935
0.053272
0.056000
0.054380
0.055276
0.025821
-0.020199
-0.065299
-0.112608
-0.143447
-0.194201
-0.227099
-0.244397
-0.257180
-0.228518
-0.211253
-0.194269
-0.161123
-0.115809
-0.087720
-0.021225
-0.008275
0.029869
0.062472
0.060570
0.037295
0.014983
-0.052631
-0.087023
-0.136174
-0.191149
-0.228859
-0.225006
-0.209235
-0.229506
-0.213203
-0.186969
-0.155745
-0.107779
-0.048470
-0.012051
0.017993
0.046233
0.052095
0.040552
0.016715
0.012059
-0.031326
-0.091999
-0.142938
-0.191831
-0.236553
-0.249944
-0.261963
-0.261447
-0.241536
-0.205125
-0.133448
-0.091429
-0.051462
-0.011903
0.031619
0.056945
0.052195
0.046752
0.025626
-0.015105
-0.065193
-0.107049
-0.145591
-0.202135
-0.236969
-0.264078
-0.259751
-0.257058
-0.204323
-0.174583
-0.127166
-0.093612
-0.057154
-0.016490
0.039039
0.069439
0.080474
0.063184
0.031213
0.012645
-0.033764
-0.079667
-0.133925
-0.186460
-0.226247
-0.231561
-0.233678
-0.226622
-0.214773
-0.184983
-0.144687
-0.095671
-0.037863
0.010696
0.047521
0.075365
0.075313
0.057410
0.025946
-0.003172
-0.046267
-0.096368
-0.150706
-0.188843
-0.231835
-0.251508
-0.237967
-0.205317
-0.181585
-0.164375
-0.132559
-0.103086
-0.068607
-0.009162
0.043303
0.049798
0.053799
0.047298
0.004932
-0.016122
-0.033260
-0.071373
-0.105517
-0.163804
-0.201508
-0.222603
-0.219771
-0.207971
-0.210660
-0.205559
-0.146089
-0.094036
-0.061767
-0.022544
0.015382
0.037696
0.049957
0.046989
0.034605
0.001402
-0.043225
-0.084329
-0.141249
-0.193108
-0.233240
-0.245968
-0.248651
-0.246493
-0.234603
-0.205655
-0.156617
-0.098605
-0.054604
-0.001359
0.019714
0.040560
0.061122
0.071176
0.059343
0.033461
-0.016390
-0.076907
-0.136161
-0.169014
-0.199577
-0.224739
-0.214836
-0.182419
-0.172367
-0.160090
-0.113604
-0.063786
-0.010238
0.043794
0.081850
0.093799
0.084247
0.087632
0.067999
0.041181
0.002817
-0.042536
-0.092644
-0.148243
-0.196608
-0.210018
-0.217816
-0.199881
-0.182767
-0.166345
-0.112987
-0.074630
-0.023085
0.027539
0.083413
0.112367
0.125003
0.090353
0.050690
0.034529
0.004767
-0.046548
-0.088108
-0.118828
-0.164109
-0.193862
-0.191209
-0.214503
-0.214991
-0.164785
-0.109613
-0.074340
-0.026728
0.034457
0.062896
0.084291
0.077669
0.074546
0.055479
0.029211
-0.026041
-0.068155
-0.115899
-0.172801
-0.209079
-0.229070
-0.242434
-0.240678
-0.218692
-0.191947
-0.146944
-0.115312
-0.070280
-0.036937
-0.006092
0.019625
0.029403
0.026549
0.023585
-0.007636
-0.047005
-0.093373
-0.150824
-0.205331
-0.238749
-0.268825
-0.272642
-0.266821
-0.251636
-0.222545
-0.186164
-0.146010
-0.088102
-0.031791
-0.001851
-0.017930
-0.015290
-0.023170
-0.036157
-0.074150
-0.111102
-0.158087
-0.189965
-0.235385
-0.270533
-0.289965
-0.294360
-0.292450
-0.277823
-0.265627
-0.200410
-0.151679
-0.096956
-0.035985
-0.019147
-0.037410
0.019358
0.033072
-0.013274
-0.045953
-0.073803
-0.126167
-0.185545
-0.233418
-0.269432
-0.296457
-0.335419
-0.322733
-0.261247
-0.242477
-0.208291
-0.143953
-0.115719
-0.075206
-0.037075
-0.016660
-0.002208
-0.002649
-0.035101
-0.065871
-0.100223
-0.143338
-0.201348
-0.256704
-0.300592
-0.317092
-0.325107
-0.298318
-0.268785
-0.227826
-0.196002
-0.146776
-0.095209
-0.047232
-0.010636
-0.001465
0.010429
-0.014196
-0.047281
-0.050602
-0.062059
-0.075156
-0.099652
-0.156261
-0.168027
-0.200677
-0.187640
-0.177101
-0.145641
-0.123739
-0.069451
0.020190
0.088260
0.146473
0.207905
0.279363
0.319082
0.351281
0.362353
0.367877
0.360786
0.358167
0.326760
0.314497
0.320248
0.348360
0.378092
0.423092
0.481610
0.533205
0.604878
0.653366
0.690911
0.744969
0.782538
0.780012
0.768854
0.731051
0.667080
0.585965
0.472747
0.373280
0.257374
0.160146
0.085891
0.004347
-0.054486
-0.094712
-0.074291
-0.036549
0.012577
0.056004
0.082833
0.124765
0.144759
0.170502
0.171072
0.153787
0.115425
0.073553
0.014220
-0.041598
-0.091272
-0.148042
-0.192765
-0.217786
-0.226634
-0.225014
-0.215270
-0.192455
-0.179941
-0.066678
-0.018765
0.007735
0.021878
0.029370
0.033407
0.007175
-0.003038
-0.018186
-0.024266
-0.030721
-0.077279
-0.164309
-0.231731
-0.241713
-0.239513
-0.218304
-0.211737
-0.180005
-0.124110
-0.097214
-0.060784
-0.019456
-0.010889
-0.016304
-0.006817
-0.037437
-0.073316
-0.076086
-0.106973
-0.078719
-0.055185
-0.113695
-0.172617
-0.214485
-0.229188
-0.222215
-0.206077
-0.198140
-0.124210
-0.089997
-0.037399
-0.003606
0.015932
0.032782
0.037093
0.030559
0.016740
0.006050
-0.032768
-0.083963
-0.128825
-0.182321
-0.220513
-0.232586
-0.230238
-0.222904
-0.208546
-0.193346
-0.134353
-0.083460
-0.035888
0.019028
0.047852
0.066094
0.078552
0.063384
0.041015
0.019014
-0.023417
-0.060350
-0.113894
-0.168943
-0.202279
-0.220767
-0.230077
-0.220034
-0.203010
-0.172960
-0.130537
-0.069744
-0.005332
0.034464
0.051125
0.089580
0.097534
0.092863
0.075289
0.052877
0.002934
-0.028302
-0.090861
-0.124007
-0.157940
-0.174995
-0.187881
-0.171160
-0.147261
-0.135268
-0.089165
-0.025786
0.023648
0.067239
0.088196
0.116319
0.139206
0.141017
0.129819
0.107107
0.070396
0.010050
-0.045140
-0.100385
-0.139570
-0.159215
-0.166704
-0.123150
-0.101041
-0.108015
-0.059587
-0.016023
0.048009
0.080532
0.140639
0.157379
0.109586
0.094530
0.128882
0.100444
0.072778
0.016105
-0.024435
-0.080909
-0.114231
-0.139680
-0.151945
-0.136350
-0.111630
-0.081761
-0.025923
0.010749
0.042382
0.082484
0.105206
0.118336
0.128118
0.119508
0.094730
0.064360
0.020051
-0.049290
-0.104269
-0.140830
-0.144398
-0.167904
-0.173515
-0.169230
-0.158566
-0.130455
-0.082630
-0.003956
0.033418
0.072149
0.100789
0.133104
0.129362
0.105335
0.063576
0.038975
0.001041
-0.031861
-0.074533
-0.129822
-0.169041
-0.200552
-0.204718
-0.206976
-0.170642
-0.147629
-0.111608
-0.087975
-0.074824
-0.050822
-0.067615
0.010739
0.117452
0.073474
0.041197
0.011701
-0.024464
-0.045512
-0.071226
-0.155079
-0.215118
-0.267414
-0.275016
-0.248453
-0.223028
-0.181564
-0.131957
-0.092239
-0.041240
0.007248
0.059219
0.087225
0.076265
0.070299
0.037983
0.007209
-0.032736
-0.079354
-0.126427
-0.164426
-0.207145
-0.225887
-0.236632
-0.227743
-0.208944
-0.191705
-0.150364
-0.102353
-0.060731
-0.020934
0.015050
0.037326
0.048242
0.047363
0.023290
0.001295
-0.039198
-0.093979
-0.128889
-0.177025
-0.209946
-0.226739
-0.239270
-0.243009
-0.223614
-0.201133
-0.160007
-0.112222
-0.058113
-0.006260
0.028228
0.031501
0.000216
0.010842
0.012879
0.018258
-0.021042
-0.082650
-0.136708
-0.184431
-0.205688
-0.235096
-0.237164
-0.228094
-0.203902
-0.171251
-0.137366
-0.098938
-0.047710
-0.013477
0.010966
0.036730
0.027926
0.015191
-0.005294
-0.003146
-0.043784
-0.103466
-0.150580
-0.174728
-0.210488
-0.235940
-0.221613
-0.228658
-0.215553
-0.182938
-0.164650
-0.090871
-0.047080
-0.002089
0.034282
0.031894
0.009370
-0.035985
0.019769
0.060554
0.027415
-0.035277
-0.102375
-0.167010
-0.208770
-0.216471
-0.217276
-0.208362
-0.201543
-0.168187
-0.117441
-0.074537
-0.031368
0.024346
0.049566
0.073370
0.086467
0.081724
0.057339
0.018779
-0.034723
-0.079778
-0.129303
-0.173118
-0.212275
-0.232635
-0.234990
-0.229252
-0.215311
-0.179713
-0.131030
-0.082553
-0.043689
0.001174
0.012609
0.050125
0.058266
0.058872
0.043050
0.007582
-0.040674
-0.082847
-0.137617
-0.181884
-0.218727
-0.224925
-0.244383
-0.247436
-0.213767
-0.196804
-0.159289
-0.107423
-0.055637
-0.011532
0.009027
0.022008
0.029306
0.027191
0.003793
-0.037535
-0.075038
-0.102197
-0.147924
-0.203406
-0.244598
-0.272803
-0.276712
-0.251397
-0.243412
-0.171966
-0.105097
-0.072026
-0.034465
-0.046234
-0.024449
0.055480
0.075628
0.083191
0.046652
0.012037
-0.033192
-0.083552
-0.125592
-0.165542
-0.225439
-0.230685
-0.210198
-0.228135
-0.211911
-0.173677
-0.147872
-0.098790
-0.046893
-0.000518
0.020812
0.054266
0.049103
0.033876
0.032977
0.000164
-0.047665
-0.111362
-0.161569
-0.208992
-0.273506
-0.316337
-0.266213
-0.224628
-0.191032
-0.182760
-0.179707
-0.151688
-0.090955
-0.012990
0.038029
0.039095
0.045331
0.047120
0.038488
-0.000839
-0.034995
-0.085321
-0.137785
-0.186842
-0.224994
-0.255468
-0.258838
-0.256127
-0.224647
-0.194255
-0.154749
-0.108676
-0.054347
-0.011099
0.009810
0.032034
0.029270
0.063258
0.032212
0.004713
-0.033052
-0.090335
-0.136216
-0.159815
-0.180133
-0.195187
-0.209455
-0.213401
-0.197662
-0.164311
-0.106913
-0.072623
-0.037036
0.002448
0.040892
0.065555
0.068340
0.034783
0.028024
-0.017304
-0.065503
-0.087476
-0.148954
-0.186601
-0.169355
-0.205463
-0.232398
-0.237584
-0.210235
-0.149499
-0.098664
-0.028186
0.035319
0.100109
0.109547
0.113408
0.125554
0.111043
0.104183
0.071831
0.002105
-0.059821
-0.077372
-0.140787
-0.188573
-0.185629
-0.193229
-0.210560
-0.200509
-0.195368
-0.129946
-0.069608
-0.045990
-0.007380
0.025505
0.036663
0.046986
0.060416
0.035746
0.003994
-0.043895
-0.072462
-0.114903
-0.166923
-0.207834
-0.247643
-0.248681
-0.231602
-0.224646
-0.173476
-0.143227
-0.115232
-0.093213
-0.073523
-0.061553
0.011303
0.016545
0.006143
0.009716
-0.000657
-0.049245
-0.108308
-0.155704
-0.217531
-0.252885
-0.272036
-0.282464
-0.265452
-0.268896
-0.250513
-0.201893
-0.152063
-0.102632
-0.053570
-0.010805
0.003826
0.015761
0.013207
0.015402
0.004937
-0.046507
-0.109381
-0.159190
-0.195694
-0.211454
-0.214606
-0.232309
-0.249977
-0.253497
-0.245984
-0.205912
-0.145145
-0.090750
-0.031003
0.006001
0.032702
0.043637
0.032146
0.005192
-0.030616
-0.076883
-0.122581
-0.158972
-0.191638
-0.229313
-0.244861
-0.251877
-0.238189
-0.227865
-0.211820
-0.162650
-0.100414
-0.052887
-0.004828
0.000145
0.017782
0.047458
0.047127
0.023915
-0.008171
-0.074667
-0.110451
-0.154460
-0.214316
-0.245904
-0.259249
-0.272287
-0.262990
-0.240848
-0.239487
-0.194485
-0.103523
-0.039755
-0.012053
0.032241
0.049279
0.105451
0.111969
0.132448
0.142306
0.076721
0.025943
-0.028061
-0.064391
-0.062515
-0.069462
-0.065513
-0.033895
0.024289
0.086354
0.152411
0.217434
0.283738
0.359694
0.423229
0.467238
0.519457
0.568045
0.573207
0.574706
0.587803
0.564375
0.554582
0.556254
0.499711
0.502051
0.554466
0.569467
0.553840
0.522369
0.517403
0.525280
0.524103
0.506255
0.442859
0.436194
0.392394
0.336892
0.275148
0.192257
0.109199
0.040790
-0.010943
-0.068437
-0.108186
-0.133870
-0.145187
-0.142372
-0.137056
-0.119384
-0.078562
-0.043508
0.003538
0.046354
0.084571
0.112722
0.114921
0.102839
0.076160
0.027583
-0.041100
-0.097379
-0.123026
-0.140987
-0.146069
-0.194826
-0.216572
-0.210977
-0.198507
-0.175317
-0.122035
-0.054526
-0.037278
-0.002060
0.037226
0.059766
0.044572
0.026018
0.014278
0.032324
-0.013912
-0.079899
-0.143565
-0.181367
-0.213922
-0.230487
-0.246683
-0.251568
-0.202776
-0.180123
-0.153068
-0.102571
-0.039811
0.023567
0.048223
0.085967
0.072607
0.075500
0.071423
0.028332
-0.008800
-0.049976
-0.115649
-0.140254
-0.183864
-0.192516
-0.180528
-0.187782
-0.182047
-0.167230
-0.134143
-0.101389
-0.023054
0.016100
0.054516
0.095443
0.105686
0.085688
0.064077
0.029204
-0.011394
-0.048355
-0.083455
-0.123776
-0.164998
-0.189261
-0.216316
-0.226083
-0.214465
-0.159155
-0.088385
-0.017491
0.032461
0.043292
0.092628
0.104141
0.113417
0.104295
0.082484
0.044546
-0.009717
-0.061768
-0.129571
-0.172026
-0.207400
-0.217188
-0.140851
-0.097180
-0.085954
-0.079212
-0.052166
-0.017375
0.025007
0.094334
0.147466
0.150570
0.142559
0.136715
0.125222
0.103034
0.061536
0.026847
-0.016769
-0.072898
-0.108214
-0.115498
-0.117500
-0.137635
-0.114038
-0.058019
-0.044056
0.002255
0.064168
0.129676
0.147074
0.168372
0.171153
0.174527
0.197625
0.145484
0.112250
0.058277
0.009435
-0.043686
-0.069379
-0.083157
-0.103244
-0.106360
-0.086221
-0.049170
-0.020187
0.013334
0.066085
0.149024
0.175789
0.182324
0.186682
0.195270
0.179582
0.152007
0.102091
0.045664
0.000712
-0.042471
-0.083571
-0.098157
-0.108099
-0.104494
-0.093376
-0.065448
-0.017870
0.030351
0.068564
0.099234
0.121108
0.126139
0.133849
0.147439
0.145870
0.118928
0.061303
-0.011896
-0.047489
-0.101172
-0.094811
-0.083259
-0.117107
-0.164869
-0.121721
-0.032311
-0.026343
-0.055532
-0.041750
0.073941
0.120138
0.160217
0.187244
0.178046
0.155131
0.123569
0.087679
0.031505
-0.054792
-0.116422
-0.130046
-0.163946
-0.161446
-0.147936
-0.105639
-0.094471
-0.068981
-0.012267
0.025288
0.092680
0.109470
0.110774
0.111269
0.109267
0.108169
0.099858
0.067045
0.003520
-0.077220
-0.136128
-0.165531
-0.190591
-0.200879
-0.205434
-0.181972
-0.143257
-0.106449
-0.042249
-0.005465
0.039182
0.073844
0.103256
0.094891
0.086382
0.063705
0.039963
-0.004233
-0.052614
-0.109518
-0.143669
-0.187516
-0.211779
-0.216808
-0.206883
-0.187678
-0.156260
-0.123975
-0.069480
-0.022604
0.020661
0.048339
0.075028
0.077412
0.080792
0.051484
0.016146
-0.022517
-0.051606
-0.097871
-0.146329
-0.195243
-0.213857
-0.215375
-0.210572
-0.182463
-0.146000
-0.111319
-0.071682
-0.033049
0.012201
0.047874
0.058537
0.076775
0.076692
0.063069
0.029824
-0.020175
-0.076402
-0.159173
-0.171804
-0.187509
-0.202276
-0.190657
-0.176390
-0.170879
-0.161657
-0.115431
-0.055481
-0.020055
0.004089
0.011930
0.058144
0.058802
0.062432
0.048245
0.016834
-0.004842
-0.057413
-0.117353
-0.141259
-0.161586
-0.198965
-0.187821
-0.177855
-0.178863
-0.134972
-0.077563
-0.030360
0.009546
0.045786
0.088687
0.099694
0.114625
0.105096
0.091670
0.064070
0.017456
-0.029755
-0.062687
-0.126642
-0.167304
-0.187754
-0.195319
-0.188630
-0.170327
-0.147435
-0.124814
-0.064506
-0.029688
0.020129
0.056523
0.098647
0.089026
0.104024
0.091871
0.044621
-0.007854
-0.050898
-0.111836
-0.120848
-0.152749
-0.172016
-0.176384
-0.169074
-0.147733
-0.131085
-0.096595
-0.048094
0.007659
0.043451
0.057128
0.082020
0.093137
0.069295
0.048201
0.003985
-0.028776
-0.073817
-0.109563
-0.140522
-0.154333
-0.184705
-0.191229
-0.172182
-0.151844
-0.133810
-0.090224
-0.044143
0.004572
0.042436
0.087192
0.099584
0.092906
0.075544
0.069373
0.035286
0.001575
-0.050577
-0.104343
-0.155711
-0.195894
-0.220864
-0.197967
-0.208982
-0.198686
-0.155963
-0.115572
-0.066011
-0.017081
0.015355
0.043823
0.078441
0.105081
0.078814
0.055702
0.029608
-0.024895
-0.079635
-0.127093
-0.157407
-0.185925
-0.193295
-0.196061
-0.192804
-0.188404
-0.168455
-0.124201
-0.107920
-0.013831
0.057247
0.081680
0.109340
0.103563
0.093486
0.061653
0.017154
-0.024489
-0.053029
-0.091814
-0.154422
-0.190368
-0.219939
-0.223007
-0.203860
-0.198002
-0.177903
-0.128410
-0.074637
-0.048528
-0.002037
0.057260
0.085756
0.092797
0.086722
0.061195
0.035829
-0.005440
-0.052988
-0.108083
-0.142027
-0.180674
-0.200147
-0.207826
-0.203120
-0.203633
-0.147674
-0.092455
-0.045032
0.002693
0.037362
0.073622
0.087453
0.101672
0.086289
0.055387
0.021618
-0.005526
-0.043386
-0.062289
-0.118417
-0.167522
-0.185048
-0.185794
-0.184899
-0.158032
-0.110993
-0.077348
-0.045944
0.001723
0.061918
0.108073
0.135320
0.133803
0.105642
0.089609
0.058003
0.009450
-0.048259
-0.105891
-0.130982
-0.161965
-0.187614
-0.193850
-0.171833
-0.148980
-0.111031
-0.067082
-0.014729
0.035787
0.089379
0.127544
0.153743
0.154719
0.138921
0.125959
0.098993
0.064124
0.017812
-0.032627
-0.092799
-0.141304
-0.170467
-0.181278
-0.179381
-0.143740
-0.126691
-0.066800
-0.011647
0.030449
0.082606
0.097093
0.108050
0.106476
0.105293
0.099239
0.067599
0.025393
-0.032003
-0.083826
-0.125362
-0.154828
-0.193440
-0.198395
-0.179854
-0.172195
-0.152738
-0.114142
-0.070864
-0.031658
-0.003373
0.026837
0.051509
0.078305
0.083240
0.052586
0.022160
-0.012313
-0.057502
-0.101121
-0.161583
-0.184433
-0.200004
-0.227255
-0.246182
-0.241444
-0.208769
-0.162273
-0.105395
-0.060406
-0.024387
0.016382
0.074137
0.062722
0.021313
0.002239
-0.015839
-0.035171
-0.077923
-0.124211
-0.160049
-0.187352
-0.208708
-0.225085
-0.222834
-0.202583
-0.161004
-0.127350
-0.090568
-0.040475
0.017530
0.039079
0.067572
0.084381
0.080970
0.059569
0.002570
-0.040263
-0.102580
-0.156033
-0.209306
-0.215993
-0.237925
-0.243342
-0.230156
-0.213553
-0.179685
-0.138171
-0.086769
-0.036178
-0.000428
0.049666
0.071158
0.059553
0.066902
0.047407
0.015113
-0.036581
-0.102421
-0.147182
-0.168183
-0.201133
-0.230189
-0.238875
-0.238685
-0.231067
-0.198547
-0.170951
-0.109285
-0.073782
-0.003519
0.024171
0.079329
0.097738
0.097508
0.108982
0.104207
0.057350
0.016880
-0.004355
-0.039556
-0.060059
-0.070614
-0.060782
-0.025990
0.015617
0.076650
0.148943
0.227595
0.295793
0.361305
0.406870
0.446554
0.504153
0.532769
0.534076
0.533996
0.542413
0.533197
0.510765
0.528818
0.541778
0.527602
0.554762
0.563396
0.572416
0.607397
0.629074
0.648190
0.677582
0.701617
0.698705
0.662966
0.597816
0.511914
0.431734
0.365399
0.281658
0.174358
0.075781
0.000931
-0.049026
-0.078659
-0.100739
-0.101196
-0.082649
-0.043579
-0.018334
0.027910
0.063408
0.100974
0.136100
0.147104
0.137283
0.122558
0.103927
0.095588
0.065439
0.004001
-0.050532
-0.104973
-0.141973
-0.156965
-0.166720
-0.164108
-0.142143
-0.122743
-0.102413
-0.070313
-0.021169
0.036819
0.080072
0.111054
0.101494
0.092695
0.065521
0.046778
0.028819
-0.008264
-0.068297
-0.131014
-0.160174
-0.169714
-0.154071
-0.139322
-0.111918
-0.086118
-0.114075
-0.035872
0.000824
0.046118
0.070177
0.094985
0.124429
0.126615
0.087885
0.052113
0.002747
-0.038807
-0.077275
-0.119700
-0.140701
-0.157993
-0.167140
-0.156520
-0.142982
-0.120789
-0.080573
-0.037911
0.006805
0.045202
0.093455
0.113089
0.130611
0.113353
0.092770
0.069286
0.036649
-0.002689
-0.053108
-0.099120
-0.140019
-0.163129
-0.170936
-0.169921
-0.134077
-0.086795
-0.045005
-0.024156
0.029411
0.064526
0.106597
0.144366
0.168087
0.146342
0.113859
0.076966
0.032538
-0.012766
-0.052418
-0.076753
-0.088971
-0.115358
-0.119696
-0.127600
-0.095440
-0.048809
-0.005370
0.044362
0.083727
0.121169
0.151185
0.194259
0.206612
0.218730
0.187956
0.148289
0.129046
0.072137
-0.002842
-0.048669
-0.089095
-0.101598
-0.098570
-0.091712
-0.082975
-0.032297
-0.012268
0.042095
0.090935
0.144558
0.170442
0.199404
0.221908
0.221312
0.208587
0.182601
0.136166
0.092734
0.038114
-0.014977
-0.046282
-0.053675
-0.039337
-0.035538
-0.022070
-0.003031
0.027997
0.050466
0.106592
0.158474
0.184365
0.202176
0.209243
0.188172
0.188159
0.179792
0.152437
0.075461
0.005467
-0.035080
-0.019161
-0.041902
-0.072718
-0.058386
-0.047723
-0.024394
0.032235
0.091104
0.124838
0.178331
0.191928
0.202014
0.233561
0.209113
0.186779
0.153748
0.099576
0.030212
0.020164
0.010634
-0.041970
-0.073879
-0.091885
-0.085298
-0.068226
-0.037654
0.005372
0.045006
0.082721
0.104698
0.152998
0.190065
0.191674
0.177680
0.155328
0.109183
0.062967
0.022097
-0.031068
-0.074966
-0.103131
-0.125081
-0.134381
-0.127103
-0.124789
-0.096508
-0.051411
-0.009125
0.037435
0.070561
0.103707
0.127517
0.136644
0.121333
0.102814
0.103370
0.066650
-0.011274
-0.054117
-0.075658
-0.109775
-0.154716
-0.170840
-0.165344
-0.153312
-0.113996
-0.067412
-0.027276
0.008644
0.037779
0.079250
0.111991
0.124865
0.123390
0.094524
0.064198
0.014300
-0.066677
-0.081980
-0.109624
-0.149630
-0.171024
-0.178313
-0.162348
-0.151754
-0.125185
-0.093286
-0.045554
0.011392
0.048583
0.066919
0.084394
0.104305
0.103081
0.088494
0.066177
0.023577
-0.034031
-0.073022
-0.119516
-0.151617
-0.180323
-0.200570
-0.196488
-0.170673
-0.130193
-0.105571
-0.064769
-0.004168
0.046494
0.070335
0.083905
0.095842
0.072851
0.064969
0.036691
0.006578
-0.036212
-0.063531
-0.121573
-0.149884
-0.171094
-0.175349
-0.167229
-0.167735
-0.119085
-0.067648
-0.009401
0.022052
0.058477
0.106180
0.120315
0.116867
0.117677
0.115922
0.082167
0.038006
-0.014523
-0.064298
-0.110036
-0.149356
-0.175990
-0.191331
-0.189618
-0.157386
-0.119966
-0.077416
-0.013602
0.030662
0.060261
0.102209
0.110449
0.119002
0.104317
0.091329
0.068284
0.052418
0.017482
-0.031570
-0.067202
-0.114120
-0.155586
-0.166399
-0.147996
-0.119410
-0.108946
-0.077174
-0.039569
-0.031868
0.050948
0.103498
0.125988
0.129437
0.115281
0.102841
0.069100
0.022520
-0.045904
-0.105067
-0.115911
-0.143809
-0.144060
-0.156437
-0.156880
-0.133760
-0.102704
-0.073331
-0.030696
0.010057
0.042777
0.078762
0.105764
0.131129
0.115371
0.088214
0.047082
0.008051
-0.041416
-0.088275
-0.126135
-0.159776
-0.179223
-0.193277
-0.174029
-0.146326
-0.111942
-0.088374
-0.021229
0.026196
0.084837
0.108168
0.128711
0.160797
0.148024
0.104354
0.058995
0.023121
-0.010096
-0.047370
-0.114207
-0.157417
-0.184276
-0.180894
-0.165735
-0.157126
-0.133760
-0.091041
-0.042610
-0.013064
0.047856
0.096937
0.112249
0.132809
0.123828
0.075792
0.042408
0.000087
-0.037219
-0.072063
-0.106511
-0.155770
-0.184639
-0.187164
-0.193597
-0.172129
-0.139938
-0.089579
-0.057283
0.023359
0.066473
0.075663
0.098338
0.108105
0.104278
0.081595
0.042901
0.009464
-0.036379
-0.088864
-0.130696
-0.164093
-0.190003
-0.204506
-0.182735
-0.164278
-0.137916
-0.090942
-0.031911
0.001307
0.041204
0.076949
0.106782
0.107944
0.096553
0.070606
0.042616
-0.010321
-0.043449
-0.087487
-0.127256
-0.168042
-0.213388
-0.213742
-0.197288
-0.164884
-0.132812
-0.086014
-0.026350
0.018733
0.062345
0.096239
0.090014
0.105530
0.072141
0.060073
0.037240
0.007997
-0.039060
-0.082694
-0.117726
-0.166900
-0.186965
-0.189187
-0.188125
-0.167699
-0.111349
-0.082448
-0.043930
-0.001743
0.027557
0.077238
0.119336
0.130378
0.121384
0.100134
0.059717
0.003154
-0.037769
-0.065915
-0.099799
-0.135595
-0.155214
-0.185798
-0.173322
-0.144017
-0.102761
-0.065426
-0.028561
0.036966
0.062695
0.087267
0.108651
0.122123
0.139325
0.116465
0.085429
0.039591
-0.016554
-0.060085
-0.107855
-0.137914
-0.153032
-0.151679
-0.138070
-0.113767
-0.086119
-0.025347
0.021262
0.066710
0.083732
0.119731
0.154197
0.146973
0.155419
0.145689
0.119068
0.083210
0.026814
-0.029430
-0.077061
-0.115575
-0.137750
-0.152200
-0.148990
-0.148679
-0.101669
-0.042600
-0.001187
0.038478
0.051068
0.069124
0.112749
0.103224
0.106370
0.092472
0.051503
0.020376
-0.026645
-0.080914
-0.128489
-0.171809
-0.201290
-0.209560
-0.189226
-0.170920
-0.151525
-0.105383
-0.064111
-0.033327
0.014858
0.049875
0.081073
0.091843
0.074097
0.048106
0.021638
-0.011655
-0.055033
-0.092231
-0.139485
-0.178964
-0.219462
-0.229662
-0.226505
-0.201597
-0.168267
-0.135506
-0.099691
-0.038514
0.015625
0.059460
0.074534
0.050515
0.048861
0.025247
0.004177
-0.016838
-0.046643
-0.091449
-0.154545
-0.180801
-0.201531
-0.204130
-0.190429
-0.165616
-0.131100
-0.109951
-0.063969
-0.021227
0.024688
0.062134
0.089779
0.099994
0.080454
0.069139
0.033850
-0.000850
-0.047009
-0.099391
-0.138242
-0.185620
-0.221471
-0.225200
-0.220754
-0.195209
-0.162117
-0.106753
-0.062872
-0.037490
0.011089
0.060663
0.083744
0.084190
0.068787
0.052375
0.023415
-0.005120
-0.052051
-0.109748
-0.161276
-0.205977
-0.230862
-0.232921
-0.219551
-0.184991
-0.154143
-0.114191
-0.049558
-0.014877
0.031484
0.081262
0.100556
0.125928
0.154126
0.147892
0.139085
0.112813
0.069478
0.049305
0.019192
-0.003962
-0.016450
0.005785
0.042198
0.091909
0.175217
0.245542
0.334242
0.400752
0.457001
0.531804
0.575619
0.618245
0.651283
0.704538
0.705734
0.694003
0.663455
0.658448
0.640824
0.600231
0.565520
0.561725
0.574416
0.575848
0.596994
0.595175
0.599294
0.627991
0.570125
0.528182
0.499334
0.457724
0.394366
0.314792
0.234506
0.169858
0.117426
0.076032
-0.010233
-0.063596
-0.088714
-0.080566
-0.075726
-0.058027
-0.041112
-0.011950
0.026503
0.059494
0.099777
0.131737
0.166523
0.169763
0.166582
0.142382
0.101995
0.064800
0.005338
-0.048535
-0.100945
-0.132530
-0.155805
-0.183888
-0.159437
-0.143526
-0.122138
-0.093864
-0.035463
0.004652
0.047506
0.081013
0.105217
0.116687
0.113874
0.086783
0.042624
0.020091
-0.017775
-0.065310
-0.108583
-0.147003
-0.180516
-0.183212
-0.187779
-0.161107
-0.126143
-0.084430
-0.051344
0.005146
0.059991
0.085070
0.108785
0.096598
0.091817
0.073319
0.040742
0.013901
-0.026994
-0.063988
-0.112221
-0.136368
-0.165140
-0.168560
-0.157110
-0.132774
-0.112463
-0.077107
-0.038563
0.023562
0.068981
0.101547
0.128215
0.129915
0.123005
0.103657
0.064653
0.042057
-0.009029
-0.052708
-0.100621
-0.126009
-0.170881
-0.180830
-0.178574
-0.135222
-0.099290
-0.076702
-0.013856
0.048658
0.090975
0.118975
0.140561
0.143839
0.123651
0.118901
0.103237
0.076246
0.043418
-0.003501
-0.055566
-0.099111
-0.109194
-0.114319
-0.128026
-0.102351
-0.082278
-0.042330
0.030474
0.078793
0.116735
0.150357
0.172355
0.165934
0.159110
0.151901
0.114499
0.097910
0.052587
0.004226
-0.031389
-0.067367
-0.086942
-0.126711
-0.086137
-0.067060
-0.023301
0.017889
0.053503
0.098040
0.145245
0.201116
0.217779
0.220480
0.214752
0.193404
0.162973
0.134595
0.077189
0.030216
-0.014172
-0.037522
-0.060485
-0.058400
-0.043211
-0.025663
-0.010551
0.027933
0.084519
0.126130
0.160119
0.201793
0.218183
0.221175
0.196159
0.183039
0.161415
0.133750
0.080920
0.005818
-0.049947
-0.044392
-0.063664
-0.065442
-0.067091
-0.060033
-0.019033
0.039783
0.082266
0.114121
0.142866
0.174438
0.200697
0.201351
0.196246
0.166173
0.132207
0.100982
0.054399
0.004347
-0.045505
-0.084278
-0.097511
-0.091757
-0.091098
-0.070622
-0.041874
-0.006623
0.045234
0.085363
0.125764
0.165214
0.187446
0.178466
0.178098
0.153371
0.114268
0.079054
0.027921
-0.015621
-0.069174
-0.109648
-0.138426
-0.152172
-0.150469
-0.126452
-0.112464
-0.080434
-0.021706
0.031237
0.083713
0.111394
0.138915
0.144843
0.137245
0.112425
0.081227
0.037768
-0.019473
-0.061989
-0.098254
-0.152104
-0.147657
-0.141042
-0.139455
-0.145480
-0.124942
-0.097085
-0.049520
-0.009675
0.040257
0.085595
0.110257
0.103825
0.094208
0.097392
0.052847
-0.002222
-0.034425
-0.080950
-0.124512
-0.161754
-0.188813
-0.196327
-0.182827
-0.158523
-0.133229
-0.092404
-0.035453
-0.005637
0.049195
0.069533
0.086499
0.106359
0.091989
0.068452
0.044693
0.021187
-0.034469
-0.078970
-0.118288
-0.166337
-0.181937
-0.160840
-0.151399
-0.143244
-0.125625
-0.084550
-0.034193
0.021608
0.056044
0.089945
0.097815
0.115634
0.119768
0.082204
0.043955
0.006457
-0.031153
-0.072190
-0.128904
-0.164603
-0.172662
-0.190376
-0.180198
-0.142990
-0.109799
-0.080490
-0.034967
0.000819
0.054103
0.089780
0.100506
0.110770
0.105637
0.086984
0.051702
0.007863
-0.034473
-0.075770
-0.101404
-0.132618
-0.170319
-0.168383
-0.159675
-0.159579
-0.129632
-0.090420
-0.029041
0.000996
0.039525
0.085883
0.106785
0.109367
0.118663
0.097166
0.054280
0.018258
-0.032724
-0.082120
-0.122432
-0.165266
-0.198785
-0.197489
-0.193210
-0.167562
-0.145926
-0.107246
-0.058624
-0.007443
0.039415
0.069623
0.098809
0.138357
0.133415
0.103414
0.074053
0.033664
-0.023339
-0.072871
-0.115647
-0.153679
-0.164047
-0.178503
-0.168873
-0.155317
-0.130487
-0.088821
-0.037754
0.009352
0.043070
0.088203
0.096765
0.099459
0.092779
0.078406
0.041505
0.017905
-0.036972
-0.080664
-0.122791
-0.148004
-0.171215
-0.187261
-0.197334
-0.174130
-0.138173
-0.090218
-0.047017
-0.004452
0.029779
0.066125
0.096184
0.110621
0.100536
0.074221
0.045665
0.013291
-0.050521
-0.101756
-0.135354
-0.163167
-0.182347
-0.185411
-0.186933
-0.174664
-0.142915
-0.105625
-0.048713
-0.018788
0.033405
0.084573
0.099523
0.094664
0.083865
0.070012
0.029876
-0.009959
-0.059090
-0.093701
-0.135628
-0.160686
-0.182744
-0.211970
-0.211042
-0.192298
-0.138386
-0.098116
-0.063904
-0.014993
0.016677
0.056316
0.077478
0.090231
0.093094
0.070177
0.044496
0.001968
-0.037121
-0.087526
-0.145660
-0.175776
-0.196905
-0.212694
-0.207323
-0.186102
-0.171503
-0.129505
-0.084853
-0.048804
-0.018824
0.042181
0.085581
0.096848
0.076861
0.042605
-0.004011
-0.015811
-0.048204
-0.094488
-0.141946
-0.177060
-0.204776
-0.204496
-0.203546
-0.176419
-0.159570
-0.136849
-0.074354
-0.019345
-0.013178
0.038106
0.084310
0.082471
0.066859
0.042109
0.013740
-0.011705
-0.070710
-0.110364
-0.157913
-0.198751
-0.199877
-0.198504
-0.187123
-0.183727
-0.166117
-0.118859
-0.060763
-0.025451
0.013221
0.062810
0.084982
0.091217
0.085223
0.048319
0.019084
-0.016743
-0.061783
-0.109339
-0.151640
-0.184355
-0.206397
-0.217687
-0.220979
-0.189088
-0.156885
-0.133874
-0.075158
-0.031873
0.011828
0.051871
0.080334
0.094064
0.075955
0.056343
0.025455
0.010077
-0.039963
-0.118227
-0.166127
-0.201558
-0.215020
-0.217277
-0.181269
-0.165547
-0.144121
-0.126395
-0.073427
-0.019551
0.027760
0.051965
0.073653
0.088406
0.086888
0.063422
0.038180
0.006310
-0.023280
-0.069885
-0.112012
-0.168438
-0.192998
-0.189774
-0.169343
-0.139693
-0.113585
-0.077892
-0.027288
0.013015
0.049390
0.071650
0.096943
0.108640
0.098032
0.077808
0.030525
-0.025904
-0.058602
-0.080448
-0.119917
-0.159079
-0.165592
-0.154986
-0.136475
-0.109062
-0.078178
-0.039800
0.002833
0.041411
0.072847
0.108015
0.139742
0.135860
0.129391
0.125423
0.093084
0.043085
-0.003335
-0.049958
-0.092254
-0.139952
-0.178181
-0.178687
-0.176087
-0.156489
-0.116362
-0.068146
-0.027231
0.023726
0.059946
0.094277
0.106949
0.089619
0.088673
0.070033
0.046346
0.014589
-0.042032
-0.084468
-0.117704
-0.184033
-0.213971
-0.221216
-0.217464
-0.188113
-0.151251
-0.104518
-0.081566
-0.051363
0.002908
0.059805
0.084950
0.089794
0.074749
0.064555
0.044039
0.005093
-0.056342
-0.110732
-0.146792
-0.194599
-0.234163
-0.250259
-0.241856
-0.217002
-0.175524
-0.135359
-0.085284
-0.038566
-0.023366
0.007509
0.061499
0.080002
0.052906
0.033783
-0.004678
-0.055787
-0.107703
-0.140096
-0.179153
-0.198346
-0.201474
-0.234072
-0.232889
-0.214076
-0.182685
-0.147140
-0.099515
-0.053986
-0.015001
0.013661
0.033383
0.039425
0.029565
0.010760
-0.019568
-0.030460
-0.082919
-0.140338
-0.187737
-0.222783
-0.227856
-0.225224
-0.234098
-0.222629
-0.189133
-0.133556
-0.084513
-0.045606
-0.013058
0.022920
0.029819
0.036990
0.041750
0.038126
-0.007841
-0.048639
-0.095777
-0.147535
-0.174241
-0.215748
-0.243595
-0.256751
-0.257117
-0.225648
-0.173293
-0.138416
-0.086375
-0.031282
0.026803
0.075368
0.110076
0.126199
0.134501
0.126020
0.094431
0.077320
0.038505
0.008880
-0.019731
-0.037115
-0.041144
-0.031400
-0.015304
0.039660
0.099569
0.169313
0.253058
0.329782
0.410679
0.483679
0.529235
0.566907
0.574231
0.579415
0.606615
0.617923
0.623575
0.612057
0.605089
0.590472
0.585569
0.576188
0.564626
0.574723
0.579828
0.588008
0.612871
0.654092
0.653717
0.602070
0.535400
0.474534
0.443380
0.381913
0.295987
0.202436
0.111081
0.060324
0.008531
-0.035769
-0.045308
-0.069908
-0.078238
-0.069260
-0.056406
-0.031162
0.021796
0.059802
0.092241
0.118648
0.147782
0.157023
0.140498
0.118069
0.078038
0.037786
-0.006565
-0.068631
-0.100983
-0.135695
-0.148731
-0.164307
-0.167828
-0.151995
-0.125022
-0.088501
-0.055331
-0.013024
0.038993
0.074609
0.102853
0.116032
0.111410
0.083097
0.034938
-0.006321
-0.035093
-0.085590
-0.123596
-0.171837
-0.197132
-0.211674
-0.207968
-0.168605
-0.120703
-0.094731
-0.061840
-0.022500
0.026559
0.068987
0.117764
0.112783
0.085957
0.074937
0.037617
0.010146
-0.027557
-0.079846
-0.131031
-0.169729
-0.179518
-0.174440
-0.173873
-0.160958
-0.125732
-0.089841
-0.030444
0.016089
0.039469
0.071473
0.091286
0.126523
0.114940
0.090206
0.059103
0.027313
-0.019673
-0.055518
-0.102882
-0.156098
-0.185581
-0.191020
-0.170641
-0.138478
-0.085729
-0.050969
-0.013171
0.017269
0.056331
0.098743
0.121592
0.132524
0.139324
0.122497
0.099004
0.047559
0.016835
-0.024470
-0.079411
-0.111528
-0.110363
-0.108563
-0.112385
-0.095296
-0.060951
-0.019387
0.020931
0.069148
0.107766
0.150363
0.184486
0.191982
0.185743
0.151053
0.121505
0.089426
0.027912
-0.011404
-0.036948
-0.071261
-0.093380
-0.103902
-0.080240
-0.069678
-0.041303
0.002964
0.056998
0.115734
0.163093
0.197013
0.205042
0.194623
0.182841
0.147021
0.144567
0.106859
0.064643
0.008544
-0.028479
-0.063983
-0.079788
-0.089840
-0.066167
-0.035625
-0.008619
0.039541
0.096863
0.129984
0.161533
0.200617
0.224694
0.235280
0.223621
0.201234
0.173851
0.125944
0.074899
0.027759
-0.019652
-0.067238
-0.078772
-0.075588
-0.065426
-0.036752
-0.020105
0.009472
0.068295
0.122102
0.149858
0.177776
0.188190
0.195127
0.199973
0.175162
0.121971
0.096316
0.062020
0.023402
-0.022311
-0.081166
-0.115106
-0.121792
-0.118350
-0.097974
-0.074008
-0.038807
0.026067
0.097258
0.086200
0.148724
0.156804
0.169094
0.165662
0.152977
0.119474
0.066478
0.010097
-0.021895
-0.040449
-0.093299
-0.142026
-0.158102
-0.122968
-0.103485
-0.084045
-0.041375
0.011332
0.040533
0.074940
0.123471
0.141417
0.134274
0.118055
0.088583
0.049461
0.023478
-0.017175
-0.053904
-0.113490
-0.157367
-0.185613
-0.190360
-0.174973
-0.146385
-0.113833
-0.085074
-0.041029
0.000811
0.033768
0.074137
0.091351
0.096387
0.080309
0.046588
0.008990
-0.014212
-0.053196
-0.091936
-0.129210
-0.157636
-0.182871
-0.215060
-0.210672
-0.189735
-0.158975
-0.131843
-0.083766
-0.051432
-0.009816
0.039342
0.076532
0.084423
0.077153
0.025144
0.020770
0.012334
-0.026424
-0.081465
-0.132325
-0.179981
-0.197296
-0.211176
-0.191687
-0.156277
-0.133081
-0.107937
-0.069272
-0.027623
0.021102
0.067239
0.109374
0.138869
0.111900
0.074614
0.034501
-0.003892
-0.058583
-0.098437
-0.133266
-0.167113
-0.191985
-0.182034
-0.176330
-0.165487
-0.137857
-0.097181
-0.049804
-0.016290
0.017216
0.063059
0.077976
0.088896
0.079286
0.061619
0.021344
-0.010800
-0.034411
-0.082222
-0.117616
-0.141748
-0.165833
-0.186822
-0.204274
-0.171940
-0.135407
-0.107682
-0.060484
-0.005189
0.024762
0.058697
0.090619
0.102320
0.091019
0.060400
0.022858
-0.009573
-0.063965
-0.116451
-0.165984
-0.200989
-0.214379
-0.208182
-0.181877
-0.152836
-0.117705
-0.096801
-0.032068
0.024340
0.063194
0.092821
0.102139
0.104088
0.095502
0.099693
0.073820
0.029530
-0.041657
-0.079328
-0.120651
-0.159329
-0.188039
-0.209486
-0.191513
-0.171280
-0.136855
-0.096204
-0.036163
0.013241
0.039708
0.071363
0.099694
0.121865
0.117417
0.097346
0.056220
0.005736
-0.033572
-0.070976
-0.116227
-0.164713
-0.193137
-0.209211
-0.195740
-0.170277
-0.135577
-0.098578
-0.059643
-0.009653
0.028603
0.071915
0.095051
0.108921
0.096186
0.075904
0.037730
-0.000873
-0.061379
-0.107194
-0.141922
-0.170298
-0.197353
-0.203085
-0.197927
-0.177560
-0.147404
-0.112778
-0.063414
-0.010865
0.041518
0.074115
0.105929
0.086658
0.091987
0.093005
0.059801
0.015440
-0.030250
-0.080586
-0.127666
-0.158403
-0.188750
-0.196615
-0.174567
-0.156045
-0.118862
-0.086239
-0.059875
-0.030969
0.019481
0.055040
0.073735
0.099382
0.081300
0.044414
0.011404
-0.018665
-0.057070
-0.087360
-0.143130
-0.179497
-0.186084
-0.197243
-0.190646
-0.185115
-0.177366
-0.126144
-0.091514
-0.026731
0.030762
0.057495
0.082202
0.106361
0.119491
0.086980
0.034864
-0.014125
-0.062733
-0.100763
-0.133820
-0.164375
-0.188629
-0.217759
-0.215797
-0.185501
-0.154227
-0.107263
-0.078235
-0.025458
0.027955
0.053066
0.062329
0.075506
0.074922
0.034713
0.002355
-0.041860
-0.062247
-0.112690
-0.184960
-0.194915
-0.200762
-0.219827
-0.205520
-0.200195
-0.160025
-0.113192
-0.073202
-0.034657
0.009847
0.056108
0.080924
0.099491
0.083345
0.049537
0.016492
-0.018223
-0.073005
-0.128158
-0.166163
-0.186618
-0.188630
-0.196599
-0.198262
-0.176350
-0.134021
-0.110019
-0.072605
-0.025470
0.013644
0.051895
0.077379
0.096254
0.076454
0.063541
0.033460
-0.002433
-0.031192
-0.095640
-0.154224
-0.194394
-0.205717
-0.227360
-0.221221
-0.189966
-0.166959
-0.118881
-0.069822
-0.016860
0.015006
0.046574
0.069534
0.079235
0.073761
0.056677
0.013409
-0.025319
-0.073192
-0.110660
-0.143166
-0.189056
-0.214938
-0.212832
-0.211183
-0.193041
-0.155966
-0.125748
-0.081742
-0.042989
0.006307
0.055737
0.070766
0.087260
0.081284
0.056851
0.008654
-0.047719
-0.073522
-0.116817
-0.160687
-0.200957
-0.223893
-0.212242
-0.186064
-0.168307
-0.137439
-0.102071
-0.046945
-0.003162
0.034966
0.083420
0.098518
0.096916
0.107798
0.096967
0.064368
0.006766
-0.042459
-0.075690
-0.095556
-0.125697
-0.135868
-0.145343
-0.150201
-0.129989
-0.101282
-0.091692
-0.037794
0.005058
0.038920
0.079199
0.105156
0.097865
0.093421
0.081382
0.057821
0.050788
0.022172
-0.044805
-0.094991
-0.123853
-0.140613
-0.137794
-0.134898
-0.105510
-0.102926
-0.070574
-0.004041
0.046721
0.085202
0.107481
0.119508
0.106201
0.102981
0.085170
0.049765
-0.013772
-0.052016
-0.085482
-0.136036
-0.178229
-0.192973
-0.189827
-0.181062
-0.159994
-0.120802
-0.076023
-0.034403
-0.005207
0.026088
0.058939
0.098007
0.108786
0.077466
0.035818
0.001843
-0.014294
-0.063424
-0.121080
-0.173226
-0.202467
-0.213025
-0.214958
-0.211140
-0.192390
-0.148193
-0.111203
-0.065870
-0.002531
0.024522
0.063291
0.084182
0.087499
0.051008
0.044704
0.021251
-0.025781
-0.086962
-0.134869
-0.168490
-0.202655
-0.212070
-0.220997
-0.207802
-0.193202
-0.162287
-0.138301
-0.098479
-0.029113
0.020882
0.040062
0.062054
0.088046
0.072768
0.051706
0.013435
-0.028790
-0.069063
-0.120564
-0.151441
-0.178599
-0.217256
-0.226427
-0.223865
-0.204666
-0.173477
-0.141587
-0.114167
-0.068817
-0.029538
0.020373
0.057766
0.077239
0.080520
0.025230
-0.020713
-0.016848
-0.053968
-0.082463
-0.146327
-0.200180
-0.198554
-0.202340
-0.221215
-0.194699
-0.181179
-0.129055
-0.057686
-0.023873
0.008943
0.051903
0.068097
0.085374
0.077736
0.048305
0.014818
-0.040854
-0.090169
-0.134806
-0.175991
-0.201767
-0.210480
-0.200846
-0.177767
-0.158673
-0.140209
-0.101518
-0.027162
0.041341
0.096589
0.156969
0.201042
0.207455
0.202730
0.202873
0.185631
0.162787
0.139424
0.120445
0.114962
0.128285
0.144600
0.175166
0.220000
0.280011
0.345881
0.415428
0.494543
0.600010
0.688257
0.755683
0.796858
0.837599
0.873765
0.886216
0.857372
0.822615
0.758369
0.703314
0.619032
0.571964
0.571099
0.510851
0.402759
0.371144
0.348464
0.302681
0.309701
0.318256
0.319543
0.288559
0.283955
0.280403
0.249481
0.218212
0.159048
0.155978
0.091454
0.039630
-0.006445
-0.041934
-0.083788
-0.098188
-0.107853
-0.105811
-0.086492
-0.058232
-0.004441
0.041422
0.082806
0.116472
0.129356
0.120375
0.112971
0.093211
0.038961
0.037563
-0.020930
-0.073609
-0.126998
-0.168185
-0.180412
-0.194249
-0.175223
-0.146314
-0.112025
-0.092818
-0.040563
-0.001309
0.054396
0.080892
0.095511
0.116807
0.115923
0.087834
0.061681
0.015192
-0.033429
-0.086510
-0.145784
-0.179654
-0.202585
-0.209614
-0.202951
-0.165442
-0.119514
-0.080989
-0.037092
0.009817
0.063218
0.100885
0.115526
0.104839
0.108608
0.079929
0.061331
0.014883
-0.043489
-0.086127
-0.117164
-0.146486
-0.162539
-0.177351
-0.180646
-0.174175
-0.140755
-0.085212
-0.032606
0.000045
0.059964
0.089809
0.106603
0.121096
0.108212
0.094160
0.079140
0.043285
-0.004728
-0.049605
-0.080960
-0.126639
-0.142664
-0.154553
-0.168276
-0.137252
-0.122545
-0.094763
-0.038458
0.020194
0.076243
0.120200
0.145446
0.154379
0.160952
0.144855
0.105589
0.069962
0.029081
-0.022382
-0.062342
-0.097979
-0.117284
-0.119381
-0.115275
-0.094767
-0.060292
-0.023520
0.009828
0.061729
0.120494
0.154130
0.179228
0.193638
0.184626
0.167411
0.129905
0.090562
0.052315
0.002411
-0.047909
-0.065651
-0.076518
-0.096234
-0.085509
-0.057029
-0.038625
-0.013520
0.017263
0.065024
0.118304
0.178550
0.226133
0.237799
0.225008
0.198765
0.163117
0.142159
0.079039
0.017849
0.005413
-0.039755
-0.068432
-0.080333
-0.046195
-0.031502
-0.007586
0.001487
0.041185
0.103625
0.150155
0.190402
0.208172
0.193422
0.193849
0.203593
0.169502
0.126243
0.079439
0.033915
-0.017229
-0.061616
-0.086428
-0.111591
-0.107601
-0.072661
-0.032296
0.008970
0.051550
0.106195
0.146403
0.177946
0.203633
0.200016
0.190926
0.169584
0.152273
0.118911
0.062872
0.018727
-0.027943
-0.066683
-0.089477
-0.111822
-0.104514
-0.089860
-0.064618
-0.027873
0.029979
0.066717
0.090628
0.128975
0.142862
0.176323
0.161457
0.123207
0.122582
0.045811
-0.009491
-0.039097
-0.079441
-0.122069
-0.146203
-0.154573
-0.154071
-0.143627
-0.105712
-0.068079
-0.009729
0.034246
0.067894
0.089737
0.109573
0.119729
0.111471
0.096647
0.061109
0.016841
-0.044005
-0.066391
-0.106427
-0.161573
-0.197468
-0.193341
-0.196824
-0.178070
-0.133380
-0.086049
-0.062271
-0.035297
0.016400
0.065169
0.089792
0.103174
0.111399
0.080259
0.030993
-0.026157
-0.084230
-0.128921
-0.142257
-0.162690
-0.204596
-0.220640
-0.210622
-0.175987
-0.128078
-0.111243
-0.072157
0.029720
0.086602
0.093587
0.111548
0.109811
0.105465
0.106844
0.066462
0.004999
-0.048139
-0.090629
-0.116009
-0.173085
-0.206089
-0.208762
-0.198359
-0.157776
-0.118344
-0.093485
-0.044547
0.001730
0.032164
0.070358
0.100862
0.100239
0.091659
0.079800
0.047093
0.006127
-0.047766
-0.078700
-0.102253
-0.154870
-0.165839
-0.158287
-0.156226
-0.166984
-0.124882
-0.070393
-0.008275
0.007943
0.029174
0.063295
0.100408
0.102640
0.093848
0.097136
0.055751
-0.008194
-0.058854
-0.078764
-0.105951
-0.140773
-0.162505
-0.190031
-0.183057
-0.186417
-0.181081
-0.098832
-0.010191
0.036079
0.078464
0.107610
0.094533
0.073070
0.057657
0.023476
0.020772
0.026991
-0.002948
-0.051180
-0.103162
-0.141205
-0.167205
-0.188385
-0.195781
-0.175864
-0.145453
-0.105037
-0.068303
-0.012320
0.034457
0.096086
0.115819
0.114937
0.104922
0.086059
0.053324
0.020296
-0.032972
-0.078317
-0.110966
-0.149799
-0.177130
-0.212694
-0.207559
-0.180683
-0.104610
-0.077351
-0.020790
-0.004127
0.027979
0.073952
0.120255
0.118827
0.107212
0.099983
0.061750
0.002075
-0.065407
-0.099090
-0.128794
-0.176406
-0.206305
-0.219461
-0.201138
-0.174861
-0.127244
-0.098107
-0.056091
-0.027094
0.023090
0.057856
0.062676
0.081118
0.082377
0.076708
0.046676
0.005025
-0.041837
-0.077739
-0.124048
-0.158955
-0.168469
-0.189952
-0.185901
-0.168660
-0.138420
-0.108214
-0.058151
-0.022654
0.007999
0.049180
0.068097
0.073861
0.072531
0.067607
0.017748
-0.023793
-0.065267
-0.109431
-0.143563
-0.168578
-0.181960
-0.195692
-0.191969
-0.176295
-0.145450
-0.104010
-0.055818
-0.019340
0.017173
0.057762
0.065439
0.078584
0.076161
0.051231
0.020786
-0.019719
-0.064351
-0.111762
-0.145980
-0.196325
-0.229510
-0.247246
-0.236266
-0.196026
-0.158488
-0.117751
-0.060038
-0.018753
0.001872
0.035198
0.067976
0.071444
0.084112
0.061014
0.017966
-0.024814
-0.067267
-0.104240
-0.142984
-0.178676
-0.206875
-0.221462
-0.223082
-0.190311
-0.163853
-0.133057
-0.069589
-0.002912
0.031240
0.061262
0.075712
0.085135
0.085674
0.073869
0.023904
-0.019597
-0.082656
-0.138339
-0.158987
-0.204313
-0.233151
-0.229841
-0.227309
-0.206502
-0.158738
-0.107957
-0.087798
-0.026290
0.014950
0.046888
0.081767
0.095975
0.086543
0.065173
0.024219
-0.021861
-0.068050
-0.103746
-0.132946
-0.159147
-0.210486
-0.232726
-0.207165
-0.197334
-0.191190
-0.167109
-0.109080
-0.041967
0.012031
0.037796
0.062819
0.057478
0.055658
0.044583
-0.001432
-0.019722
-0.066092
-0.111828
-0.154809
-0.190936
-0.208236
-0.230489
-0.188312
-0.179428
-0.133081
-0.105524
-0.070841
-0.028112
0.015685
0.039585
0.064818
0.070606
0.065123
0.041335
0.003381
-0.038307
-0.090986
-0.100152
-0.146908
-0.180812
-0.218686
-0.216933
-0.190185
-0.167684
-0.139224
-0.096493
-0.061242
-0.001906
0.041895
0.081874
0.094258
0.094991
0.090133
0.086263
0.059045
0.018323
-0.035966
-0.086352
-0.137445
-0.185798
-0.183597
-0.186573
-0.161782
-0.142815
-0.116221
-0.093280
-0.030116
0.017408
0.028338
0.054710
0.109522
0.131400
0.118722
0.110830
0.081540
0.059330
0.011094
-0.033973
-0.064391
-0.096847
-0.144713
-0.177307
-0.181212
-0.109778
-0.091290
-0.084517
-0.046781
0.018766
0.080476
0.110621
0.117687
0.114131
0.110594
0.086676
0.057480
0.011448
-0.038182
-0.093125
-0.129463
-0.152769
-0.184009
-0.196634
-0.168750
-0.167283
-0.134630
-0.098131
-0.052467
-0.023391
0.002283
0.037321
0.065900
0.084529
0.076017
0.063414
0.038945
-0.024963
-0.055094
-0.098604
-0.132645
-0.167549
-0.199942
-0.194166
-0.193114
-0.209735
-0.190250
-0.149756
-0.070413
-0.015474
0.004900
0.027877
0.038109
0.051192
0.030657
0.006714
-0.026433
-0.046956
-0.090212
-0.137815
-0.166452
-0.200080
-0.230503
-0.245151
-0.222191
-0.196263
-0.182877
-0.155456
-0.105013
-0.035249
0.007113
0.022911
0.037251
0.053439
0.042157
0.023828
-0.002729
-0.052680
-0.098605
-0.164930
-0.204750
-0.216984
-0.232600
-0.253128
-0.246049
-0.229294
-0.196436
-0.124749
-0.082673
-0.048116
-0.002984
0.018466
0.023008
0.039053
0.044895
0.020099
-0.009096
-0.022335
-0.062983
-0.116085
-0.147167
-0.200940
-0.242388
-0.283295
-0.276661
-0.246227
-0.195139
-0.154204
-0.098105
-0.070382
-0.036615
-0.006477
0.014005
0.048392
0.055470
0.027611
0.003698
-0.051071
-0.113048
-0.169373
-0.182283
-0.203645
-0.210517
-0.202327
-0.193508
-0.164143
-0.118972
-0.058230
0.010969
0.078925
0.118479
0.149426
0.183487
0.238234
0.249650
0.239591
0.232046
0.228680
0.216379
0.201100
0.183207
0.167641
0.169745
0.235676
0.271389
0.301348
0.352521
0.440725
0.549078
0.622943
0.698123
0.764578
0.802342
0.831637
0.832899
0.825067
0.791105
0.732925
0.643391
0.560714
0.510470
0.449872
0.369214
0.266918
0.207905
0.200849
0.175081
0.173994
0.177879
0.199000
0.210200
0.221718
0.220115
0.214441
0.211252
0.189465
0.134537
0.081897
0.042127
-0.019304
-0.062214
-0.091863
-0.124950
-0.158679
-0.154109
-0.105241
-0.085914
-0.049086
-0.024705
0.017149
0.064229
0.097784
0.123181
0.125248
0.105903
0.073137
0.043602
0.000630
-0.052885
-0.098108
-0.151689
-0.186764
-0.189632
-0.185649
-0.174354
-0.163900
-0.164984
-0.110830
-0.035719
0.041479
0.067459
0.078414
0.090654
0.108624
0.103584
0.080105
0.035572
-0.008573
-0.062797
-0.091427
-0.143494
-0.172555
-0.192593
-0.221309
-0.213857
-0.176908
-0.140429
-0.107046
-0.073921
-0.019214
0.022375
0.064214
0.083525
0.087378
0.084614
0.060997
0.032105
-0.009530
-0.056734
-0.091946
-0.114406
-0.134844
-0.158277
-0.179339
-0.175484
-0.166831
-0.131970
-0.086227
-0.048303
-0.005681
0.050087
0.089469
0.108457
0.124755
0.133823
0.109986
0.073682
0.023841
-0.028076
-0.057817
-0.100422
-0.135526
-0.164854
-0.170499
-0.152582
-0.140538
-0.111366
-0.054089
-0.006548
0.030297
0.061871
0.110627
0.128870
0.157163
0.156578
0.130168
0.082684
0.068772
0.016279
-0.027036
-0.072098
-0.095879
-0.109957
-0.124311
-0.105681
-0.072266
-0.034486
0.004588
0.042458
0.075249
0.105201
0.137346
0.161894
0.180065
0.204933
0.157363
0.105271
0.062956
0.016775
-0.021382
-0.042461
-0.072848
-0.072073
-0.085338
-0.082494
-0.077809
-0.030322
0.018026
0.049693
0.110510
0.170624
0.198611
0.196183
0.199255
0.202194
0.185246
0.147385
0.115890
0.067628
0.029526
-0.012632
-0.046941
-0.059745
-0.069356
-0.064185
-0.053634
-0.018152
0.031932
0.077151
0.117893
0.168366
0.205689
0.227380
0.217535
0.221352
0.207625
0.158010
0.114239
0.084297
0.039759
0.012471
-0.026225
-0.065616
-0.099509
-0.100716
-0.071771
-0.028185
-0.002367
0.034299
0.071017
0.137817
0.183568
0.191419
0.188880
0.175300
0.158064
0.131370
0.095499
0.048273
-0.002283
-0.056266
-0.080427
-0.103793
-0.123294
-0.104643
-0.087834
-0.073800
-0.035166
0.003282
0.058158
0.088492
0.107862
0.128789
0.167320
0.148841
0.122351
0.098297
0.044460
-0.019222
-0.074647
-0.122392
-0.139933
-0.151745
-0.158943
-0.146236
-0.133351
-0.115059
-0.071868
-0.017794
0.009173
0.066353
0.106196
0.110683
0.095570
0.083995
0.070098
0.032051
0.003217
-0.052371
-0.089150
-0.119420
-0.156194
-0.192314
-0.220437
-0.219397
-0.189084
-0.130395
-0.081954
-0.035673
0.005783
0.033929
0.075312
0.102727
0.085383
0.067137
0.047042
0.029813
-0.002625
-0.051741
-0.102750
-0.142096
-0.169763
-0.195148
-0.198786
-0.189523
-0.187298
-0.153579
-0.119353
-0.057660
0.002659
0.034997
0.068731
0.084901
0.096529
0.099210
0.077629
0.036604
-0.003642
-0.050815
-0.097259
-0.130490
-0.167264
-0.184962
-0.198834
-0.216151
-0.183577
-0.151108
-0.113721
-0.057474
-0.021232
0.025478
0.074007
0.087340
0.097041
0.088805
0.057449
0.031090
-0.006396
-0.053033
-0.085270
-0.136206
-0.188698
-0.193213
-0.179172
-0.153805
-0.138883
-0.125669
-0.089113
-0.051480
-0.018720
0.020009
0.063082
0.089361
0.093796
0.090554
0.073266
0.020359
-0.039582
-0.080439
-0.102654
-0.132258
-0.167442
-0.173153
-0.173069
-0.187192
-0.173483
-0.117452
-0.075322
-0.029128
0.015317
0.044985
0.076280
0.093972
0.121896
0.102904
0.072537
0.026370
0.005183
-0.037033
-0.088545
-0.127007
-0.157110
-0.194508
-0.198655
-0.181279
-0.168242
-0.138892
-0.088471
-0.043189
0.000349
0.032359
0.067219
0.102383
0.109483
0.108061
0.081623
0.040787
-0.002432
-0.045991
-0.092382
-0.141059
-0.167831
-0.202203
-0.226385
-0.222781
-0.186243
-0.138019
-0.083405
-0.041444
-0.002424
0.019650
0.058772
0.092821
0.113744
0.106334
0.084291
0.046254
0.030260
-0.018574
-0.074175
-0.127704
-0.158032
-0.163584
-0.186810
-0.176818
-0.173672
-0.148035
-0.099387
-0.048713
-0.019409
0.010997
0.058197
0.103476
0.118711
0.104000
0.064384
0.008022
-0.025076
-0.074658
-0.125795
-0.135947
-0.146563
-0.172771
-0.192944
-0.174810
-0.155254
-0.130526
-0.110998
-0.051686
-0.013773
0.001297
0.051258
0.092306
0.087140
0.080504
0.061169
0.034678
-0.014897
-0.057726
-0.113162
-0.169204
-0.204469
-0.209174
-0.219952
-0.203980
-0.174804
-0.134636
-0.098043
-0.064810
-0.018165
0.035759
0.065043
0.088351
0.102565
0.077904
0.055255
0.029775
-0.033799
-0.086011
-0.127311
-0.158477
-0.184064
-0.206900
-0.218641
-0.211644
-0.177121
-0.142824
-0.103062
-0.036998
0.003950
0.040080
0.059913
0.081238
0.084051
0.101099
0.070169
0.031735
0.000646
-0.042127
-0.099403
-0.142047
-0.170857
-0.187904
-0.194436
-0.203294
-0.186762
-0.151625
-0.103054
-0.055162
-0.006906
0.027913
0.066097
0.086453
0.090173
0.086268
0.056718
0.037876
0.016073
-0.027824
-0.075612
-0.131255
-0.181498
-0.191492
-0.210566
-0.192886
-0.175426
-0.147980
-0.111034
-0.065667
-0.012210
0.023484
0.051584
0.073890
0.087601
0.075494
0.059474
0.024556
-0.002695
-0.050338
-0.109246
-0.159487
-0.187227
-0.196168
-0.194632
-0.197516
-0.183887
-0.139576
-0.128249
-0.086951
-0.023759
0.040794
0.058084
0.075083
0.086783
0.081783
0.072659
0.030596
-0.007313
-0.045280
-0.082030
-0.136487
-0.176329
-0.199488
-0.195792
-0.199814
-0.167830
-0.148336
-0.106491
-0.070332
-0.018147
0.027017
0.076832
0.073534
0.068005
0.081875
0.068711
0.027906
-0.018049
-0.068560
-0.112929
-0.126730
-0.167508
-0.195211
-0.199290
-0.170510
-0.160737
-0.124282
-0.095661
-0.037852
0.018795
0.050555
0.089453
0.125755
0.112587
0.100981
0.106132
0.074687
0.023392
-0.035046
-0.082866
-0.123134
-0.150943
-0.170832
-0.182477
-0.180046
-0.159681
-0.136712
-0.100481
-0.045842
0.007144
0.047573
0.077702
0.092577
0.100118
0.099144
0.081031
0.059114
0.024872
-0.012234
-0.054760
-0.078262
-0.115734
-0.139233
-0.142590
-0.139616
-0.132289
-0.102880
-0.061504
-0.025525
0.024926
0.067200
0.095633
0.112559
0.111434
0.104562
0.103290
0.067638
0.023726
-0.010734
-0.052279
-0.100350
-0.143575
-0.169177
-0.180130
-0.179335
-0.171960
-0.151302
-0.101598
-0.049096
-0.016236
0.032001
0.072308
0.102268
0.108889
0.094321
0.057786
0.017922
-0.009460
-0.039819
-0.078848
-0.126569
-0.156498
-0.175594
-0.203783
-0.210892
-0.210432
-0.187224
-0.135342
-0.094594
-0.033006
-0.002681
0.029395
0.056899
0.058544
0.065966
0.045784
0.001950
-0.034656
-0.082580
-0.132622
-0.181551
-0.212645
-0.237753
-0.239392
-0.217576
-0.191499
-0.167070
-0.127126
-0.090483
-0.046892
0.010190
0.036809
0.055509
0.064983
0.060593
0.041884
-0.003002
-0.055186
-0.100888
-0.143332
-0.183287
-0.229257
-0.250957
-0.254174
-0.243376
-0.215395
-0.175019
-0.145165
-0.090987
-0.029999
0.020163
0.032547
0.036229
0.050499
0.064654
0.059201
0.028514
-0.019454
-0.069906
-0.114286
-0.161101
-0.214584
-0.232702
-0.228498
-0.234082
-0.225441
-0.188121
-0.153993
-0.098228
-0.050051
-0.013842
0.029228
0.039030
0.048097
0.051155
0.017906
-0.045342
-0.063853
-0.095749
-0.141617
-0.181816
-0.200729
-0.215606
-0.212341
-0.208913
-0.187942
-0.139719
-0.085672
-0.018621
0.034935
0.083288
0.122914
0.184639
0.215517
0.192020
0.196924
0.198293
0.174463
0.156715
0.136671
0.116146
0.107247
0.120064
0.155844
0.189384
0.238151
0.296038
0.352481
0.422230
0.514829
0.600532
0.658035
0.721514
0.765771
0.819936
0.824276
0.807827
0.753175
0.705342
0.633700
0.573769
0.529378
0.478605
0.435770
0.408442
0.361132
0.324066
0.291930
0.297388
0.304308
0.294994
0.284405
0.271540
0.251127
0.229119
0.198138
0.148963
0.095426
0.051757
-0.009283
-0.055880
-0.095668
-0.117113
-0.142881
-0.142359
-0.121168
-0.090343
-0.046373
-0.006796
0.033681
0.064945
0.096656
0.117179
0.133522
0.117838
0.096717
0.056324
0.016259
-0.027405
-0.062290
-0.098590
-0.143376
-0.167400
-0.176319
-0.187642
-0.174013
-0.155582
-0.100518
-0.038336
-0.002719
0.033863
0.068154
0.094386
0.095425
0.103380
0.060497
0.030638
-0.002885
-0.029637
-0.070078
-0.130434
-0.166736
-0.172934
-0.195982
-0.183264
-0.164609
-0.126145
-0.087904
-0.044189
-0.004506
0.056227
0.077167
0.088050
0.091548
0.083052
0.065088
0.046556
0.032774
-0.003751
-0.051801
-0.106988
-0.142886
-0.161735
-0.162063
-0.147653
-0.133420
-0.100030
-0.072201
-0.029861
0.002886
0.051234
0.099664
0.113040
0.122515
0.121720
0.092594
0.066396
0.035880
-0.016328
-0.077304
-0.116230
-0.145393
-0.156555
-0.154080
-0.139447
-0.125227
-0.088360
-0.040610
0.006867
0.067897
0.106567
0.141095
0.168710
0.160830
0.148967
0.115776
0.077110
0.069773
0.022261
-0.025729
-0.068330
-0.091805
-0.111770
-0.120900
-0.122750
-0.098061
-0.065153
-0.030337
0.006793
0.047164
0.097986
0.149828
0.166960
0.185318
0.186042
0.167931
0.141270
0.100648
0.061797
-0.011379
-0.064183
-0.112047
-0.112823
-0.102196
-0.087323
-0.059547
-0.034414
-0.000849
0.042035
0.085924
0.125485
0.169737
0.210264
0.223966
0.226399
0.202685
0.165597
0.115137
0.068919
0.036350
-0.008251
-0.047790
-0.052195
-0.066739
-0.074169
-0.050629
-0.022231
0.030185
0.066275
0.108759
0.165004
0.201530
0.205243
0.221125
0.207627
0.178376
0.153456
0.117466
0.057402
0.026816
-0.007753
-0.045015
-0.069447
-0.081721
-0.079589
-0.068162
-0.040319
-0.003477
0.028218
0.086632
0.138227
0.181084
0.214542
0.220212
0.206826
0.176663
0.125846
0.086493
0.052498
0.002782
-0.040157
-0.080434
-0.099081
-0.114429
-0.116403
-0.107509
-0.070905
-0.041754
0.005144
0.052795
0.107622
0.144317
0.179927
0.175623
0.157228
0.128071
0.096505
0.047163
0.013860
-0.033734
-0.076500
-0.123783
-0.147571
-0.159668
-0.150140
-0.124415
-0.083253
-0.053816
-0.008540
0.034324
0.062912
0.095357
0.118109
0.127849
0.113169
0.083410
0.059726
0.041341
-0.007462
-0.061759
-0.110284
-0.149144
-0.167229
-0.179519
-0.170627
-0.163663
-0.131284
-0.089332
-0.058367
-0.012723
0.013866
0.035285
0.060329
0.089855
0.099544
0.078815
0.046835
-0.005855
-0.046836
-0.076225
-0.123037
-0.167491
-0.198198
-0.192763
-0.186445
-0.168765
-0.140312
-0.121173
-0.070196
-0.013442
0.011166
0.034124
0.067973
0.078328
0.071238
0.049949
0.011971
-0.012866
-0.047251
-0.108531
-0.143596
-0.180957
-0.210379
-0.223676
-0.196044
-0.174600
-0.134480
-0.088741
-0.038131
0.013316
0.035588
0.078178
0.098464
0.087194
0.074496
0.056518
0.030694
-0.004102
-0.056894
-0.108399
-0.156550
-0.172585
-0.189174
-0.209264
-0.196604
-0.165090
-0.123157
-0.091789
-0.056874
0.009167
0.043774
0.073243
0.089758
0.106831
0.108548
0.079403
0.031587
-0.002183
-0.043643
-0.086185
-0.141595
-0.188649
-0.195947
-0.191296
-0.188965
-0.167356
-0.143208
-0.082803
-0.031150
0.014892
0.049533
0.079156
0.098753
0.110310
0.114313
0.082322
0.038417
0.011421
-0.035496
-0.074468
-0.117307
-0.161428
-0.175439
-0.171243
-0.157559
-0.117652
-0.108973
-0.084044
-0.048388
0.016193
0.052969
0.080911
0.092749
0.118404
0.120241
0.112419
0.082328
0.035548
-0.011847
-0.070187
-0.119974
-0.149908
-0.170901
-0.184777
-0.176000
-0.160342
-0.126196
-0.071725
-0.020940
0.015135
0.054776
0.084642
0.115069
0.123002
0.113958
0.086609
0.044854
0.001059
-0.052444
-0.084421
-0.126904
-0.154064
-0.176843
-0.174557
-0.176530
-0.150489
-0.121870
-0.086760
-0.045794
0.006411
0.040375
0.061658
0.081618
0.088625
0.081475
0.062389
0.028692
-0.007734
-0.045075
-0.085610
-0.119004
-0.155497
-0.169474
-0.183093
-0.181148
-0.163903
-0.132022
-0.094580
-0.049717
-0.003004
0.048899
0.061269
0.092486
0.082048
0.077484
0.074799
0.057549
0.052327
-0.014082
-0.054695
-0.107356
-0.150538
-0.188390
-0.201238
-0.215035
-0.196774
-0.146840
-0.097584
-0.062844
-0.025274
0.020375
0.053551
0.074974
0.086947
0.088308
0.068805
0.031047
-0.021525
-0.058751
-0.098353
-0.135632
-0.178572
-0.204190
-0.209631
-0.206432
-0.181042
-0.149309
-0.122509
-0.080961
-0.017735
0.012280
0.045507
0.076717
0.088156
0.068869
0.038993
0.027191
-0.013463
-0.053359
-0.089273
-0.124600
-0.165150
-0.199045
-0.215980
-0.204511
-0.182846
-0.151511
-0.133630
-0.079729
-0.019774
0.018294
0.050271
0.074716
0.084374
0.077129
0.055068
0.028820
-0.004963
-0.044319
-0.097896
-0.151967
-0.194924
-0.210650
-0.203727
-0.202575
-0.182168
-0.137311
-0.095305
-0.059353
-0.022921
0.018294
0.042692
0.077825
0.093328
0.091667
0.061712
0.025001
-0.011553
-0.055267
-0.110081
-0.168298
-0.184879
-0.208105
-0.217292
-0.203043
-0.171492
-0.156210
-0.106272
-0.079444
-0.029270
0.021757
0.054545
0.068273
0.087728
0.073848
0.052392
0.033240
-0.005203
-0.055931
-0.120402
-0.153998
-0.187932
-0.194032
-0.223143
-0.218566
-0.193439
-0.172525
-0.123930
-0.068427
-0.008912
0.026493
0.061529
0.099114
0.107003
0.103862
0.076147
0.050493
0.013012
-0.033484
-0.073433
-0.105561
-0.147746
-0.172182
-0.182176
-0.174722
-0.148814
-0.113888
-0.059087
-0.020540
0.014199
0.046129
0.094301
0.108989
0.121193
0.127115
0.111342
0.065931
0.014004
-0.028921
-0.072489
-0.115086
-0.146094
-0.159897
-0.161064
-0.144754
-0.119862
-0.086083
-0.057520
-0.024835
0.029843
0.082375
0.115981
0.130781
0.140342
0.127145
0.111220
0.082094
0.029709
-0.007794
-0.047005
-0.089057
-0.148384
-0.162094
-0.171353
-0.173756
-0.149287
-0.129382
-0.079111
-0.027547
0.014789
0.049975
0.092867
0.112502
0.112734
0.103176
0.061311
0.033054
-0.004321
-0.033187
-0.083473
-0.129113
-0.174809
-0.198942
-0.207731
-0.217384
-0.185887
-0.158981
-0.125017
-0.070743
-0.014616
0.026191
0.050292
0.055362
0.055814
0.052504
0.052053
0.007761
-0.025093
-0.076008
-0.112619
-0.148852
-0.191514
-0.221653
-0.224536
-0.231651
-0.189574
-0.150075
-0.138408
-0.101804
-0.042460
0.004044
0.034366
0.057053
0.055904
0.046073
0.039549
-0.002639
-0.033917
-0.063667
-0.101754
-0.138927
-0.162656
-0.192021
-0.205220
-0.197412
-0.183112
-0.161218
-0.130903
-0.085959
-0.015512
0.033822
0.059845
0.072597
0.072687
0.067745
0.035453
0.005882
-0.036121
-0.078768
-0.120629
-0.165775
-0.202681
-0.219401
-0.226264
-0.205796
-0.176377
-0.154016
-0.134078
-0.090073
-0.035165
0.011979
0.055120
0.078380
0.076871
0.060910
0.039367
-0.011589
-0.043779
-0.072584
-0.128126
-0.168218
-0.211996
-0.238797
-0.261419
-0.262201
-0.230003
-0.186877
-0.125347
-0.065968
-0.016709
0.020403
0.034131
0.088265
0.124346
0.118514
0.122832
0.103390
0.092124
0.060780
0.008994
-0.049414
-0.050146
-0.042817
-0.028223
-0.013800
0.023632
0.050457
0.140014
0.247379
0.335626
0.386955
0.460061
0.526651
0.568369
0.587234
0.597417
0.590263
0.585807
0.587320
0.601409
0.594108
0.582944
0.563228
0.559606
0.551283
0.580117
0.595000
0.607962
0.620730
0.650079
0.659719
0.630482
0.582893
0.526006
0.476284
0.401655
0.321055
0.230077
0.143215
0.070427
0.005213
-0.039638
-0.079671
-0.096370
-0.087118
-0.077816
-0.065529
-0.026616
0.021317
0.061617
0.100481
0.127464
0.134164
0.141960
0.136215
0.121127
0.100410
0.043601
0.001948
-0.037226
-0.091763
-0.135001
-0.155965
-0.159372
-0.157488
-0.141103
-0.123507
-0.067601
-0.008203
0.021247
0.053561
0.103548
0.119686
0.129499
0.131529
0.106237
0.064132
0.014368
-0.041693
-0.078474
-0.106620
-0.146029
-0.187057
-0.219225
-0.222420
-0.181850
-0.136951
-0.088439
-0.047688
-0.021473
0.021211
0.078018
0.121422
0.108925
0.088028
0.070423
0.036670
0.007261
-0.029448
-0.088399
-0.139013
-0.156022
-0.169696
-0.183090
-0.178796
-0.148822
-0.106153
-0.074332
-0.051396
-0.002029
0.035984
0.065099
0.099171
0.109679
0.094243
0.071975
0.045167
0.010051
-0.041874
-0.070024
-0.100866
-0.113519
-0.139683
-0.140192
-0.138064
-0.133678
-0.098350
-0.056883
-0.027429
0.036919
0.082989
0.116025
0.140348
0.147690
0.135251
0.113972
0.081758
0.062062
0.018628
-0.027372
-0.075615
-0.098268
-0.117062
-0.126694
-0.127508
-0.097576
-0.063365
-0.028549
0.017044
0.064745
0.104522
0.142681
0.160334
0.166216
0.164115
0.147294
0.126092
0.092042
0.044414
-0.012855
-0.054127
-0.090769
-0.107024
-0.096819
-0.081896
-0.064591
-0.025499
0.006829
0.049583
0.093590
0.148138
0.183123
0.214549
0.215819
0.212279
0.188279
0.155497
0.112520
0.061462
0.016120
-0.015537
-0.065563
-0.085447
-0.086986
-0.082241
-0.042899
-0.008802
0.031194
0.076913
0.128798
0.156949
0.194852
0.208034
0.220619
0.208468
0.181109
0.154367
0.127477
0.085865
0.041152
-0.021185
-0.061946
-0.068623
-0.069299
-0.066549
-0.060458
-0.042039
-0.008712
0.058386
0.116409
0.145369
0.175904
0.211757
0.206177
0.188173
0.196550
0.163969
0.127879
0.078959
0.028933
-0.023484
-0.059996
-0.086797
-0.112081
-0.110494
-0.078676
-0.036335
-0.016951
0.022303
0.075918
0.121467
0.154810
0.177076
0.176586
0.161905
0.141351
0.080925
0.053491
0.022393
-0.023376
-0.067819
-0.123465
-0.148219
-0.160011
-0.139022
-0.113642
-0.051778
-0.009799
0.024882
0.082834
0.126034
0.119008
0.118211
0.135205
0.139095
0.114940
0.055079
0.002372
-0.019030
-0.071053
-0.130495
-0.163422
-0.170884
-0.185748
-0.175786
-0.154325
-0.129445
-0.084889
-0.047595
0.013203
0.056415
0.083598
0.091309
0.110150
0.105192
0.067782
0.023201
-0.007194
-0.041437
-0.101967
-0.163409
-0.192519
-0.212876
-0.221464
-0.208916
-0.165611
-0.136143
-0.089727
-0.040032
0.006175
0.047614
0.072792
0.085473
0.115432
0.093812
0.073877
0.031658
0.000906
-0.036770
-0.086888
-0.133518
-0.173474
-0.186051
-0.209368
-0.204784
-0.202693
-0.169707
-0.112880
-0.049997
-0.011895
0.035590
0.059468
0.091909
0.106877
0.110939
0.104938
0.054850
-0.001971
-0.053051
-0.098303
-0.123802
-0.155981
-0.168725
-0.169306
-0.162853
-0.137591
-0.126461
-0.094559
-0.053962
-0.017255
0.027151
0.071427
0.096085
0.091654
0.073891
0.060933
0.031460
-0.005845
-0.036758
-0.090670
-0.144763
-0.185847
-0.203173
-0.192280
-0.176833
-0.149490
-0.133534
-0.093178
-0.071059
-0.034047
0.037404
0.093650
0.102017
0.107112
0.111406
0.105211
0.066948
0.017689
-0.037702
-0.100580
-0.133199
-0.146659
-0.162951
-0.174935
-0.170566
-0.157173
-0.142212
-0.109866
-0.057181
-0.002456
0.039089
0.086608
0.107958
0.104712
0.095798
0.083535
0.046837
0.003864
-0.045346
-0.078887
-0.115363
-0.153003
-0.176666
-0.168947
-0.179122
-0.153801
-0.129667
-0.096088
-0.059789
0.004193
0.058841
0.099648
0.121231
0.107817
0.095741
0.076378
0.051750
0.001488
-0.026737
-0.057810
-0.113699
-0.155456
-0.171197
-0.172487
-0.164098
-0.159783
-0.132918
-0.087788
-0.064854
0.007697
0.040292
0.047358
0.078610
0.099190
0.102636
0.077948
0.037659
-0.014820
-0.055230
-0.108381
-0.144226
-0.162980
-0.170253
-0.197972
-0.209590
-0.186794
-0.141261
-0.091792
-0.049249
-0.013710
0.026459
0.076393
0.097525
0.121222
0.103096
0.077928
0.038042
-0.005015
-0.049160
-0.103050
-0.142098
-0.179455
-0.197041
-0.210908
-0.204999
-0.188708
-0.162786
-0.122512
-0.054360
0.001919
0.033658
0.081428
0.114965
0.103309
0.088217
0.068927
0.037534
-0.014299
-0.053755
-0.100718
-0.144824
-0.184713
-0.221585
-0.243157
-0.207608
-0.167690
-0.140795
-0.127754
-0.085187
-0.024978
0.021093
0.045920
0.074708
0.102686
0.106500
0.074056
0.045993
0.028322
-0.003184
-0.065612
-0.140439
-0.188928
-0.195693
-0.202212
-0.194460
-0.168412
-0.136268
-0.101981
-0.074051
-0.064276
-0.031291
0.032178
0.052165
0.081667
0.086473
0.088021
0.067504
0.028860
-0.018114
-0.097018
-0.136580
-0.162190
-0.156704
-0.179454
-0.181341
-0.158410
-0.128926
-0.085251
-0.035348
-0.001770
0.031580
0.060989
0.075845
0.085644
0.079167
0.061905
0.038792
-0.000682
-0.037488
-0.074690
-0.126992
-0.157254
-0.180601
-0.187156
-0.175687
-0.154266
-0.116112
-0.052225
0.007727
0.037040
0.062616
0.070685
0.102996
0.108544
0.112065
0.071071
0.050113
0.023905
0.002186
-0.055275
-0.095772
-0.124482
-0.164845
-0.188712
-0.167866
-0.133661
-0.110829
-0.083489
-0.053572
0.012670
0.060092
0.096745
0.118935
0.115720
0.106528
0.093805
0.072229
0.046757
0.019268
-0.021634
-0.041611
-0.090428
-0.138807
-0.146093
-0.135417
-0.098922
-0.063280
-0.035593
-0.002058
0.050716
0.098793
0.107940
0.121093
0.150286
0.129455
0.069675
0.043899
-0.017103
-0.052419
-0.075614
-0.105254
-0.131006
-0.154416
-0.175697
-0.169534
-0.149011
-0.113352
-0.073269
-0.023259
0.003281
0.038170
0.091852
0.109272
0.094953
0.055941
0.045789
0.025347
-0.013383
-0.070935
-0.123164
-0.164746
-0.189155
-0.208342
-0.208908
-0.215729
-0.193341
-0.157254
-0.118267
-0.079037
-0.021022
0.038175
0.049295
0.053970
0.041812
0.045401
0.031659
0.022147
-0.023006
-0.065832
-0.111189
-0.158835
-0.189736
-0.204671
-0.197224
-0.195967
-0.188392
-0.168043
-0.133655
-0.083393
-0.025683
0.007640
0.025466
0.063465
0.064461
0.059784
0.041003
0.003329
-0.038384
-0.095386
-0.122222
-0.155197
-0.200758
-0.213165
-0.220682
-0.219751
-0.197963
-0.166032
-0.125710
-0.097179
-0.050236
-0.003869
0.043266
0.067497
0.078674
0.053806
0.028323
-0.004030
-0.041957
-0.088983
-0.136608
-0.175901
-0.193766
-0.217911
-0.242195
-0.246044
-0.223369
-0.208656
-0.170212
-0.126294
-0.044033
0.000287
0.045990
0.057388
0.046679
0.019864
0.005541
-0.009429
-0.032078
-0.072186
-0.107606
-0.139790
-0.178045
-0.191739
-0.187198
-0.171648
-0.150591
-0.125432
-0.081812
-0.007439
0.064942
0.131157
0.175775
0.198505
0.205955
0.220404
0.221764
0.220882
0.197130
0.173485
0.163763
0.167625
0.178046
0.171151
0.194225
0.242653
0.293451
0.355095
0.430079
0.511975
0.600599
0.674214
0.735920
0.806423
0.843644
0.829286
0.793854
0.755422
0.721452
0.652934
0.592287
0.549807
0.487741
0.407308
0.315988
0.268779
0.230705
0.209514
0.200416
0.194827
0.198514
0.200153
0.221247
0.242066
0.245657
0.212474
0.174256
0.142768
0.093636
0.030925
-0.017347
-0.079090
-0.121303
-0.145071
-0.127752
-0.131527
-0.114977
-0.071361
-0.041025
-0.003481
0.023646
0.067284
0.099161
0.140476
0.130597
0.132202
0.109053
0.074310
0.052305
0.012851
-0.051050
-0.098588
-0.127939
-0.158238
-0.182432
-0.180741
-0.160830
-0.131348
-0.079403
-0.049046
-0.031546
0.019682
0.061290
0.082155
0.072315
0.076911
0.097224
0.043249
0.007011
-0.039403
-0.085682
-0.111263
-0.129582
-0.147509
-0.162597
-0.159170
-0.140713
-0.129489
-0.079669
-0.034258
0.013196
0.050647
0.088863
0.114724
0.129087
0.114997
0.106233
0.063455
0.035917
-0.010495
-0.062217
-0.084987
-0.114674
-0.154421
-0.172829
-0.146595
-0.121744
-0.095994
-0.063976
-0.026653
0.028270
0.091524
0.124880
0.135771
0.143696
0.128527
0.113388
0.076307
0.029818
-0.025097
-0.071783
-0.112657
-0.134143
-0.147956
-0.150717
-0.145186
-0.138303
-0.117283
-0.037299
0.027358
0.067662
0.110914
0.144089
0.161591
0.171155
0.152862
0.161192
0.123609
0.064481
0.036960
-0.010957
-0.068328
-0.075562
-0.101202
-0.116843
-0.122387
-0.084653
-0.047199
0.014737
0.055225
0.088203
0.129944
0.162285
0.194644
0.194139
0.199652
0.192254
0.156861
0.102269
0.065110
0.024601
-0.025437
-0.076067
-0.077085
-0.062866
-0.062452
-0.042011
-0.018592
0.013061
0.061673
0.088742
0.133107
0.189607
0.225930
0.227631
0.200133
0.161106
0.116593
0.085325
0.079091
0.034541
-0.006398
-0.017723
-0.044376
-0.056899
-0.052928
-0.056715
-0.016904
0.041279
0.103270
0.130174
0.163886
0.192562
0.210303
0.213984
0.203741
0.174941
0.145063
0.104682
0.067612
0.023613
0.014750
-0.029168
-0.052884
-0.078007
-0.084045
-0.071550
-0.025085
0.028708
0.073748
0.112906
0.149875
0.183294
0.183686
0.197632
0.181154
0.158494
0.139769
0.103909
0.081490
0.036597
-0.010242
-0.052491
-0.087828
-0.141472
-0.119845
-0.080569
-0.039802
-0.009177
0.037506
0.063360
0.081322
0.123894
0.130319
0.156158
0.164605
0.148247
0.106324
0.042304
0.012415
0.002244
-0.045207
-0.084087
-0.127061
-0.154313
-0.183390
-0.163014
-0.110631
-0.063201
-0.020518
0.028578
0.069534
0.097161
0.115237
0.116679
0.114652
0.107260
0.066282
0.023188
-0.045517
-0.076639
-0.120146
-0.144053
-0.168723
-0.198082
-0.201055
-0.193758
-0.147398
-0.070480
-0.028022
0.007348
0.046541
0.078625
0.113198
0.120166
0.105386
0.077542
0.020860
-0.039876
-0.068717
-0.101776
-0.120586
-0.147500
-0.181266
-0.199951
-0.165157
-0.142706
-0.118925
-0.077004
-0.037098
0.007166
0.040674
0.089468
0.118320
0.113334
0.081587
0.056417
0.041494
-0.002706
-0.051998
-0.100447
-0.146489
-0.188519
-0.214821
-0.221316
-0.212057
-0.188809
-0.144355
-0.091067
-0.036950
0.003083
0.032846
0.054582
0.078051
0.096164
0.091443
0.085890
0.062143
0.029886
-0.013872
-0.073340
-0.117735
-0.165564
-0.188250
-0.196943
-0.192243
-0.185244
-0.146853
-0.091354
-0.039119
0.011111
0.050446
0.091149
0.100617
0.123909
0.113501
0.072012
0.040203
0.010260
-0.026348
-0.094376
-0.127768
-0.131911
-0.173222
-0.184951
-0.177060
-0.156354
-0.112336
-0.078870
-0.037485
-0.004893
0.038228
0.054786
0.080342
0.109828
0.109031
0.082181
0.048989
0.007450
-0.028776
-0.085340
-0.120284
-0.151266
-0.171052
-0.190391
-0.192642
-0.170154
-0.119248
-0.073171
-0.037560
0.000216
0.051085
0.088211
0.098939
0.105812
0.104475
0.087923
0.032008
0.007461
-0.032160
-0.064680
-0.105623
-0.136061
-0.159597
-0.178690
-0.183340
-0.168101
-0.135474
-0.088959
-0.038377
0.011665
0.049118
0.079303
0.105145
0.125171
0.108971
0.092721
0.054914
0.019959
-0.022727
-0.074081
-0.114754
-0.148893
-0.169233
-0.182127
-0.181562
-0.158883
-0.124124
-0.079324
-0.035189
0.009898
0.044768
0.060817
0.086513
0.108675
0.102779
0.070811
0.038698
0.006094
-0.040444
-0.097272
-0.151955
-0.173315
-0.203518
-0.214899
-0.198072
-0.181388
-0.142694
-0.101532
-0.058617
-0.014119
0.025821
0.065732
0.101599
0.097092
0.100764
0.077027
0.044536
0.009637
-0.036843
-0.079251
-0.118100
-0.153011
-0.193067
-0.208647
-0.217668
-0.174736
-0.140752
-0.112045
-0.062987
-0.032209
-0.005155
0.055296
0.089699
0.092848
0.070490
0.043375
0.023726
0.017299
-0.019623
-0.075142
-0.124087
-0.171362
-0.190496
-0.210719
-0.229496
-0.188046
-0.130845
-0.107927
-0.059360
-0.018847
0.025878
0.059944
0.086139
0.104415
0.108611
0.076510
0.042109
-0.007833
-0.053229
-0.104510
-0.132769
-0.161700
-0.189873
-0.203913
-0.206686
-0.189647
-0.150963
-0.120563
-0.082705
-0.030714
0.032052
0.062053
0.085022
0.092888
0.092448
0.065409
0.035967
-0.005125
-0.039636
-0.081569
-0.136233
-0.170021
-0.194251
-0.215184
-0.203002
-0.180478
-0.130051
-0.089652
-0.064247
-0.024134
0.023746
0.063706
0.081859
0.103660
0.100150
0.083466
0.057097
0.017625
-0.031171
-0.068699
-0.111448
-0.139853
-0.158804
-0.173575
-0.159958
-0.139124
-0.104698
-0.060552
-0.013916
0.032387
0.066082
0.094187
0.120209
0.138021
0.139163
0.103844
0.066324
0.019681
-0.023612
-0.077846
-0.127763
-0.159108
-0.163179
-0.158132
-0.155516
-0.132116
-0.101666
-0.062711
-0.022341
0.040083
0.080217
0.106570
0.137549
0.155088
0.130354
0.109597
0.089688
0.046315
0.010821
-0.039015
-0.081390
-0.108809
-0.133389
-0.154599
-0.159694
-0.138831
-0.113812
-0.081270
-0.046977
0.000322
0.039962
0.075153
0.119520
0.124173
0.126305
0.106457
0.060964
0.010886
-0.035238
-0.086330
-0.134943
-0.157696
-0.176256
-0.185722
-0.186041
-0.168372
-0.147132
-0.103024
-0.050791
-0.024291
0.018278
0.062233
0.086953
0.092348
0.069478
0.044861
0.012291
-0.021634
-0.062302
-0.104242
-0.142940
-0.173801
-0.205551
-0.222494
-0.199857
-0.178697
-0.161410
-0.121463
-0.076796
-0.045207
0.001813
0.027857
0.058932
0.062992
0.052914
0.041377
0.005581
-0.024814
-0.061656
-0.115400
-0.152060
-0.196358
-0.216357
-0.224102
-0.216967
-0.197478
-0.175132
-0.134672
-0.073199
-0.028548
0.015237
0.038025
0.050248
0.057265
0.045990
0.036086
-0.006800
-0.057320
-0.079548
-0.106138
-0.155588
-0.214585
-0.232965
-0.233105
-0.229565
-0.204441
-0.163576
-0.141545
-0.113665
-0.062041
-0.017285
0.003104
0.059505
0.094871
0.080008
0.052378
0.009430
-0.035575
-0.068961
-0.118715
-0.168843
-0.205371
-0.221898
-0.230070
-0.223997
-0.207884
-0.185060
-0.141132
-0.089620
-0.038624
0.011863
0.039370
0.069812
0.082765
0.089882
0.070944
0.042364
0.012512
-0.006336
-0.047890
-0.074490
-0.087415
-0.110312
-0.103684
-0.075599
-0.028194
0.021939
0.098121
0.155300
0.228433
0.306613
0.378135
0.449185
0.475356
0.490772
0.511485
0.517812
0.495220
0.483113
0.480883
0.487933
0.475964
0.486544
0.531257
0.567558
0.583434
0.620588
0.643421
0.682804
0.705972
0.723646
0.738354
0.745439
0.718257
0.640836
0.553517
0.454175
0.367880
0.285986
0.185493
0.076642
0.014239
-0.021951
-0.048900
-0.054857
-0.036412
-0.021234
0.026651
0.056966
0.100362
0.132207
0.156675
0.175657
0.178046
0.158037
0.149664
0.108884
0.064255
0.014516
-0.039508
-0.087619
-0.131880
-0.143529
-0.148334
-0.141231
-0.132630
-0.105461
-0.054247
-0.010666
0.034206
0.075243
0.112005
0.116224
0.115699
0.107918
0.080307
0.045272
0.007697
-0.039540
-0.094394
-0.119402
-0.151183
-0.187494
-0.202187
-0.195187
-0.167457
-0.118773
-0.070392
-0.040736
-0.002257
0.039960
0.084658
0.107052
0.108861
0.115716
0.111630
0.070239
-0.002342
-0.053942
-0.105457
-0.140475
-0.177143
-0.200861
-0.219492
-0.213760
-0.183599
-0.115478
-0.072215
-0.029342
0.017271
0.066965
0.098545
0.125296
0.119513
0.099080
0.075294
0.051435
0.027899
-0.019890
-0.038054
-0.072555
-0.120991
-0.165134
-0.160096
-0.147630
-0.129853
-0.086992
-0.050509
-0.014612
0.027846
0.055510
0.093256
0.135634
0.140680
0.131391
0.123645
0.093732
0.065075
0.018259
-0.035325
-0.078336
-0.104081
-0.105439
-0.118235
-0.124361
-0.106984
-0.068506
-0.022099
0.026626
0.076260
0.108026
0.128630
0.143450
0.156233
0.168478
0.156675
0.124875
0.085685
0.036562
-0.012449
-0.061075
-0.098957
-0.109347
-0.109152
-0.099206
-0.075318
-0.043752
0.004435
0.067413
0.115304
0.164273
0.183066
0.205322
0.221979
0.215506
0.195995
0.159365
0.107846
0.056870
0.018458
-0.020287
-0.054845
-0.084086
-0.087062
-0.067374
-0.038828
-0.002307
0.027897
0.065411
0.113661
0.151118
0.183614
0.204698
0.224668
0.231203
0.213843
0.180300
0.138969
0.089862
0.031851
-0.014017
-0.050220
-0.069231
-0.089542
-0.064700
-0.043720
-0.023553
0.027222
0.042358
0.089973
0.150195
0.186947
0.216852
0.235535
0.227502
0.203410
0.157708
0.113014
0.083456
0.039074
-0.008411
-0.048395
-0.086867
-0.097176
-0.104543
-0.076214
-0.040720
-0.001486
0.053674
0.098433
0.123081
0.150783
0.195305
0.176657
0.156530
0.126128
0.098339
0.074211
0.046529
0.001377
-0.042773
-0.087296
-0.116024
-0.130710
-0.131067
-0.110083
-0.059136
-0.026122
0.024510
0.056744
0.087842
0.118712
0.147509
0.144750
0.126783
0.108252
0.079588
0.047284
0.007234
-0.056766
-0.102503
-0.128673
-0.146211
-0.159660
-0.135668
-0.121300
-0.106267
-0.069019
-0.037284
0.027128
0.074312
0.105058
0.118851
0.128205
0.124609
0.112408
0.077478
0.021027
-0.030189
-0.071843
-0.114573
-0.148010
-0.192646
-0.192830
-0.197537
-0.171249
-0.143804
-0.105128
-0.051517
-0.006071
0.033207
0.078961
0.115235
0.123271
0.093606
0.057871
0.032701
-0.008854
-0.053759
-0.066914
-0.114603
-0.154916
-0.178569
-0.187147
-0.186366
-0.177021
-0.142870
-0.088405
-0.037941
-0.000522
0.039100
0.058913
0.074886
0.090436
0.081431
0.065819
0.030364
-0.005283
-0.049518
-0.093555
-0.119234
-0.141013
-0.156754
-0.168622
-0.164032
-0.163387
-0.115196
-0.075923
-0.046297
0.008548
0.047069
0.080322
0.095305
0.104113
0.101354
0.085448
0.046806
-0.003016
-0.036441
-0.076402
-0.126074
-0.175975
-0.199614
-0.198453
-0.197949
-0.172117
-0.114369
-0.075461
-0.042056
0.017459
0.072897
0.107483
0.128322
0.140158
0.129507
0.099307
0.068249
0.027741
-0.020092
-0.083334
-0.130657
-0.153705
-0.168276
-0.173263
-0.174493
-0.144877
-0.108305
-0.068964
-0.030763
0.009678
0.043389
0.074958
0.087221
0.109120
0.116089
0.103844
0.070590
0.032963
-0.007634
-0.058122
-0.092881
-0.126161
-0.163276
-0.174098
-0.164574
-0.162139
-0.131076
-0.083406
-0.043205
0.004214
0.036284
0.067672
0.114913
0.135882
0.128250
0.103519
0.061818
0.014197
-0.021841
-0.065586
-0.106386
-0.142704
-0.170103
-0.180800
-0.166234
-0.139911
-0.120700
-0.100175
-0.057382
-0.002720
0.045840
0.074856
0.091099
0.108232
0.109814
0.081379
0.049562
0.012553
-0.042959
-0.080230
-0.121028
-0.154598
-0.176065
-0.179793
-0.172006
-0.150912
-0.120089
-0.069254
-0.027752
0.015912
0.046090
0.080600
0.103678
0.121146
0.109695
0.083502
0.026841
-0.014149
-0.042091
-0.100702
-0.132970
-0.171967
-0.186430
-0.187671
-0.184733
-0.164291
-0.138783
-0.100115
-0.053022
0.001277
0.063386
0.082140
0.084123
0.069382
0.087327
0.086887
0.044629
0.002728
-0.021679
-0.074468
-0.111200
-0.164627
-0.194386
-0.206386
-0.189455
-0.174878
-0.143975
-0.119664
-0.078804
-0.007423
0.049271
0.092195
0.093214
0.100245
0.083066
0.063951
0.047100
0.015718
-0.011587
-0.080047
-0.130319
-0.167161
-0.183587
-0.185918
-0.182278
-0.151854
-0.115867
-0.091650
-0.057122
-0.002306
0.046498
0.069971
0.088837
0.096348
0.096392
0.069981
0.032093
0.001033
-0.035417
-0.081409
-0.116925
-0.143615
-0.153751
-0.161816
-0.170751
-0.161707
-0.114873
-0.070338
-0.019347
0.029767
0.072743
0.105409
0.136709
0.132863
0.125260
0.099215
0.066604
0.027305
-0.015175
-0.064492
-0.112419
-0.151515
-0.173101
-0.201198
-0.179923
-0.156072
-0.111138
-0.045827
-0.004139
0.027284
0.067579
0.106312
0.121851
0.129940
0.142502
0.126689
0.097229
0.043361
0.003260
-0.035210
-0.076227
-0.107765
-0.136981
-0.153162
-0.145150
-0.104437
-0.066097
-0.050155
0.005167
0.057325
0.106868
0.137806
0.155259
0.163288
0.145890
0.120301
0.089445
0.054929
-0.000549
-0.050061
-0.093860
-0.135206
-0.167231
-0.164673
-0.161306
-0.142839
-0.114820
-0.071548
-0.029500
0.013125
0.029362
0.064701
0.095352
0.117171
0.104030
0.077780
0.051813
0.008491
-0.049347
-0.101165
-0.151854
-0.181320
-0.207581
-0.213835
-0.192484
-0.170234
-0.141952
-0.117905
-0.079239
-0.031512
0.003989
0.038941
0.060854
0.063151
0.050882
0.024354
-0.001875
-0.050566
-0.082064
-0.119984
-0.158329
-0.191438
-0.224976
-0.246629
-0.207107
-0.175263
-0.144271
-0.114176
-0.077787
-0.023638
0.020459
0.050772
0.088321
0.083647
0.056539
0.021442
0.006119
-0.022560
-0.067658
-0.121718
-0.178084
-0.206237
-0.221012
-0.220648
-0.211354
-0.199424
-0.162386
-0.108543
-0.063803
-0.007549
0.024467
0.047375
0.066388
0.085069
0.072491
0.042420
0.001053
-0.047804
-0.082404
-0.126644
-0.172142
-0.220269
-0.225039
-0.242777
-0.223669
-0.210032
-0.171160
-0.112318
-0.068564
-0.032120
-0.007817
0.042807
0.068469
0.074817
0.075973
0.053995
0.019455
-0.029058
-0.070425
-0.127060
-0.160321
-0.190497
-0.205149
-0.201475
-0.193872
-0.170828
-0.130085
-0.065444
-0.007188
0.040361
0.091918
0.143587
0.191106
0.211632
0.225278
0.212881
0.199185
0.199541
0.171772
0.145030
0.139904
0.142987
0.162009
0.188830
0.207141
0.271799
0.337571
0.393842
0.481849
0.579595
0.663455
0.730386
0.776145
0.796202
0.813826
0.810359
0.773417
0.731398
0.676880
0.619541
0.552226
0.501409
0.446851
0.393984
0.338511
0.306510
0.274933
0.259651
0.262924
0.257964
0.251380
0.260994
0.272189
0.269319
0.248469
0.208707
0.168362
0.117118
0.063530
0.015165
-0.048042
-0.092685
-0.116644
-0.134191
-0.129595
-0.105455
-0.071840
-0.043012
0.007772
0.055804
0.093036
0.114208
0.122533
0.134704
0.127184
0.104419
0.077146
0.038410
-0.001301
-0.051935
-0.091131
-0.135319
-0.163122
-0.174482
-0.176237
-0.149367
-0.121357
-0.095694
-0.046650
-0.002085
0.035926
0.056428
0.078419
0.085610
0.098629
0.068386
0.042551
0.003901
-0.046465
-0.085328
-0.133643
-0.170642
-0.182160
-0.172758
-0.176371
-0.150878
-0.121749
-0.095995
-0.069379
0.007274
0.058819
0.099384
0.118641
0.131882
0.116627
0.102540
0.070287
0.040974
-0.016776
-0.060091
-0.110453
-0.130789
-0.156007
-0.164467
-0.142616
-0.122143
-0.089109
-0.060621
-0.044536
0.015116
0.058346
0.103348
0.119514
0.140926
0.130020
0.102484
0.071599
0.045257
-0.006323
-0.055902
-0.106976
-0.135636
-0.141776
-0.139858
-0.135209
-0.119627
-0.088373
-0.052947
-0.001762
0.041812
0.090278
0.125858
0.150194
0.157870
0.157741
0.144689
0.119834
0.079282
0.020006
-0.032523
-0.088798
-0.114951
-0.106663
-0.108909
-0.096646
-0.087741
-0.054404
-0.011650
0.030203
0.080761
0.124287
0.167108
0.182401
0.176677
0.173680
0.165869
0.134955
0.091983
0.037218
-0.000376
-0.031365
-0.067244
-0.083321
-0.087759
-0.072547
-0.048319
-0.013615
0.020650
0.052219
0.106613
0.139301
0.181596
0.216441
0.224120
0.229778
0.198056
0.170390
0.145946
0.087583
0.019150
-0.023749
-0.048455
-0.061060
-0.055510
-0.039958
-0.036323
-0.027838
0.013936
0.078168
0.122217
0.133123
0.162287
0.189848
0.212019
0.225073
0.202717
0.160047
0.134549
0.099694
0.054333
-0.008905
-0.048678
-0.067924
-0.072431
-0.064388
-0.047919
-0.020023
0.021405
0.065268
0.115922
0.148620
0.165179
0.171554
0.190095
0.186122
0.155113
0.133459
0.095460
0.043864
-0.007847
-0.055905
-0.091448
-0.104966
-0.122757
-0.120243
-0.093775
-0.060087
-0.022225
0.021563
0.086076
0.138555
0.165173
0.155361
0.159300
0.152779
0.126930
0.104009
0.063374
0.020317
-0.025235
-0.078305
-0.108331
-0.130115
-0.141497
-0.153669
-0.125126
-0.089034
-0.058398
-0.012094
0.033225
0.067063
0.094606
0.112187
0.124153
0.118498
0.108980
0.074060
0.031549
-0.017694
-0.067778
-0.120581
-0.155194
-0.162023
-0.174927
-0.172475
-0.154969
-0.134454
-0.089407
-0.065741
-0.023400
0.029955
0.084327
0.112692
0.120815
0.102381
0.062823
0.022146
-0.008804
-0.044403
-0.079337
-0.120477
-0.153260
-0.190046
-0.202151
-0.210588
-0.188519
-0.167462
-0.117749
-0.060909
-0.019857
0.025915
0.076093
0.080486
0.098528
0.095727
0.077056
0.047751
0.010745
-0.037226
-0.078533
-0.112280
-0.165623
-0.196123
-0.212703
-0.197371
-0.170394
-0.133486
-0.100255
-0.056840
-0.001551
0.040547
0.081986
0.083405
0.089417
0.103583
0.100669
0.054031
0.001559
-0.039527
-0.098402
-0.134211
-0.146482
-0.182434
-0.180511
-0.185138
-0.191189
-0.145296
-0.090758
-0.037138
0.010236
0.049756
0.068775
0.106968
0.127162
0.098949
0.074050
0.036721
-0.002910
-0.036213
-0.079059
-0.108266
-0.156720
-0.154145
-0.159084
-0.169907
-0.170956
-0.134361
-0.090542
-0.046288
0.015204
0.066482
0.099537
0.084914
0.134385
0.150116
0.108258
0.063753
0.026529
-0.020706
-0.064092
-0.101418
-0.150609
-0.171498
-0.197064
-0.187982
-0.171712
-0.142879
-0.084564
-0.051082
0.004057
0.059765
0.098381
0.132031
0.121621
0.101683
0.077881
0.055650
0.016480
-0.032948
-0.076863
-0.131431
-0.173298
-0.175596
-0.188576
-0.185123
-0.155621
-0.130467
-0.083640
-0.053870
-0.009913
0.037421
0.087482
0.097712
0.104983
0.090538
0.072385
0.027723
-0.005474
-0.045861
-0.089217
-0.133202
-0.143002
-0.172544
-0.185812
-0.184691
-0.163365
-0.134074
-0.085721
-0.028535
0.024274
0.053262
0.069194
0.076603
0.101182
0.103437
0.063711
0.036863
0.014684
-0.019267
-0.072665
-0.121763
-0.169158
-0.191794
-0.196621
-0.181466
-0.150213
-0.107405
-0.073044
-0.039556
-0.007395
0.019974
0.062431
0.104269
0.104113
0.093982
0.069204
0.037511
-0.007559
-0.041797
-0.087229
-0.131995
-0.171726
-0.191221
-0.208963
-0.195422
-0.167440
-0.135915
-0.089972
-0.069685
-0.028346
0.031614
0.083167
0.103522
0.105337
0.101779
0.070878
0.038728
0.011953
-0.026244
-0.080750
-0.117448
-0.145846
-0.175166
-0.210461
-0.198448
-0.174458
-0.168501
-0.129628
-0.074412
-0.018858
0.023542
0.063407
0.087691
0.102440
0.084526
0.051356
0.030843
0.004625
-0.038826
-0.096956
-0.141833
-0.167894
-0.194740
-0.195682
-0.186645
-0.171893
-0.144770
-0.102361
-0.058124
-0.007713
0.025226
0.051800
0.074870
0.098898
0.097987
0.073644
0.056963
0.019072
-0.023835
-0.087728
-0.135957
-0.147195
-0.140953
-0.154912
-0.149619
-0.127984
-0.108519
-0.082507
-0.036264
0.027477
0.072614
0.104050
0.128942
0.127566
0.113720
0.097753
0.073349
0.040437
-0.010886
-0.070629
-0.100598
-0.138766
-0.158675
-0.146287
-0.145593
-0.116111
-0.068898
-0.038430
0.005465
0.045336
0.091893
0.129318
0.153084
0.138159
0.126573
0.105883
0.063141
0.020046
-0.023279
-0.048603
-0.076882
-0.124935
-0.162582
-0.164307
-0.174362
-0.177085
-0.133796
-0.087418
-0.016709
0.049111
0.078969
0.116940
0.137034
0.135402
0.118975
0.091930
0.049769
0.000094
-0.042397
-0.081437
-0.127124
-0.172259
-0.204662
-0.204747
-0.175893
-0.164626
-0.151681
-0.119093
-0.076638
-0.012275
0.039217
0.057610
0.080415
0.101848
0.079011
0.030427
-0.002003
-0.040502
-0.071286
-0.113848
-0.144534
-0.187632
-0.213022
-0.217335
-0.205480
-0.211621
-0.181846
-0.143423
-0.093505
-0.039436
-0.009688
0.034821
0.067665
0.060949
0.053890
0.027942
0.002218
-0.028237
-0.067182
-0.115599
-0.156910
-0.205320
-0.241186
-0.238421
-0.217415
-0.199999
-0.177248
-0.143975
-0.094259
-0.044753
-0.006609
0.027687
0.046819
0.061176
0.052235
0.026508
-0.008705
-0.057388
-0.102687
-0.144633
-0.189103
-0.207734
-0.218450
-0.227456
-0.220032
-0.206002
-0.170690
-0.134343
-0.098399
-0.054837
-0.002647
0.014726
0.016623
0.022982
0.019645
-0.008384
0.000768
-0.038779
-0.067226
-0.135865
-0.189487
-0.219607
-0.225382
-0.222266
-0.202867
-0.183048
-0.150109
-0.101401
-0.059824
-0.009351
0.032712
0.054640
0.077760
0.091393
0.095128
0.094541
0.080975
0.064622
0.032865
-0.011397
-0.032477
-0.060244
-0.087839
-0.090684
-0.068133
-0.031911
0.016523
0.086217
0.168888
0.248194
0.308262
0.364755
0.414974
0.466342
0.510227
0.508618
0.498772
0.495516
0.480029
0.485287
0.504619
0.506894
0.509115
0.503028
0.526076
0.548994
0.573395
0.601320
0.624389
0.666682
0.687026
0.700385
0.667467
0.615447
0.550560
0.471428
0.399443
0.331246
0.227120
0.105525
0.016404
-0.024723
-0.061966
-0.059012
-0.063186
-0.054561
-0.025691
-0.002556
0.036951
0.074515
0.103651
0.132852
0.149017
0.148313
0.145943
0.123989
0.099655
0.056462
0.002669
-0.042953
-0.088392
-0.137429
-0.164912
-0.178278
-0.180559
-0.156966
-0.109446
-0.073460
-0.034895
0.004699
0.046631
0.092004
0.121085
0.141377
0.136704
0.112988
0.067634
0.014451
-0.048995
-0.090289
-0.127693
-0.155939
-0.181021
-0.192606
-0.178007
-0.153126
-0.125670
-0.066099
-0.021730
0.018975
0.048333
0.078520
0.094703
0.110233
0.105992
0.082877
0.044445
-0.001722
-0.037008
-0.076377
-0.123361
-0.174101
-0.197822
-0.193731
-0.176960
-0.154509
-0.139501
-0.104591
-0.042662
0.015363
0.052246
0.079800
0.107881
0.111883
0.101752
0.083265
0.040788
0.004376
-0.042814
-0.073584
-0.103639
-0.144689
-0.176918
-0.191692
-0.187595
-0.143667
-0.118410
-0.091364
-0.053346
-0.002137
0.049222
0.077303
0.100803
0.107251
0.109893
0.113964
0.080734
0.024909
-0.007671
-0.045222
-0.084877
-0.119098
-0.132059
-0.138653
-0.122038
-0.106385
-0.073448
-0.035055
0.013283
0.061074
0.099852
0.144777
0.179628
0.180747
0.176251
0.140979
0.126563
0.078712
0.030652
-0.013823
-0.048891
-0.075178
-0.104727
-0.147398
-0.130485
-0.078910
-0.031955
0.000720
0.020746
0.072793
0.135196
0.170690
0.204649
0.197651
0.175935
0.163395
0.129413
0.101373
0.051281
-0.002818
-0.065641
-0.097118
-0.120624
-0.135722
-0.107519
-0.076410
-0.020288
0.021854
0.066514
0.115425
0.163283
0.188992
0.209429
0.215752
0.189824
0.162409
0.146067
0.117534
0.076756
0.026915
-0.027250
-0.064807
-0.088674
-0.094763
-0.088902
-0.077123
-0.040337
0.008508
0.053691
0.100124
0.136300
0.166393
0.192305
0.195888
0.193161
0.169179
0.119980
0.070780
0.051013
0.022005
-0.011414
-0.053423
-0.070644
-0.086719
-0.084864
-0.048147
-0.030582
-0.001614
0.031848
0.058411
0.119321
0.157130
0.172532
0.171058
0.157740
0.139903
0.121030
0.080029
0.029319
-0.017469
-0.069824
-0.099020
-0.125461
-0.142997
-0.128161
-0.116557
-0.114709
-0.090274
-0.007049
0.027488
0.059766
0.096830
0.106099
0.116844
0.117289
0.102217
0.066514
0.029134
-0.006778
-0.058773
-0.113029
-0.157986
-0.178673
-0.205163
-0.216482
-0.183229
-0.154027
-0.109127
-0.036933
0.006857
0.057149
0.099898
0.130826
0.126402
0.111534
0.077715
0.037820
0.004961
-0.029086
-0.086856
-0.144803
-0.183832
-0.203147
-0.212214
-0.213890
-0.194542
-0.169050
-0.122322
-0.051174
-0.000926
0.056874
0.100304
0.122506
0.114455
0.088270
0.063340
0.042497
0.005309
-0.044176
-0.076620
-0.117612
-0.153391
-0.200614
-0.211185
-0.214798
-0.190373
-0.148413
-0.094179
-0.047496
-0.011080
0.017001
0.047553
0.072852
0.088791
0.077673
0.058435
0.036262
0.004855
-0.041580
-0.075987
-0.134223
-0.185950
-0.212992
-0.222024
-0.210955
-0.184638
-0.156313
-0.125893
-0.087080
-0.043070
-0.005340
0.054141
0.092618
0.117765
0.104895
0.070251
0.043177
0.017011
-0.041899
-0.089594
-0.143562
-0.187783
-0.189004
-0.186479
-0.178633
-0.160784
-0.107593
-0.075614
-0.035977
0.000549
0.034425
0.075429
0.093613
0.088461
0.084379
0.065600
0.039594
-0.015718
-0.053018
-0.068864
-0.108249
-0.157849
-0.171814
-0.181532
-0.160959
-0.132366
-0.128711
-0.098721
-0.050776
-0.013091
0.043756
0.084636
0.098915
0.101846
0.088964
0.080315
0.039749
-0.010178
-0.043225
-0.108172
-0.157696
-0.183598
-0.199537
-0.195492
-0.188283
-0.162918
-0.156027
-0.128666
-0.062504
0.006663
0.049324
0.073139
0.089774
0.104459
0.083104
0.071511
0.048870
-0.000287
-0.051010
-0.101056
-0.127710
-0.157978
-0.201489
-0.222849
-0.222297
-0.177257
-0.112939
-0.069172
-0.040636
-0.012386
0.018958
0.040951
0.061172
0.089434
0.082982
0.053061
0.035560
0.017068
-0.020223
-0.071264
-0.119158
-0.165173
-0.185437
-0.193964
-0.178386
-0.166908
-0.144568
-0.098039
-0.065091
-0.030135
0.009215
0.046890
0.069126
0.080852
0.069083
0.055775
0.024343
-0.020348
-0.040438
-0.086123
-0.122626
-0.170716
-0.195990
-0.206365
-0.203801
-0.186250
-0.170839
-0.122389
-0.054710
-0.024655
0.008605
0.029489
0.045429
0.044655
0.040151
0.023424
0.000633
-0.029679
-0.068156
-0.103505
-0.132111
-0.192859
-0.241274
-0.249022
-0.183931
-0.159209
-0.124103
-0.105528
-0.068727
-0.033636
0.014071
0.062196
0.088409
0.126787
0.115120
0.065400
0.002402
-0.012480
-0.047180
-0.082427
-0.118006
-0.164983
-0.182983
-0.197664
-0.184067
-0.156612
-0.140504
-0.108420
-0.057677
-0.004095
0.052971
0.085663
0.096599
0.094181
0.088609
0.078650
0.050006
0.010461
-0.036933
-0.080914
-0.115380
-0.147072
-0.140849
-0.148522
-0.152607
-0.141447
-0.099036
-0.068936
-0.023247
0.022485
0.058806
0.092483
0.119092
0.133286
0.110683
0.085102
0.044858
0.001947
-0.048959
-0.081641
-0.120254
-0.157173
-0.162831
-0.155744
-0.149175
-0.124052
-0.101712
-0.050878
-0.003697
0.035842
0.065081
0.095943
0.121543
0.123374
0.123231
0.104504
0.055335
0.032233
-0.003673
-0.051265
-0.103081
-0.144489
-0.143998
-0.146932
-0.141153
-0.125504
-0.104808
-0.066618
-0.021888
0.008050
0.035437
0.069785
0.094114
0.091232
0.070349
0.031799
0.029672
-0.010936
-0.037560
-0.085462
-0.126770
-0.158739
-0.191120
-0.211015
-0.196523
-0.185759
-0.168852
-0.134801
-0.086262
-0.048870
0.003693
0.033824
0.059298
0.072702
0.067494
0.049184
0.024765
-0.009170
-0.062096
-0.117434
-0.158569
-0.191817
-0.208919
-0.222106
-0.224569
-0.217173
-0.196213
-0.152666
-0.095780
-0.039206
-0.001310
0.022801
0.048824
0.069970
0.050723
0.031634
0.001566
-0.039588
-0.094334
-0.142466
-0.189678
-0.211916
-0.241346
-0.248619
-0.246317
-0.216671
-0.185317
-0.149031
-0.116472
-0.068036
-0.017439
0.029304
0.034423
0.046139
0.039129
0.029638
-0.003376
-0.029413
-0.070262
-0.127939
-0.167270
-0.196519
-0.223026
-0.224511
-0.216792
-0.194783
-0.160518
-0.132880
-0.092504
-0.050392
-0.014765
0.017892
0.027611
0.021470
0.040743
0.040648
0.004552
-0.045133
-0.082855
-0.134852
-0.174615
-0.216815
-0.238822
-0.258852
-0.231454
-0.201047
-0.158878
-0.098617
-0.064628
-0.023182
0.010082
0.065095
0.105444
0.143218
0.156181
0.131588
0.108444
0.064186
0.053255
0.034144
0.017140
0.013321
0.008294
0.011302
0.041200
0.091082
0.152530
0.242690
0.312446
0.390482
0.460249
0.526037
0.584802
0.627132
0.662029
0.681579
0.702703
0.706103
0.659575
0.624704
0.595389
0.542210
0.510925
0.492871
0.495042
0.498921
0.496708
0.493505
0.467710
0.455556
0.443511
0.417810
0.400813
0.359566
0.309208
0.255112
0.199635
0.146307
0.092950
0.043864
-0.015458
-0.059768
-0.093053
-0.118714
-0.121474
-0.078093
-0.053566
-0.021159
-0.001444
0.028180
0.091610
0.117811
0.138212
0.130937
0.130765
0.114869
0.080878
0.029913
-0.025122
-0.089632
-0.092471
-0.119312
-0.161298
-0.180118
-0.181656
-0.151128
-0.115944
-0.075109
-0.020138
0.024955
0.053876
0.085280
0.094292
0.090069
0.091569
0.077250
0.058369
0.019352
-0.049297
-0.095123
-0.132932
-0.150578
-0.169470
-0.179869
-0.189329
-0.173158
-0.138606
-0.096560
-0.059570
-0.006852
0.043183
0.076329
0.095484
0.101049
0.091361
0.070102
0.041695
-0.004330
-0.056743
-0.101123
-0.130232
-0.172089
-0.178312
-0.190091
-0.191491
-0.188953
-0.153524
-0.110993
-0.069963
-0.010776
0.038286
0.086824
0.107758
0.104387
0.101949
0.088091
0.049434
0.017535
-0.016828
-0.069453
-0.123270
-0.146119
-0.153917
-0.155346
-0.154109
-0.129239
-0.089837
-0.050007
-0.006003
0.038900
0.074723
0.102975
0.124557
0.137541
0.114727
0.103393
0.111186
0.086517
0.035560
-0.021486
-0.055364
-0.098400
-0.134964
-0.156732
-0.133235
-0.109892
-0.051120
-0.006621
0.040626
0.082476
0.123088
0.171698
0.182473
0.190383
0.189605
0.170700
0.122990
0.082645
0.041895
0.001373
-0.052747
-0.081657
-0.086127
-0.085490
-0.080140
-0.063226
-0.044467
-0.001031
0.055695
0.107704
0.148678
0.176438
0.188470
0.201746
0.201201
0.187913
0.138570
0.088411
0.054475
0.014947
-0.040411
-0.097904
-0.114027
-0.135920
-0.122063
-0.101546
-0.021412
0.012271
0.063153
0.109517
0.151923
0.202860
0.229851
0.236102
0.219862
0.192868
0.159156
0.115877
0.069953
0.029549
-0.001940
-0.047322
-0.084717
-0.116069
-0.088845
-0.060701
-0.030393
0.014318
0.039735
0.091044
0.135432
0.167646
0.181689
0.186404
0.188073
0.179572
0.157518
0.110503
0.069644
0.015124
-0.046884
-0.101867
-0.103805
-0.092803
-0.094578
-0.077531
-0.052458
-0.005069
0.016956
0.074245
0.115999
0.154453
0.165047
0.162920
0.158073
0.151714
0.104307
0.061855
0.003292
-0.041742
-0.087578
-0.115876
-0.134580
-0.158966
-0.149341
-0.129858
-0.085605
-0.047073
-0.004050
0.032284
0.066233
0.112908
0.111395
0.124337
0.135684
0.109979
0.078207
0.031323
-0.010137
-0.058019
-0.100366
-0.148482
-0.172986
-0.181110
-0.179991
-0.163615
-0.136593
-0.076987
-0.023950
0.012160
0.046973
0.066091
0.074022
0.100940
0.100850
0.078367
0.030291
-0.009015
-0.060269
-0.105273
-0.149545
-0.178200
-0.181478
-0.199352
-0.198345
-0.164979
-0.116282
-0.066319
-0.025912
0.003533
0.037644
0.073954
0.097852
0.103791
0.097497
0.073786
0.040578
-0.003866
-0.050571
-0.103604
-0.140530
-0.174929
-0.190073
-0.197454
-0.188244
-0.160924
-0.141103
-0.092863
-0.054659
-0.018749
0.026055
0.064002
0.089626
0.100211
0.103920
0.089910
0.050182
0.008539
-0.038425
-0.101222
-0.156141
-0.156825
-0.169748
-0.190332
-0.189133
-0.172301
-0.123777
-0.070913
-0.036163
-0.001292
0.040554
0.075919
0.095704
0.110251
0.110193
0.089713
0.051715
0.015101
-0.016369
-0.079927
-0.120108
-0.148211
-0.167137
-0.176383
-0.161681
-0.162831
-0.125215
-0.080327
-0.040814
-0.009479
0.050265
0.094092
0.119211
0.127048
0.112576
0.083503
0.055144
-0.000287
-0.053207
-0.094480
-0.135385
-0.154642
-0.175837
-0.194902
-0.199546
-0.175689
-0.139906
-0.089008
-0.024184
0.018978
0.056340
0.087354
0.104523
0.116609
0.117181
0.095104
0.063849
0.021768
-0.031631
-0.086277
-0.125402
-0.179225
-0.214329
-0.224775
-0.187999
-0.141271
-0.093125
-0.077979
-0.028369
0.004862
0.045185
0.071729
0.092142
0.119799
0.108563
0.083590
0.056963
0.032836
-0.019126
-0.075690
-0.115246
-0.159943
-0.185917
-0.176502
-0.185562
-0.181965
-0.151303
-0.090778
-0.048501
0.002087
0.048378
0.085477
0.088106
0.099546
0.088510
0.100160
0.065535
0.023671
-0.023248
-0.078117
-0.131346
-0.175026
-0.183659
-0.186905
-0.159370
-0.122958
-0.108386
-0.094801
-0.050765
-0.003235
0.032310
0.063997
0.087161
0.095996
0.089546
0.072621
0.048634
0.005120
-0.044914
-0.102864
-0.134718
-0.172206
-0.177904
-0.172255
-0.180287
-0.179626
-0.154331
-0.116826
-0.064090
-0.010706
0.039801
0.056910
0.071036
0.081807
0.071439
0.067179
0.035469
0.007786
-0.040091
-0.107422
-0.152101
-0.202811
-0.218326
-0.199542
-0.184314
-0.167376
-0.144268
-0.114989
-0.057791
0.002238
0.039312
0.065797
0.109780
0.101533
0.091973
0.079898
0.030287
-0.022163
-0.055970
-0.072498
-0.116776
-0.166289
-0.175838
-0.164677
-0.158992
-0.140473
-0.112253
-0.075001
-0.016280
0.038924
0.097221
0.129642
0.153723
0.149900
0.137245
0.113810
0.093830
0.057911
0.005932
-0.045043
-0.084383
-0.123328
-0.159906
-0.165459
-0.166878
-0.156976
-0.119163
-0.071316
-0.031749
0.028136
0.071400
0.108688
0.117937
0.133128
0.148713
0.142191
0.108297
0.057027
0.010110
-0.036205
-0.081196
-0.128993
-0.153038
-0.153110
-0.152895
-0.114846
-0.084508
-0.048448
-0.003613
0.017593
0.036156
0.073081
0.116318
0.139641
0.131071
0.075774
0.023082
-0.006049
-0.039603
-0.081254
-0.127154
-0.155909
-0.184963
-0.193760
-0.185741
-0.163988
-0.129644
-0.091250
-0.044916
0.014521
0.049251
0.079698
0.093674
0.099848
0.106241
0.087844
0.049030
-0.017662
-0.060076
-0.108089
-0.155104
-0.192723
-0.196947
-0.212339
-0.205985
-0.188600
-0.171221
-0.139436
-0.079298
-0.030253
0.011824
0.046168
0.065278
0.061652
0.057407
0.049839
0.006999
-0.047586
-0.096574
-0.136312
-0.183789
-0.222850
-0.229052
-0.226723
-0.224809
-0.227560
-0.179571
-0.105114
-0.080626
-0.055265
0.006685
0.072567
0.095395
0.099132
0.080590
0.049587
0.003080
-0.032991
-0.077198
-0.135160
-0.170072
-0.205354
-0.232387
-0.242416
-0.245962
-0.226308
-0.196295
-0.152284
-0.106950
-0.043298
0.008002
0.036442
0.052299
0.057945
0.043896
0.016465
-0.004602
-0.045346
-0.091264
-0.136195
-0.177952
-0.209886
-0.217871
-0.231170
-0.238893
-0.205455
-0.176879
-0.135356
-0.089152
-0.039668
-0.012968
0.019490
0.034309
0.043821
0.066418
0.064783
0.031252
-0.005388
-0.045150
-0.107642
-0.135524
-0.150711
-0.151681
-0.150056
-0.150650
-0.107110
-0.054161
-0.002976
0.044575
0.112303
0.166522
0.219450
0.269044
0.301611
0.300146
0.315707
0.314474
0.305401
0.273099
0.263878
0.260954
0.255737
0.276082
0.319079
0.350240
0.406709
0.478285
0.538551
0.638448
0.721626
0.781839
0.820113
0.817297
0.819440
0.785500
0.744762
0.690361
0.633638
0.548740
0.447353
0.335852
0.229080
0.128867
0.092663
0.073367
0.053169
0.034851
0.036608
0.092321
0.122119
0.156730
0.198064
0.213918
0.213583
0.184588
0.147338
0.098583
0.056396
0.016434
-0.039465
-0.085863
-0.120513
-0.140186
-0.151952
-0.150907
-0.134032
-0.105108
-0.086122
-0.038824
0.012572
0.049246
0.082587
0.106299
0.116553
0.119012
0.092862
0.069537
0.020439
-0.025871
-0.084438
-0.132599
-0.164390
-0.194369
-0.199778
-0.208472
-0.184709
-0.145298
-0.097135
-0.041165
0.004966
0.052744
0.080771
0.091576
0.099193
0.099635
0.076772
0.035597
0.005307
-0.060334
-0.087482
-0.104201
-0.147414
-0.166898
-0.186982
-0.183272
-0.167319
-0.123882
-0.094292
-0.059961
-0.019285
0.031505
0.068642
0.104442
0.128968
0.118790
0.091193
0.053590
0.005504
-0.035838
-0.069885
-0.116676
-0.170275
-0.189413
-0.190404
-0.179473
-0.155726
-0.125808
-0.077285
-0.033939
0.023070
0.063056
0.098311
0.128079
0.136541
0.126299
0.112233
0.078475
0.033773
-0.017717
-0.064986
-0.097858
-0.140363
-0.162950
-0.170503
-0.167775
-0.149384
-0.102576
-0.056054
-0.004907
0.050654
0.090172
0.116701
0.142787
0.158061
0.158651
0.117213
0.084524
0.057371
0.023438
-0.014693
-0.050561
-0.090828
-0.111636
-0.127220
-0.123176
-0.097619
-0.082522
-0.032243
0.049337
0.102587
0.121071
0.164843
0.185332
0.186675
0.181773
0.170621
0.129572
0.101232
0.060216
0.014347
-0.010810
-0.049907
-0.082714
-0.096507
-0.096174
-0.084801
-0.044946
0.001036
0.042216
0.104116
0.142168
0.180010
0.206683
0.211886
0.204585
0.181386
0.166387
0.133946
0.065945
0.015755
-0.030184
-0.058845
-0.078109
-0.078852
-0.067249
-0.064203
-0.013247
0.030815
0.065113
0.089217
0.119455
0.171888
0.192481
0.192033
0.193408
0.172861
0.130923
0.090528
0.054353
-0.003139
-0.033066
-0.069691
-0.088361
-0.080471
-0.077585
-0.072594
-0.045668
-0.019932
0.020554
0.063965
0.114846
0.164549
0.196777
0.199776
0.165827
0.135246
0.108005
0.074042
0.036455
-0.015188
-0.063162
-0.118516
-0.131328
-0.139849
-0.119751
-0.106096
-0.072741
-0.027445
0.010087
0.029189
0.064186
0.103737
0.140479
0.157393
0.145449
0.101173
0.069487
0.052050
0.010180
-0.048248
-0.100222
-0.142356
-0.172215
-0.191462
-0.183442
-0.161030
-0.128714
-0.095935
-0.061968
-0.016620
0.029252
0.077602
0.100617
0.109250
0.108213
0.094877
0.058538
0.007666
-0.044601
-0.086090
-0.120959
-0.163057
-0.180591
-0.193769
-0.194044
-0.176691
-0.132974
-0.095311
-0.062309
-0.034016
-0.008449
0.055213
0.058767
0.063587
0.071722
0.073976
0.045007
-0.000474
-0.062397
-0.110655
-0.139655
-0.174243
-0.202985
-0.209881
-0.192572
-0.162217
-0.148771
-0.118415
-0.059564
-0.016454
0.027538
0.060946
0.090064
0.106006
0.095840
0.072087
0.028419
-0.005284
-0.062254
-0.110963
-0.157266
-0.182517
-0.211746
-0.211529
-0.213224
-0.198562
-0.159989
-0.107656
-0.063442
-0.037507
0.010560
0.063541
0.077355
0.097950
0.085740
0.073149
0.038149
0.001373
-0.054744
-0.097988
-0.143684
-0.188707
-0.178541
-0.207537
-0.209321
-0.196367
-0.149927
-0.109225
-0.068308
-0.008371
0.046418
0.086612
0.098595
0.083793
0.071552
0.067014
0.045399
0.009008
-0.038537
-0.091619
-0.136031
-0.182117
-0.197339
-0.221732
-0.205452
-0.176385
-0.151197
-0.106605
-0.053028
-0.008353
0.032960
0.062071
0.096445
0.115623
0.099906
0.073726
0.032930
-0.000971
-0.040845
-0.073872
-0.119265
-0.166411
-0.180847
-0.199753
-0.182275
-0.153851
-0.122194
-0.075706
-0.028414
0.009144
0.024908
0.049663
0.103253
0.114276
0.098945
0.072424
0.025707
-0.016895
-0.061899
-0.104764
-0.135512
-0.144152
-0.160959
-0.193543
-0.191504
-0.164778
-0.136589
-0.105763
-0.047949
-0.006140
0.054131
0.085193
0.098731
0.095860
0.079670
0.057621
0.023947
-0.023341
-0.064024
-0.116058
-0.151209
-0.193714
-0.214108
-0.213705
-0.200948
-0.188601
-0.142585
-0.116897
-0.068050
-0.016247
0.039110
0.073226
0.098879
0.095483
0.087524
0.062032
0.029118
-0.012851
-0.062277
-0.117375
-0.167147
-0.195856
-0.199190
-0.189709
-0.196524
-0.209948
-0.179290
-0.141624
-0.083654
-0.026745
0.020631
0.059245
0.080944
0.099194
0.106282
0.069581
0.020752
-0.012109
-0.067463
-0.122176
-0.166153
-0.197201
-0.209688
-0.216653
-0.214155
-0.185325
-0.147332
-0.114093
-0.065289
-0.025290
0.025172
0.052250
0.079749
0.075275
0.070602
0.068703
0.048042
0.000924
-0.044624
-0.102456
-0.137488
-0.172510
-0.182911
-0.185287
-0.178168
-0.150145
-0.103758
-0.075885
-0.031231
0.014133
0.041555
0.072046
0.108143
0.134692
0.121714
0.085376
0.043534
0.006888
-0.028971
-0.090671
-0.128797
-0.168789
-0.184825
-0.190156
-0.184744
-0.144148
-0.112698
-0.082247
-0.051395
-0.004572
0.049117
0.100298
0.122742
0.123221
0.132885
0.100862
0.049486
0.016564
-0.021978
-0.057731
-0.106597
-0.151060
-0.155850
-0.161118
-0.163415
-0.149979
-0.125895
-0.082523
-0.028439
0.021772
0.058689
0.098381
0.120284
0.132326
0.107192
0.083042
0.037322
0.001459
-0.032398
-0.078840
-0.125627
-0.164799
-0.186311
-0.198828
-0.187635
-0.165478
-0.154481
-0.116598
-0.060467
-0.025116
0.000737
0.049706
0.084737
0.084771
0.060891
0.041373
0.032989
0.009618
-0.041500
-0.107646
-0.165591
-0.192252
-0.215632
-0.216838
-0.224428
-0.215545
-0.172415
-0.142071
-0.084042
-0.059361
-0.017509
0.013439
0.030927
0.044986
0.040446
0.023509
-0.014449
-0.048357
-0.089082
-0.120686
-0.161932
-0.193541
-0.228152
-0.248073
-0.236863
-0.224861
-0.202162
-0.158959
-0.102134
-0.049999
-0.006180
0.016159
0.041832
0.043116
0.050040
0.015684
-0.023159
-0.049993
-0.100883
-0.121460
-0.174405
-0.221899
-0.253738
-0.258058
-0.242208
-0.212349
-0.192640
-0.157493
-0.095803
-0.056810
-0.028368
0.008587
0.020600
0.036871
0.043587
0.028512
0.001568
-0.042159
-0.092542
-0.126823
-0.162760
-0.196199
-0.235537
-0.226620
-0.213240
-0.215916
-0.207636
-0.174468
-0.110834
-0.061786
-0.038166
0.001083
0.029816
0.031429
0.017615
0.018352
0.016945
-0.022689
-0.081206
-0.114208
-0.124731
-0.143637
-0.166751
-0.164429
-0.165229
-0.137920
-0.073783
-0.025225
0.008065
0.070024
0.150442
0.191884
0.230291
0.268760
0.278388
0.296234
0.303890
0.277288
0.280862
0.275059
0.259567
0.244062
0.242753
0.261765
0.312068
0.386409
0.468892
0.530534
0.613140
0.689159
0.749644
0.772016
0.775614
0.788628
0.778235
0.743343
0.694678
0.623643
0.539254
0.449490
0.336029
0.243412
0.162075
0.102398
0.067188
0.055728
0.056802
0.054269
0.069290
0.093506
0.117139
0.166030
0.194581
0.181114
0.157397
0.125035
0.090168
0.067723
0.014897
-0.055659
-0.105262
-0.126561
-0.124856
-0.145816
-0.161356
-0.145606
-0.110132
-0.073762
-0.035650
0.013005
0.050696
0.090688
0.111863
0.112039
0.099101
0.078246
0.039773
-0.006856
-0.046475
-0.092490
-0.155518
-0.204928
-0.225839
-0.234386
-0.199988
-0.177480
-0.155460
-0.117761
-0.051234
-0.002197
0.038330
0.079247
0.085104
0.090973
0.091551
0.064297
0.021937
-0.024107
-0.068063
-0.101708
-0.145917
-0.190682
-0.203820
-0.213387
-0.212803
-0.181531
-0.152406
-0.123942
-0.071137
-0.010972
0.020974
0.052795
0.068579
0.077421
0.086483
0.077353
0.052636
0.020236
-0.023503
-0.070819
-0.116329
-0.161093
-0.174610
-0.181610
-0.165859
-0.150298
-0.115282
-0.077335
-0.036925
0.021179
0.080147
0.096504
0.101459
0.115679
0.108520
0.089807
0.060689
0.023059
-0.035701
-0.070194
-0.107558
-0.141643
-0.156446
-0.168789
-0.156672
-0.159013
-0.140055
-0.091667
-0.031591
0.014498
0.074519
0.108279
0.120774
0.127854
0.127405
0.116124
0.107923
0.071068
0.021717
-0.033775
-0.091551
-0.102320
-0.119264
-0.132748
-0.136533
-0.121940
-0.076727
-0.036289
0.005803
0.050520
0.095206
0.126329
0.139028
0.176156
0.165580
0.151666
0.117592
0.096413
0.051746
-0.011343
-0.052975
-0.100278
-0.113890
-0.108939
-0.087108
-0.067351
-0.041809
0.000303
0.053141
0.087941
0.128133
0.181827
0.202592
0.213197
0.216128
0.201936
0.144565
0.103878
0.069373
0.019888
-0.040640
-0.063120
-0.084878
-0.099337
-0.097561
-0.080709
-0.041570
-0.007160
0.044530
0.080709
0.115761
0.151796
0.176606
0.200033
0.197197
0.165969
0.131519
0.113662
0.072018
0.018591
-0.037680
-0.081244
-0.111471
-0.110542
-0.091427
-0.078674
-0.053425
-0.024798
0.014364
0.054382
0.090215
0.143328
0.154672
0.162955
0.150412
0.119137
0.092627
0.059762
0.011462
-0.027630
-0.070251
-0.110725
-0.135356
-0.151201
-0.150405
-0.124997
-0.085397
-0.056516
-0.011892
0.027195
0.053396
0.086018
0.103640
0.130149
0.118818
0.085235
0.045720
0.010340
-0.038312
-0.090697
-0.121692
-0.163168
-0.188376
-0.191840
-0.187333
-0.164823
-0.144874
-0.104399
-0.079544
-0.026169
0.013503
0.071442
0.096743
0.101330
0.096055
0.063152
0.024134
-0.007300
-0.053058
-0.118135
-0.158521
-0.178802
-0.186319
-0.191656
-0.173381
-0.165045
-0.142301
-0.107814
-0.071240
-0.012257
0.041165
0.066868
0.087455
0.095298
0.093692
0.057164
-0.001523
-0.042281
-0.045736
-0.092138
-0.146922
-0.204179
-0.231468
-0.234830
-0.219511
-0.191523
-0.178440
-0.125178
-0.075005
-0.010018
0.025708
0.044980
0.063635
0.080216
0.075875
0.047418
0.020754
-0.006082
-0.063861
-0.119482
-0.151858
-0.193021
-0.211820
-0.220840
-0.214021
-0.194506
-0.162244
-0.128339
-0.069883
-0.010165
0.017157
0.042966
0.072878
0.071130
0.061772
0.054806
0.028257
-0.009426
-0.052044
-0.094331
-0.136618
-0.179199
-0.208819
-0.237695
-0.237216
-0.192946
-0.153767
-0.128275
-0.080748
-0.011405
0.027538
0.056277
0.074441
0.084498
0.093389
0.075029
0.037769
0.005089
-0.040644
-0.093752
-0.150533
-0.188003
-0.198069
-0.200926
-0.189730
-0.157528
-0.138949
-0.116214
-0.080865
-0.029987
0.019369
0.052215
0.077931
0.088116
0.089314
0.078318
0.045152
-0.000423
-0.049347
-0.101469
-0.126103
-0.172188
-0.207783
-0.223636
-0.208930
-0.190755
-0.169985
-0.116295
-0.055201
-0.000731
0.011272
0.067584
0.098284
0.104976
0.104715
0.079010
0.029606
-0.026075
-0.070217
-0.113455
-0.154798
-0.187622
-0.200127
-0.212926
-0.202632
-0.186059
-0.165233
-0.125768
-0.073903
-0.028099
0.014233
0.059073
0.086892
0.083389
0.080828
0.045182
0.036778
0.018074
-0.035131
-0.091078
-0.144447
-0.189686
-0.211347
-0.211728
-0.214727
-0.182702
-0.144490
-0.106328
-0.059040
-0.016102
0.020801
0.062663
0.080460
0.084610
0.069126
0.054071
0.021869
-0.012204
-0.059739
-0.098783
-0.144834
-0.193120
-0.199931
-0.202584
-0.206147
-0.184349
-0.158230
-0.113258
-0.068747
-0.037519
-0.003576
0.036972
0.052411
0.044402
0.062196
0.055737
0.025083
-0.030694
-0.085968
-0.128979
-0.168887
-0.217042
-0.228386
-0.225424
-0.222318
-0.214737
-0.190933
-0.120285
-0.060796
-0.029255
0.001112
0.038086
0.062334
0.065435
0.062990
0.054300
0.032032
-0.005979
-0.072435
-0.117807
-0.155979
-0.195593
-0.225468
-0.234764
-0.223335
-0.192364
-0.173603
-0.118279
-0.083186
-0.046795
0.007773
0.043286
0.071970
0.101272
0.095100
0.074749
0.042121
