-0.118997
-0.091551
-0.043627
0.038619
0.084739
0.065525
0.048521
0.030348
-0.011892
-0.045012
-0.095574
-0.137626
-0.170925
-0.217277
-0.219277
-0.243886
-0.215317
-0.207551
-0.175588
-0.130705
-0.069152
-0.003756
0.021931
0.042576
0.059368
0.054295
0.036823
0.029750
-0.003773
-0.051862
-0.076489
-0.103301
-0.129522
-0.202084
-0.228731
-0.225101
-0.235868
-0.206332
-0.155651
-0.093261
-0.046093
0.008425
0.028577
0.060498
0.081082
0.074047
0.046892
0.061397
0.041256
-0.013433
-0.073338
-0.113600
-0.144778
-0.173523
-0.191461
-0.221680
-0.215267
-0.171432
-0.114997
-0.084848
-0.036613
-0.014920
0.043273
0.074188
0.102147
0.118985
0.103318
0.089822
0.053154
0.005418
-0.056019
-0.111802
-0.143462
-0.190868
-0.199781
-0.196865
-0.196181
-0.197115
-0.125227
-0.077652
-0.048141
-0.000971
0.045518
0.064292
0.094059
0.102361
0.079324
0.043186
0.018569
-0.008927
-0.030151
-0.087214
-0.135098
-0.172962
-0.202924
-0.213148
-0.204590
-0.189170
-0.159934
-0.109840
-0.050409
0.009617
0.048920
0.039688
0.071593
0.081522
0.061300
0.025983
0.008143
-0.005787
-0.065684
-0.137319
-0.179369
-0.202519
-0.236050
-0.263507
-0.279297
-0.217474
-0.150747
-0.107186
-0.061538
-0.021681
0.024811
0.061060
0.059600
0.071641
0.058010
0.055208
0.005521
-0.029856
-0.062441
-0.125374
-0.197396
-0.248018
-0.244308
-0.237356
-0.255291
-0.231525
-0.148211
-0.114263
-0.049501
-0.009559
0.002191
0.009046
0.016297
0.058094
0.108682
0.069900
0.032665
-0.029286
-0.094233
-0.139123
-0.190541
-0.204946
-0.246685
-0.247166
-0.243546
-0.219546
-0.196809
-0.168120
-0.122496
-0.063744
0.008128
0.066431
0.082970
0.057006
0.066833
0.046546
0.002325
-0.042651
-0.090854
-0.145769
-0.208039
-0.244724
-0.264018
-0.279913
-0.266317
-0.254979
-0.208001
-0.131804
-0.106940
-0.102237
-0.049553
-0.031342
0.020588
0.070499
0.072971
0.036113
-0.015710
-0.050564
-0.094276
-0.132401
-0.156776
-0.185210
-0.250071
-0.253935
-0.231602
-0.210633
-0.180783
-0.145693
-0.125631
-0.079487
-0.005785
0.019869
0.017250
0.070857
0.059811
0.039080
0.006636
-0.034906
-0.087866
-0.142105
-0.197765
-0.222155
-0.233194
-0.225669
-0.230915
-0.206403
-0.188692
-0.156737
-0.100446
-0.060726
-0.000330
0.041126
0.054086
0.067487
0.039911
0.018824
0.005257
-0.028635
-0.091773
-0.152019
-0.207106
-0.221630
-0.234881
-0.211924
-0.195003
-0.188124
-0.170550
-0.133002
-0.080225
-0.045902
-0.024501
0.028294
0.055394
0.062890
0.046067
0.010054
-0.018954
-0.057752
-0.075607
-0.105786
-0.146462
-0.185710
-0.219811
-0.236100
-0.226221
-0.205149
-0.166380
-0.128208
-0.078640
-0.017374
0.010951
0.031429
0.056269
0.049833
0.056280
0.033950
0.000632
-0.025738
-0.085497
-0.145364
-0.189614
-0.216688
-0.228119
-0.244688
-0.250129
-0.229639
-0.202681
-0.141595
-0.100902
-0.055284
-0.013207
0.025213
0.053527
0.089569
0.060284
0.024142
-0.004660
-0.053140
-0.094663
-0.151705
-0.220501
-0.242860
-0.249948
-0.237993
-0.225696
-0.203926
-0.209239
-0.144085
-0.098359
-0.067387
-0.038455
0.015939
0.036906
0.074984
0.097267
0.061418
-0.008178
-0.045618
-0.111016
-0.174220
-0.190702
-0.217708
-0.256536
-0.227083
-0.228251
-0.212514
-0.189997
-0.150284
-0.102966
-0.040278
-0.010767
0.016378
0.021555
0.027825
0.038867
0.011100
-0.034273
-0.104521
-0.122718
-0.119047
-0.171471
-0.229748
-0.263620
-0.230895
-0.251031
-0.246260
-0.191877
-0.150097
-0.113744
-0.065084
-0.023921
0.019790
0.025096
0.039673
0.037890
0.016924
-0.012522
-0.060450
-0.109483
-0.169013
-0.207605
-0.216473
-0.276652
-0.283940
-0.249351
-0.232494
-0.207795
-0.176000
-0.084061
-0.055168
-0.017735
0.022980
0.051390
0.059547
0.061985
0.043456
0.003819
-0.025180
-0.074878
-0.129324
-0.180926
-0.205610
-0.223272
-0.238610
-0.227376
-0.215022
-0.178849
-0.127311
-0.059883
-0.001351
0.041791
0.066569
0.093107
0.086160
0.059174
0.044216
0.013276
-0.008199
-0.071323
-0.126416
-0.156049
-0.205107
-0.239901
-0.223368
-0.207276
-0.199772
-0.167764
-0.079107
-0.061212
-0.060931
0.004855
0.100256
0.126047
0.113558
0.096456
0.086898
0.045058
-0.013407
-0.059170
-0.106934
-0.143304
-0.207782
-0.225066
-0.264231
-0.262332
-0.187292
-0.138466
-0.137299
-0.111613
-0.044483
0.027923
0.040720
0.048874
0.042967
0.038121
0.014730
0.003142
-0.035240
-0.091713
-0.142274
-0.203840
-0.247107
-0.269154
-0.270228
-0.258111
-0.222583
-0.186827
-0.140863
-0.096469
-0.060226
-0.027159
0.003961
0.023172
-0.012590
0.006979
-0.005785
-0.023910
-0.072802
-0.136462
-0.192318
-0.220721
-0.265937
-0.304194
-0.291260
-0.260813
-0.255361
-0.238540
-0.206548
-0.133582
-0.083696
-0.050981
-0.000988
0.009086
-0.007148
-0.021221
-0.033007
-0.068931
-0.095751
-0.117456
-0.164252
-0.220725
-0.278863
-0.312355
-0.305404
-0.294900
-0.256277
-0.205211
-0.211531
-0.170865
-0.093905
-0.046311
-0.010916
0.031475
0.048248
0.055629
0.016894
-0.028996
-0.084121
-0.154651
-0.203394
-0.228069
-0.250238
-0.266779
-0.278942
-0.288092
-0.291498
-0.292751
-0.258680
-0.158159
-0.061086
-0.009185
0.009968
0.019162
0.022634
0.005255
-0.024615
-0.064154
-0.096324
-0.140022
-0.183126
-0.226699
-0.259428
-0.295740
-0.316364
-0.308777
-0.289738
-0.254373
-0.212436
-0.165832
-0.098956
-0.035324
-0.005127
0.002565
0.028324
0.056537
0.042103
0.029521
-0.010478
-0.034859
-0.071633
-0.113616
-0.118072
-0.125212
-0.116929
-0.102381
-0.055056
0.039162
0.101576
0.154787
0.229554
0.326694
0.384625
0.440414
0.466096
0.479875
0.497129
0.496042
0.511971
0.501485
0.469871
0.454966
0.407366
0.447343
0.521189
0.571972
0.587537
0.600706
0.616034
0.630902
0.666053
0.701602
0.670446
0.657621
0.588534
0.504197
0.434196
0.338814
0.245258
0.154080
0.074518
-0.013962
-0.049354
-0.103732
-0.105171
-0.091691
-0.074344
-0.064488
-0.038279
0.009074
0.059212
0.105088
0.140042
0.163047
0.156264
0.083081
0.023350
0.028957
-0.031867
-0.066327
-0.103678
-0.151084
-0.193340
-0.231975
-0.245215
-0.246019
-0.246045
-0.197681
-0.123080
-0.090836
-0.025500
0.015122
0.066487
0.095166
0.078057
0.067927
0.032402
0.010490
-0.015090
-0.056600
-0.139541
-0.178443
-0.207660
-0.243353
-0.251721
-0.239010
-0.228458
-0.202896
-0.159707
-0.091835
-0.048057
-0.023134
-0.005261
0.025562
0.060561
0.059865
0.031907
-0.013914
-0.085510
-0.139284
-0.180662
-0.238393
-0.264490
-0.164027
-0.199743
-0.214675
-0.214883
-0.173105
-0.142380
-0.098585
-0.061333
-0.006855
0.037724
0.046085
0.054543
0.048946
0.020619
-0.016211
-0.072609
-0.118004
-0.136072
-0.177025
-0.212847
-0.231472
-0.239324
-0.239471
-0.219975
-0.169605
-0.133218
-0.076132
-0.035093
0.007658
0.039247
0.063981
0.074191
0.083928
0.055016
0.017632
-0.023686
-0.090330
-0.144911
-0.176057
-0.179570
-0.232202
-0.246138
-0.250052
-0.230796
-0.168128
-0.122711
-0.060214
-0.005262
0.032305
0.050135
0.074135
0.102730
0.112108
0.079658
0.026149
-0.032217
-0.073416
-0.109933
-0.137322
-0.155892
-0.174419
-0.202982
-0.224688
-0.230477
-0.201597
-0.147251
-0.042582
0.007760
0.053235
0.094714
0.085468
0.069069
0.109339
0.108865
0.069329
0.008192
-0.058113
-0.098174
-0.140326
-0.160004
-0.185261
-0.208273
-0.184493
-0.150952
-0.123776
-0.098792
-0.044204
-0.004151
0.061751
0.071055
0.106693
0.110729
0.100286
0.094321
0.037409
-0.033981
-0.079187
-0.107202
-0.162267
-0.212231
-0.249835
-0.240196
-0.211945
-0.166925
-0.157023
-0.117612
-0.073394
-0.020479
0.022505
0.055712
0.083534
0.089431
0.081081
0.052118
0.012147
-0.018636
-0.093717
-0.157126
-0.180277
-0.227968
-0.269877
-0.220787
-0.200491
-0.181247
-0.159047
-0.136731
-0.116220
-0.060331
0.010941
0.015244
0.066713
0.083727
0.079855
0.055882
0.019091
-0.025378
-0.072600
-0.122931
-0.170431
-0.208572
-0.243793
-0.244278
-0.222745
-0.197094
-0.173941
-0.158074
-0.102016
-0.037586
0.014705
0.042436
0.059538
0.083453
0.063802
0.038658
0.011359
-0.059416
-0.116377
-0.148313
-0.191978
-0.279048
-0.292222
-0.242764
-0.223111
-0.232754
-0.172643
-0.095530
-0.057785
-0.041244
-0.017175
0.016839
0.048597
0.103439
0.106845
0.062560
-0.006290
-0.079382
-0.118691
-0.133215
-0.212602
-0.245915
-0.238020
-0.252294
-0.228056
-0.173496
-0.165617
-0.141474
-0.105032
-0.070523
-0.005601
0.044087
0.050551
0.063708
0.047780
0.021015
-0.000307
-0.044261
-0.088986
-0.145158
-0.206848
-0.225174
-0.253557
-0.243664
-0.255482
-0.223492
-0.178538
-0.115552
-0.062442
-0.032656
0.018156
0.050177
0.055511
0.065343
0.077761
0.076605
0.016359
-0.059927
-0.113328
-0.160798
-0.183834
-0.211509
-0.244760
-0.255118
-0.238610
-0.179341
-0.146856
-0.113162
-0.069635
-0.031518
0.017106
0.040030
0.057445
0.069661
0.044826
0.019406
0.023076
-0.026323
-0.088386
-0.132397
-0.188694
-0.221067
-0.231901
-0.253823
-0.254070
-0.208181
-0.164770
-0.124533
-0.081137
-0.024187
0.010166
0.011943
0.022915
0.047966
0.073227
0.058948
0.022382
-0.054451
-0.072774
-0.126855
-0.225199
-0.249816
-0.283622
-0.261156
-0.206362
-0.185858
-0.174534
-0.130602
-0.057954
-0.047388
0.008484
0.056415
0.052468
0.052021
0.028864
0.026661
0.007851
-0.026782
-0.074375
-0.143873
-0.185323
-0.197646
-0.243033
-0.257904
-0.235281
-0.229126
-0.203886
-0.156673
-0.088820
-0.037547
0.005125
0.036385
0.053673
0.050389
0.028389
0.026864
0.005122
-0.044197
-0.082445
-0.141627
-0.201454
-0.224303
-0.218282
-0.229782
-0.240668
-0.202111
-0.176942
-0.133565
-0.087844
-0.034155
-0.016382
0.019060
0.058685
0.054422
0.028002
0.005691
-0.017960
-0.037768
-0.096534
-0.144023
-0.204394
-0.261149
-0.257830
-0.284675
-0.268965
-0.213970
-0.176595
-0.121978
-0.103255
-0.055271
-0.017041
0.018739
0.042344
0.064541
0.056463
0.041863
0.013757
-0.055000
-0.120343
-0.168463
-0.198843
-0.235733
-0.239514
-0.255917
-0.239442
-0.213019
-0.192193
-0.174348
-0.087768
-0.038459
-0.014218
0.011637
0.008737
0.034700
0.063625
0.020077
-0.009483
-0.045423
-0.085822
-0.134434
-0.195546
-0.219537
-0.251646
-0.289854
-0.289583
-0.242601
-0.195522
-0.140353
-0.096407
-0.047687
0.030028
0.060325
0.069032
0.059830
0.051454
0.026019
0.012716
-0.056507
-0.134794
-0.190601
-0.221405
-0.200291
-0.240902
-0.252679
-0.228761
-0.222105
-0.193933
-0.118978
-0.084756
-0.000114
0.041437
0.071840
0.081601
0.085210
0.057868
0.048063
0.032406
-0.029379
-0.070254
-0.112422
-0.172539
-0.187988
-0.234572
-0.235083
-0.209196
-0.181214
-0.151096
-0.109916
-0.076513
-0.021602
0.029078
0.051323
0.084901
0.095500
0.084267
0.055606
0.033537
-0.006826
-0.056554
-0.070821
-0.109883
-0.152153
-0.210584
-0.208429
-0.200550
-0.172809
-0.132220
-0.094895
-0.068158
-0.014827
0.050947
0.069554
0.096899
0.123019
0.098904
0.050614
-0.003615
-0.050389
-0.056495
-0.131326
-0.157904
-0.174126
-0.207570
-0.241260
-0.229894
-0.198285
-0.182057
-0.139095
-0.098687
-0.035161
-0.000450
0.027728
0.050831
0.060440
0.025817
0.022654
-0.041574
-0.070737
-0.116715
-0.168656
-0.218952
-0.249500
-0.274292
-0.292581
-0.283937
-0.245895
-0.245071
-0.159679
-0.127597
-0.085491
-0.043562
-0.015934
0.014997
0.021911
0.006527
0.007116
0.002816
-0.006579
-0.098947
-0.183732
-0.240529
-0.269984
-0.291305
-0.293692
-0.273857
-0.242946
-0.211704
-0.183234
-0.137843
-0.077589
-0.030479
-0.001831
0.005859
0.017095
0.002840
-0.021213
-0.036181
-0.095478
-0.108462
-0.172873
-0.250989
-0.272873
-0.274589
-0.280399
-0.260023
-0.224971
-0.198334
-0.179610
-0.135504
-0.074895
-0.007184
0.019430
0.028246
0.029674
0.006713
-0.019902
-0.068043
-0.090310
-0.124349
-0.193748
-0.242994
-0.287929
-0.278725
-0.279394
-0.242849
-0.235299
-0.206534
-0.168356
-0.139562
-0.073583
-0.017702
0.000394
-0.002601
-0.019884
-0.039750
-0.033193
-0.053165
-0.069341
-0.144167
-0.208036
-0.223264
-0.239657
-0.250326
-0.201469
-0.207406
-0.161270
-0.128112
-0.085949
-0.027613
0.035248
0.115606
0.161317
0.206846
0.206030
0.235555
0.218554
0.191397
0.158964
0.175717
0.154625
0.134547
0.170673
0.205517
0.230542
0.260861
0.315932
0.416731
0.494145
0.542738
0.612327
0.680269
0.776497
0.810160
0.845317
0.856298
0.839128
0.787728
0.703336
0.645385
0.577162
0.542720
0.460770
0.356645
0.257540
0.211609
0.160493
0.156033
0.161318
0.156090
0.134216
0.169143
0.200505
0.232822
0.226000
0.212639
0.168423
0.107845
0.062729
0.028277
-0.021996
-0.073480
-0.093745
-0.155570
-0.182809
-0.166888
-0.135012
-0.118038
-0.102551
-0.057023
-0.001305
0.066324
0.095538
0.113248
0.098460
0.071387
0.084629
0.034407
-0.039538
-0.070471
-0.117481
-0.189522
-0.235207
-0.204887
-0.232731
-0.208906
-0.162759
-0.147136
-0.126932
-0.118655
-0.044793
0.008578
0.015501
0.037837
0.043478
0.072860
0.085140
0.006901
-0.027759
-0.066226
-0.146139
-0.197919
-0.196707
-0.171032
-0.222322
-0.246201
-0.200872
-0.169239
-0.122097
-0.083244
-0.028409
0.020428
0.034397
0.064657
0.081543
0.071574
0.044807
-0.005781
-0.057867
-0.070307
-0.097263
-0.149536
-0.202738
-0.221860
-0.225519
-0.228322
-0.202174
-0.174031
-0.117432
-0.062670
-0.016233
0.041385
0.057601
0.084829
0.088405
0.084031
0.055792
0.015368
-0.029086
-0.064698
-0.109827
-0.145957
-0.180907
-0.209689
-0.237086
-0.202472
-0.184121
-0.158612
-0.128007
-0.069625
-0.008457
0.046767
0.120741
0.120675
0.116532
0.091351
0.094128
0.074411
0.015393
-0.030630
-0.083680
-0.166342
-0.194212
-0.189987
-0.184585
-0.166650
-0.137376
-0.115141
-0.087307
-0.003274
0.028267
0.042170
0.059247
0.075017
0.134051
0.133856
0.116162
0.025432
-0.012890
-0.008299
-0.034638
-0.085807
-0.134464
-0.194438
-0.188968
-0.108258
-0.122552
-0.098453
-0.062758
-0.045983
0.011728
0.107762
0.131538
0.117153
0.141303
0.115023
0.112496
0.095930
0.055708
0.004764
-0.055165
-0.100977
-0.122555
-0.156219
-0.169629
-0.143073
-0.126681
-0.095685
-0.082046
-0.009018
0.030620
0.054168
0.113238
0.121976
0.137764
0.115292
0.093715
0.022928
-0.004649
-0.036649
-0.081841
-0.113658
-0.150415
-0.166558
-0.170834
-0.170961
-0.166436
-0.133385
-0.090468
-0.053649
-0.000165
0.051217
0.080544
0.102085
0.114047
0.098825
0.093379
0.045928
0.003465
-0.045550
-0.098222
-0.147527
-0.184387
-0.218199
-0.226543
-0.197805
-0.168324
-0.144430
-0.088819
-0.042270
0.019211
0.046409
0.095064
0.090175
0.081602
0.079489
0.072623
0.044554
0.001465
-0.055346
-0.091281
-0.139403
-0.182025
-0.199402
-0.199193
-0.189583
-0.161057
-0.131589
-0.104417
-0.047949
-0.012694
0.014820
0.049661
0.064519
0.080721
0.084109
0.067319
0.012814
-0.033111
-0.083528
-0.113241
-0.154158
-0.190505
-0.209825
-0.218557
-0.216724
-0.143017
-0.126182
-0.110236
-0.059678
-0.030684
0.004533
0.041983
0.094740
0.077239
0.044492
0.038339
0.033301
0.009475
-0.054254
-0.105091
-0.175513
-0.196711
-0.233081
-0.235682
-0.191165
-0.170040
-0.154873
-0.111604
-0.077522
-0.011907
0.027105
0.078050
0.106362
0.110098
0.085634
0.058257
0.025210
-0.016516
-0.065658
-0.093140
-0.150502
-0.179713
-0.206804
-0.210526
-0.218114
-0.183208
-0.153830
-0.120968
-0.073954
-0.016635
0.034456
0.087010
0.104485
0.090298
0.081644
0.075887
0.046519
-0.001491
-0.038759
-0.071513
-0.141381
-0.204011
-0.216292
-0.219602
-0.214804
-0.179951
-0.130875
-0.107714
-0.064584
-0.023642
0.033144
0.041687
0.083426
0.102699
0.120558
0.080101
0.024494
-0.022184
-0.062576
-0.112272
-0.142770
-0.171711
-0.219055
-0.218097
-0.201660
-0.160765
-0.132479
-0.054769
-0.014584
0.018224
0.065896
0.097054
0.099116
0.088914
0.107711
0.089454
0.045601
-0.016321
-0.091983
-0.122505
-0.158647
-0.179941
-0.182400
-0.155981
-0.169271
-0.141159
-0.116409
-0.089709
-0.021275
0.005690
0.036348
0.063038
0.082098
0.079180
0.079415
0.067228
0.063680
0.031780
-0.018345
-0.069905
-0.136784
-0.132719
-0.177942
-0.195235
-0.188020
-0.168193
-0.143754
-0.088978
-0.053868
-0.000784
0.038793
0.078856
0.091324
0.107667
0.105829
0.089889
0.047353
-0.012626
-0.055774
-0.105748
-0.146029
-0.177391
-0.203499
-0.223800
-0.212459
-0.188996
-0.152998
-0.103078
-0.084915
-0.066096
-0.013028
0.045925
0.051539
0.077954
0.088739
0.075922
0.046605
-0.004459
-0.039844
-0.077162
-0.091521
-0.157982
-0.216725
-0.234715
-0.232660
-0.158485
-0.138515
-0.108156
-0.053567
-0.021016
0.038814
0.063618
0.076800
0.089281
0.089840
0.075337
0.041278
-0.009393
-0.077419
-0.121069
-0.147000
-0.186151
-0.206857
-0.207832
-0.212811
-0.204692
-0.187886
-0.107213
-0.051994
-0.004659
0.077074
0.104054
0.104956
0.118835
0.100416
0.061265
0.027825
-0.008485
-0.034730
-0.092438
-0.144709
-0.165424
-0.172991
-0.200606
-0.199935
-0.171626
-0.126872
-0.070907
-0.023324
0.002671
0.062275
0.104043
0.144217
0.141970
0.111378
0.082045
0.073003
0.048165
-0.012916
-0.051626
-0.106860
-0.139830
-0.169341
-0.180429
-0.194917
-0.176340
-0.120164
-0.055135
-0.011546
0.025099
0.074319
0.102418
0.133720
0.148506
0.131738
0.113869
0.074618
0.059356
-0.006848
-0.049190
-0.043806
-0.075650
-0.126317
-0.138498
-0.144230
-0.141726
-0.127777
-0.055545
-0.001072
0.060189
0.093183
0.119630
0.117716
0.116135
0.107536
0.093606
0.070446
0.013823
-0.023352
-0.061601
-0.062958
-0.124508
-0.177684
-0.184417
-0.185491
-0.167759
-0.136163
-0.100964
-0.036751
0.002230
0.060004
0.093019
0.104119
0.101698
0.093064
0.068045
0.009108
-0.060165
-0.078713
-0.128452
-0.172980
-0.219544
-0.237538
-0.215228
-0.198419
-0.179981
-0.152838
-0.114242
-0.069859
-0.029179
0.018285
0.042943
0.075141
0.088742
0.075835
0.046747
-0.001224
-0.034553
-0.072870
-0.120905
-0.166321
-0.182796
-0.212124
-0.233188
-0.221505
-0.205910
-0.168553
-0.119595
-0.078805
-0.029630
0.008482
0.021944
0.042520
0.066733
0.076920
0.044900
0.005602
-0.052048
-0.062984
-0.138819
-0.172997
-0.185416
-0.212936
-0.249012
-0.230766
-0.174810
-0.147685
-0.112525
-0.081026
-0.028553
0.039120
0.087303
0.114212
0.118180
0.105273
0.065155
0.023319
-0.046013
-0.091611
-0.118332
-0.160517
-0.163296
-0.194062
-0.195353
-0.207558
-0.198878
-0.168043
-0.131897
-0.085216
-0.030648
0.019134
0.036836
0.076188
0.094545
0.068530
0.060742
0.004351
-0.029722
-0.087193
-0.122981
-0.155258
-0.175591
-0.192334
-0.163935
-0.155383
-0.107802
-0.048270
0.014313
0.049258
0.100814
0.169290
0.227976
0.263051
0.301719
0.318925
0.340714
0.358975
0.330384
0.303814
0.279673
0.278389
0.280625
0.272620
0.315869
0.373340
0.450145
0.513148
0.598258
0.683172
0.761935
0.805274
0.850764
0.923900
0.895663
0.901925
0.853198
0.787704
0.762751
0.718855
0.622864
0.513423
0.398156
0.308727
0.239917
0.187938
0.147571
0.133808
0.141753
0.157823
0.199163
0.247637
0.270546
0.282937
0.278600
0.277994
0.211650
0.150906
0.120108
0.076095
0.024504
-0.002162
-0.043186
-0.076035
-0.095406
-0.102577
-0.067804
-0.063333
-0.049180
-0.018075
0.060020
0.149152
0.169302
0.149924
0.168251
0.168343
0.142209
0.106096
0.059400
0.008307
-0.055459
-0.098566
-0.152264
-0.192181
-0.183422
-0.151019
-0.156926
-0.087400
-0.058689
-0.022000
0.032346
0.081376
0.120108
0.110215
0.127202
0.117240
0.134373
0.098753
0.053080
0.001699
-0.070265
-0.137194
-0.168319
-0.172416
-0.157511
-0.140341
-0.149284
-0.112629
-0.058120
0.002277
0.036896
0.067687
0.111272
0.137228
0.176031
0.153356
0.141904
0.096800
0.048479
0.001202
-0.042948
-0.085985
-0.128357
-0.134061
-0.147397
-0.134966
-0.115251
-0.079177
-0.035404
0.007998
0.054664
0.105425
0.130535
0.143069
0.148040
0.141829
0.119055
0.088792
0.052139
0.003332
-0.056431
-0.108656
-0.128396
-0.123313
-0.117880
-0.104871
-0.092791
-0.080844
-0.026816
0.016584
0.069082
0.102719
0.162592
0.175312
0.186710
0.171941
0.146954
0.116990
0.064554
0.004367
-0.049033
-0.067350
-0.103381
-0.141527
-0.130949
-0.106929
-0.091759
-0.054224
-0.007066
0.044125
0.103733
0.122575
0.143991
0.179755
0.193989
0.194099
0.176149
0.147004
0.095552
0.042887
-0.009853
-0.064223
-0.094565
-0.088124
-0.104746
-0.085389
-0.075258
-0.044678
-0.008011
0.045581
0.096324
0.138168
0.172641
0.172734
0.187109
0.200358
0.158508
0.123827
0.091904
0.065049
0.009781
-0.046217
-0.091115
-0.104617
-0.094933
-0.090700
-0.053911
-0.015571
-0.013083
0.030686
0.048852
0.120218
0.180095
0.201538
0.205050
0.177801
0.165435
0.132140
0.099666
0.044361
-0.010083
-0.058403
-0.102985
-0.137997
-0.140525
-0.135778
-0.100249
-0.070794
-0.040968
0.012456
0.083542
0.128787
0.165208
0.174681
0.187101
0.191586
0.161261
0.125046
0.069353
0.005936
-0.033388
-0.064903
-0.096471
-0.118506
-0.136786
-0.142268
-0.116236
-0.081399
-0.043521
0.013478
0.060215
0.101756
0.152639
0.185274
0.177954
0.146262
0.113258
0.121375
0.084923
0.034115
-0.012959
-0.101598
-0.132835
-0.139826
-0.173954
-0.164491
-0.142613
-0.085227
-0.027342
0.011678
0.073456
0.117027
0.132007
0.150870
0.164887
0.159417
0.138064
0.112446
0.069464
0.012158
-0.042166
-0.085562
-0.129267
-0.146761
-0.161583
-0.154821
-0.130720
-0.095955
-0.057773
-0.015369
0.053673
0.083404
0.100669
0.094750
0.128077
0.159002
0.119191
0.077445
0.047750
0.013463
-0.028066
-0.055686
-0.104573
-0.160316
-0.177689
-0.159881
-0.129563
-0.086234
-0.032989
0.013076
0.052446
0.099733
0.142873
0.176140
0.167339
0.148162
0.130016
0.093324
0.053423
-0.000560
-0.043575
-0.096770
-0.144480
-0.146872
-0.163475
-0.151510
-0.132842
-0.086500
-0.076083
-0.015043
0.060336
0.125817
0.149356
0.140088
0.119635
0.113888
0.108157
0.090800
0.114736
0.087504
0.010137
-0.045811
-0.096946
-0.113982
-0.141198
-0.141740
-0.117833
-0.091774
-0.050950
0.005633
0.041739
0.091274
0.143146
0.152463
0.152917
0.166762
0.154209
0.103658
0.054049
0.014028
-0.020272
-0.045987
-0.066228
-0.098047
-0.134526
-0.176315
-0.096571
-0.062101
-0.055565
0.009594
0.058864
0.132139
0.155638
0.168894
0.167467
0.145008
0.135420
0.101211
0.033331
0.041171
-0.022857
-0.065976
-0.111308
-0.137891
-0.134887
-0.120066
-0.097622
-0.055823
-0.017426
0.023383
0.051440
0.079147
0.126909
0.158655
0.162932
0.156054
0.153320
0.144646
0.072328
0.004097
-0.042859
-0.074042
-0.113857
-0.149488
-0.161452
-0.144948
-0.104738
-0.065822
-0.037798
-0.003908
0.031933
0.078733
0.121202
0.149079
0.163248
0.139809
0.143369
0.100134
0.050047
-0.004007
-0.045460
-0.091531
-0.116464
-0.123994
-0.136006
-0.124038
-0.111673
-0.077981
-0.046435
-0.036472
0.034878
0.089035
0.152667
0.194758
0.214203
0.175621
0.156537
0.115887
0.019942
-0.033767
-0.063327
-0.108928
-0.159711
-0.182010
-0.138408
-0.097133
-0.084102
-0.067959
-0.049002
-0.026740
0.032600
0.145729
0.162553
0.165770
0.175069
0.141613
0.113030
0.094137
0.074885
0.013362
-0.037199
-0.097852
-0.144266
-0.130561
-0.144070
-0.139810
-0.155471
-0.100355
-0.078303
-0.039009
0.041524
0.111141
0.170557
0.152418
0.161805
0.169576
0.133585
0.083029
0.052263
0.032661
-0.000348
-0.049737
-0.115367
-0.133558
-0.166023
-0.148450
-0.066227
-0.017565
0.007624
0.074662
0.103448
0.133881
0.159490
0.177740
0.183516
0.208033
0.171948
0.152113
0.073693
0.039755
-0.008716
-0.038941
-0.045653
-0.056176
-0.097385
-0.096991
-0.069257
-0.033266
0.003191
0.053790
0.105104
0.139497
0.164976
0.176865
0.202567
0.236890
0.201855
0.159794
0.124487
0.086893
0.019327
-0.029943
-0.064752
-0.086474
-0.087856
-0.104118
-0.046581
-0.038105
0.004929
0.041229
0.086516
0.131640
0.176697
0.193779
0.196649
0.177917
0.148653
0.112074
0.073529
0.034619
-0.021907
-0.084313
-0.135970
-0.156886
-0.159000
-0.130036
-0.096655
-0.070031
-0.039420
0.023105
0.067316
0.110074
0.134013
0.156331
0.148632
0.135095
0.099262
0.054047
0.025210
-0.039579
-0.097847
-0.112025
-0.135143
-0.170459
-0.143152
-0.121063
-0.095262
-0.099118
-0.067858
-0.035530
0.032733
0.079539
0.110482
0.131018
0.140899
0.120391
0.083198
0.066508
0.030812
-0.024094
-0.070115
-0.106035
-0.151986
-0.161575
-0.191779
-0.198818
-0.132871
-0.104662
-0.074970
-0.023468
0.014192
0.054236
0.143127
0.156971
0.154647
0.127928
0.095461
0.081980
0.024871
-0.033948
-0.076630
-0.114697
-0.121115
-0.150195
-0.188717
-0.197705
-0.153386
-0.110473
-0.077082
-0.052314
-0.010355
0.050938
0.115595
0.137957
0.139034
0.139929
0.135634
0.078196
0.016358
-0.066110
-0.075078
-0.078157
-0.123695
-0.152070
-0.159557
-0.152288
-0.126871
-0.106739
-0.076784
-0.032657
-0.002697
0.045211
0.089973
0.107708
0.116065
0.123796
0.080433
0.051833
0.016144
-0.017045
-0.067880
-0.079435
-0.108560
-0.141828
-0.098805
-0.087086
-0.019548
0.006985
0.060070
0.112099
0.180342
0.251414
0.317132
0.359565
0.409776
0.455194
0.450200
0.427208
0.412405
0.400363
0.409364
0.396699
0.420280
0.415996
0.438135
0.486828
0.581240
0.654845
0.744382
0.822151
0.876382
0.912671
0.948923
0.957273
0.944370
0.885888
0.871396
0.848134
0.797827
0.708704
0.577008
0.442274
0.316822
0.225275
0.145047
0.107837
0.117316
0.132171
0.146144
0.193168
0.240344
0.267002
0.281698
0.291439
0.301961
0.299138
0.253739
0.221993
0.169957
0.107944
0.042058
-0.023642
-0.063685
-0.075045
-0.084849
-0.092171
-0.098599
-0.054048
-0.015623
0.036500
0.087262
0.114753
0.155703
0.203221
0.223581
0.207352
0.189174
0.154455
0.113901
0.041892
-0.017555
-0.064695
-0.091931
-0.128094
-0.156202
-0.151838
-0.131154
-0.083289
-0.047372
0.013588
0.081283
0.120693
0.152496
0.179555
0.180043
0.171017
0.144133
0.115664
0.071247
0.018747
-0.031433
-0.066148
-0.093166
-0.126352
-0.139055
-0.145552
-0.120192
-0.080159
-0.022155
-0.010506
0.044533
0.117002
0.152132
0.179303
0.161492
0.190548
0.169477
0.134924
0.086175
0.044500
-0.026681
-0.077312
-0.111705
-0.122989
-0.125277
-0.123315
-0.096722
-0.057066
-0.003727
0.038570
0.088423
0.121805
0.139278
0.187995
0.177852
0.179363
0.121615
0.096605
0.076299
0.040062
-0.013468
-0.058107
-0.090014
-0.093218
-0.104693
-0.059920
-0.034044
-0.019337
-0.001279
0.034636
0.069465
0.130169
0.203641
0.209011
0.208111
0.194509
0.179803
0.161560
0.110674
0.055673
0.013924
-0.016589
-0.066070
-0.094067
-0.109405
-0.076727
-0.046853
-0.002009
0.025621
0.063740
0.113480
0.165396
0.202123
0.232949
0.243114
0.248252
0.196095
0.149383
0.114143
0.067673
0.013512
-0.035333
-0.063944
-0.069981
-0.089397
-0.082195
-0.064358
-0.015352
0.039952
0.080357
0.141196
0.185607
0.220531
0.233656
0.224166
0.222563
0.186042
0.166532
0.104014
0.058092
0.024433
-0.017710
-0.044741
-0.057044
-0.081625
-0.070266
-0.025264
0.006939
0.035598
0.088996
0.112089
0.132151
0.155774
0.191731
0.213202
0.200421
0.191969
0.167483
0.117678
0.057891
0.004091
-0.045297
-0.069272
-0.079630
-0.102564
-0.098746
-0.077443
-0.031599
0.000612
0.045434
0.084785
0.125532
0.163159
0.189586
0.210890
0.188405
0.168421
0.107811
0.081996
0.038594
-0.007165
-0.055336
-0.080896
-0.109517
-0.138095
-0.157258
-0.114032
-0.059445
-0.030820
-0.001913
0.077638
0.120997
0.168569
0.209499
0.205890
0.190399
0.164593
0.105272
0.025778
0.024379
-0.017880
-0.070990
-0.094649
-0.109517
-0.110483
-0.134923
-0.136666
-0.126303
-0.096879
-0.017182
0.123676
0.183182
0.180817
0.160143
0.167973
0.164964
0.143807
0.099781
0.063523
0.006463
-0.038596
-0.096354
-0.159467
-0.204816
-0.145602
-0.098533
-0.069888
-0.051678
-0.020103
0.003762
0.033128
0.093245
0.135710
0.152095
0.163594
0.160505
0.135157
0.092619
0.056418
0.010587
-0.030514
-0.081617
-0.126180
-0.138547
-0.141339
-0.134774
-0.119509
-0.092250
-0.046773
-0.017775
0.042776
0.070685
0.099859
0.137003
0.154973
0.142524
0.112714
0.101684
0.059705
0.013970
-0.032399
-0.075486
-0.105910
-0.114580
-0.143777
-0.121834
-0.110149
-0.078102
-0.036659
-0.004951
0.072092
0.118489
0.146988
0.164304
0.169774
0.162844
0.137726
0.093188
0.053467
0.008146
-0.021460
-0.059486
-0.114728
-0.130761
-0.149174
-0.140718
-0.114555
-0.078439
-0.045171
0.027127
0.068094
0.110955
0.156741
0.156011
0.187392
0.186800
0.153184
0.115942
0.038026
-0.013840
-0.037018
-0.081677
-0.123551
-0.116463
-0.120732
-0.116056
-0.098176
-0.053872
-0.011759
0.005558
0.039022
0.086382
0.135857
0.143843
0.137210
0.165890
0.160219
0.112823
0.057943
0.015796
-0.042205
-0.084653
-0.125629
-0.127724
-0.138140
-0.146352
-0.128764
-0.106030
-0.056996
0.013107
0.073154
0.102410
0.124135
0.143562
0.157045
0.146474
0.123894
0.106671
0.059016
0.026974
-0.038424
-0.093225
-0.126524
-0.147947
-0.149789
-0.139871
-0.127481
-0.109584
-0.072315
-0.018475
0.030863
0.088879
0.131357
0.128498
0.157025
0.147946
0.134506
0.093866
0.047865
-0.027395
-0.059134
-0.066170
-0.115672
-0.147310
-0.147384
-0.143092
-0.136269
-0.117898
-0.074550
-0.009777
0.026139
0.068744
0.110538
0.135383
0.149087
0.136011
0.108238
0.077074
0.027694
-0.006350
-0.051093
-0.104251
-0.151198
-0.169902
-0.173067
-0.168520
-0.150685
-0.099368
-0.056916
-0.016944
0.022976
0.068692
0.100477
0.131814
0.137894
0.131175
0.115222
0.076346
0.027902
-0.019188
-0.080463
-0.123522
-0.163519
-0.183126
-0.197071
-0.206650
-0.158900
-0.093216
-0.059863
-0.026236
0.053525
0.097081
0.130809
0.149371
0.135078
0.116343
0.108017
0.074865
0.041245
0.001748
-0.039928
-0.097193
-0.137276
-0.161604
-0.174846
-0.158425
-0.119282
-0.110919
-0.063134
-0.033039
-0.015166
0.096720
0.174908
0.198122
0.188279
0.165406
0.128062
0.097797
0.051978
0.033178
0.012015
-0.083979
-0.130059
-0.159762
-0.182006
-0.183720
-0.103706
-0.032190
-0.007854
0.010319
0.033905
0.101243
0.148084
0.172096
0.191804
0.204927
0.202642
0.118764
0.075958
0.046299
0.016992
-0.009235
-0.089296
-0.117249
-0.122620
-0.126566
-0.105619
-0.072052
-0.000080
0.043442
0.079351
0.128005
0.136760
0.144516
0.163049
0.167713
0.131514
0.088318
0.040720
0.001510
-0.058218
-0.111619
-0.142485
-0.159265
-0.148522
-0.132853
-0.129539
-0.114150
-0.096798
-0.048023
0.004619
0.060325
0.106750
0.109018
0.121034
0.119193
0.077825
0.035389
-0.010983
-0.063619
-0.075022
-0.122401
-0.173401
-0.191147
-0.185425
-0.201588
-0.176430
-0.151157
-0.114382
-0.052916
-0.001060
0.035017
0.083745
0.099220
0.099696
0.090119
0.079228
0.063305
0.020926
-0.034287
-0.085260
-0.133270
-0.178600
-0.219133
-0.221068
-0.214360
-0.221670
-0.137383
-0.090793
-0.052629
-0.030132
0.033868
0.066828
0.085798
0.092567
0.073126
0.050199
0.029436
-0.008195
-0.063584
-0.113736
-0.153097
-0.166317
-0.192076
-0.206247
-0.191159
-0.171208
-0.163293
-0.123965
-0.055683
-0.014746
0.028480
0.062275
0.085827
0.106963
0.099603
0.070575
0.034681
-0.019716
-0.061846
-0.110662
-0.156567
-0.200235
-0.213958
-0.213552
-0.207092
-0.164771
-0.143773
-0.115763
-0.077556
-0.040008
0.008641
0.032244
0.056318
0.070099
0.057030
0.042751
0.014451
-0.002118
-0.021488
-0.040609
-0.083287
-0.156492
-0.134225
-0.128239
-0.132106
-0.098170
-0.020392
0.057840
0.094882
0.163431
0.217751
0.287406
0.336871
0.364027
0.412789
0.458026
0.459363
0.418826
0.401513
0.386930
0.373151
0.366416
0.400890
0.453961
0.485351
0.537162
0.618933
0.717702
0.779348
0.812941
0.872032
0.883673
0.916868
0.910165
0.880508
0.834326
0.770394
0.672961
0.567037
0.434225
0.314831
0.212648
0.139505
0.086820
0.055102
0.024273
0.031034
0.077739
0.113439
0.160616
0.204927
0.232465
0.234397
0.231156
0.214768
0.188329
0.153151
0.098057
0.043687
-0.033208
-0.055853
-0.061414
-0.085909
-0.109544
-0.119732
-0.117422
-0.082521
-0.056847
-0.005676
0.043108
0.059797
0.088772
0.128293
0.148071
0.133347
0.120491
0.075072
0.017946
-0.021796
-0.055806
-0.097231
-0.130867
-0.171130
-0.177222
-0.176852
-0.174234
-0.152715
-0.093125
-0.032625
0.018740
0.065857
0.110225
0.122039
0.116560
0.111250
0.071875
0.056434
0.014294
-0.030116
-0.087900
-0.139797
-0.160474
-0.175463
-0.172267
-0.177005
-0.142000
-0.116599
-0.083388
-0.027942
0.012405
0.062661
0.093552
0.126409
0.135303
0.117754
0.075246
0.044358
0.026304
-0.019971
-0.091587
-0.148477
-0.189432
-0.194149
-0.173646
-0.161118
-0.151888
-0.103503
-0.059291
-0.031643
0.017152
0.065489
0.091918
0.118199
0.128497
0.116359
0.097744
0.068714
0.032472
-0.031437
-0.061879
-0.150036
-0.164723
-0.153645
-0.152567
-0.151220
-0.129250
-0.078893
-0.023758
0.025459
0.049526
0.072863
0.134994
0.160841
0.151536
0.138450
0.111676
0.084763
0.044109
0.031127
-0.007534
-0.070541
-0.100008
-0.132980
-0.142275
-0.137393
-0.115073
-0.075882
-0.030345
0.000815
0.039511
0.101149
0.137357
0.171592
0.167511
0.159626
0.147234
0.110011
0.084052
0.028952
-0.021946
-0.066250
-0.106208
-0.115253
-0.129996
-0.121909
-0.100642
-0.077012
-0.028136
0.007430
0.044801
0.097211
0.136902
0.187539
0.201409
0.182986
0.132726
0.114321
0.068057
0.009063
-0.045405
-0.082317
-0.120060
-0.126566
-0.151203
-0.154302
-0.133620
-0.099438
-0.053655
0.004959
0.069736
0.092036
0.110665
0.139832
0.155615
0.140705
0.106412
0.075652
0.064409
0.007898
-0.052137
-0.094528
-0.131601
-0.149638
-0.166120
-0.163694
-0.142341
-0.108537
-0.052809
-0.001687
0.042386
0.080092
0.116858
0.126802
0.123019
0.119754
0.093995
0.062880
0.032706
-0.010661
-0.058545
-0.110682
-0.170427
-0.175244
-0.179810
-0.183098
-0.155122
-0.115063
-0.075204
-0.049040
0.005738
0.048540
0.076756
0.084572
0.093633
0.069438
0.087085
0.070525
0.030666
-0.009557
-0.043597
-0.119252
-0.186375
-0.216403
-0.201949
-0.163822
-0.167116
-0.137696
-0.083241
-0.030284
-0.008971
0.015536
0.063764
0.098452
0.099147
0.103101
0.077734
0.039894
-0.006468
-0.049920
-0.111109
-0.152453
-0.191198
-0.222870
-0.227087
-0.214706
-0.189583
-0.160500
-0.109798
-0.071489
-0.009181
0.050809
0.053654
0.086511
0.088844
0.079390
0.079047
0.034261
-0.006004
-0.067478
-0.106173
-0.141849
-0.187422
-0.224424
-0.230889
-0.208505
-0.197648
-0.157325
-0.124354
-0.075503
-0.046157
0.032447
0.059464
0.097560
0.108904
0.091416
0.068269
0.030094
-0.006290
-0.065122
-0.090680
-0.130475
-0.180535
-0.214947
-0.198285
-0.195043
-0.174646
-0.160468
-0.104355
-0.050411
-0.013307
0.017222
0.052094
0.096452
0.112256
0.085532
0.052107
0.033426
0.010016
-0.037288
-0.097744
-0.137737
-0.170693
-0.197182
-0.208268
-0.204814
-0.196990
-0.165163
-0.112193
-0.057030
-0.028271
-0.019283
0.015149
0.134067
0.155363
0.128006
0.103809
0.056285
0.006416
-0.051758
-0.106078
-0.161593
-0.179069
-0.207977
-0.212642
-0.206434
-0.188577
-0.167835
-0.117525
-0.043539
0.007178
0.039361
0.053076
0.070310
0.103070
0.061281
0.044153
0.030645
0.026428
-0.010702
-0.052932
-0.126356
-0.165307
-0.201180
-0.196246
-0.199991
-0.191619
-0.153125
-0.105159
-0.044355
-0.004018
0.040906
0.084304
0.084301
0.099120
0.092137
0.061247
0.019751
-0.019417
-0.071507
-0.118444
-0.168887
-0.201061
-0.227905
-0.213665
-0.210969
-0.193955
-0.184737
-0.117855
-0.080091
-0.038029
0.021695
0.053708
0.077526
0.087064
0.092095
0.057579
0.031933
-0.022206
-0.074982
-0.117300
-0.154296
-0.204784
-0.219429
-0.221936
-0.230809
-0.219628
-0.178151
-0.135106
-0.094496
0.011852
0.025514
0.066201
0.084291
0.091095
0.084853
0.059939
0.013448
-0.032294
-0.069258
-0.113293
-0.171235
-0.207106
-0.240842
-0.242025
-0.238687
-0.213722
-0.173609
-0.140833
-0.087700
-0.032342
0.003216
0.029549
0.057013
0.090398
0.081003
0.063461
0.023945
-0.013485
-0.073330
-0.122963
-0.157593
-0.201388
-0.220483
-0.221318
-0.216196
-0.158908
-0.086038
-0.074588
-0.052851
-0.024368
0.023410
0.064313
0.092589
0.092674
0.089643
0.076084
0.024637
0.004429
-0.029084
-0.079029
-0.144201
-0.181143
-0.211013
-0.203900
-0.191744
-0.180574
-0.151217
-0.098607
-0.057508
-0.025499
0.039115
0.071246
0.096847
0.107489
0.095360
0.077094
0.069612
0.009140
-0.017966
-0.064237
-0.120672
-0.155409
-0.158432
-0.162561
-0.172658
-0.181225
-0.139546
-0.069054
-0.027010
0.035811
0.065692
0.083976
0.107134
0.089295
0.093430
0.080665
0.025102
-0.002042
-0.060181
-0.101856
-0.136101
-0.181218
-0.213360
-0.217751
-0.217601
-0.208592
-0.193756
-0.145418
-0.093506
-0.055149
-0.016273
0.008120
0.049210
0.072324
0.068043
0.056028
0.015786
-0.056347
-0.109248
-0.153498
-0.219458
-0.240530
-0.259180
-0.261171
-0.243143
-0.219022
-0.184987
-0.153420
-0.115001
-0.083970
-0.029810
-0.001075
0.013944
0.035581
0.033972
0.011265
-0.022591
-0.068923
-0.123972
-0.181317
-0.225866
-0.260123
-0.266191
-0.296532
-0.282865
-0.245849
-0.195634
-0.154611
-0.110468
-0.077684
-0.026183
0.019451
-0.005794
0.005097
0.025223
0.007255
-0.024892
-0.081486
-0.111469
-0.145444
-0.193942
-0.243391
-0.278913
-0.292902
-0.301985
-0.265438
-0.226568
-0.176683
-0.115452
-0.069039
-0.031834
0.006079
0.020642
0.027819
0.033085
-0.006153
-0.027198
-0.070775
-0.124290
-0.175586
-0.230634
-0.253398
-0.281198
-0.282851
-0.279965
-0.250225
-0.226412
-0.185064
-0.110596
-0.075096
-0.032891
-0.009529
0.024336
-0.001632
-0.014664
-0.034896
-0.073709
-0.111118
-0.149430
-0.181546
-0.214918
-0.247792
-0.248744
-0.237118
-0.244670
-0.181914
-0.137250
-0.089009
-0.038696
0.020128
0.122069
0.176887
0.229283
0.219753
0.229763
0.246840
0.259223
0.259729
0.237143
0.240862
0.235790
0.232154
0.196366
0.266491
0.325337
0.366880
0.476112
0.570531
0.658376
0.728882
0.802742
0.842195
0.914752
0.948591
0.945762
0.908718
0.849361
0.764812
0.690284
0.633815
0.576610
0.483605
0.372331
0.275246
0.220132
0.151451
0.120425
0.122597
0.145245
0.180424
0.189915
0.204428
0.224345
0.216005
0.199443
0.178813
0.119320
0.081084
0.015454
-0.037399
-0.088511
-0.128044
-0.173556
-0.184449
-0.184835
-0.177155
-0.145539
-0.091671
-0.038191
0.004867
0.035376
0.074264
0.099798
0.110638
0.104717
0.091268
0.050709
-0.026662
-0.076124
-0.113507
-0.151657
-0.204053
-0.240196
-0.253330
-0.253569
-0.199396
-0.167230
-0.129689
-0.098224
-0.039685
-0.001930
0.034704
0.066576
0.065790
0.052445
0.036537
0.010427
-0.029642
-0.080932
-0.132204
-0.165924
-0.199630
-0.250526
-0.254763
-0.231430
-0.219796
-0.180776
-0.124771
-0.088960
-0.053817
-0.004725
0.026491
0.064555
0.080882
0.075621
0.065657
0.026895
-0.023091
-0.078661
-0.113809
-0.159597
-0.191220
-0.203664
-0.216264
-0.215098
-0.197087
-0.183332
-0.147639
-0.095006
-0.061163
-0.022872
0.038319
0.093619
0.120568
0.133859
0.091292
0.043902
-0.024332
-0.072165
-0.100202
-0.161138
-0.196576
-0.229057
-0.208848
-0.201648
-0.183781
-0.127541
-0.069133
-0.030017
-0.004914
0.035504
0.055111
0.056355
0.068540
0.090835
0.074357
0.056082
0.023035
-0.020894
-0.077827
-0.142904
-0.182043
-0.208290
-0.207430
-0.185071
-0.160623
-0.113928
-0.081731
-0.039859
-0.010593
0.052821
0.094854
0.119894
0.127437
0.122367
0.120220
0.079875
0.038376
-0.009347
-0.064238
-0.118885
-0.151744
-0.184400
-0.193695
-0.163790
-0.139650
-0.105218
-0.073235
-0.015967
0.032116
0.069258
0.096381
0.128421
0.141251
0.134374
0.110876
0.075115
0.030363
-0.016615
-0.072211
-0.113166
-0.151180
-0.178849
-0.172331
-0.166768
-0.156159
-0.127586
-0.086374
-0.033539
0.001299
0.057999
0.089187
0.105928
0.110815
0.110080
0.082526
0.051491
0.001119
-0.029313
-0.093907
-0.159064
-0.194960
-0.204230
-0.218228
-0.224529
-0.187732
-0.156573
-0.092014
-0.057293
-0.017425
0.031626
0.045158
0.076092
0.100758
0.077788
0.046370
-0.001676
-0.005443
-0.046115
-0.102065
-0.154936
-0.173610
-0.194055
-0.225797
-0.217898
-0.185087
-0.143708
-0.111005
-0.074209
-0.004235
0.037030
0.069071
0.101746
0.074998
0.046671
0.041403
0.036411
-0.008953
-0.052569
-0.101438
-0.150459
-0.188459
-0.228877
-0.250627
-0.249452
-0.226982
-0.161238
-0.121586
-0.085763
-0.036441
0.008557
0.043234
0.059488
0.072175
0.074085
0.049015
0.024290
-0.031976
-0.083608
-0.123412
-0.173089
-0.201610
-0.229400
-0.234925
-0.221639
-0.179555
-0.169079
-0.138973
-0.080679
-0.041334
-0.017750
0.010388
0.037034
0.062909
0.054992
0.058279
0.010353
-0.046956
-0.080209
-0.126415
-0.188301
-0.226872
-0.247697
-0.260629
-0.248070
-0.232655
-0.186618
-0.136837
-0.110385
-0.037059
0.023830
0.049665
0.069389
0.073180
0.054579
0.019144
-0.016640
-0.037538
-0.080223
-0.091387
-0.156326
-0.201957
-0.230665
-0.232450
-0.233831
-0.206837
-0.163227
-0.133127
-0.095528
-0.050861
0.015863
0.045603
0.071033
0.073271
0.062236
0.030416
-0.007793
-0.048460
-0.075660
-0.124238
-0.168468
-0.221091
-0.238687
-0.243182
-0.234058
-0.204439
-0.163640
-0.119479
-0.082019
-0.065835
0.029752
0.077968
0.105587
0.093656
0.076149
0.057790
0.041174
-0.009454
-0.078109
-0.131903
-0.155993
-0.177349
-0.238424
-0.264776
-0.221888
-0.165917
-0.153650
-0.100423
-0.076465
-0.019096
0.030018
0.064553
0.064752
0.065237
0.080174
0.044966
0.019208
-0.021863
-0.061672
-0.107493
-0.162226
-0.191584
-0.197360
-0.205830
-0.197557
-0.204287
-0.190304
-0.149728
-0.079171
-0.008202
0.027769
0.060174
0.074148
0.083051
0.081129
0.067181
0.011498
-0.029561
-0.081393
-0.136704
-0.189605
-0.218128
-0.250871
-0.222927
-0.197864
-0.186189
-0.168396
-0.127233
-0.089727
-0.061871
-0.000396
0.022201
0.066821
0.066987
0.061183
0.058548
0.032940
-0.033923
-0.094658
-0.138033
-0.170548
-0.198269
-0.187893
-0.199412
-0.216319
-0.204154
-0.164208
-0.125985
-0.103098
-0.057631
-0.018743
0.013298
0.040286
0.053083
0.054344
0.028675
-0.005496
-0.023764
-0.078351
-0.150029
-0.219715
-0.235193
-0.222913
-0.251787
-0.235556
-0.205785
-0.164704
-0.135435
-0.091769
-0.037671
0.020002
0.048961
0.078607
0.066713
0.053929
0.038567
-0.011280
-0.062334
-0.117601
-0.155609
-0.165266
-0.200792
-0.253040
-0.267791
-0.241537
-0.219235
-0.168637
-0.129121
-0.092255
-0.052115
0.005691
0.038053
0.057656
0.074097
0.057915
0.025925
0.011170
0.003144
-0.029389
-0.087667
-0.143866
-0.188522
-0.219488
-0.214258
-0.218764
-0.183321
-0.137006
-0.094173
-0.047659
-0.016508
0.024129
0.064891
0.092947
0.086366
0.094991
0.070723
0.034726
0.020777
-0.064353
-0.128837
-0.159919
-0.202217
-0.225300
-0.208367
-0.207109
-0.179759
-0.096694
-0.050458
-0.006280
0.055777
0.062330
0.092673
0.117423
0.127974
0.126146
0.112757
0.069936
0.011468
-0.080048
-0.107338
-0.118017
-0.146544
-0.183043
-0.200916
-0.188998
-0.182814
-0.167961
-0.135494
-0.076417
-0.036302
0.000449
0.033529
0.071940
0.083132
0.064689
0.040451
0.028344
-0.030496
-0.081407
-0.117236
-0.168462
-0.196617
-0.248024
-0.275649
-0.273843
-0.241018
-0.184853
-0.131873
-0.085513
-0.045723
-0.018500
0.024195
0.054929
0.058302
0.045960
0.031788
-0.017250
-0.071558
-0.105037
-0.167403
-0.204185
-0.244886
-0.269983
-0.278477
-0.267278
-0.253298
-0.217721
-0.179839
-0.132871
-0.081876
-0.047134
-0.003957
0.036218
0.029977
0.013446
0.007174
-0.035592
-0.100856
-0.123720
-0.156250
-0.209861
-0.258732
-0.280240
-0.278782
-0.276573
-0.262906
-0.240663
-0.198816
-0.135529
-0.071812
-0.021747
-0.001272
0.016912
0.034073
0.053424
0.034796
-0.020569
-0.073632
-0.129038
-0.171982
-0.201123
-0.227221
-0.248097
-0.256818
-0.258892
-0.257717
-0.255041
-0.209300
-0.158309
-0.114521
-0.039152
-0.018801
0.000311
0.037807
0.058935
0.027427
-0.021689
-0.073447
-0.122521
-0.145179
-0.204768
-0.260881
-0.289822
-0.309169
-0.314118
-0.258944
-0.214242
-0.186546
-0.144345
-0.094141
-0.017669
0.006288
0.035322
0.066968
0.066936
0.057989
0.039411
-0.000099
-0.028779
-0.062890
-0.100152
-0.116379
-0.136398
-0.124092
-0.084045
-0.027414
0.044644
0.122540
0.197001
0.283349
0.370768
0.435525
0.491241
0.523625
0.558978
0.602133
0.615271
0.633097
0.646309
0.627757
0.592638
0.586362
0.588640
0.594375
0.599812
0.629699
0.670632
0.674754
0.681794
0.733010
0.771802
0.762272
0.719246
0.633446
0.582238
0.504767
0.380083
0.242332
0.173864
0.091644
0.009476
-0.032414
-0.056891
-0.054955
-0.057131
-0.069570
-0.048856
-0.023142
0.017345
0.057518
0.100396
0.138452
0.160698
0.149861
0.138645
0.106365
0.066979
0.014606
-0.034956
-0.092288
-0.145349
-0.187641
-0.188617
-0.212728
-0.208500
-0.194867
-0.146962
-0.125809
-0.080937
-0.013720
0.032890
0.069604
0.132002
0.123815
0.041298
0.020854
-0.024401
-0.055302
-0.109946
-0.140824
-0.132070
-0.187233
-0.235710
-0.228540
-0.192297
-0.164812
-0.144346
-0.137696
-0.095453
-0.050199
0.005358
0.035529
0.071276
0.083849
0.075379
0.041562
0.022199
0.009599
-0.039445
-0.094800
-0.159542
-0.214913
-0.240501
-0.230987
-0.223817
-0.206616
-0.164812
-0.123556
-0.069456
-0.011500
0.027009
0.054273
0.070014
0.078707
0.097531
0.076033
0.022391
-0.019732
-0.078076
-0.131135
-0.147067
-0.176135
-0.222389
-0.258650
-0.222684
-0.184430
-0.147083
-0.105276
-0.054901
-0.018192
-0.005160
0.065891
0.115344
0.123349
0.113052
0.089031
0.030767
-0.004268
-0.052801
-0.112211
-0.160948
-0.172819
-0.167285
-0.184911
-0.178864
-0.176870
-0.122542
-0.076115
-0.040994
-0.026040
0.035946
0.107109
0.151261
0.157115
0.147058
0.124703
0.072925
0.022221
-0.032316
-0.083355
-0.126871
-0.156165
-0.181219
-0.174629
-0.153589
-0.115888
-0.087195
-0.044223
-0.012631
0.013773
0.044263
0.108501
0.145079
0.132456
0.115195
0.072495
0.066912
0.035849
0.001154
-0.046331
-0.086411
-0.129580
-0.136987
-0.144406
-0.143937
-0.141636
-0.105176
-0.066405
-0.028961
0.019830
0.080835
0.119010
0.122628
0.123619
0.112621
0.118114
0.057971
0.040076
-0.012794
-0.074822
-0.123120
-0.180005
-0.192834
-0.167687
-0.167247
-0.144854
-0.107848
-0.063204
-0.014347
0.034113
0.092730
0.117568
0.119298
0.115360
0.090002
0.073452
0.064048
0.003512
-0.032761
-0.045799
-0.114695
-0.175917
-0.182284
-0.179484
-0.177641
-0.150036
-0.110696
-0.093654
-0.035487
0.006236
0.055768
0.052759
0.095882
0.119387
0.076648
0.072133
0.031973
-0.020474
-0.075868
-0.114097
-0.155998
-0.185418
-0.198854
-0.207371
-0.217380
-0.210497
-0.140496
-0.072296
-0.047636
-0.031242
0.022591
0.046901
0.083055
0.097915
0.103184
0.081700
0.016537
-0.007691
-0.063066
-0.097343
-0.142656
-0.186946
-0.211379
-0.225616
-0.222902
-0.197456
-0.166957
-0.123795
-0.070216
-0.053164
-0.006670
0.040433
0.080723
0.098437
0.067180
0.075844
0.042046
-0.008152
-0.068874
-0.112606
-0.158768
-0.199135
-0.221472
-0.220966
-0.207718
-0.200780
-0.161667
-0.118372
-0.063799
-0.032899
0.006884
0.043323
0.078158
0.088898
0.084443
0.050038
-0.000661
-0.046931
-0.073969
-0.123157
-0.156049
-0.188798
-0.210415
-0.222162
-0.218799
-0.167506
-0.158024
-0.123257
-0.086529
-0.032653
0.031653
0.044121
0.064368
0.076358
0.051838
0.020786
0.058400
-0.024619
-0.069289
-0.112792
-0.128444
-0.136218
-0.154868
-0.193847
-0.210871
-0.185029
-0.141655
-0.109494
-0.055762
-0.011035
0.046085
0.075889
0.076864
0.079723
0.097736
0.060979
0.017573
-0.006539
-0.045876
-0.122139
-0.145736
-0.164041
-0.189088
-0.208096
-0.232928
-0.207692
-0.152327
-0.107856
-0.045585
-0.006140
0.030090
0.049393
0.058074
0.104323
0.101209
0.079322
0.015418
-0.020730
-0.063085
-0.102666
-0.129389
-0.150226
-0.191964
-0.216839
-0.208119
-0.180522
-0.145136
-0.099814
-0.052007
-0.001140
0.041761
0.056888
0.097695
0.105090
0.090416
0.081052
0.050736
-0.002806
-0.054202
-0.100432
-0.142355
-0.177948
-0.203080
-0.215750
-0.209050
-0.179380
-0.161453
-0.118129
-0.068959
-0.015899
0.013737
0.040771
0.094543
0.098054
0.099091
0.078368
0.038071
-0.011188
-0.047303
-0.111011
-0.162059
-0.200904
-0.233799
-0.219724
-0.199503
-0.196927
-0.138857
-0.119121
-0.059566
-0.016535
0.020334
0.060458
0.076263
0.091613
0.056302
0.046259
0.015121
-0.046398
-0.097462
-0.127364
-0.190627
-0.224534
-0.207920
-0.194609
-0.203312
-0.186792
-0.159948
-0.129742
-0.082536
-0.059248
-0.030295
0.060789
0.080967
0.089416
0.071653
0.047372
0.008005
-0.039633
-0.086771
-0.119692
-0.139368
-0.175692
-0.205874
-0.245549
-0.227802
-0.226517
-0.161142
-0.109136
-0.073863
-0.013798
0.038475
0.066154
0.104668
0.096630
0.102216
0.081489
0.040159
0.009561
-0.050080
-0.095908
-0.145476
-0.197957
-0.196064
-0.180257
-0.169724
-0.172798
-0.139506
-0.097356
-0.013395
0.041643
0.061218
0.072561
0.094822
0.120808
0.128609
0.097457
0.048354
0.002225
-0.045522
-0.084185
-0.134211
-0.159654
-0.182580
-0.192493
-0.183022
-0.138349
-0.110441
-0.074713
-0.031641
0.010806
0.054460
0.105341
0.132098
0.128412
0.130305
0.104625
0.060415
0.014222
-0.031423
-0.060271
-0.078654
-0.136624
-0.177788
-0.189269
-0.164693
-0.164446
-0.103610
-0.085278
-0.055705
-0.015223
0.033161
0.066925
0.074330
0.081005
0.072939
0.050894
0.005834
-0.027527
-0.065725
-0.108991
-0.149349
-0.191255
-0.213195
-0.215437
-0.213492
-0.184796
-0.154290
-0.116484
-0.075674
-0.046250
-0.016370
0.030920
0.087604
0.077497
0.052833
0.029093
-0.005070
-0.053608
-0.108946
-0.164845
-0.203498
-0.231988
-0.260117
-0.255547
-0.238828
-0.230034
-0.210250
-0.139645
-0.088141
-0.050387
-0.014639
0.033102
0.031616
0.060446
0.054158
0.044712
-0.006291
-0.054767
-0.092314
-0.128901
-0.203456
-0.253121
-0.255353
-0.265714
-0.275337
-0.272705
-0.224348
-0.158917
-0.095950
-0.016899
0.016369
0.030539
0.029259
0.044150
0.046235
0.015133
-0.016530
-0.036521
-0.076572
-0.135250
-0.186130
-0.242082
-0.253408
-0.266036
-0.249810
-0.240707
-0.210824
-0.170016
-0.119125
-0.064313
-0.020084
0.005896
0.034771
0.043687
0.023984
-0.005289
-0.039408
-0.063927
-0.091653
-0.163650
-0.198400
-0.200929
-0.218495
-0.244515
-0.252272
-0.250232
-0.228948
-0.188347
-0.125438
-0.092069
-0.033197
0.024800
0.062300
0.090252
0.090267
0.083371
0.067916
0.040853
-0.001649
-0.047167
-0.081534
-0.073378
-0.051137
-0.000354
0.001708
0.007763
0.098734
0.154273
0.251056
0.359195
0.449304
0.520629
0.584058
0.614889
0.628598
0.698304
0.701943
0.703958
0.674008
0.644357
0.652742
0.648377
0.623874
0.624999
0.636366
0.644864
0.657576
0.675430
0.698350
0.739929
0.719444
0.683436
0.653308
0.599396
0.537717
0.435381
0.318136
0.236649
0.140466
0.064640
0.017563
0.010315
-0.007632
-0.047144
-0.059946
-0.068391
-0.010253
0.027353
0.025175
0.045035
0.101988
0.118702
0.141600
0.172592
0.169829
0.142708
0.081468
-0.009121
-0.013943
-0.041615
-0.098314
-0.157159
-0.184768
-0.198955
-0.195752
-0.157566
-0.114594
-0.057453
-0.018966
0.021612
0.033304
0.071567
0.089197
0.102855
0.086730
0.068034
0.027927
-0.019713
-0.068791
-0.103027
-0.162143
-0.153583
-0.193608
-0.202949
-0.198230
-0.200169
-0.169640
-0.107740
-0.053088
-0.009637
0.033746
0.058114
0.071144
0.095199
0.090922
0.062392
0.044657
0.000778
-0.043303
-0.099862
-0.173709
-0.186278
-0.162102
-0.197224
-0.198538
-0.190791
-0.129802
-0.092238
-0.043909
-0.006561
0.030306
0.062415
0.075766
0.060410
0.097001
0.078131
0.062566
0.018495
-0.024621
-0.114446
-0.168641
-0.169108
-0.170776
-0.178823
-0.179706
-0.159400
-0.128475
-0.072106
-0.043375
0.000229
0.048936
0.134450
0.168340
0.148743
0.140167
0.095673
0.044179
0.011681
-0.018001
-0.060219
-0.100806
-0.114956
-0.145547
-0.196554
-0.212728
-0.173634
-0.109502
-0.079417
-0.006724
0.034047
0.074369
0.103014
0.130160
0.144825
0.126888
0.078345
0.073687
0.038882
0.014719
-0.027653
-0.088032
-0.128159
-0.159292
-0.163868
-0.146949
-0.118251
-0.110358
-0.064600
-0.001953
0.046157
0.087890
0.120460
0.131172
0.126224
0.138368
0.137046
0.087853
0.043153
-0.006651
-0.043696
-0.086839
-0.108747
-0.110336
-0.135526
-0.141229
-0.133746
-0.108943
-0.065777
-0.025643
0.028337
0.069752
0.118257
0.150445
0.177736
0.155378
0.138500
0.105774
0.059023
0.007002
-0.038462
-0.080242
-0.146153
-0.173115
-0.194799
-0.146164
-0.112825
-0.092006
-0.052942
-0.006081
0.036159
0.076715
0.103391
0.128273
0.131058
0.136730
0.119946
0.071157
0.016213
-0.027705
-0.069327
-0.109998
-0.155098
-0.165509
-0.179570
-0.175007
-0.160422
-0.121770
-0.073131
-0.020783
0.010377
0.063212
0.099908
0.127289
0.134789
0.124301
0.090550
0.065734
0.029820
-0.030230
-0.091495
-0.115247
-0.157844
-0.187323
-0.200644
-0.192303
-0.191012
-0.143848
-0.094998
-0.062229
0.005282
0.044168
0.077442
0.107590
0.122154
0.105567
0.080718
0.049352
0.017348
-0.015100
-0.094588
-0.158015
-0.181145
-0.196460
-0.218350
-0.209848
-0.169630
-0.148405
-0.101830
-0.054469
-0.012318
0.020883
0.059421
0.082851
0.102289
0.089304
0.076023
0.031702
-0.016508
-0.056233
-0.092024
-0.126136
-0.187143
-0.240476
-0.219538
-0.158302
-0.127054
-0.125768
-0.119295
-0.075883
-0.048145
0.038964
0.083134
0.100281
0.100329
0.089480
0.076083
0.036322
-0.001968
-0.057991
-0.111798
-0.155135
-0.166858
-0.176935
-0.215681
-0.166899
-0.132956
-0.093907
-0.077913
-0.031684
-0.000823
0.018898
0.040959
0.060324
0.089013
0.074298
0.059105
0.048152
0.013834
-0.065750
-0.078766
-0.102826
-0.159303
-0.189525
-0.190042
-0.179347
-0.151312
-0.120051
-0.101021
-0.051002
-0.015412
0.030169
0.087501
0.081056
0.093601
0.124096
0.107145
0.049666
-0.025975
-0.059013
-0.070916
-0.092867
-0.136329
-0.162089
-0.177269
-0.177639
-0.180843
-0.155471
-0.096862
-0.034957
0.010361
0.050235
0.100059
0.119312
0.128255
0.134184
0.106319
0.060710
0.013271
-0.037847
-0.095160
-0.133563
-0.161432
-0.178172
-0.193155
-0.199214
-0.168675
-0.140128
-0.099445
-0.056365
-0.012834
0.031755
0.057903
0.100820
0.117513
0.129890
0.114575
0.068065
0.001144
-0.047245
-0.106358
-0.140440
-0.174513
-0.189563
-0.175225
-0.160767
-0.154601
-0.128525
-0.097969
-0.045132
0.003860
0.058482
0.098178
0.110053
0.119796
0.114676
0.097742
0.059209
0.008499
-0.052459
-0.088293
-0.127698
-0.160559
-0.198762
-0.211501
-0.216572
-0.183786
-0.141584
-0.119106
-0.052730
0.004416
0.050247
0.076594
0.077023
0.072877
0.060049
0.044026
0.042781
0.010893
-0.057032
-0.107597
-0.153006
-0.172702
-0.181799
-0.202902
-0.196017
-0.174707
-0.145260
-0.114771
-0.057153
-0.012254
0.026825
0.067661
0.081669
0.102321
0.110117
0.071839
0.030500
-0.007919
-0.064352
-0.103404
-0.151877
-0.181588
-0.203785
-0.209067
-0.199700
-0.198093
-0.149016
-0.103857
-0.056460
-0.008169
0.048700
0.078071
0.110541
0.121403
0.115471
0.117442
0.070470
0.031583
-0.022875
-0.101651
-0.145869
-0.165100
-0.175255
-0.183991
-0.167639
-0.136294
-0.113000
-0.064764
-0.020461
0.030702
0.065046
0.099716
0.112778
0.129927
0.103513
0.089906
0.027487
0.029951
-0.019044
-0.062908
-0.061276
-0.109863
-0.148804
-0.165876
-0.168007
-0.141597
-0.113248
-0.070460
-0.016225
0.038944
0.074697
0.118409
0.146728
0.143602
0.127208
0.117234
0.096122
0.060865
0.020238
-0.023271
-0.069867
-0.124922
-0.155457
-0.166501
-0.148670
-0.159853
-0.101643
-0.065453
-0.021841
0.027918
0.091037
0.098413
0.109489
0.112972
0.095767
0.094431
0.055347
0.005144
-0.041110
-0.084001
-0.143987
-0.195766
-0.209444
-0.199825
-0.206107
-0.196719
-0.162955
-0.119398
-0.064910
-0.023821
0.011911
0.055910
0.080189
0.098914
0.081847
0.056461
0.014121
-0.024315
-0.086082
-0.122147
-0.170441
-0.206290
-0.232465
-0.247566
-0.245119
-0.235705
-0.221685
-0.169834
-0.084687
-0.024776
0.005195
0.011524
0.030575
0.056701
0.035191
0.038684
0.012435
-0.044341
-0.124381
-0.172010
-0.211712
-0.232466
-0.223724
-0.218707
-0.225353
-0.190984
-0.169641
-0.117542
-0.037660
-0.012618
0.038796
0.055579
0.066943
0.067907
0.081631
0.052144
0.000184
-0.057554
-0.072361
-0.132593
-0.187780
-0.219426
-0.235569
-0.248847
-0.231726
-0.193936
-0.154792
-0.135807
-0.112528
-0.071172
-0.001206
0.056641
0.066144
0.075093
0.053827
0.027807
0.010511
-0.029494
-0.084647
-0.131840
-0.166110
-0.196316
-0.234894
-0.284852
-0.273299
-0.253063
-0.204711
-0.169733
-0.124036
-0.080521
-0.023816
0.020671
0.061195
0.071575
0.066907
0.073833
0.032221
-0.007165
-0.016838
-0.049543
-0.082719
-0.091811
-0.090467
-0.077559
-0.052342
0.000354
0.059107
0.141195
0.242996
0.310247
0.375977
0.453247
0.529866
0.575318
0.612397
0.624626
0.653130
0.658861
0.648868
0.669661
0.660403
0.666393
0.657716
0.647098
0.668209
0.685823
0.707112
0.722062
0.759871
0.782188
0.796072
0.784500
0.711950
0.655156
0.589521
0.549291
0.482916
0.358376
0.203462
0.124994
0.057779
0.036232
0.022465
0.011825
-0.013334
-0.024128
0.009633
0.042494
0.074530
0.095982
0.158154
0.157931
0.188939
0.183251
0.167664
0.143826
0.126387
0.093604
0.023288
-0.045596
-0.078443
-0.127226
-0.143005
-0.156750
-0.159433
-0.151804
-0.122664
-0.077130
-0.031299
0.003361
0.044513
0.074542
0.095516
0.106600
0.110000
0.096268
0.063666
0.010660
-0.041191
-0.066702
-0.135156
-0.189708
-0.183338
-0.204881
-0.186729
-0.169143
-0.152529
-0.120517
-0.066225
-0.008447
0.046974
0.078621
0.077577
0.110222
0.064949
0.058081
0.007548
-0.028451
-0.043901
-0.058833
-0.111503
-0.149497
-0.174016
-0.187364
-0.183025
-0.160580
-0.150945
-0.100202
-0.038426
-0.004260
0.038021
0.084477
0.099173
0.109868
0.102540
0.084907
0.046116
-0.005068
-0.071622
-0.119854
-0.162501
-0.216327
-0.220321
-0.164318
-0.100535
-0.085712
-0.062313
-0.062528
-0.054986
0.042021
0.075192
0.089528
0.139124
0.140979
0.139908
0.123546
0.077096
0.039021
-0.012825
-0.054735
-0.097897
-0.110098
-0.133141
-0.155143
-0.138745
-0.136799
-0.129176
-0.066340
-0.003551
0.030136
0.076253
0.096682
0.144199
0.195048
0.176408
0.129596
0.098617
0.051721
0.032999
-0.010884
-0.069594
-0.124309
-0.133783
-0.163063
-0.169743
-0.149662
-0.117016
-0.061000
0.009357
0.087844
0.141748
0.186005
0.221173
0.209030
0.156566
0.118301
0.131868
0.086307
0.031863
-0.019332
-0.056542
-0.106623
-0.123324
-0.142005
-0.132016
-0.115116
-0.084372
-0.042965
0.017308
0.062652
0.104779
0.137559
0.163974
0.171246
0.156432
0.143439
0.115561
0.071768
0.024270
-0.046521
-0.070674
-0.109159
-0.126403
-0.149523
-0.145299
-0.125621
-0.093694
-0.052140
-0.003400
0.038905
0.070438
0.108190
0.171284
0.205517
0.164344
0.103016
0.116143
0.078188
0.027439
-0.051589
-0.091301
-0.134006
-0.154049
-0.163663
-0.141996
-0.121657
-0.090892
-0.045509
0.001655
0.038406
0.067800
0.096291
0.122688
0.150469
0.143343
0.104270
0.068744
0.020498
-0.036593
-0.096894
-0.117551
-0.128763
-0.173191
-0.235920
-0.205933
-0.153208
-0.114309
-0.046681
0.000159
0.024222
0.062014
0.122299
0.152980
0.147184
0.128152
0.091335
0.061534
0.028704
-0.008762
-0.065520
-0.110441
-0.135203
-0.177705
-0.197522
-0.192302
-0.161422
-0.118922
-0.084528
-0.039136
0.003871
0.051920
0.069095
0.095028
0.117211
0.101484
0.076217
0.053727
-0.000976
-0.049473
-0.098277
-0.151295
-0.165517
-0.174420
-0.195491
-0.198268
-0.205034
-0.146542
-0.119122
-0.098957
-0.067191
0.017779
0.095428
0.137236
0.136872
0.118217
0.099829
0.059280
0.009489
-0.054335
-0.094066
-0.159295
-0.173234
-0.188345
-0.202742
-0.194032
-0.165618
-0.139254
-0.097713
-0.041279
-0.008658
0.054367
0.080659
0.093004
0.106723
0.119766
0.099246
0.073678
0.029942
-0.012806
-0.092837
-0.151261
-0.198668
-0.207391
-0.193497
-0.181022
-0.170699
-0.109440
-0.062112
-0.022267
0.018917
0.067755
0.075170
0.099664
0.119970
0.115422
0.124119
0.070554
0.036515
-0.003665
-0.051689
-0.092535
-0.138237
-0.163314
-0.211797
-0.181433
-0.161618
-0.129352
-0.077892
-0.048928
0.042755
0.071494
0.079585
0.138693
0.143872
0.130178
0.083997
0.069117
0.055755
-0.003175
-0.070919
-0.112222
-0.140022
-0.157673
-0.173653
-0.176858
-0.146170
-0.108775
-0.070196
-0.035370
0.003280
0.065168
0.100500
0.103012
0.119865
0.116793
0.104886
0.083338
0.043489
-0.016645
-0.058807
-0.103749
-0.143028
-0.209450
-0.253314
-0.201334
-0.149351
-0.148396
-0.106629
-0.065815
-0.000586
0.049016
0.106058
0.155598
0.134781
0.128326
0.094317
0.032266
0.012422
-0.011689
-0.030192
-0.116740
-0.153601
-0.195122
-0.193408
-0.195131
-0.162203
-0.101016
-0.081135
-0.048360
0.028327
0.066922
0.105764
0.120794
0.115039
0.090490
0.115529
0.070682
0.004851
-0.043281
-0.098098
-0.128189
-0.168018
-0.185963
-0.208045
-0.206853
-0.161872
-0.136730
-0.084731
-0.062230
-0.048797
0.027320
0.056039
0.073537
0.115928
0.106575
0.080855
0.051336
0.001002
-0.036499
-0.095845
-0.113416
-0.157115
-0.187931
-0.203177
-0.188598
-0.177408
-0.170314
-0.092559
-0.044799
-0.014767
0.044468
0.086569
0.124903
0.156905
0.139598
0.099599
0.065902
-0.002274
-0.013833
-0.087064
-0.126287
-0.153052
-0.170275
-0.151405
-0.143735
-0.122690
-0.067861
0.033788
0.014079
0.003955
0.042005
0.080014
0.099999
0.102454
0.110363
0.120302
0.059171
0.003751
-0.042401
-0.076335
-0.134983
-0.160678
-0.160787
-0.143016
-0.124738
-0.115044
-0.083190
-0.042007
-0.007757
0.054188
0.098142
0.137969
0.155592
0.161484
0.130052
0.134954
0.129035
0.069255
0.030068
-0.031670
-0.099101
-0.148885
-0.156774
-0.116957
-0.132935
-0.139426
-0.092712
-0.067757
-0.063594
-0.036910
0.024193
0.078449
0.131085
0.138438
0.150243
0.126702
0.078515
0.011255
-0.008282
-0.112152
-0.193589
-0.152292
-0.192795
-0.236282
-0.246044
-0.248594
-0.159428
-0.080550
-0.021565
-0.000224
0.021001
0.070908
0.089026
0.110055
0.073272
0.037098
0.010124
-0.018612
-0.073257
-0.100662
-0.155206
-0.248802
-0.261104
-0.245105
-0.222613
-0.189835
-0.161095
-0.131095
-0.071690
-0.002651
0.023736
0.042707
0.057021
0.069360
0.052750
0.020578
0.008528
-0.021697
-0.087670
-0.122509
-0.168811
-0.171295
-0.192262
-0.218475
-0.211613
-0.213679
-0.199895
-0.126182
-0.070082
-0.027912
-0.003763
0.052073
0.073718
0.062692
0.074983
0.064306
0.000543
-0.072695
-0.102163
-0.133208
-0.171799
-0.216766
-0.242506
-0.241184
-0.227381
-0.219657
-0.171750
-0.124448
-0.047899
-0.008537
-0.002490
0.028632
0.021915
0.025539
-0.003376
-0.008974
0.010260
0.000911
-0.048630
-0.144762
-0.200498
-0.196448
-0.231945
-0.255561
-0.256385
-0.215587
-0.197874
-0.162455
-0.083065
0.005098
0.090450
0.150312
0.181657
0.161166
0.143982
0.139558
0.161346
0.124257
0.087633
0.065626
0.028112
0.015170
0.044790
0.078237
0.130955
0.166275
0.195158
0.282386
0.358282
0.419608
0.521866
0.621766
0.688904
0.725039
0.773230
0.781888
0.772643
0.769493
0.715403
0.697958
0.656519
0.591648
0.523158
0.489948
0.478958
0.465446
0.463268
0.447263
0.410887
0.396785
0.378499
0.334518
0.343630
0.294631
0.235346
0.206118
0.158064
0.097049
0.070383
0.033337
-0.026235
-0.075452
-0.099894
-0.105143
-0.104208
-0.090413
-0.064433
-0.020108
-0.001278
0.008375
0.068265
0.127383
0.145851
0.166766
0.138889
0.120594
0.083793
0.034174
-0.018199
-0.092169
-0.141331
-0.148672
-0.175723
-0.172338
-0.156099
-0.205318
-0.190943
-0.105759
-0.049596
0.036997
0.075574
0.100518
0.099597
0.090317
0.087962
0.091031
0.059277
0.011314
-0.051563
-0.129162
-0.151944
-0.157587
-0.175646
-0.207516
-0.193110
-0.177281
-0.153244
-0.124685
-0.090616
-0.030081
0.045300
0.105548
0.105150
0.120044
0.096210
0.056302
0.021920
-0.009706
-0.032956
-0.088191
-0.126795
-0.160089
-0.181820
-0.207938
-0.204537
-0.188829
-0.159419
-0.125839
-0.062409
0.009783
0.067812
0.093507
0.106221
0.113677
0.113780
0.096994
0.047977
0.011525
-0.050916
-0.093584
-0.115723
-0.111749
-0.168343
-0.190552
-0.190291
-0.186831
-0.058868
-0.018379
-0.025170
-0.008691
0.057918
0.095010
0.128836
0.131163
0.160133
0.146799
0.111527
0.055068
-0.033638
-0.076775
-0.104807
-0.125142
-0.162069
-0.150109
-0.158666
-0.115739
-0.075155
-0.050981
-0.005539
0.064719
0.088103
0.132670
0.155866
0.159408
0.138862
0.131624
0.122799
0.058500
0.000244
-0.036263
-0.090452
-0.096654
-0.126493
-0.117743
-0.141173
-0.156329
-0.129766
-0.080085
-0.019356
0.031935
0.097674
0.197866
0.206026
0.218115
0.213364
0.143672
0.112132
0.070207
0.016575
-0.046869
-0.075277
-0.112499
-0.076580
-0.092885
-0.100974
-0.074261
-0.067856
-0.038817
0.013282
0.066365
0.106730
0.143881
0.183031
0.162913
0.167333
0.144591
0.135738
0.078574
-0.001501
-0.024225
-0.055602
-0.089822
-0.110667
-0.135205
-0.163150
-0.130491
-0.069575
-0.015627
0.037763
0.041975
0.078287
0.117274
0.139630
0.145415
0.155189
0.160643
0.133424
0.053769
0.009038
-0.029309
-0.082435
-0.121343
-0.142109
-0.195509
-0.187799
-0.136294
-0.101615
-0.053752
0.000226
0.041307
0.104830
0.125342
0.156460
0.160612
0.134748
0.091768
0.087821
0.025151
-0.044533
-0.067203
-0.095991
-0.149095
-0.180121
-0.202651
-0.206204
-0.136520
-0.128506
-0.078394
-0.039505
-0.002657
0.043346
0.076972
0.122127
0.113717
0.118434
0.088022
0.056480
0.008839
-0.031866
-0.076202
-0.141917
-0.183763
-0.199831
-0.215671
-0.197407
-0.176579
-0.141912
-0.114156
-0.103989
-0.056663
0.060585
0.119756
0.110144
0.090161
0.090881
0.067162
0.094668
0.026211
-0.042760
-0.099338
-0.132959
-0.143369
-0.192802
-0.203356
-0.194275
-0.172992
-0.118623
-0.098137
-0.049231
-0.022025
0.012368
0.069959
0.099871
0.112765
0.106189
0.082781
0.055660
-0.023932
-0.066698
-0.087677
-0.118479
-0.144503
-0.195107
-0.213176
-0.195967
-0.192944
-0.126714
-0.082318
-0.060839
-0.036605
0.014569
0.062105
0.102933
0.120520
0.116241
0.089643
0.048837
-0.022741
-0.066236
-0.116878
-0.140584
-0.159016
-0.190215
-0.153715
-0.168478
-0.156122
-0.144653
-0.112909
-0.069755
0.013055
0.049260
0.087715
0.132935
0.105479
0.084840
0.084297
0.079311
0.058429
0.015673
-0.064522
-0.138426
-0.191587
-0.194915
-0.167744
-0.178661
-0.148681
-0.096598
-0.079541
-0.020163
0.022647
0.068145
0.099566
0.087124
0.118436
0.135020
0.060202
0.070942
0.065005
-0.034930
-0.078562
-0.114471
-0.162491
-0.150818
-0.164628
-0.217094
-0.179963
-0.130678
-0.083640
-0.038284
0.006009
0.025717
0.081151
0.092088
0.117621
0.125609
0.075853
0.050424
-0.013358
-0.038165
-0.075488
-0.120999
-0.172601
-0.204375
-0.191711
-0.149431
-0.146556
-0.121899
-0.102512
-0.074427
0.004988
0.060766
0.070913
0.113470
0.131907
0.083791
0.053143
0.021746
0.018978
-0.045245
-0.092896
-0.117245
-0.131910
-0.182340
-0.214480
-0.190040
-0.172476
-0.140436
-0.089346
-0.053834
-0.010851
0.046152
0.063401
0.087437
0.100604
0.108833
0.057773
0.045873
0.023143
-0.028524
-0.087695
-0.139526
-0.181686
-0.175298
-0.166396
-0.189275
-0.202862
-0.191529
-0.126841
-0.033398
0.008179
0.023335
0.087459
0.101035
0.101865
0.067548
0.066375
0.062851
0.032029
-0.012282
-0.084117
-0.107731
-0.136835
-0.168070
-0.167173
-0.152812
-0.132586
-0.095049
-0.047832
-0.005049
0.048125
0.074607
0.077428
0.082913
0.123537
0.179190
0.130550
0.090202
0.044049
-0.028709
-0.057708
-0.099713
-0.125838
-0.143614
-0.160927
-0.156008
-0.150564
-0.113346
-0.064801
-0.034232
0.031964
0.065584
0.094018
0.131351
0.123315
0.114808
0.082903
0.052548
0.031463
0.008125
-0.014865
-0.048527
-0.061770
-0.114750
-0.163762
-0.137317
-0.119464
-0.112282
-0.056629
0.017571
0.056771
0.093935
0.119757
0.144593
0.129687
0.122008
0.065901
0.043746
0.037800
0.002215
-0.053550
-0.092752
-0.149855
-0.208866
-0.181081
-0.147378
-0.132542
-0.151768
-0.133350
-0.073238
-0.005907
0.040962
0.075059
0.083897
0.098479
0.084521
0.040261
0.006774
-0.016673
-0.072715
-0.112816
-0.168106
-0.191731
-0.214383
-0.214698
-0.217824
-0.186599
-0.148379
-0.131801
-0.080771
-0.007497
0.012380
0.037773
0.069112
0.077102
0.070916
0.049085
-0.004721
-0.019868
-0.068496
-0.106903
-0.166403
-0.214950
-0.238228
-0.240994
-0.240407
-0.218656
-0.172443
-0.121389
-0.082679
-0.047275
-0.003443
0.048506
0.054803
0.068886
0.063020
0.065757
0.057143
-0.031446
-0.081650
-0.099636
-0.138526
-0.193804
-0.254998
-0.270622
-0.258210
-0.217662
-0.177074
-0.140219
-0.070681
-0.006569
0.027955
0.030710
0.054329
0.073347
0.059789
-0.020336
-0.059354
-0.046731
-0.084007
-0.138323
-0.169573
-0.183991
-0.218604
-0.184269
-0.178364
-0.209237
-0.198073
-0.151914
-0.083085
-0.048012
-0.005388
0.038985
0.064150
0.054344
0.080550
0.058825
0.031433
-0.023717
-0.071978
-0.092147
-0.081909
-0.104497
-0.125909
-0.116042
-0.127305
-0.096146
-0.041375
0.009546
0.076064
0.180463
0.245328
0.288981
0.369197
0.382814
0.421261
0.444005
0.422334
0.441296
0.435706
0.411585
0.412800
0.427650
0.467242
0.508509
0.519662
0.569921
0.628595
0.676158
0.725083
0.783429
0.809846
0.830025
0.826328
0.820173
0.785706
0.705610
0.588099
0.496526
0.367024
0.243508
0.109696
0.046728
0.014555
-0.033374
-0.006115
-0.010190
-0.021462
0.021189
0.050952
0.115027
0.128993
0.145370
0.171442
0.191810
0.208815
0.205735
0.192575
0.092624
-0.009544
-0.058370
-0.029396
-0.058433
-0.127095
-0.142219
-0.192461
-0.147554
-0.105524
-0.058594
-0.007697
0.059411
0.097045
0.097410
0.105008
0.119333
0.122290
0.090668
0.062200
0.014125
-0.058480
-0.123436
-0.144902
-0.202065
-0.195826
-0.171906
-0.126498
-0.113611
-0.100611
-0.086729
-0.057993
-0.001271
0.032427
0.055542
0.061543
0.095912
0.132218
0.117586
0.056031
-0.013423
-0.055456
-0.086299
-0.114799
-0.147565
-0.171625
-0.185412
-0.179979
-0.151440
-0.118193
-0.099894
-0.069097
0.009050
0.045559
0.066933
0.120620
0.121016
0.089124
0.060275
0.035383
0.038095
-0.034980
-0.097735
-0.138571
-0.151377
-0.155162
-0.173942
-0.169596
-0.167287
-0.151979
-0.102023
-0.057383
0.011868
0.081372
0.106677
0.144241
0.146649
0.126116
0.127312
0.094094
0.049407
0.013025
-0.032027
-0.072166
-0.149454
-0.183764
-0.169859
-0.180667
-0.136579
-0.090357
-0.064564
-0.046133
-0.004627
0.052889
0.117782
0.162554
0.192050
0.174188
0.143937
0.120699
0.082918
0.049839
-0.003300
-0.039824
-0.058745
-0.104997
-0.124038
-0.126357
-0.114856
-0.097561
-0.054035
0.023550
0.086172
0.117641
0.126165
0.149058
0.179333
0.189083
0.174778
0.147334
0.106003
0.032145
-0.057469
-0.087600
-0.110940
-0.123678
-0.120682
-0.116852
-0.089697
-0.066575
0.001581
0.048339
0.105150
0.134266
0.158626
0.171272
0.207408
0.230504
0.167994
0.104486
0.058288
-0.015238
-0.095482
-0.096142
-0.104560
-0.141659
-0.132791
-0.105548
-0.063979
-0.048970
-0.002578
0.060394
0.083987
0.122920
0.144323
0.145802
0.137879
0.151270
0.171500
0.120075
0.041299
0.017785
-0.010284
-0.071479
-0.108027
-0.140710
-0.157859
-0.145840
-0.115461
-0.130225
-0.043298
-0.002413
0.044652
0.121460
0.135065
0.148490
0.135742
0.144239
0.140451
0.107822
0.019843
-0.035645
-0.083245
-0.102307
-0.147015
-0.125931
-0.118478
-0.142116
-0.152192
-0.138058
-0.113757
-0.058278
0.030260
0.072111
0.120439
0.150685
0.130851
0.124666
0.080695
0.063674
0.032744
-0.016298
-0.061206
-0.072553
-0.125122
-0.184504
-0.193841
-0.205766
-0.186788
-0.143269
-0.101911
-0.071035
-0.015103
0.021945
0.041560
0.063055
0.079080
0.079009
0.078363
0.067820
0.032233
-0.064472
-0.106796
-0.112975
-0.152200
-0.188707
-0.239865
-0.247489
-0.206302
-0.149766
-0.103403
-0.043940
0.025716
0.076499
0.076832
0.078603
0.075195
0.099133
0.064421
-0.008377
-0.084238
-0.083547
-0.079170
-0.138533
-0.210728
-0.217108
-0.199813
-0.191510
-0.155783
-0.124599
-0.113142
-0.099100
-0.070059
-0.005073
0.075740
0.115622
0.097458
0.104985
0.113444
0.067829
0.032158
-0.036452
-0.075922
-0.139513
-0.185045
-0.232265
-0.196842
-0.161184
-0.131210
-0.127869
-0.111677
-0.080406
-0.028476
0.020052
0.052651
0.076493
0.074834
0.078196
0.061531
0.050791
0.022507
-0.046808
-0.109476
-0.144348
-0.168221
-0.196123
-0.216666
-0.211867
-0.149247
-0.130181
-0.110128
-0.032689
0.029289
0.050924
0.061603
0.073173
0.117971
0.140021
0.089972
0.081030
0.055150
-0.004386
-0.102352
-0.187428
-0.200827
-0.184113
-0.202067
-0.167952
-0.159559
-0.176239
-0.117575
-0.051124
-0.002455
0.032497
0.059774
0.119516
0.135242
0.116301
0.103408
0.074951
0.019419
-0.047592
-0.083458
-0.132012
-0.181961
-0.200894
-0.200829
-0.206207
-0.220563
-0.194242
-0.162404
-0.090650
-0.016885
0.087252
0.120636
0.128257
0.113198
0.110707
0.053305
-0.000703
-0.014886
-0.029501
-0.094067
-0.146421
-0.165838
-0.177287
-0.210327
-0.230210
-0.224632
-0.202019
-0.153969
-0.086985
-0.052332
0.015289
0.055746
0.089888
0.107149
0.129750
0.097019
0.043333
0.025594
-0.030420
-0.077195
-0.149238
-0.194862
-0.212611
-0.176576
-0.183365
-0.176205
-0.152940
-0.109376
-0.084108
-0.010665
0.036675
0.072129
0.099186
0.111383
0.101839
0.057988
0.038570
-0.009286
-0.064792
-0.121088
-0.153966
-0.176084
-0.194784
-0.183095
-0.178461
-0.155051
-0.137034
-0.104069
-0.059672
0.000968
0.060506
0.098533
0.131711
0.131573
0.118563
0.081757
0.040918
-0.002628
-0.049679
-0.086378
-0.150478
-0.170459
-0.207362
-0.197121
-0.153514
-0.110877
-0.088801
-0.054929
-0.015133
0.015651
0.051633
0.090601
0.125342
0.111810
0.094957
0.081243
0.071587
0.031110
0.012242
-0.044085
-0.113312
-0.144707
-0.153143
-0.173836
-0.168450
-0.156951
-0.142166
-0.056146
0.030308
0.059806
0.077732
0.116695
0.138789
0.154262
0.146325
0.112244
0.059635
-0.007526
-0.085298
-0.112536
-0.172992
-0.197420
-0.153526
-0.178309
-0.181832
-0.160867
-0.127171
-0.058472
0.025404
0.049892
0.053004
0.054452
0.072080
0.113348
0.117415
0.095872
0.038720
-0.007639
-0.041453
-0.085525
-0.147578
-0.209040
-0.239455
-0.263311
-0.281256
-0.216359
-0.144894
-0.132997
-0.127679
-0.071743
0.033185
0.085829
0.068141
0.040002
0.043199
0.035619
0.022736
-0.015139
-0.086792
-0.159932
-0.204431
-0.244604
-0.239334
-0.250163
-0.261548
-0.228011
-0.191461
-0.140502
-0.077239
-0.045088
-0.020352
-0.008740
0.066157
0.079750
0.061367
0.033556
0.003184
-0.025394
-0.083106
-0.127392
-0.164539
-0.220569
-0.260241
-0.260667
-0.259631
-0.245729
-0.212637
-0.169889
-0.127952
-0.102067
-0.031404
0.072377
0.124202
0.101738
0.072286
0.024711
0.023360
-0.002393
-0.050109
-0.118812
-0.183981
-0.239304
-0.258255
-0.260830
-0.237366
-0.218549
-0.194200
-0.181260
-0.119125
-0.048747
-0.030337
-0.000596
0.028692
0.019964
0.029671
0.018905
-0.002933
-0.051959
-0.097733
-0.161955
-0.209466
-0.200908
-0.217451
-0.227714
-0.220845
-0.144508
-0.076037
-0.043460
-0.027787
0.017827
0.096453
0.169114
0.177148
0.201426
0.301998
0.298032
0.265781
0.227044
0.212091
0.197939
0.189598
0.193227
0.216411
0.284609
0.313185
0.351636
0.435537
0.525155
0.604351
0.678680
0.750804
0.842087
0.920852
0.934118
0.936875
0.907922
0.869935
0.788484
0.740038
0.693917
0.638325
0.563104
0.478227
0.399083
0.340036
0.278024
0.246810
0.228854
0.218726
0.203563
0.240998
0.253439
0.250062
0.274113
0.281702
0.261648
0.192604
0.144297
0.065706
0.006901
-0.026345
-0.063494
-0.132123
-0.147804
-0.164817
-0.141925
-0.091434
0.003022
-0.015574
0.053818
0.068250
0.123369
0.152524
0.169059
0.154137
0.093499
0.114612
0.089566
0.010674
-0.082408
-0.136054
-0.156512
-0.161682
-0.187127
-0.186626
-0.104882
-0.106466
-0.082161
-0.071415
-0.025258
0.006642
0.058370
0.103767
0.133361
0.142962
0.096852
0.064754
0.011180
-0.036297
-0.065750
-0.122095
-0.163897
-0.177199
-0.182003
-0.179423
-0.151099
-0.128913
-0.086907
-0.048807
0.011690
0.079378
0.093968
0.112909
0.120760
0.126059
0.106350
0.094211
0.018718
0.001736
-0.066566
-0.124067
-0.156607
-0.173324
-0.187009
-0.203722
-0.175811
-0.113416
-0.091215
-0.043679
0.044434
0.096900
0.120897
0.103043
0.123223
0.173177
0.134333
0.079749
0.028154
-0.019392
-0.045204
-0.093221
-0.125391
-0.118209
-0.151818
-0.138638
-0.102668
-0.090566
-0.061230
0.004099
0.073939
0.117662
0.141416
0.167368
0.198673
0.176156
0.139634
0.125490
0.075443
0.010841
-0.029527
-0.062661
-0.097994
-0.104226
-0.114950
-0.120919
-0.106850
-0.063804
-0.019575
0.041401
0.067619
0.174495
0.190068
0.210800
0.219020
0.198383
0.171089
0.138810
0.088155
0.026984
0.008201
-0.011933
-0.044312
-0.079301
-0.121840
-0.095686
-0.048970
-0.036629
0.007330
0.032093
0.085154
0.151067
0.182911
0.191138
0.229032
0.219863
0.197835
0.180931
0.136309
0.075781
0.028775
-0.010812
-0.045491
-0.058883
-0.082815
-0.080210
-0.070077
-0.048927
-0.018944
0.056064
0.114558
0.142457
0.148433
0.185280
0.223011
0.211980
0.152795
0.129329
0.094705
0.111159
0.070546
0.006751
-0.046969
-0.097598
-0.155614
-0.109447
-0.059052
-0.017929
0.018331
0.053169
0.087252
0.137858
0.160578
0.173428
0.168931
0.161004
0.159748
0.180711
0.137084
0.047389
0.007246
-0.044064
-0.090717
-0.102330
-0.108657
-0.139261
-0.121733
-0.074662
-0.033927
0.009008
0.069644
0.108603
0.136185
0.132340
0.181437
0.171757
0.144542
0.097113
0.057649
0.018070
-0.029906
-0.098220
-0.125010
-0.147898
-0.153858
-0.133075
-0.096980
-0.087381
-0.073715
-0.013691
0.044420
0.088729
0.127356
0.183335
0.147984
0.152157
0.135512
0.102256
0.079759
0.024005
-0.046009
-0.084754
-0.126578
-0.136621
-0.147455
-0.158609
-0.145895
-0.057460
-0.019372
0.048419
0.080681
0.087584
0.110021
0.115741
0.098689
0.114524
0.115429
0.097164
0.028559
0.021685
-0.018784
-0.079561
-0.134110
-0.175136
-0.170222
-0.180446
-0.147287
-0.092382
-0.009484
0.017744
0.062614
0.114888
0.134121
0.150296
0.162261
0.165019
0.125621
0.086500
0.055260
0.021098
-0.035151
-0.112399
-0.112775
-0.108126
-0.139630
-0.156203
-0.143184
-0.114664
-0.047516
-0.018716
0.037907
0.092183
0.126042
0.146790
0.158187
0.146510
0.125347
0.125145
0.079830
0.005116
-0.011732
-0.059542
-0.114843
-0.148082
-0.137007
-0.136016
-0.087947
-0.050682
-0.009752
0.033504
0.059674
0.109773
0.166710
0.167227
0.160131
0.132819
0.135814
0.139242
0.083181
0.016534
-0.024430
-0.051283
-0.114478
-0.144096
-0.118154
-0.076652
-0.061797
-0.055231
-0.012148
0.050399
0.078436
0.090054
0.135671
0.170712
0.176419
0.156329
0.152442
0.141627
0.068059
0.015019
-0.022680
-0.043284
-0.063389
-0.094993
-0.107241
-0.132398
-0.139002
-0.068089
-0.012605
0.039681
0.082623
0.114273
0.138047
0.153339
0.175201
0.183927
0.160208
0.130200
0.079129
0.014757
-0.039191
-0.051097
-0.091213
-0.119955
-0.128996
-0.112215
-0.075499
-0.050822
-0.022430
0.023835
0.067461
0.107102
0.135881
0.182905
0.209395
0.171031
0.144703
0.089676
0.069194
0.037680
-0.000328
-0.050381
-0.098254
-0.094451
-0.101952
-0.121386
-0.104193
-0.067443
-0.029419
0.040488
0.071486
0.123736
0.170593
0.205615
0.194693
0.172055
0.112432
0.084858
0.070416
0.026721
-0.008729
-0.050765
-0.097308
-0.122236
-0.126546
-0.130433
-0.106599
-0.059030
-0.028245
0.020586
0.076813
0.111378
0.130754
0.161605
0.170868
0.146946
0.151122
0.118851
0.050827
-0.013053
0.001363
-0.034677
-0.068565
-0.044448
-0.056308
-0.083947
-0.076213
-0.034251
0.005661
0.050362
0.111858
0.138725
0.188616
0.212304
0.231807
0.193213
0.162712
0.148838
0.144620
0.076323
0.015277
-0.030439
-0.058123
-0.074037
-0.090250
-0.079020
-0.056896
-0.023100
0.016183
0.046296
0.083086
0.133353
0.178808
0.201498
0.200188
0.219362
0.187023
0.177915
0.143151
0.077138
0.041426
0.010677
-0.047733
-0.083410
-0.027534
-0.022055
-0.016776
0.007867
0.044497
0.083224
0.136471
0.161971
0.191082
0.237778
0.253179
0.257202
0.217342
0.178777
0.140474
0.068759
0.020696
-0.017252
-0.067757
-0.073966
-0.094899
-0.079959
-0.093131
-0.062580
0.014883
0.092441
0.110509
0.126471
0.149783
0.191138
0.207646
0.180142
0.139991
0.098190
0.130024
0.089469
0.018628
-0.023675
-0.016011
-0.069007
-0.132868
-0.132668
-0.107214
-0.085483
-0.046081
0.031200
0.065983
0.101926
0.139467
0.139259
0.146697
0.171376
0.151094
0.102476
0.071723
0.042030
-0.017179
-0.085546
-0.122407
-0.148712
-0.145205
-0.095590
-0.085556
-0.083097
-0.029888
0.022064
0.067740
0.118623
0.140097
0.164190
0.171364
0.160662
0.143030
0.098534
0.059082
0.020132
-0.016666
-0.063590
-0.074413
-0.086569
-0.102985
-0.119282
-0.092787
-0.071152
-0.018035
0.035452
0.083048
0.119468
0.138707
0.169056
0.178211
0.182155
0.170771
0.129129
0.085119
0.035249
-0.014418
-0.060589
-0.086605
-0.124081
-0.121011
-0.124353
-0.107075
-0.049437
-0.000484
0.040892
0.070971
0.102829
0.139200
0.151786
0.167345
0.165558
0.135964
0.139276
0.077415
0.065071
0.066505
-0.015700
-0.076336
-0.092141
-0.078488
-0.081030
-0.061590
0.019075
0.098393
0.137175
0.188516
0.258960
0.323581
0.369205
0.382132
0.372997
0.384354
0.366398
0.352552
0.362977
0.354705
0.361626
0.371561
0.354697
0.383616
0.422844
0.498291
0.554987
0.628675
0.749384
0.817348
0.927703
0.978005
1.046023
1.063801
1.069493
1.034577
1.012291
0.975106
0.903929
0.806329
0.731755
0.698657
0.627959
0.510588
0.465088
0.420590
0.410574
0.396055
0.384432
0.373695
0.396156
0.422929
0.415357
0.411128
0.413115
0.395095
0.367982
0.301371
0.233978
0.170052
0.111393
0.064860
0.057148
0.031101
0.012967
0.038423
0.065413
0.104843
0.151701
0.198553
0.243862
0.274457
0.292180
0.290420
0.263968
0.268958
0.227122
0.176143
0.134215
0.077510
-0.011828
-0.041664
-0.050909
-0.030782
-0.034156
-0.025408
0.041608
0.061755
0.105012
0.193582
0.244897
0.225837
0.247627
0.285268
0.239592
0.211647
0.236733
0.182016
0.132000
0.053815
0.008585
-0.017055
-0.026147
-0.029849
-0.034784
-0.014842
0.009144
0.054606
0.120502
0.165566
0.207985
0.232881
0.247330
0.258412
0.244181
0.228695
0.210611
0.196392
0.138320
0.076171
0.040748
-0.011432
-0.046095
-0.018433
0.029057
0.020282
0.027871
0.062349
0.109129
0.175438
0.226135
0.241241
0.272320
0.290773
0.276488
0.253118
0.233787
0.200880
0.136794
0.101032
0.073526
0.045002
0.014854
0.005266
0.019675
0.018933
0.045460
0.092536
0.162989
0.230475
0.236492
0.262906
0.321785
0.327260
0.308395
0.280147
0.255117
0.220892
0.167650
0.110620
0.059060
0.055770
0.037342
0.034080
0.003264
0.024176
0.074938
0.121725
0.196312
0.267320
0.346650
0.327396
0.324847
0.354994
0.339531
0.332163
0.307913
0.237166
0.183908
0.152498
0.113550
0.097711
0.049195
0.033528
0.085369
0.088760
0.107417
0.197941
0.255332
0.290551
0.311175
0.351827
0.392592
0.402011
0.367087
0.326420
0.292408
0.241979
0.215254
0.173202
0.155532
0.126623
0.081548
0.056261
0.051959
0.079574
0.129238
0.200733
0.253842
0.288952
0.313133
0.324031
0.359939
0.358343
0.344933
0.333811
0.307503
0.272683
0.213927
0.158365
0.084580
0.060095
0.053989
0.051697
0.051146
0.072348
0.113926
0.165225
0.199984
0.244480
0.298386
0.307403
0.323469
0.328591
0.342247
0.323111
0.286191
0.234848
0.172789
0.115096
0.073016
0.036729
0.011171
0.047354
0.106803
0.083864
0.057699
0.102793
0.174198
0.207165
0.256305
0.276910
0.308100
0.309466
0.333243
0.316319
0.298389
0.234763
0.167680
0.119657
0.074894
0.042347
0.025103
0.003587
-0.006025
-0.008526
0.045833
0.067168
0.107590
0.182392
0.222841
0.235471
0.272245
0.289357
0.301019
0.281475
0.272675
0.236914
0.160384
0.088458
0.057188
0.011060
-0.011157
-0.016648
-0.005841
0.019989
0.067708
0.099928
0.111070
0.157093
0.205744
0.231170
0.259259
0.282486
0.285532
0.256847
0.206409
0.168183
0.144704
0.085505
0.016101
-0.006500
-0.029865
-0.024336
-0.016831
0.027290
0.080864
0.102639
0.159477
0.207519
0.230137
0.274391
0.295845
0.291367
0.263431
0.254229
0.222621
0.170744
0.128967
0.073010
0.023904
-0.012145
-0.020070
-0.006972
-0.003290
0.026972
0.075116
0.111492
0.142286
0.192095
0.224368
0.251126
0.274408
0.287139
0.283573
0.274197
0.227573
0.173915
0.158894
0.112397
0.051712
0.019642
0.024752
0.012369
-0.030168
-0.012038
0.063183
0.076245
0.124803
0.190267
0.262934
0.282054
0.285017
0.306054
0.258775
0.285237
0.264739
0.178374
0.145840
0.105352
0.065481
0.033909
0.030588
0.008472
0.026329
0.071576
0.085240
0.115973
0.158836
0.201145
0.252301
0.286648
0.301143
0.298879
0.276899
0.260956
0.221388
0.176749
0.131927
0.107034
0.050788
0.006775
-0.011831
0.006113
0.001564
0.037557
0.077347
0.117386
0.145467
0.186846
0.238828
0.274488
0.299050
0.307086
0.290042
0.294416
0.243029
0.206028
0.151426
0.091950
0.037454
-0.004852
-0.009465
-0.004624
-0.009671
0.007708
0.033971
0.054854
0.135399
0.194845
0.220856
0.248052
0.274681
0.282438
0.295410
0.267842
0.229876
0.187243
0.142759
0.072718
0.036664
0.009178
0.013245
-0.044073
-0.035220
0.003276
0.036795
0.096088
0.149859
0.199338
0.240910
0.259911
0.278865
0.280284
0.276721
0.250215
0.226033
0.157653
0.137486
0.127997
0.051063
0.013453
-0.013033
0.005564
0.011197
0.046681
0.053437
0.052709
0.092941
0.181854
0.229334
0.255976
0.250438
0.269153
0.255092
0.242637
0.232870
0.190667
0.120399
0.082613
0.050148
0.014254
-0.009613
-0.019906
-0.015084
-0.011425
0.042607
0.045362
0.100502
0.151890
0.202585
0.250716
0.286497
0.282384
0.272207
0.260754
0.213263
0.176506
0.151086
0.097378
0.053420
0.018742
0.010422
-0.021414
-0.016355
0.010660
0.038920
0.087467
0.145960
0.187488
0.230589
0.255886
0.294085
0.294767
0.276522
0.252311
0.203085
0.210668
0.167972
0.145447
0.103330
-0.008678
-0.029944
-0.033863
0.060176
0.088732
0.109131
0.128078
0.189084
0.215027
0.239071
0.243496
0.277595
0.291448
0.323394
0.303696
0.257802
0.220008
0.164531
0.121572
0.070947
0.036942
0.025071
0.009646
0.007306
0.047600
0.105909
0.160114
0.202434
0.214181
0.266333
0.297443
0.306126
0.321356
0.318665
0.278627
0.232448
0.230428
0.182308
0.126053
0.079515
0.035734
0.017054
-0.011051
-0.006798
-0.000771
0.050731
0.073809
0.111596
0.161387
0.224065
0.244774
0.256492
0.268117
0.253425
0.224904
0.175346
0.147509
0.109624
0.070946
0.023425
0.017865
-0.013914
-0.061281
-0.037067
0.000317
0.043668
0.048625
0.075454
0.117549
0.149043
0.203303
0.235972
0.230676
0.212581
0.214291
0.162171
0.147880
0.123051
0.083861
0.063417
-0.000937
-0.046696
-0.079001
-0.055558
-0.045424
-0.004420
0.019248
0.089738
0.136058
0.172770
0.235231
0.243482
0.242200
0.229163
0.219420
0.169240
0.146143
0.110373
0.048421
0.002537
-0.020066
-0.089237
-0.080065
-0.078979
-0.055096
-0.002563
0.038686
0.064211
0.123903
0.155674
0.192163
0.239590
0.251244
0.230256
0.199671
0.168487
0.134346
0.078164
0.036805
0.000979
-0.030953
-0.072103
-0.083278
-0.083656
-0.059785
-0.014646
0.037593
0.094887
0.114908
0.154519
0.203653
0.229934
0.219831
0.226108
0.193548
0.168396
0.143190
0.102357
0.035236
-0.012083
-0.040678
-0.062823
-0.059422
-0.012223
0.013185
0.057877
0.091407
0.169542
0.227903
0.254935
0.320869
0.394763
0.428906
0.435032
0.461950
0.475783
0.478635
0.465308
0.446032
0.417048
0.456968
0.467821
0.479871
0.516473
0.566334
0.648021
0.724314
0.813546
0.889967
0.967705
1.029169
1.072592
1.081243
1.065265
1.043623
1.005182
0.931236
0.862699
0.784172
0.676281
0.550445
0.486276
0.428275
0.407841
0.345818
0.317286
0.302557
0.318878
0.318954
0.354132
0.416293
0.427584
0.424984
0.388898
0.379953
0.333452
0.269578
0.209950
0.152330
0.089633
0.058472
0.027819
0.020028
0.047106
0.057495
0.092505
0.102628
0.134851
0.177198
0.214395
0.254856
0.269369
0.290003
0.264339
0.258783
0.210596
0.170551
0.112130
0.059818
0.013115
-0.027418
-0.046882
-0.055288
-0.037312
-0.052474
0.001065
0.043697
0.085179
0.126135
0.180230
0.226148
0.250980
0.245571
0.247674
0.227535
0.194609
0.149290
0.109157
0.058540
0.008199
-0.019858
-0.037930
-0.039395
-0.045652
-0.046826
-0.017457
0.022391
0.083578
0.117601
0.167794
0.222684
0.250308
0.268397
0.253102
0.239463
0.205513
0.161259
0.127766
0.084497
0.047230
0.001684
-0.022048
-0.034832
-0.058803
-0.036924
-0.006293
0.006842
0.069584
0.127866
0.219032
0.265742
0.271852
0.290869
0.302451
0.258668
0.218430
0.178681
0.123681
0.079170
0.049862
0.038559
-0.005916
-0.041770
-0.004551
0.048492
0.097318
0.106700
0.116613
0.138190
0.201634
0.256558
0.291560
0.271892
0.256061
0.234200
0.240564
0.200838
0.171978
0.115057
0.073766
0.028486
0.008809
0.019227
0.011118
0.004714
0.048289
0.091183
0.129112
0.172613
0.228330
0.263471
0.307569
0.315442
0.305880
0.305668
0.266339
0.229518
0.175228
0.158841
0.115428
0.049702
0.049191
0.034758
0.044423
0.028154
0.054657
0.090496
0.106521
0.168876
0.241604
0.282963
0.312147
0.322940
0.313829
0.282403
0.250778
0.211994
0.145872
0.109412
0.056887
0.052151
0.042167
0.062386
0.046753
0.026853
0.062080
0.106388
0.161665
0.218682
0.262276
0.281702
0.303989
0.317195
0.309000
0.276562
0.212600
0.174732
0.138201
0.102709
0.065517
0.026559
-0.015925
-0.000785
0.020406
0.004556
0.035727
0.066690
0.148261
0.178715
0.220674
0.272307
0.293166
0.285130
0.286526
0.256832
0.227614
0.180078
0.117714
0.039299
0.016701
-0.002032
-0.031663
-0.049687
-0.042860
-0.023521
0.007716
0.057763
0.102184
0.159952
0.194681
0.209218
0.237755
0.266980
0.254283
0.218608
0.169215
0.127126
0.081500
0.073774
0.013328
-0.036808
-0.006422
0.018710
-0.047209
-0.109770
-0.056072
0.005648
0.094886
0.150190
0.145303
0.187270
0.202153
0.236897
0.238221
0.187888
0.121082
0.100511
0.067937
0.055945
-0.018761
-0.073451
-0.097705
-0.109003
-0.097358
-0.066166
-0.047993
-0.004393
0.033235
0.090787
0.147253
0.174643
0.186623
0.185820
0.190428
0.185397
0.149535
0.109257
0.047869
0.003170
0.001028
-0.047282
-0.096903
-0.089631
-0.079635
-0.096241
-0.058133
-0.025571
0.022252
0.065504
0.122437
0.162363
0.176441
0.189183
0.180163
0.172287
0.139045
0.088963
0.063048
0.016997
-0.025178
-0.065537
-0.094710
-0.099494
-0.089837
-0.095065
-0.026889
0.007455
0.038319
0.075043
0.120144
0.131655
0.146694
0.185100
0.194058
0.213473
0.167873
0.108350
0.076632
0.032115
-0.027257
-0.083783
-0.117406
-0.112964
-0.095661
-0.075109
-0.078408
-0.033982
0.007177
0.079584
0.121095
0.176061
0.188266
0.202680
0.176315
0.110139
0.145288
0.120851
0.076858
0.076745
0.011596
-0.026752
-0.095717
-0.112602
-0.085535
-0.045032
-0.016105
0.007186
0.061550
0.079577
0.122446
0.159940
0.170475
0.204165
0.199079
0.197876
0.156848
0.110218
0.089069
0.028105
-0.037677
-0.085880
-0.108709
-0.118778
-0.118548
-0.102961
-0.047565
-0.011895
0.019457
0.059691
0.124933
0.149369
0.179545
0.190294
0.190327
0.171911
0.136449
0.089806
0.044662
-0.010327
-0.056375
-0.091599
-0.109608
-0.134396
-0.140932
-0.136157
-0.086402
-0.020733
0.002949
0.044938
0.101789
0.140887
0.163462
0.156176
0.156755
0.158851
0.131406
0.078224
0.034875
-0.023653
-0.056584
-0.078363
-0.107910
-0.112001
-0.102532
-0.098360
-0.073392
-0.057197
-0.014453
0.074376
0.147843
0.149030
0.172223
0.172121
0.160024
0.127110
0.075938
0.049386
0.026708
-0.026517
-0.090026
-0.113399
-0.127330
-0.181133
-0.145376
-0.120860
-0.114934
-0.021866
0.028408
0.038700
0.092939
0.122583
0.157906
0.148687
0.140523
0.133424
0.081308
0.094754
0.025062
-0.046064
-0.095249
-0.137506
-0.161853
-0.162415
-0.141718
-0.125465
-0.092633
-0.043207
-0.015120
0.008095
0.061242
0.102276
0.125027
0.121920
0.129436
0.112816
0.069686
0.030014
-0.011940
-0.047451
-0.070960
-0.117538
-0.172800
-0.186913
-0.126797
-0.084728
-0.087088
-0.064300
-0.052076
0.018803
0.072355
0.103066
0.100492
0.125757
0.136418
0.138684
0.112078
0.062858
-0.000033
-0.033002
-0.061856
-0.105333
-0.136992
-0.149613
-0.149050
-0.141174
-0.096950
-0.062955
-0.021779
0.055580
0.118304
0.145680
0.188904
0.177374
0.163628
0.168235
0.135894
0.073716
0.012083
-0.052528
-0.142012
-0.110902
-0.126371
-0.139741
-0.142814
-0.121398
-0.079848
-0.030910
0.034213
0.107379
0.093495
0.102095
0.142382
0.147493
0.163221
0.167787
0.142750
0.086004
0.027687
-0.023019
-0.047071
-0.098368
-0.126238
-0.139421
-0.130150
-0.119266
-0.091839
-0.055519
-0.009806
0.045095
0.131394
0.233795
0.192319
0.162372
0.134679
0.123929
0.081483
0.051861
0.028606
-0.045200
-0.090902
-0.114023
-0.141514
-0.151567
-0.159571
-0.162348
-0.129041
-0.072027
-0.036787
0.017761
0.077291
0.100725
0.116168
0.114597
0.100971
0.077603
0.056263
-0.007471
-0.084590
-0.149228
-0.136424
-0.160797
-0.174860
-0.212664
-0.193144
-0.159719
-0.146938
-0.105721
-0.057246
-0.019255
0.036727
0.041297
0.024129
0.044574
0.082642
0.088757
0.058724
0.020346
-0.012045
-0.095554
-0.161520
-0.195478
-0.197985
-0.194511
-0.203381
-0.193080
-0.174738
-0.149431
-0.090327
-0.059042
0.014644
0.063165
0.094086
0.080067
0.068262
0.054050
0.019418
-0.028548
-0.076461
-0.136042
-0.168915
-0.185658
-0.214311
-0.230625
-0.215142
-0.201811
-0.203735
-0.166469
-0.078429
-0.023056
0.020134
0.046977
0.080113
0.095451
0.101183
0.084891
0.022355
-0.044476
-0.088062
-0.149234
-0.174830
-0.209351
-0.228588
-0.232597
-0.208512
-0.189090
-0.148461
-0.100221
-0.093159
-0.053709
-0.019820
0.033702
0.056797
0.047025
0.036840
0.043939
-0.007957
-0.070860
-0.102852
-0.120832
-0.130978
-0.168742
-0.208201
-0.242847
-0.184267
-0.089112
-0.056452
0.043028
0.102247
0.146057
0.208059
0.246759
0.260561
0.298476
0.314777
0.293211
0.297444
0.284902
0.288541
0.320703
0.289073
0.303927
0.334893
0.349896
0.401680
0.465639
0.571958
0.645883
0.688084
0.755760
0.839367
0.897301
0.910117
0.922214
0.903787
0.858714
0.812857
0.735246
0.661571
0.596380
0.502263
0.357099
0.265217
0.190619
0.140596
0.128979
0.103310
0.098979
0.130597
0.185506
0.207815
0.235561
0.252363
0.236751
0.218021
0.183346
0.133509
0.081505
0.009426
-0.047635
-0.065106
-0.116336
-0.143028
-0.121266
-0.122825
-0.122173
-0.127842
-0.079193
-0.007278
0.060564
0.091868
0.121464
0.130641
0.136323
0.113317
0.083116
0.059069
0.035247
-0.012029
-0.088870
-0.169022
-0.194199
-0.216783
-0.229323
-0.241483
-0.193093
-0.110806
-0.053797
-0.017879
0.021911
0.042636
0.043928
0.030083
0.095872
0.120386
0.093809
0.056034
-0.003491
-0.045270
-0.082319
-0.146191
-0.183766
-0.202014
-0.223935
-0.247378
-0.203643
-0.180927
-0.139887
-0.073742
-0.024083
-0.003149
0.036298
0.074933
0.092614
0.082746
0.072799
0.037385
-0.012639
-0.066375
-0.103619
-0.114114
-0.130314
-0.145154
-0.170272
-0.174842
-0.190864
-0.157282
-0.113563
-0.045492
-0.016756
0.024628
0.081100
0.092175
0.092096
0.075522
0.066542
0.041821
-0.006752
-0.056418
-0.088131
-0.138650
-0.168187
-0.173986
-0.174068
-0.180384
-0.170129
-0.124472
-0.073900
-0.034628
0.028029
0.065089
0.091387
0.102036
0.097678
0.105330
0.101439
0.063027
0.028130
-0.019300
-0.065872
-0.088501
-0.135766
-0.159134
-0.164716
-0.169127
-0.142845
-0.107631
-0.062271
-0.021307
0.021120
0.050702
0.107700
0.126797
0.124590
0.159113
0.164923
0.128210
0.014101
0.026620
0.023607
-0.059877
-0.097297
-0.142404
-0.146331
-0.141822
-0.134122
-0.084701
-0.035482
0.018384
0.048833
0.088378
0.137146
0.133567
0.139594
0.168923
0.149261
0.108179
0.074517
0.018617
-0.020903
-0.066278
-0.113945
-0.143523
-0.164226
-0.152322
-0.137245
-0.100706
-0.058802
-0.016348
0.031919
0.091142
0.105860
0.122645
0.138340
0.136534
0.123297
0.076553
0.031070
-0.031203
-0.065014
-0.120935
-0.161159
-0.189898
-0.200414
-0.166010
-0.135054
-0.120401
-0.061067
-0.011715
0.016639
0.039549
0.090951
0.117119
0.125830
0.138709
0.109569
0.078557
0.036365
-0.004163
-0.082790
-0.145161
-0.180208
-0.190770
-0.178228
-0.175164
-0.156431
-0.160525
-0.132482
-0.067851
-0.049088
-0.010352
0.049409
0.129104
0.126875
0.116028
0.077048
0.035622
-0.007294
-0.043590
-0.091236
-0.121074
-0.170405
-0.180481
-0.217396
-0.256653
-0.237352
-0.192689
-0.124503
-0.060572
-0.017906
0.008864
0.040627
0.065680
0.068959
0.053539
0.035142
-0.003088
-0.045565
-0.100621
-0.164306
-0.212613
-0.235828
-0.217482
-0.193431
-0.172236
-0.183190
-0.186631
-0.150840
-0.104128
-0.060230
-0.023166
0.018565
0.041401
0.039007
0.034976
0.030951
-0.009300
-0.055838
-0.098250
-0.161032
-0.199558
-0.222278
-0.243529
-0.260915
-0.249013
-0.229234
-0.204457
-0.161408
-0.092742
-0.025077
-0.021750
0.026056
0.039737
0.059946
0.042464
0.029325
0.007229
-0.032990
-0.077684
-0.144241
-0.168171
-0.200289
-0.217341
-0.250982
-0.242625
-0.227940
-0.177759
-0.144302
-0.084858
-0.058700
-0.010866
0.014960
0.042824
0.053684
0.056052
0.035919
-0.009876
-0.060126
-0.075808
-0.129525
-0.168169
-0.194437
-0.224985
-0.236781
-0.253765
-0.226315
-0.185536
-0.153167
-0.101379
-0.065173
-0.018876
0.016938
0.061442
0.074256
0.072606
0.039310
0.000754
-0.041117
-0.109952
-0.159320
-0.191016
-0.220953
-0.232176
-0.209704
-0.227812
-0.198803
-0.142329
-0.109888
-0.071227
-0.039332
-0.020605
0.030510
0.054298
0.081692
0.063370
0.054067
0.021504
-0.019505
-0.063870
-0.126366
-0.171188
-0.209779
-0.240781
-0.253934
-0.247484
-0.217473
-0.183074
-0.133449
-0.075981
-0.030344
-0.008604
0.029960
0.049605
0.050251
0.046719
0.026838
-0.013391
-0.053832
-0.105250
-0.153067
-0.210078
-0.237136
-0.231227
-0.236474
-0.240309
-0.234104
-0.212919
-0.169952
-0.111273
-0.063705
-0.017105
0.007004
0.046144
0.033473
0.044722
0.042869
0.013006
-0.042446
-0.089826
-0.150318
-0.203630
-0.241851
-0.276842
-0.281826
-0.253767
-0.247456
-0.233382
-0.178084
-0.128661
-0.076275
0.004559
0.062308
0.005616
0.022175
0.031759
0.044495
-0.006249
-0.088479
-0.157069
-0.175472
-0.207503
-0.248189
-0.228248
-0.234911
-0.259119
-0.255719
-0.202108
-0.158529
-0.132038
-0.103019
-0.092138
-0.029711
0.063150
0.063536
0.040207
0.026273
-0.012476
-0.071491
-0.134956
-0.172735
-0.199088
-0.227190
-0.231293
-0.243583
-0.254574
-0.243165
-0.184439
-0.143542
-0.107814
-0.057896
-0.031781
-0.014295
0.000270
0.045329
0.030713
0.000935
-0.044388
-0.099211
-0.131897
-0.174954
-0.195465
-0.235297
-0.266357
-0.260456
-0.272657
-0.257293
-0.230893
-0.168167
-0.110564
-0.084200
-0.059053
-0.034836
-0.006985
0.024501
0.037390
0.004838
-0.011048
-0.055839
-0.112216
-0.163038
-0.201106
-0.235238
-0.276216
-0.288354
-0.279571
-0.265205
-0.247917
-0.209359
-0.176056
-0.100618
0.023235
0.049303
0.042002
0.071463
0.054966
0.032334
0.007480
-0.045312
-0.095612
-0.167057
-0.174036
-0.200841
-0.240256
-0.260473
-0.257531
-0.218456
-0.200618
-0.159418
-0.107907
-0.043931
-0.007154
0.017208
0.044682
0.055078
0.057770
0.056180
0.012037
-0.039117
-0.117785
-0.161992
-0.191605
-0.229181
-0.246386
-0.257354
-0.246684
-0.209868
-0.169691
-0.092720
-0.049160
-0.005001
0.029185
0.028998
0.046173
0.096933
0.069010
0.025229
0.003906
-0.008302
-0.070251
-0.130973
-0.164792
-0.194031
-0.225049
-0.240934
-0.223426
-0.208235
-0.170216
-0.134553
-0.090215
-0.044890
-0.011703
0.013126
0.018334
0.023038
0.026154
0.018172
-0.020810
-0.059625
-0.092444
-0.152344
-0.202916
-0.252222
-0.270694
-0.269473
-0.265081
-0.235630
-0.232582
-0.185153
-0.125005
-0.082498
-0.036963
-0.011872
-0.011652
-0.007043
-0.005849
-0.027515
-0.060681
-0.109537
-0.154655
-0.206951
-0.242086
-0.278460
-0.294194
-0.306949
-0.306579
-0.276842
-0.278939
-0.244106
-0.157287
-0.105363
-0.053727
-0.042789
-0.037307
-0.016796
-0.022431
-0.044833
-0.074305
-0.118905
-0.174632
-0.227276
-0.266645
-0.278385
-0.301685
-0.314763
-0.318507
-0.283404
-0.245631
-0.203426
-0.153217
-0.112506
-0.103870
-0.068200
-0.011551
-0.014001
-0.011233
-0.011731
-0.046232
-0.105756
-0.146987
-0.202625
-0.235681
-0.280496
-0.293386
-0.305560
-0.305698
-0.301011
-0.270156
-0.229564
-0.181706
-0.112092
-0.075642
-0.040663
-0.014055
-0.005861
-0.018012
-0.037724
-0.049862
-0.098486
-0.153261
-0.214384
-0.275329
-0.279701
-0.304402
-0.313793
-0.359304
-0.323826
-0.275247
-0.246860
-0.209874
-0.153381
-0.108425
-0.041179
-0.008273
0.014062
0.044183
0.028795
0.043045
-0.010696
-0.049021
-0.100526
-0.150176
-0.172125
-0.146994
-0.142855
-0.121729
-0.075869
-0.012802
0.043523
0.146193
0.226363
0.332416
0.412101
0.475295
0.518913
0.537531
0.550966
0.562407
0.558766
0.545267
0.540081
0.522999
0.523650
0.535640
0.536345
0.536208
0.575553
0.594842
0.619688
0.637832
0.657839
0.674255
0.701339
0.644969
0.558419
0.468354
0.402624
0.320874
0.227328
0.120099
0.030755
-0.053283
-0.076434
-0.100556
-0.106607
-0.106586
-0.098690
-0.095496
-0.046322
-0.029560
-0.009540
0.004474
0.020128
0.080355
0.094335
0.100736
0.117369
0.079083
-0.007894
-0.072373
-0.120643
-0.155483
-0.204165
-0.244842
-0.264456
-0.261039
-0.248753
-0.216334
-0.170665
-0.113268
-0.066866
-0.045179
-0.001295
0.015144
0.031271
0.039901
0.011377
-0.008655
-0.052226
-0.103876
-0.149588
-0.210813
-0.254449
-0.275105
-0.271875
-0.266554
-0.246935
-0.231024
-0.191874
-0.147181
-0.101644
-0.077992
-0.025069
-0.001235
0.027497
0.016238
-0.007213
-0.030637
-0.062030
-0.113335
-0.152775
-0.191122
-0.229475
-0.237731
-0.252599
-0.257096
-0.250103
-0.215669
-0.174251
-0.117488
-0.068424
-0.028085
0.002762
0.027640
0.034638
0.028530
-0.000102
-0.021189
-0.050241
-0.111342
-0.159858
-0.178471
-0.229926
-0.235443
-0.267514
-0.269822
-0.224089
-0.196302
-0.127991
-0.073671
-0.040776
-0.003258
0.025096
0.028041
0.043258
0.043244
0.042609
0.011581
-0.041560
-0.094129
-0.132303
-0.179470
-0.239814
-0.231981
-0.224801
-0.195393
-0.202876
-0.208392
-0.146547
-0.078077
-0.044313
0.005350
0.040570
0.083332
0.119634
0.103199
0.070144
0.065481
0.023655
-0.031026
-0.093224
-0.145801
-0.185309
-0.207343
-0.220471
-0.209432
-0.181049
-0.152199
-0.101876
-0.041202
-0.013403
0.011541
0.054044
0.096901
0.120459
0.109776
0.086950
0.055015
0.017450
-0.043523
-0.076483
-0.088896
-0.138008
-0.172023
-0.184697
-0.160998
-0.118197
-0.101391
-0.069361
-0.013010
0.023431
0.046723
0.081057
0.083007
0.098748
0.113139
0.099446
0.073685
0.017871
-0.035032
-0.095812
-0.141917
-0.177138
-0.190585
-0.196647
-0.173315
-0.140504
-0.109325
-0.077495
-0.031889
0.012617
0.045895
0.071324
0.079151
0.103088
0.093779
0.048759
0.041843
-0.013174
-0.077298
-0.118889
-0.188510
-0.205788
-0.226798
-0.230829
-0.127111
-0.109701
-0.115453
-0.080685
-0.048520
-0.042809
-0.007358
0.011299
0.054034
0.065648
0.085158
0.079600
0.058218
-0.028590
-0.093969
-0.132556
-0.161405
-0.199963
-0.228409
-0.241572
-0.237284
-0.212214
-0.205467
-0.149672
-0.097075
-0.065770
-0.025122
0.008885
0.011293
0.045376
0.040101
-0.004577
-0.028764
-0.053259
-0.088937
-0.135802
-0.166179
-0.225073
-0.244056
-0.258601
-0.267458
-0.250781
-0.221704
-0.175225
-0.142338
-0.107791
-0.060850
-0.016556
0.023190
0.032473
0.021922
-0.008112
-0.032614
-0.093714
-0.163520
-0.188786
-0.218077
-0.234577
-0.275928
-0.295267
-0.305318
-0.285743
-0.250407
-0.189147
-0.132279
-0.088381
-0.071470
-0.023603
0.024976
0.035296
0.014690
-0.032893
-0.060411
-0.107811
-0.147066
-0.163876
-0.188344
-0.219635
-0.271010
-0.282954
-0.268227
-0.255202
-0.240544
-0.203738
-0.154233
-0.102742
-0.058239
-0.013295
0.004172
0.003588
-0.047900
-0.068033
-0.045713
-0.048434
-0.113039
-0.161207
-0.212610
-0.246508
-0.253709
-0.250552
-0.281634
-0.244292
-0.222000
-0.172587
-0.117926
-0.092837
-0.061858
-0.030191
0.010564
0.022979
0.002931
-0.021020
-0.037355
-0.065067
-0.101447
-0.156288
-0.211250
-0.237713
-0.266136
-0.297441
-0.283122
-0.269127
-0.238006
-0.200729
-0.142745
-0.097865
-0.049706
-0.005780
0.000143
0.004496
-0.001969
-0.023840
-0.061922
-0.102116
-0.115205
-0.163349
-0.217006
-0.242586
-0.266212
-0.277520
-0.273949
-0.249123
-0.223594
-0.164827
-0.137241
-0.088644
-0.055217
-0.012944
0.018752
0.027202
0.039882
0.010401
-0.038703
-0.083586
-0.145205
-0.189154
-0.222065
-0.250597
-0.258258
-0.267992
-0.271918
-0.252923
-0.231243
-0.187215
-0.139651
-0.072346
-0.061549
-0.022565
-0.010618
0.023102
0.000215
0.005050
-0.015673
-0.065026
-0.143499
-0.197081
-0.226123
-0.256425
-0.286105
-0.285897
-0.275519
-0.273236
-0.260259
-0.224834
-0.194834
-0.122927
-0.075605
-0.027199
0.002008
-0.002680
0.010406
-0.026511
-0.040467
-0.105958
-0.160185
-0.196047
-0.265312
-0.311126
-0.299753
-0.275629
-0.278016
-0.269951
-0.256700
-0.205789
-0.136816
-0.114872
-0.090654
-0.018731
0.006673
0.001380
-0.011420
-0.034705
-0.060252
-0.105171
-0.154031
-0.199202
-0.242354
-0.292269
-0.308501
-0.303681
-0.300481
-0.285222
-0.266240
-0.237153
-0.163325
-0.106451
-0.086100
-0.060654
-0.020446
-0.016712
-0.027569
-0.039447
-0.043582
-0.124127
-0.171624
-0.198421
-0.236716
-0.243867
-0.256012
-0.287442
-0.313628
-0.283948
-0.265190
-0.211698
-0.157343
-0.111444
-0.092706
-0.040518
-0.041918
-0.054624
-0.077779
-0.069853
-0.071819
-0.099445
-0.142383
-0.177633
-0.221992
-0.274970
-0.281280
-0.292474
-0.293844
-0.258999
-0.241218
-0.207253
-0.144853
-0.114669
-0.086193
-0.047249
0.005459
0.008244
-0.015907
-0.039306
-0.070283
-0.109734
-0.140805
-0.165864
-0.186498
-0.249582
-0.251292
-0.237411
-0.281295
-0.297907
-0.276393
-0.239987
-0.155930
-0.093332
-0.031383
-0.046611
0.022679
0.038245
0.026663
-0.010112
-0.014679
-0.076373
-0.133317
-0.169014
-0.205904
-0.243901
-0.253336
-0.252663
-0.253532
-0.218639
-0.176693
-0.132696
-0.101789
-0.037794
0.021791
0.055073
0.046728
0.037807
0.026676
0.013072
-0.006252
-0.046053
-0.108640
-0.158695
-0.204597
-0.260052
-0.264484
-0.275704
-0.256416
-0.268365
-0.243099
-0.193519
-0.178487
-0.148170
-0.112188
-0.037959
-0.035130
-0.029307
-0.012782
-0.001432
-0.011780
-0.079445
-0.142601
-0.180357
-0.217372
-0.261109
-0.303059
-0.319586
-0.309496
-0.301120
-0.274126
-0.244010
-0.201265
-0.156151
-0.095390
-0.065154
-0.058131
-0.066350
-0.073797
-0.092072
-0.101997
-0.144454
-0.183676
-0.218613
-0.237503
-0.305879
-0.329998
-0.341594
-0.324247
-0.298026
-0.283561
-0.242044
-0.196326
-0.131871
-0.084066
-0.085867
-0.069011
-0.031078
0.006249
-0.030718
-0.072914
-0.118694
-0.178088
-0.220487
-0.285483
-0.312135
-0.329107
-0.342733
-0.325838
-0.311757
-0.288437
-0.237262
-0.203861
-0.154929
-0.107275
-0.093693
-0.074347
-0.007222
0.004549
0.040466
-0.021103
-0.049342
-0.143570
-0.252297
-0.282865
-0.290112
-0.289887
-0.335720
-0.346622
-0.334132
-0.322093
-0.281591
-0.212026
-0.156081
-0.090967
-0.059718
-0.051013
-0.041029
-0.064864
-0.094867
-0.116051
-0.129762
-0.184867
-0.231573
-0.267155
-0.302585
-0.313919
-0.329121
-0.325280
-0.279411
-0.245471
-0.187580
-0.121236
-0.041602
0.009541
0.044336
0.070429
0.087472
0.131969
0.123142
0.095315
0.102398
0.083710
0.064259
0.042299
0.025460
0.012184
0.025316
0.078177
0.165994
0.247463
0.319337
0.389880
0.450102
0.529953
0.575500
0.648585
0.709810
0.732880
0.711499
0.652055
0.590129
0.537882
0.503341
0.460080
0.428355
0.348587
0.243588
0.217978
0.212255
0.209029
0.158737
0.168371
0.159534
0.148137
0.149344
0.145717
0.127335
0.127190
0.100244
0.094151
0.043268
-0.050230
-0.126919
-0.187418
-0.210030
-0.218888
-0.229996
-0.219958
-0.191763
-0.173893
-0.145247
-0.114962
-0.059559
-0.028274
0.003393
0.031552
0.034963
0.015630
-0.007565
-0.018300
-0.040141
-0.071589
-0.129804
-0.213636
-0.231543
-0.250151
-0.276973
-0.270340
-0.262516
-0.218904
-0.157220
-0.112120
-0.082060
-0.094317
-0.073854
-0.034105
0.010555
0.036171
0.001482
-0.042281
-0.096884
-0.142219
-0.181869
-0.236584
-0.299745
-0.302390
-0.288782
-0.249938
-0.163221
-0.148776
-0.161442
-0.127299
-0.108247
-0.069876
-0.032561
-0.015240
0.009994
0.007601
-0.010051
-0.050487
-0.090478
-0.106273
-0.132607
-0.189621
-0.269902
-0.278244
-0.282158
-0.284931
-0.254281
-0.220710
-0.190722
-0.161390
-0.118177
-0.033530
0.030699
0.061798
0.062986
0.059534
0.029128
-0.009428
-0.058710
-0.103165
-0.149202
-0.181029
-0.197818
-0.238726
-0.254655
-0.247277
-0.236067
-0.202617
-0.137331
-0.049479
-0.017140
-0.005783
0.015876
0.033655
0.040385
0.033925
0.035925
0.032837
-0.035767
-0.111280
-0.098969
-0.159515
-0.182131
-0.221358
-0.220831
-0.207130
-0.196020
-0.190802
-0.169830
-0.119158
0.028129
0.152664
0.156095
0.122720
0.106465
0.092350
0.056106
0.032429
0.001604
-0.034256
-0.099876
-0.146381
-0.172766
-0.203069
-0.203636
-0.175928
-0.128755
-0.099977
-0.085452
-0.071028
-0.014391
0.047281
0.092621
0.102959
0.095172
0.082379
0.054467
0.045992
0.042965
-0.022588
-0.090677
-0.146334
-0.178843
-0.172113
-0.162320
-0.169669
-0.177530
-0.150027
-0.100104
-0.082141
-0.017357
0.049046
0.092443
0.102633
0.114869
0.113617
0.084571
0.057784
-0.002553
-0.065819
-0.095650
-0.143736
-0.155593
-0.175794
-0.145133
-0.147718
-0.168461
-0.154461
-0.110792
-0.057184
0.004818
0.045523
0.076344
0.056426
0.064820
0.079012
0.057337
0.023293
0.008548
-0.043781
-0.091744
-0.150533
-0.180010
-0.179647
-0.207938
-0.195557
-0.190423
-0.173510
-0.151498
-0.117825
-0.080896
-0.032368
0.044573
0.086507
0.111406
0.089970
0.026187
-0.020119
-0.072844
-0.105575
-0.138343
-0.179973
-0.214885
-0.246822
-0.224464
-0.211522
-0.215245
-0.184670
-0.146814
-0.109195
-0.068183
-0.014577
-0.001769
0.030254
0.048940
-0.002141
0.017328
-0.004115
-0.063336
-0.113718
-0.159129
-0.214220
-0.227785
-0.248283
-0.261324
-0.271178
-0.239909
-0.231085
-0.190564
-0.157300
-0.099584
-0.055199
-0.013023
0.002221
-0.012016
-0.033433
-0.015637
-0.025211
-0.083989
-0.145999
-0.160394
-0.218462
-0.256609
-0.260502
-0.267945
-0.248409
-0.233483
-0.221631
-0.189980
-0.147218
-0.103839
-0.032110
-0.002411
0.018393
0.036306
0.017150
-0.021873
-0.036262
-0.070064
-0.106972
-0.169075
-0.212639
-0.253096
-0.271207
-0.282870
-0.273395
-0.241293
-0.199739
-0.176020
-0.128447
-0.089502
-0.062943
-0.010953
0.016848
-0.003356
-0.027059
-0.013846
-0.050298
-0.077290
-0.061591
-0.068139
-0.108530
-0.192849
-0.253301
-0.276207
-0.256152
-0.229014
-0.186886
-0.168072
-0.111811
-0.052093
-0.044855
-0.001106
0.021937
0.024243
0.023712
0.005993
-0.047209
-0.077636
-0.126821
-0.173377
-0.212676
-0.229852
-0.249711
-0.237365
-0.240813
-0.255642
-0.242125
-0.143042
-0.088800
-0.053607
-0.039357
-0.002350
0.014272
0.023961
0.026948
0.004413
-0.025557
-0.073653
-0.097244
-0.165403
-0.190382
-0.221406
-0.249144
-0.262070
-0.250082
-0.254731
-0.236937
-0.165643
-0.106684
-0.088256
-0.046519
-0.004140
0.023061
-0.000015
-0.000859
0.022907
-0.002410
-0.066880
-0.110331
-0.135910
-0.189585
-0.219751
-0.216633
-0.220927
-0.249981
-0.244690
-0.200749
-0.176962
-0.100249
-0.072783
-0.046865
-0.002623
0.022972
0.001365
0.018494
0.024241
0.007290
-0.028466
-0.059432
-0.114973
-0.193376
-0.238466
-0.247846
-0.274970
-0.262637
-0.234771
-0.222012
-0.200718
-0.141568
-0.068187
-0.033419
-0.011793
-0.001631
0.007598
-0.004310
-0.006715
-0.019500
-0.065108
-0.122512
-0.173866
-0.231344
-0.235584
-0.267347
-0.265591
-0.272631
-0.285820
-0.258103
-0.213434
-0.119559
-0.041631
0.003003
0.006816
0.005921
0.010317
-0.000394
-0.002200
-0.047712
-0.099697
-0.109007
-0.180049
-0.208998
-0.233090
-0.288022
-0.281952
-0.320981
-0.312055
-0.232201
-0.187329
-0.137080
-0.045722
0.003743
0.004784
0.016236
0.042394
0.008784
-0.018685
-0.054101
-0.067844
-0.112740
-0.174631
-0.244574
-0.265803
-0.225341
-0.244392
-0.272898
-0.293031
-0.243751
-0.198638
-0.151121
-0.083215
-0.026523
-0.012474
0.022174
0.034670
0.020634
0.001667
-0.018715
-0.058465
-0.095050
-0.144813
-0.196020
-0.219984
-0.247707
-0.244162
-0.237433
-0.232355
-0.186422
-0.145295
-0.097956
-0.055611
-0.012283
0.040851
0.055339
0.068419
0.053054
0.035378
-0.001838
-0.045575
-0.090854
-0.142395
-0.200145
-0.225639
-0.239668
-0.257635
-0.252584
-0.236375
-0.221903
-0.159608
-0.137799
-0.090758
-0.016528
0.022760
0.052493
0.056563
0.060723
0.043529
-0.001778
-0.032136
-0.067328
-0.120794
-0.136626
-0.153021
-0.201708
-0.183677
-0.200220
-0.175666
-0.161091
-0.106078
-0.075256
-0.063331
0.013868
0.043760
0.057771
0.053569
0.039515
0.051512
0.034302
-0.042993
-0.109882
-0.181328
-0.224496
-0.230094
-0.229188
-0.239579
-0.247315
-0.229510
-0.182053
-0.163851
-0.122519
-0.065046
-0.025261
0.011330
0.006894
0.019659
0.004513
-0.025768
-0.070211
-0.099145
-0.133766
-0.179354
-0.233326
-0.274026
-0.291351
-0.306089
-0.303388
-0.291403
-0.248509
-0.211396
-0.160964
-0.126852
-0.090173
-0.043127
-0.013202
0.008300
0.000971
-0.017347
-0.082243
-0.111722
-0.177284
-0.217067
-0.244390
-0.272521
-0.302681
-0.327388
-0.313066
-0.293732
-0.275049
-0.228344
-0.201132
-0.165566
-0.111951
-0.074019
-0.038158
-0.012686
0.010832
-0.010382
-0.059574
-0.094460
-0.131493
-0.197406
-0.238571
-0.260023
-0.298075
-0.311973
-0.314223
-0.296203
-0.250217
-0.206032
-0.162353
-0.137331
-0.076532
-0.069143
-0.046653
-0.015396
-0.022471
-0.029099
-0.057981
-0.108030
-0.156588
-0.193152
-0.242513
-0.271472
-0.286521
-0.307192
-0.294551
-0.276404
-0.262712
-0.239898
-0.181130
-0.132866
-0.093009
-0.062314
-0.031023
-0.032921
-0.025798
-0.039952
-0.059371
-0.071842
-0.112695
-0.140136
-0.165272
-0.183895
-0.207838
-0.234636
-0.170148
-0.154092
-0.109399
-0.037342
0.019292
0.078592
0.157633
0.219506
0.291599
0.329924
0.362467
0.402945
0.403392
0.397391
0.383217
0.344794
0.332821
0.348119
0.373682
0.447898
0.486497
0.533953
0.605560
0.675819
0.726734
0.759261
0.818838
0.815196
0.810127
0.780022
0.747471
0.686788
0.605517
0.511272
0.400966
0.283200
0.177572
0.078102
0.003496
-0.045505
-0.069542
-0.078671
-0.050401
-0.005325
0.054580
0.091268
0.113649
0.138917
0.154691
0.129838
0.122823
0.111498
0.088476
0.044382
-0.040838
-0.085695
-0.132331
-0.177445
-0.207583
-0.208782
-0.219669
-0.189848
-0.174895
-0.144064
-0.103609
-0.050837
-0.020382
0.022891
0.037140
0.048433
0.048288
0.006776
-0.013963
-0.050034
-0.106417
-0.166954
-0.204585
-0.224614
-0.268120
-0.274209
-0.266300
-0.235135
-0.194126
-0.168899
-0.128901
-0.079031
-0.045074
-0.011270
0.037366
0.042445
0.018910
-0.018559
-0.034379
-0.063573
-0.114292
-0.146611
-0.190369
-0.206161
-0.248787
-0.255726
-0.245289
-0.213405
-0.178434
-0.169337
-0.107997
-0.069562
-0.040583
-0.002293
0.027815
0.016927
0.022314
0.000782
-0.016516
-0.043961
-0.091498
-0.155659
-0.188162
-0.208322
-0.233054
-0.233894
-0.236265
-0.212649
-0.192185
-0.160472
-0.108316
-0.057693
-0.028029
0.034965
0.075736
0.084281
0.087240
0.043013
-0.000062
-0.042931
-0.083750
-0.120451
-0.138582
-0.166312
-0.212493
-0.228539
-0.209518
-0.194759
-0.158520
-0.105725
-0.054262
-0.017088
0.004564
0.035147
0.038228
0.082616
0.109904
0.105534
0.062805
0.028521
-0.031951
-0.072845
-0.115249
-0.160076
-0.191717
-0.204396
-0.204722
-0.170119
-0.144708
-0.075590
-0.021321
0.013046
0.051163
0.075009
0.092265
0.117360
0.118516
0.108707
0.089626
0.037395
-0.020536
-0.062309
-0.102698
-0.136804
-0.168200
-0.176727
-0.150560
-0.122329
-0.102814
-0.053439
0.001990
0.019192
0.050738
0.089407
0.100265
0.108514
0.102813
0.115381
0.075111
0.015335
0.013406
-0.041681
-0.091038
-0.115128
-0.145995
-0.168238
-0.168209
-0.153912
-0.127253
-0.091420
-0.047049
-0.008788
0.017087
0.105137
0.135957
0.137210
0.120859
0.105859
0.087826
0.070513
0.005879
-0.057883
-0.115009
-0.152423
-0.162743
-0.181573
-0.184651
-0.171602
-0.132026
-0.093474
-0.070397
-0.021681
0.040719
0.112557
0.106867
0.087451
0.083827
0.085835
0.054579
0.015654
-0.051145
-0.114992
-0.165775
-0.186095
-0.201193
-0.193215
-0.201505
-0.178984
-0.164501
-0.137452
-0.096997
-0.043048
-0.003216
0.032829
0.057314
0.057560
0.043000
0.013870
-0.008952
-0.054449
-0.087948
-0.097488
-0.111770
-0.175839
-0.223871
-0.234848
-0.251599
-0.217947
-0.178908
-0.130025
-0.096670
-0.046563
-0.012214
0.028756
0.085943
0.064454
0.049998
0.020409
-0.023632
-0.041157
-0.099113
-0.127761
-0.193454
-0.243643
-0.216433
-0.203284
-0.231386
-0.226837
-0.191150
-0.159007
-0.111051
-0.081453
-0.038870
0.029520
0.027317
0.036741
0.043654
0.012892
-0.026582
-0.057947
-0.117352
-0.141118
-0.191683
-0.238183
-0.281503
-0.281525
-0.256486
-0.231048
-0.205701
-0.171884
-0.107593
-0.070540
-0.025200
0.005946
0.014836
0.040925
0.034274
0.042435
-0.003303
-0.047057
-0.096336
-0.137007
-0.204152
-0.222687
-0.228027
-0.231146
-0.213963
-0.191825
-0.178844
-0.156054
-0.104959
-0.065808
-0.014271
0.007641
0.030484
0.030445
0.020187
-0.009145
-0.019218
-0.039442
-0.087594
-0.127345
-0.193701
-0.222843
-0.203681
-0.249664
-0.247646
-0.190967
-0.167730
-0.167367
-0.115784
-0.083652
-0.011663
0.022171
0.030821
0.034472
0.025175
0.006925
-0.059337
-0.020726
-0.088869
-0.132805
-0.180572
-0.225332
-0.257884
-0.257057
-0.260645
-0.241241
-0.185398
-0.136556
-0.065856
-0.021162
-0.032084
-0.017041
0.003061
0.044109
0.047215
0.068274
0.088184
0.034476
-0.024181
-0.111176
-0.156460
-0.193346
-0.231508
-0.229689
-0.195302
-0.150420
-0.134688
-0.125665
-0.102369
-0.088307
-0.036709
-0.018159
0.077500
0.082314
0.098394
0.102529
0.037695
-0.038428
-0.088526
-0.144483
-0.164313
-0.189280
-0.235855
-0.251923
-0.244045
-0.231062
-0.178258
-0.145794
-0.117612
-0.060119
-0.014171
-0.000807
0.019994
0.091328
0.091446
0.060945
0.007411
-0.036465
-0.081585
-0.126584
-0.167688
-0.211378
-0.239416
-0.262684
-0.254975
-0.237082
-0.200720
-0.180783
-0.135104
-0.095172
-0.044605
0.008831
0.042641
0.054103
0.070172
0.050504
0.003026
-0.037200
-0.053295
-0.109758
-0.181724
-0.225984
-0.245463
-0.260196
-0.264078
-0.236621
-0.206145
-0.167219
-0.104643
-0.044327
-0.012314
0.003024
0.022254
0.048074
0.036939
0.009286
-0.020543
-0.059473
-0.116048
-0.126203
-0.186191
-0.226668
-0.251949
-0.249346
-0.231088
-0.213570
-0.180986
-0.121637
-0.086188
-0.037621
-0.014484
0.067514
0.071831
0.014506
0.009283
-0.000827
-0.016751
-0.012843
-0.064208
-0.127975
-0.148509
-0.175586
-0.195789
-0.199889
-0.192921
-0.164841
-0.159879
-0.088899
-0.020212
0.022829
0.038691
0.056339
0.059482
0.062088
0.074932
0.048223
0.014957
-0.025430
-0.080451
-0.121244
-0.138110
-0.176410
-0.160031
-0.167815
-0.178950
-0.173600
-0.142300
-0.107492
-0.056314
-0.014431
0.016375
0.057649
0.095926
0.120171
0.097539
0.050369
0.028537
-0.005675
-0.062022
-0.090646
-0.134582
-0.177706
-0.215521
-0.229454
-0.211751
-0.181264
-0.140597
-0.113175
-0.068143
-0.039652
-0.018193
-0.005173
-0.010268
-0.010988
0.040488
0.035640
0.003446
-0.034631
-0.002088
-0.059628
-0.143109
-0.210611
-0.249704
-0.234124
-0.255828
-0.226747
-0.211319
-0.156357
-0.121600
-0.061966
-0.039630
-0.010675
0.017679
0.004116
0.009905
0.013604
-0.016018
-0.074332
-0.118520
-0.150036
-0.207925
-0.242676
-0.274256
-0.274763
-0.271096
-0.256895
-0.229398
-0.186087
-0.135398
-0.089398
-0.056969
-0.033734
-0.000392
0.048433
0.054312
0.024813
-0.017413
-0.083857
-0.117269
-0.165162
-0.222817
-0.267282
-0.273959
-0.264119
-0.257969
-0.241045
-0.225054
-0.186631
-0.142348
-0.076098
-0.052141
-0.022587
0.004805
0.024970
0.019744
-0.000413
-0.044610
-0.089323
-0.129390
-0.175411
-0.211335
-0.255332
-0.282028
-0.307035
-0.292685
-0.258149
-0.226089
-0.205404
-0.166410
-0.094987
-0.047406
0.000906
0.039736
0.044806
0.032854
0.005612
-0.045819
-0.084820
-0.124205
-0.167343
-0.220252
-0.218868
-0.251739
-0.256277
-0.261240
-0.272519
-0.204199
-0.145942
-0.078127
-0.033294
0.016335
0.063577
0.086737
0.099256
0.120686
0.106038
0.089040
0.096504
0.066033
0.015408
-0.011282
0.006905
0.006270
0.023467
0.045672
0.103859
0.201554
0.278510
0.366759
0.433167
0.509361
0.603583
0.675523
0.705072
0.733105
0.751382
0.743643
0.771678
0.771827
0.725749
0.660763
0.597008
0.546864
0.527034
0.512352
0.517359
0.489972
0.455333
0.457870
0.448412
0.460202
0.452923
0.394648
0.326421
0.272570
0.230510
0.187181
0.145658
0.085930
0.031550
-0.009171
-0.055096
-0.104774
-0.089455
-0.139644
-0.138342
-0.100429
-0.063939
-0.033858
-0.005595
0.037405
0.072134
0.094307
0.095609
0.094522
0.088434
0.054115
0.009559
-0.052602
-0.102370
-0.131632
-0.175891
-0.221554
-0.216945
-0.156705
-0.150330
-0.153230
-0.134400
-0.100199
-0.086131
-0.037049
0.075542
0.071930
0.037374
0.032692
-0.003426
0.004290
-0.026024
-0.069359
-0.122249
-0.147775
-0.179582
-0.223681
-0.249928
-0.252223
-0.252663
-0.228562
-0.195193
-0.117036
-0.055695
0.008327
0.070256
0.078663
0.066782
0.044916
0.033287
0.007100
-0.024060
-0.060209
-0.097217
-0.150688
-0.178777
-0.221382
-0.234556
-0.218448
-0.213982
-0.189754
-0.144475
-0.083266
-0.035779
0.010020
0.050783
0.086936
0.076634
0.062180
0.034659
-0.005083
-0.016898
-0.086571
-0.102422
-0.132693
-0.174292
-0.161958
-0.186787
-0.208044
-0.196170
-0.169388
-0.127297
-0.082646
-0.041274
0.029741
0.085028
0.132198
0.130358
0.105465
0.076282
0.041061
0.008451
-0.029481
-0.064776
-0.110502
-0.153849
-0.165679
-0.167178
-0.168627
-0.160785
-0.116093
-0.089069
-0.035685
0.007252
0.054952
0.096612
0.136723
0.143005
0.127335
0.147020
0.091326
0.050493
0.018178
-0.051236
-0.101336
-0.124265
-0.148454
-0.176068
-0.212648
-0.150331
-0.099578
-0.046018
0.002459
0.038858
0.108783
0.139825
0.158300
0.192005
0.171042
0.160867
0.129498
0.061009
0.010327
-0.023588
-0.054641
-0.091752
-0.126087
-0.153714
-0.123570
-0.089096
-0.083953
-0.037158
0.017488
0.051776
0.080776
0.107159
0.125506
0.133818
0.122493
0.117817
0.104406
0.071935
0.009295
-0.029947
-0.053854
-0.089709
-0.120119
-0.131223
-0.124677
-0.110878
-0.088416
-0.052354
-0.018836
0.029318
0.063092
0.092410
0.132843
0.144778
0.127401
0.131676
0.092508
0.048697
-0.000678
-0.054342
-0.096227
-0.129401
-0.130621
-0.157841
-0.173266
-0.155277
-0.140245
-0.103425
-0.018145
0.070243
0.099279
0.105115
0.099708
0.069745
0.082631
0.102397
0.067829
0.005753
0.016065
-0.068011
-0.133105
-0.184689
-0.184858
-0.190401
-0.188547
-0.189451
-0.169166
-0.119921
-0.063597
-0.023399
0.000427
0.033941
0.071173
0.070360
0.068055
0.042532
0.029671
-0.000181
-0.041954
-0.122108
-0.154252
-0.191791
-0.214795
-0.220060
-0.226694
-0.202840
-0.153054
-0.138499
-0.101275
-0.053655
-0.003802
0.040440
0.055767
0.081460
0.068166
0.038519
0.024296
-0.020475
-0.058350
-0.119760
-0.183761
-0.214934
-0.245849
-0.242688
-0.239028
-0.212543
-0.170941
-0.120810
-0.097008
-0.056700
-0.035103
0.007506
0.036570
0.048707
0.048147
0.033617
0.000228
-0.033496
-0.083628
-0.131420
-0.170066
-0.209865
-0.223246
-0.213288
-0.222421
-0.214351
-0.176929
-0.132148
-0.070913
-0.022009
0.017444
0.032750
0.049678
0.074570
0.069283
0.043828
0.013505
-0.041628
-0.111819
-0.180026
-0.227052
-0.273536
-0.180888
-0.118673
-0.165242
-0.205459
-0.134052
-0.090115
-0.067121
-0.024107
0.014887
0.047604
0.096434
0.120502
0.080538
0.052312
0.029761
-0.009644
-0.060932
-0.105634
-0.158731
-0.203220
-0.232865
-0.235318
-0.248396
-0.202755
-0.140730
-0.088148
-0.036903
0.028988
0.046684
0.065072
0.064062
0.092163
0.088645
0.066597
0.042105
-0.022227
-0.073017
-0.118069
-0.158557
-0.198662
-0.218297
-0.227627
-0.242727
-0.257938
-0.187958
-0.068249
-0.052385
-0.030152
0.015669
0.043581
0.070796
0.074494
0.060634
0.031677
0.013600
-0.017706
-0.062731
-0.098290
-0.164810
-0.198209
-0.210727
-0.210725
-0.203569
-0.186584
-0.149621
-0.100598
-0.053591
-0.026857
0.008529
0.041089
0.073436
0.088422
0.070199
0.039416
0.015243
-0.028888
-0.071730
-0.106340
-0.142104
-0.193028
-0.210931
-0.247668
-0.258688
-0.209103
-0.151058
-0.099484
-0.065990
-0.021786
0.007952
0.032632
0.044102
0.047653
0.072694
0.037079
0.002120
-0.033379
-0.088726
-0.136978
-0.176374
-0.169196
-0.156990
-0.211326
-0.216241
-0.196054
-0.171558
-0.134193
-0.069388
0.004802
0.020738
0.047079
0.078490
0.069160
0.059657
0.040037
0.006709
-0.031895
-0.099502
-0.142884
-0.183457
-0.208510
-0.231934
-0.259493
-0.198582
-0.172814
-0.159800
-0.143464
-0.099983
-0.029239
0.001515
0.022330
0.024895
0.067626
0.059785
0.067581
0.035540
-0.029736
-0.103732
-0.130589
-0.149283
-0.171469
-0.203412
-0.235785
-0.237630
-0.202809
-0.160187
-0.118766
-0.067746
-0.022750
0.030571
0.067617
0.069146
0.088045
0.090264
0.057135
0.020876
-0.009344
-0.038329
-0.087698
-0.131612
-0.179893
-0.199348
-0.226652
-0.183415
-0.164458
-0.164396
-0.127576
-0.079260
0.005090
0.043942
0.048566
0.070167
0.100041
0.084955
0.059726
0.039501
-0.002189
-0.025498
-0.071882
-0.109115
-0.142507
-0.154100
-0.186343
-0.162056
-0.134347
-0.105564
-0.081730
-0.038874
0.005134
0.056001
0.094553
0.109920
0.106812
0.094141
0.064633
0.038273
0.004212
-0.055929
-0.100511
-0.133932
-0.182727
-0.190197
-0.182636
-0.192377
-0.186651
-0.164101
-0.116009
-0.053241
-0.007778
0.025650
0.036972
0.049908
0.063655
0.042505
0.046030
0.019522
-0.022830
-0.081197
-0.131732
-0.184292
-0.196748
-0.218365
-0.247558
-0.242563
-0.216548
-0.196356
-0.154223
-0.105082
-0.055767
-0.026424
-0.002966
0.016907
0.021493
0.013470
-0.003501
-0.032072
-0.088823
-0.133957
-0.177899
-0.215522
-0.239894
-0.260199
-0.264259
-0.242465
-0.218134
-0.198334
-0.174560
-0.156022
-0.117050
0.019939
0.044518
0.053824
0.060572
0.017762
-0.020190
-0.047280
-0.092651
-0.095346
-0.150949
-0.201731
-0.231352
-0.257032
-0.281895
-0.280110
-0.247523
-0.180038
-0.137331
-0.127421
-0.112925
-0.069097
0.039920
0.059068
0.037963
0.001723
0.010596
0.007017
-0.046268
-0.089680
-0.123473
-0.167717
-0.207385
-0.239810
-0.287998
-0.283280
