-0.081763
-0.042082
0.009647
0.047531
0.060195
0.061189
0.058455
0.034228
0.010038
-0.028469
-0.078397
-0.124289
-0.167993
-0.195695
-0.226424
-0.243515
-0.242639
-0.201788
-0.171523
-0.129001
-0.086039
-0.045024
0.008094
0.046202
0.060221
0.058680
0.053337
0.037817
0.019501
-0.027640
-0.072739
-0.118523
-0.163924
-0.199694
-0.216141
-0.231830
-0.222706
-0.182864
-0.151440
-0.124923
-0.080755
-0.044091
0.007725
0.043342
0.061129
0.065805
0.067843
0.040901
0.009066
-0.022022
-0.077368
-0.122384
-0.165648
-0.193354
-0.216173
-0.221033
-0.207526
-0.178167
-0.147387
-0.097781
-0.048547
-0.021406
0.021846
0.047485
0.074675
0.084447
0.072376
0.044447
0.012405
-0.029509
-0.085826
-0.123317
-0.163263
-0.185889
-0.200826
-0.216197
-0.219937
-0.195702
-0.171740
-0.122985
-0.084796
-0.034381
0.008632
0.043062
0.058894
0.067559
0.067766
0.062176
0.025214
-0.015492
-0.064547
-0.113740
-0.155457
-0.185239
-0.216917
-0.215928
-0.205735
-0.191458
-0.150807
-0.119948
-0.066852
-0.032137
0.012847
0.043493
0.060082
0.081454
0.070046
0.055815
0.023561
-0.021759
-0.064586
-0.112459
-0.159960
-0.193164
-0.207450
-0.218278
-0.226803
-0.203098
-0.168698
-0.129356
-0.083142
-0.036699
0.007150
0.044394
0.067747
0.081165
0.072389
0.050175
0.011572
-0.034052
-0.077726
-0.121479
-0.171265
-0.196146
-0.221010
-0.231615
-0.227832
-0.202659
-0.173737
-0.131960
-0.087681
-0.050769
-0.002752
0.030513
0.053416
0.067176
0.058286
0.035274
0.007551
-0.032443
-0.076115
-0.119817
-0.171914
-0.194793
-0.230843
-0.238676
-0.232061
-0.221008
-0.183427
-0.140187
-0.086134
-0.049657
-0.002143
0.033578
0.055746
0.068078
0.060401
0.048392
0.003232
-0.034695
-0.063984
-0.110845
-0.144701
-0.173957
-0.195576
-0.230208
-0.221642
-0.177627
-0.142071
-0.121541
-0.067686
-0.024933
0.027273
0.061838
0.074891
0.094868
0.085350
0.064256
0.036138
-0.005654
-0.054870
-0.085405
-0.121931
-0.165736
-0.191655
-0.206865
-0.200505
-0.178473
-0.137639
-0.101107
-0.058524
-0.020695
0.027435
0.065870
0.090204
0.104276
0.101626
0.076720
0.036240
0.002673
-0.047131
-0.081089
-0.108851
-0.142375
-0.171025
-0.185056
-0.171502
-0.142398
-0.117440
-0.081005
-0.047311
-0.001434
0.044722
0.084517
0.100351
0.112659
0.110532
0.076392
0.043906
-0.008680
-0.036616
-0.086247
-0.136498
-0.165483
-0.191551
-0.207242
-0.212771
-0.192872
-0.162442
-0.126473
-0.077419
-0.037894
0.008115
0.041232
0.057722
0.068744
0.059798
0.034043
-0.003187
-0.048060
-0.092320
-0.130319
-0.188639
-0.210814
-0.242415
-0.252911
-0.240398
-0.220084
-0.186948
-0.154008
-0.118314
-0.082249
-0.024518
0.015410
0.022626
0.042284
0.038575
0.017021
-0.027286
-0.073713
-0.116774
-0.155125
-0.212126
-0.232636
-0.254199
-0.264357
-0.255005
-0.238102
-0.201357
-0.156376
-0.108349
-0.073910
-0.038076
-0.000550
0.020855
0.026821
0.016859
-0.006392
-0.023471
-0.063345
-0.100661
-0.148262
-0.192514
-0.234156
-0.261223
-0.289228
-0.274658
-0.240089
-0.207173
-0.164685
-0.112504
-0.076472
-0.038511
-0.011861
0.006879
0.024435
0.010409
0.002574
-0.013692
-0.067223
-0.113908
-0.163709
-0.205705
-0.237385
-0.260606
-0.266724
-0.262067
-0.252269
-0.213994
-0.173878
-0.128436
-0.077816
-0.037222
0.002723
0.011782
0.023982
0.020120
-0.000776
-0.028627
-0.067328
-0.114346
-0.142638
-0.173507
-0.204156
-0.212040
-0.203302
-0.187593
-0.134834
-0.080928
-0.023596
0.025965
0.066987
0.121933
0.189145
0.227288
0.269002
0.290122
0.306429
0.310421
0.296962
0.293246
0.278986
0.261905
0.258350
0.260797
0.285374
0.317297
0.391703
0.461941
0.539742
0.631406
0.709580
0.794444
0.847935
0.858375
0.861147
0.856859
0.818327
0.771215
0.695487
0.624836
0.537234
0.437216
0.321053
0.226812
0.149792
0.107510
0.076462
0.071999
0.069307
0.083943
0.108043
0.140730
0.164490
0.177435
0.198083
0.192143
0.154577
0.089685
0.059041
0.005461
-0.051396
-0.078667
-0.127174
-0.158074
-0.166216
-0.165202
-0.152893
-0.126701
-0.079360
-0.045793
0.009295
0.042421
0.078989
0.089449
0.098834
0.091750
0.065435
0.027114
-0.002179
-0.053665
-0.111024
-0.156840
-0.186333
-0.198547
-0.224368
-0.216054
-0.195493
-0.161704
-0.116550
-0.071408
-0.019971
0.016057
0.042610
0.065060
0.087180
0.070004
0.051959
0.017084
-0.042288
-0.082303
-0.120457
-0.156990
-0.194640
-0.209151
-0.215494
-0.215548
-0.189227
-0.155107
-0.116582
-0.074718
-0.020114
0.022427
0.057332
0.081397
0.089517
0.073090
0.060898
0.029366
-0.013408
-0.055616
-0.101685
-0.133478
-0.170094
-0.195368
-0.207921
-0.203459
-0.185305
-0.143863
-0.103793
-0.049613
-0.002031
0.039391
0.087382
0.111029
0.117449
0.102798
0.076837
0.032089
0.010750
-0.029463
-0.076716
-0.119653
-0.151263
-0.168646
-0.179798
-0.178854
-0.151007
-0.111315
-0.075740
-0.018557
0.029752
0.064120
0.096540
0.117061
0.133999
0.133249
0.109483
0.078165
0.035541
-0.008693
-0.065257
-0.105473
-0.130251
-0.150731
-0.145932
-0.128033
-0.114410
-0.075624
-0.038368
0.012030
0.052762
0.092786
0.124467
0.155523
0.169727
0.162919
0.155573
0.116108
0.064674
0.031694
-0.009167
-0.058059
-0.086175
-0.102935
-0.104460
-0.095318
-0.075308
-0.042859
-0.004827
0.047920
0.100345
0.141790
0.176674
0.186627
0.194532
0.190909
0.175721
0.141444
0.099567
0.054819
0.015610
-0.031844
-0.060190
-0.082948
-0.094035
-0.085763
-0.069145
-0.031632
0.008148
0.047980
0.102526
0.139038
0.171640
0.200328
0.200045
0.190566
0.174780
0.134512
0.095297
0.053690
-0.009160
-0.047169
-0.074540
-0.105529
-0.109095
-0.102453
-0.087760
-0.053882
-0.015606
0.039177
0.084361
0.124763
0.148982
0.167645
0.176666
0.168436
0.141262
0.108202
0.071636
0.020396
-0.021645
-0.060216
-0.097412
-0.119327
-0.132491
-0.133739
-0.101092
-0.071999
-0.041922
0.000477
0.045549
0.075833
0.106571
0.126558
0.134911
0.129000
0.098263
0.064188
0.021966
-0.024795
-0.079274
-0.133365
-0.161136
-0.165625
-0.184930
-0.185512
-0.159940
-0.127611
-0.085013
-0.049240
0.000685
0.050582
0.086313
0.103831
0.105853
0.095543
0.074903
0.039901
-0.006998
-0.052227
-0.110912
-0.150028
-0.181273
-0.197731
-0.217704
-0.210502
-0.186055
-0.155001
-0.112301
-0.066172
-0.029674
0.000124
0.052750
0.074388
0.075947
0.072965
0.047670
0.005987
-0.037405
-0.074481
-0.125192
-0.171474
-0.200295
-0.210208
-0.231375
-0.214820
-0.184408
-0.140888
-0.115732
-0.068001
-0.021199
0.017959
0.048412
0.074014
0.073755
0.069761
0.044256
0.003119
-0.040094
-0.079472
-0.125020
-0.163086
-0.199946
-0.214776
-0.212019
-0.210852
-0.199336
-0.160223
-0.125067
-0.077112
-0.045727
-0.006062
0.046146
0.063945
0.087536
0.075868
0.050140
0.013232
-0.033826
-0.071269
-0.110509
-0.161771
-0.202578
-0.219203
-0.216303
-0.209685
-0.197244
-0.180262
-0.143330
-0.093906
-0.025258
0.021964
0.066043
0.084685
0.082348
0.079314
0.056178
0.019454
-0.025399
-0.067786
-0.116815
-0.158871
-0.198460
-0.220206
-0.224800
-0.205629
-0.187312
-0.159121
-0.117027
-0.076211
-0.039609
0.018544
0.062310
0.082357
0.088476
0.077493
0.046569
0.014471
-0.019267
-0.077217
-0.128842
-0.140901
-0.169540
-0.203339
-0.211414
-0.225876
-0.202217
-0.167363
-0.116727
-0.061372
-0.012735
0.007223
0.055734
0.085697
0.096226
0.071740
0.037452
0.018152
-0.014803
-0.062411
-0.112623
-0.151143
-0.178577
-0.203901
-0.206833
-0.202369
-0.194689
-0.158885
-0.107398
-0.069969
-0.020750
0.010839
0.049673
0.059997
0.071513
0.066771
0.054211
0.014430
-0.026094
-0.072418
-0.104075
-0.148553
-0.186046
-0.208638
-0.221883
-0.216659
-0.199250
-0.160462
-0.122606
-0.076410
-0.025832
0.015135
0.042267
0.061692
0.068615
0.065175
0.041789
0.006964
-0.034958
-0.079470
-0.123371
-0.157948
-0.189901
-0.211081
-0.224936
-0.214017
-0.201676
-0.165842
-0.126510
-0.076901
-0.034933
0.007287
0.038676
0.051008
0.066569
0.052366
0.036238
0.000281
-0.040950
-0.081633
-0.123649
-0.171345
-0.205990
-0.227381
-0.239192
-0.240171
-0.204509
-0.168586
-0.131306
-0.078318
-0.038111
-0.004644
0.029907
0.048868
0.057573
0.055518
0.034754
-0.000182
-0.040999
-0.074493
-0.134466
-0.190889
-0.223226
-0.248075
-0.249553
-0.243750
-0.225504
-0.178336
-0.140291
-0.099601
-0.051299
-0.002730
0.029169
0.040245
0.044264
0.051880
0.028736
0.001836
-0.037599
-0.085385
-0.142266
-0.173038
-0.209551
-0.228702
-0.238710
-0.230854
-0.202986
-0.164157
-0.127227
-0.071643
-0.024258
0.011411
0.046354
0.070990
0.072891
0.076237
0.060394
0.025075
-0.008688
-0.058869
-0.096840
-0.143222
-0.171797
-0.197641
-0.207046
-0.206166
-0.184592
-0.140259
-0.095478
-0.048663
-0.011087
0.026042
0.060032
0.070249
0.073835
0.089908
0.081328
0.038677
-0.005452
-0.056670
-0.095877
-0.130775
-0.168133
-0.185472
-0.177646
-0.183406
-0.159366
-0.124033
-0.088484
-0.051394
0.001286
0.041120
0.067488
0.104971
0.105896
0.104536
0.077437
0.039059
-0.003436
-0.055113
-0.100580
-0.145812
-0.183027
-0.192038
-0.197994
-0.198094
-0.168902
-0.151679
-0.112913
-0.073447
-0.034116
-0.002023
0.035403
0.063619
0.063199
0.061903
0.026971
-0.001542
-0.035631
-0.085164
-0.132337
-0.167344
-0.221333
-0.230422
-0.254674
-0.253689
-0.235646
-0.201743
-0.160661
-0.112916
-0.071959
-0.035328
-0.000700
0.014306
0.023261
0.026111
0.011678
-0.021905
-0.065757
-0.119385
-0.161704
-0.210964
-0.238113
-0.255673
-0.274410
-0.266703
-0.247203
-0.215872
-0.181054
-0.123543
-0.079937
-0.043036
-0.009908
0.015736
0.023096
0.024163
0.003956
-0.032436
-0.077631
-0.129505
-0.179656
-0.210837
-0.234982
-0.251079
-0.263356
-0.265786
-0.242204
-0.209043
-0.168851
-0.122093
-0.079119
-0.040118
-0.010032
0.015065
0.013057
0.007086
-0.014027
-0.056543
-0.099082
-0.123935
-0.161476
-0.199780
-0.233381
-0.252862
-0.273333
-0.277645
-0.252890
-0.227079
-0.183010
-0.133769
-0.088213
-0.046197
-0.006300
0.010396
0.002520
-0.005808
-0.015399
-0.045005
-0.078144
-0.130898
-0.191486
-0.228717
-0.264758
-0.291001
-0.293366
-0.278058
-0.248082
-0.213060
-0.166433
-0.112409
-0.052207
-0.008126
0.045096
0.080701
0.099242
0.119063
0.119531
0.100419
0.076108
0.052797
0.034215
0.006025
-0.003721
-0.002138
0.026798
0.096659
0.168298
0.238478
0.317559
0.395482
0.489169
0.559591
0.629300
0.686995
0.749931
0.807988
0.816332
0.830987
0.829086
0.802173
0.771138
0.732829
0.673018
0.661256
0.617988
0.618609
0.616802
0.608230
0.613017
0.605388
0.563249
0.528107
0.478671
0.434740
0.398517
0.364252
0.288047
0.227806
0.175685
0.117426
0.053964
-0.002643
-0.051408
-0.083497
-0.094373
-0.112671
-0.112392
-0.094495
-0.060244
-0.021238
0.021268
0.048597
0.078961
0.106690
0.107604
0.105403
0.078404
0.044456
0.004550
-0.059748
-0.097260
-0.143306
-0.167498
-0.208245
-0.224439
-0.218510
-0.200431
-0.163056
-0.125088
-0.072218
-0.030331
0.009827
0.030865
0.048256
0.049829
0.069331
0.052437
0.018375
-0.025066
-0.080280
-0.131672
-0.169475
-0.194350
-0.218473
-0.244781
-0.236118
-0.207879
-0.182838
-0.142033
-0.091408
-0.045932
0.006665
0.036710
0.060369
0.071427
0.067234
0.042471
0.007088
-0.031448
-0.078751
-0.130335
-0.168195
-0.198024
-0.205969
-0.221738
-0.204835
-0.203687
-0.178997
-0.132978
-0.077190
-0.039609
0.009538
0.046606
0.066651
0.072211
0.075686
0.059749
0.023423
-0.025302
-0.069849
-0.110789
-0.142334
-0.179984
-0.211218
-0.214237
-0.210184
-0.178879
-0.148313
-0.094114
-0.047151
-0.008569
0.026198
0.067618
0.093901
0.109607
0.098451
0.085656
0.050968
0.004753
-0.050466
-0.093615
-0.130353
-0.162782
-0.185395
-0.184597
-0.185094
-0.163423
-0.124078
-0.077940
-0.020036
0.025633
0.066178
0.094643
0.122898
0.123803
0.136383
0.103997
0.070117
0.037138
-0.011560
-0.056810
-0.103309
-0.125854
-0.133832
-0.138966
-0.143286
-0.117423
-0.080573
-0.049240
0.000163
0.059018
0.107441
0.136772
0.169357
0.177770
0.169552
0.143133
0.108134
0.070847
0.021025
-0.026960
-0.069254
-0.084356
-0.100878
-0.118384
-0.123088
-0.089418
-0.057449
-0.013152
0.030383
0.066323
0.111358
0.146443
0.177321
0.195283
0.177799
0.139772
0.105893
0.079184
0.022477
-0.026744
-0.065071
-0.097490
-0.122721
-0.115232
-0.100689
-0.085386
-0.064722
-0.013900
0.026543
0.068506
0.112395
0.129615
0.153541
0.160294
0.154639
0.133510
0.100779
0.060919
0.006632
-0.036658
-0.076242
-0.118785
-0.129229
-0.144371
-0.151064
-0.139312
-0.097457
-0.054959
-0.016140
0.034437
0.076447
0.096905
0.121914
0.133794
0.141566
0.110825
0.063453
0.018664
-0.034447
-0.079056
-0.116646
-0.154844
-0.171868
-0.183439
-0.198050
-0.171503
-0.136311
-0.099890
-0.060002
-0.020061
0.023897
0.062351
0.085163
0.086536
0.072141
0.038737
0.014906
-0.024154
-0.075464
-0.118560
-0.163554
-0.189484
-0.220457
-0.224686
-0.221008
-0.195369
-0.168903
-0.122711
-0.069266
-0.035203
0.007474
0.035030
0.045952
0.052045
0.038962
0.029469
-0.006785
-0.042799
-0.089414
-0.140330
-0.188187
-0.211734
-0.239512
-0.261242
-0.241547
-0.198869
-0.165591
-0.134340
-0.104990
-0.060047
-0.022032
0.010835
0.048195
0.059109
0.049012
0.022444
-0.016867
-0.062844
-0.098577
-0.135083
-0.185818
-0.229590
-0.233845
-0.237155
-0.227096
-0.219073
-0.186516
-0.146091
-0.096241
-0.056569
-0.013480
0.020149
0.043958
0.051171
0.047792
0.027840
-0.015089
-0.059098
-0.105523
-0.139322
-0.185338
-0.204736
-0.231299
-0.238081
-0.233913
-0.211331
-0.184668
-0.144680
-0.104048
-0.052563
-0.006509
0.020983
0.045875
0.057598
0.044611
0.022738
-0.005077
-0.044820
-0.108459
-0.149136
-0.183251
-0.212861
-0.231634
-0.226729
-0.219106
-0.190368
-0.167504
-0.125702
-0.075869
-0.038615
-0.009046
0.020803
0.050903
0.059264
0.044938
0.028219
0.004470
-0.032535
-0.082088
-0.125365
-0.151871
-0.179936
-0.205176
-0.221913
-0.225420
-0.204036
-0.165612
-0.114767
-0.067636
-0.034974
0.001162
0.026946
0.055819
0.064262
0.060139
0.037774
0.010427
-0.036829
-0.088615
-0.133028
-0.183324
-0.197637
-0.217913
-0.234572
-0.219825
-0.201107
-0.170275
-0.129537
-0.084247
-0.033020
0.005598
0.027600
0.055182
0.077497
0.063733
0.041043
0.002781
-0.046864
-0.090796
-0.136725
-0.176265
-0.196741
-0.227030
-0.242268
-0.235830
-0.206399
-0.180680
-0.137392
-0.082816
-0.037223
0.003213
0.023281
0.035961
0.070179
0.053991
0.042758
0.008921
-0.052446
-0.104851
-0.137316
-0.173733
-0.196984
-0.226038
-0.245400
-0.240277
-0.215184
-0.182280
-0.137162
-0.092258
-0.056182
-0.002397
0.030785
0.046752
0.058981
0.055635
0.038208
-0.003794
-0.042904
-0.082551
-0.135661
-0.173733
-0.211478
-0.244087
-0.240651
-0.237085
-0.219166
-0.181666
-0.142602
-0.107448
-0.061317
-0.016773
0.024911
0.041932
0.036674
0.045238
0.031619
-0.000214
-0.040565
-0.089642
-0.132251
-0.183328
-0.205397
-0.241420
-0.243580
-0.237233
-0.226958
-0.189006
-0.145657
-0.098670
-0.053313
-0.018875
0.017347
0.039211
0.032793
0.033401
0.020191
-0.009927
-0.064890
-0.100783
-0.146102
-0.193661
-0.224708
-0.246527
-0.252172
-0.250146
-0.235209
-0.202955
-0.160669
-0.096788
-0.052484
-0.015901
0.007961
0.035194
0.042702
0.039915
0.025055
-0.011125
-0.050433
-0.099855
-0.139909
-0.190319
-0.213718
-0.228551
-0.240811
-0.227824
-0.205360
-0.163640
-0.116834
-0.074438
-0.039383
0.002751
0.033451
0.068654
0.077917
0.065740
0.048942
0.014371
-0.019775
-0.064065
-0.111471
-0.158866
-0.194845
-0.207331
-0.205790
-0.195993
-0.184777
-0.150741
-0.109468
-0.067477
-0.027743
0.019950
0.045663
0.068834
0.080904
0.070337
0.035206
0.001983
-0.032469
-0.060391
-0.100182
-0.149816
-0.169313
-0.183147
-0.189517
-0.180577
-0.167532
-0.138273
-0.091007
-0.053696
-0.009452
0.031303
0.065905
0.094688
0.103562
0.087260
0.072824
0.038447
-0.002721
-0.053006
-0.109234
-0.161435
-0.186895
-0.206231
-0.221476
-0.212489
-0.209450
-0.174388
-0.126930
-0.075229
-0.043183
-0.005485
0.029739
0.059471
0.053589
0.048275
0.024428
-0.015000
-0.052247
-0.100647
-0.133062
-0.175483
-0.198421
-0.233616
-0.248481
-0.239195
-0.240674
-0.199984
-0.162078
-0.123582
-0.057900
-0.022214
0.006093
0.026840
0.025711
0.021515
0.001861
-0.038238
-0.083363
-0.127732
-0.168361
-0.208541
-0.229579
-0.257893
-0.265363
-0.263492
-0.246514
-0.208550
-0.170040
-0.124486
-0.071506
-0.033348
-0.011880
0.009961
0.017464
0.012922
-0.000844
-0.037055
-0.082626
-0.126226
-0.165197
-0.202516
-0.233967
-0.258128
-0.260884
-0.254092
-0.245749
-0.220840
-0.175366
-0.127403
-0.078404
-0.032256
-0.003782
0.013144
0.023202
0.015739
-0.012905
-0.038958
-0.083143
-0.123270
-0.169787
-0.206006
-0.240981
-0.258196
-0.267933
-0.261096
-0.240887
-0.211612
-0.169928
-0.126511
-0.079735
-0.031354
-0.010809
0.011106
0.023393
0.017716
-0.007006
-0.040468
-0.082822
-0.135446
-0.184228
-0.220708
-0.252855
-0.276991
-0.283267
-0.278760
-0.257786
-0.215300
-0.169609
-0.109948
-0.048233
0.006647
0.049453
0.087549
0.113934
0.123290
0.114666
0.104871
0.071858
0.039229
0.019512
-0.008999
-0.037717
-0.025641
0.008612
0.061487
0.120503
0.187506
0.273943
0.364280
0.449584
0.524176
0.598618
0.659339
0.705423
0.769237
0.793567
0.797524
0.787479
0.779110
0.757399
0.734009
0.696148
0.667582
0.643279
0.627423
0.626735
0.647565
0.651963
0.654294
0.629054
0.589691
0.530864
0.477189
0.431917
0.378862
0.312885
0.245797
0.185646
0.133585
0.071290
0.020723
-0.018458
-0.063091
-0.078834
-0.083736
-0.101559
-0.076109
-0.040993
-0.009266
0.042652
0.078614
0.098616
0.115570
0.125382
0.127437
0.104466
0.065077
0.009094
-0.052332
-0.091880
-0.134557
-0.156190
-0.190252
-0.196725
-0.188386
-0.175800
-0.146642
-0.108742
-0.068092
-0.023708
0.018579
0.053909
0.086364
0.079093
0.070059
0.053515
0.026848
-0.022204
-0.080924
-0.123528
-0.164795
-0.198963
-0.221500
-0.224301
-0.206334
-0.187709
-0.163010
-0.123221
-0.075340
-0.037661
0.004362
0.036901
0.071402
0.073928
0.062601
0.042148
0.009150
-0.035418
-0.078083
-0.113247
-0.152711
-0.179955
-0.201095
-0.219311
-0.202169
-0.182279
-0.140282
-0.105819
-0.065984
-0.019300
0.029552
0.059447
0.078914
0.082696
0.080280
0.068399
0.032338
-0.006847
-0.045758
-0.088787
-0.143007
-0.177306
-0.191680
-0.193684
-0.185669
-0.163109
-0.141017
-0.099197
-0.048907
-0.004512
0.035100
0.055583
0.095192
0.113207
0.096767
0.079841
0.065631
0.027796
-0.021778
-0.071360
-0.117248
-0.136325
-0.156784
-0.168918
-0.151896
-0.136343
-0.108035
-0.061336
-0.015472
0.031807
0.078769
0.108502
0.137000
0.146429
0.134223
0.121069
0.091682
0.055565
0.015531
-0.034483
-0.081328
-0.108420
-0.128928
-0.140990
-0.136485
-0.103885
-0.072151
-0.029448
0.020860
0.078395
0.110802
0.138024
0.168518
0.185416
0.180201
0.149119
0.108638
0.072675
0.023559
-0.023010
-0.068027
-0.087725
-0.105132
-0.107345
-0.102515
-0.090755
-0.051318
-0.009563
0.031388
0.080492
0.136535
0.165470
0.184771
0.206580
0.196521
0.165721
0.131136
0.099325
0.046587
0.002933
-0.046281
-0.082396
-0.107489
-0.110474
-0.102154
-0.096271
-0.057881
-0.016208
0.034402
0.086023
0.123889
0.152626
0.171998
0.180680
0.174396
0.151274
0.105240
0.075517
0.026474
-0.027557
-0.068174
-0.102329
-0.123223
-0.121277
-0.112800
-0.109278
-0.090386
-0.041842
-0.000677
0.035739
0.088290
0.130206
0.144082
0.135320
0.137459
0.124153
0.070544
0.043388
-0.007298
-0.059966
-0.104345
-0.137266
-0.161189
-0.168868
-0.165438
-0.144971
-0.105358
-0.074494
-0.035474
0.013599
0.053908
0.081827
0.098029
0.106760
0.095720
0.078507
0.035106
-0.007719
-0.052858
-0.093350
-0.136350
-0.160589
-0.183902
-0.202048
-0.202237
-0.185393
-0.146093
-0.100615
-0.056426
-0.017716
0.023566
0.052291
0.063608
0.079491
0.072207
0.045413
0.017414
-0.025479
-0.075588
-0.128389
-0.166739
-0.202443
-0.216533
-0.226476
-0.214966
-0.187438
-0.153195
-0.122619
-0.069381
-0.024031
0.008371
0.056488
0.073558
0.063183
0.052954
0.038553
0.013810
-0.030545
-0.068802
-0.112841
-0.165645
-0.206358
-0.229707
-0.226045
-0.214615
-0.199576
-0.160134
-0.122804
-0.094319
-0.037337
0.012159
0.051572
0.075017
0.081615
0.060699
0.047917
0.004106
-0.057978
-0.085370
-0.111645
-0.163597
-0.189854
-0.205504
-0.218780
-0.204984
-0.179672
-0.162993
-0.132148
-0.077700
-0.024736
0.013520
0.048207
0.074552
0.094640
0.083362
0.067038
0.026593
-0.013963
-0.059359
-0.104124
-0.141710
-0.178107
-0.200008
-0.204380
-0.202946
-0.180605
-0.152723
-0.115023
-0.070152
-0.022591
0.025563
0.056385
0.069698
0.082334
0.083644
0.064635
0.032692
-0.008003
-0.050510
-0.105788
-0.150514
-0.175660
-0.187916
-0.186309
-0.186582
-0.187416
-0.144315
-0.102243
-0.058824
-0.006817
0.031883
0.061947
0.083239
0.094254
0.080751
0.069789
0.038377
0.003445
-0.052710
-0.100428
-0.149440
-0.174224
-0.183575
-0.212592
-0.197309
-0.171986
-0.143150
-0.099236
-0.046932
-0.000516
0.034782
0.065265
0.083807
0.089130
0.088308
0.073720
0.039534
-0.010063
-0.056808
-0.108842
-0.146363
-0.183343
-0.204165
-0.206825
-0.202243
-0.180096
-0.139749
-0.107545
-0.057542
-0.023118
0.008959
0.055071
0.071985
0.095634
0.078970
0.050457
0.015324
-0.014382
-0.053899
-0.108274
-0.154739
-0.192884
-0.215325
-0.217826
-0.207021
-0.177306
-0.153492
-0.125213
-0.072446
-0.017409
0.027907
0.038921
0.050199
0.060189
0.061499
0.045568
0.031281
-0.013143
-0.066104
-0.109166
-0.141191
-0.192107
-0.206626
-0.210269
-0.205949
-0.194173
-0.160386
-0.118711
-0.071709
-0.020459
0.025099
0.057083
0.088604
0.080285
0.069551
0.053550
0.025512
-0.018348
-0.073834
-0.110344
-0.152002
-0.187813
-0.202185
-0.213493
-0.209674
-0.195222
-0.164671
-0.129915
-0.077926
-0.028312
0.011936
0.045926
0.068427
0.081457
0.067343
0.044803
0.015073
-0.032263
-0.071067
-0.118837
-0.160788
-0.198266
-0.213656
-0.219333
-0.212742
-0.195517
-0.174017
-0.135664
-0.077349
-0.030636
0.009801
0.044221
0.058757
0.063237
0.055428
0.040961
0.003070
-0.028045
-0.072861
-0.123012
-0.162203
-0.194866
-0.208692
-0.218859
-0.208862
-0.193404
-0.161037
-0.120529
-0.071226
-0.031476
-0.003410
0.020513
0.039185
0.065123
0.056532
0.035714
0.007195
-0.022486
-0.077779
-0.124598
-0.172659
-0.193126
-0.206354
-0.213266
-0.207653
-0.200584
-0.154740
-0.114909
-0.063053
-0.021670
0.016763
0.055093
0.073248
0.070593
0.051039
0.041274
0.031982
-0.013038
-0.060143
-0.096745
-0.138244
-0.166290
-0.182225
-0.195742
-0.187647
-0.163119
-0.129014
-0.086150
-0.034808
0.009095
0.045249
0.085981
0.094444
0.106548
0.095141
0.065445
0.034580
0.001064
-0.036144
-0.084048
-0.129033
-0.169575
-0.187483
-0.205372
-0.193018
-0.158543
-0.133379
-0.081888
-0.041274
0.014810
0.057366
0.099981
0.125339
0.127742
0.117689
0.089055
0.065008
0.033138
-0.008235
-0.057411
-0.098819
-0.135727
-0.158178
-0.174417
-0.173237
-0.150131
-0.117013
-0.083405
-0.028927
0.006296
0.041077
0.076167
0.092717
0.105477
0.106349
0.080922
0.036204
-0.008758
-0.057341
-0.105304
-0.157410
-0.179700
-0.193700
-0.210379
-0.193006
-0.173081
-0.145607
-0.119571
-0.074997
-0.024550
0.022796
0.052701
0.066063
0.079697
0.067670
0.021216
-0.010096
-0.049894
-0.086827
-0.126669
-0.178566
-0.203549
-0.212862
-0.217380
-0.209466
-0.215604
-0.185832
-0.140131
-0.087008
-0.033580
-0.004808
0.017134
0.040141
0.049849
0.034053
0.016023
-0.006597
-0.053603
-0.098636
-0.151427
-0.191641
-0.222334
-0.233336
-0.246084
-0.236972
-0.212327
-0.177376
-0.144537
-0.099440
-0.054802
-0.012873
0.018641
0.048455
0.057860
0.055036
0.037787
-0.001717
-0.041255
-0.087390
-0.141787
-0.185755
-0.208445
-0.224481
-0.239530
-0.237331
-0.203729
-0.169410
-0.127167
-0.086029
-0.044379
0.002523
0.022703
0.044166
0.054845
0.057347
0.024218
-0.005382
-0.047975
-0.093037
-0.140943
-0.191384
-0.218771
-0.235352
-0.242828
-0.247379
-0.221159
-0.190275
-0.146443
-0.107571
-0.057702
-0.011155
0.026354
0.051387
0.059205
0.050805
0.042406
0.027938
-0.003654
-0.036484
-0.070953
-0.098326
-0.111698
-0.116228
-0.121740
-0.104106
-0.087372
-0.037937
0.028745
0.096417
0.161593
0.239302
0.289754
0.346091
0.386162
0.421788
0.435037
0.426388
0.416256
0.411078
0.384446
0.377013
0.396324
0.420118
0.446693
0.500166
0.554915
0.605530
0.674605
0.720684
0.760716
0.812546
0.831508
0.824042
0.815489
0.762676
0.712424
0.637701
0.521691
0.398220
0.281625
0.188151
0.108986
0.025357
-0.022053
-0.039069
-0.030539
-0.025232
0.007837
0.058876
0.102475
0.135903
0.158743
0.179849
0.177331
0.170494
0.148848
0.109033
0.067046
0.024338
-0.027987
-0.076851
-0.100488
-0.116529
-0.150350
-0.152209
-0.131583
-0.090782
-0.059746
-0.027431
0.022880
0.064413
0.085348
0.103003
0.113796
0.104210
0.089318
0.054708
0.013949
-0.041342
-0.086194
-0.132941
-0.162453
-0.176044
-0.176275
-0.174955
-0.154732
-0.128275
-0.086113
-0.063207
-0.026182
0.027911
0.081221
0.089688
0.102285
0.107494
0.092269
0.049400
-0.003146
-0.059846
-0.099101
-0.140970
-0.167155
-0.177900
-0.191273
-0.192366
-0.171656
-0.139055
-0.090411
-0.034382
0.018263
0.057546
0.082205
0.098016
0.108434
0.102746
0.085353
0.053512
0.014208
-0.028699
-0.070483
-0.111522
-0.145714
-0.159149
-0.162089
-0.164927
-0.134772
-0.108532
-0.075044
-0.023207
0.022102
0.064062
0.108220
0.130941
0.130933
0.110670
0.111006
0.082865
0.044734
-0.003171
-0.057464
-0.116066
-0.139801
-0.150148
-0.143705
-0.153321
-0.143730
-0.109082
-0.050630
0.009881
0.055213
0.098805
0.126825
0.156318
0.165393
0.157645
0.141069
0.116121
0.073865
0.027118
-0.020432
-0.059104
-0.089450
-0.110389
-0.122610
-0.115412
-0.088510
-0.049415
-0.009550
0.033289
0.081474
0.125860
0.160354
0.183732
0.195528
0.191266
0.177546
0.143737
0.100032
0.051138
0.010754
-0.029101
-0.058570
-0.081272
-0.087201
-0.097300
-0.066318
-0.035536
0.007153
0.062124
0.098998
0.134184
0.184346
0.212585
0.222318
0.209425
0.191623
0.153912
0.114389
0.073335
0.026893
-0.020203
-0.047451
-0.071906
-0.073010
-0.065080
-0.042397
-0.009046
0.035247
0.068246
0.111239
0.156514
0.183957
0.207033
0.207215
0.199358
0.178739
0.140784
0.100496
0.066559
0.010304
-0.033336
-0.058941
-0.078150
-0.079178
-0.066097
-0.050077
-0.021498
0.014456
0.058278
0.097835
0.134702
0.163233
0.176739
0.179798
0.185165
0.160883
0.120104
0.075561
0.029835
-0.020416
-0.065855
-0.096291
-0.120250
-0.115597
-0.119030
-0.103677
-0.068539
-0.024766
0.020341
0.066773
0.100194
0.132762
0.154331
0.151416
0.138633
0.117331
0.086003
0.039397
-0.009372
-0.058369
-0.099576
-0.135767
-0.156348
-0.156152
-0.154980
-0.139011
-0.110158
-0.064671
-0.017057
0.036015
0.066683
0.096900
0.120317
0.119446
0.112872
0.087078
0.050527
0.006419
-0.031699
-0.081891
-0.126378
-0.157762
-0.176686
-0.177472
-0.172138
-0.155932
-0.125426
-0.086246
-0.068961
-0.040998
0.005430
0.068857
0.089518
0.086656
0.087657
0.063808
0.031017
-0.009309
-0.051510
-0.109887
-0.157962
-0.173667
-0.189170
-0.201008
-0.189513
-0.164006
-0.134099
-0.108223
-0.061667
-0.031557
0.012646
0.064184
0.083985
0.082572
0.068037
0.052474
0.029033
-0.008802
-0.055657
-0.096761
-0.125640
-0.167168
-0.203176
-0.194390
-0.188171
-0.176301
-0.136639
-0.098264
-0.054827
-0.013046
0.036770
0.067308
0.086330
0.096091
0.086351
0.068322
0.036782
-0.010975
-0.050510
-0.083433
-0.128016
-0.165295
-0.199211
-0.196620
-0.194689
-0.175422
-0.136125
-0.088133
-0.047027
-0.001429
0.041285
0.075854
0.091976
0.100272
0.090719
0.066504
0.036642
-0.006733
-0.051148
-0.091982
-0.134046
-0.148154
-0.167896
-0.170174
-0.168335
-0.160297
-0.146878
-0.118691
-0.055986
0.006279
0.044075
0.084199
0.101597
0.105884
0.104765
0.077218
0.032152
-0.004716
-0.048970
-0.093767
-0.132557
-0.175016
-0.189646
-0.190176
-0.189022
-0.167653
-0.139573
-0.098416
-0.041746
0.000907
0.034171
0.060686
0.080353
0.094475
0.092428
0.071424
0.042823
0.001166
-0.044096
-0.082717
-0.125190
-0.172002
-0.211489
-0.217683
-0.204843
-0.183697
-0.142561
-0.099437
-0.050442
-0.006580
0.033741
0.057009
0.068841
0.087683
0.078938
0.063521
0.030802
-0.016720
-0.057573
-0.106779
-0.148751
-0.178309
-0.203336
-0.207142
-0.208085
-0.178080
-0.151184
-0.105895
-0.059486
-0.016372
0.029753
0.070243
0.084761
0.075507
0.074277
0.054186
0.033950
-0.013671
-0.068207
-0.104292
-0.124205
-0.174350
-0.211656
-0.212649
-0.207306
-0.193896
-0.150790
-0.097028
-0.061557
-0.016411
0.017824
0.045721
0.062833
0.067225
0.056867
0.042235
0.002858
-0.033699
-0.068988
-0.107367
-0.132632
-0.179277
-0.220436
-0.225896
-0.218169
-0.193947
-0.149131
-0.121417
-0.077840
-0.032676
0.012527
0.047163
0.067464
0.068931
0.055209
0.034655
-0.006990
-0.033862
-0.077968
-0.116141
-0.150064
-0.193145
-0.207631
-0.226502
-0.201528
-0.184814
-0.152589
-0.115700
-0.076989
-0.036524
0.011458
0.046676
0.062018
0.058253
0.061365
0.046441
-0.009058
-0.057796
-0.093315
-0.136381
-0.177114
-0.200833
-0.208656
-0.204614
-0.228464
-0.219845
-0.178337
-0.130789
-0.079965
-0.030307
0.001986
0.034614
0.065638
0.065606
0.066293
0.050124
0.017831
-0.009200
-0.064417
-0.135174
-0.168610
-0.195576
-0.221448
-0.221128
-0.209643
-0.192055
-0.169167
-0.143428
-0.098515
-0.037397
0.014654
0.052003
0.077138
0.078489
0.067232
0.030165
0.001144
-0.037298
-0.077612
-0.127918
-0.174756
-0.198744
-0.222181
-0.222907
-0.208962
-0.180906
-0.156628
-0.119979
-0.086334
-0.032602
0.010268
0.035063
0.055833
0.054453
0.056968
0.039564
0.007036
-0.032105
-0.074779
-0.117343
-0.143381
-0.176111
-0.158016
-0.162387
-0.169414
-0.174969
-0.150156
-0.105561
-0.073196
-0.015570
0.031166
0.075811
0.079790
0.089435
0.071637
0.047963
0.027161
0.006225
-0.052569
-0.112171
-0.156621
-0.186433
-0.192869
-0.185809
-0.185604
-0.161691
-0.127238
-0.093707
-0.047350
0.002053
0.051877
0.092707
0.118515
0.123490
0.117765
0.087841
0.060518
0.022781
-0.026911
-0.070212
-0.116556
-0.158466
-0.177025
-0.167828
-0.167033
-0.163487
-0.134262
-0.082102
-0.027865
-0.018105
0.017458
0.064230
0.085285
0.085403
0.078707
0.062148
0.026332
-0.007757
-0.065122
-0.126771
-0.178926
-0.214308
-0.240230
-0.226695
-0.219643
-0.198790
-0.165513
-0.130035
-0.084339
-0.043158
-0.003247
0.035167
0.052613
0.050816
0.031803
0.005185
-0.022210
-0.058361
-0.097743
-0.142421
-0.194910
-0.236986
-0.259610
-0.272875
-0.258720
-0.225259
-0.204104
-0.172954
-0.126603
-0.071545
-0.035265
-0.003820
0.032958
0.032226
0.025164
-0.000508
-0.049697
-0.071215
-0.104976
-0.147460
-0.199308
-0.235822
-0.254663
-0.250107
-0.244487
-0.234487
-0.201753
-0.164271
-0.111487
-0.061103
-0.022236
0.008661
0.021932
0.026495
0.018659
0.002221
-0.035353
-0.075002
-0.110173
-0.159485
-0.205805
-0.245754
-0.270938
-0.282829
-0.258701
-0.251373
-0.220962
-0.164740
-0.106048
-0.081342
-0.039191
-0.000641
0.015530
0.025603
0.014015
-0.022331
-0.020809
-0.058637
-0.120860
-0.173246
-0.210079
-0.260694
-0.292917
-0.277430
-0.254278
-0.230137
-0.186037
-0.158163
-0.121057
-0.085804
-0.055803
-0.016887
0.008023
0.011264
0.024721
0.017813
-0.009925
-0.044745
-0.071484
-0.097628
-0.119951
-0.151000
-0.154206
-0.138855
-0.126050
-0.088646
-0.040560
0.007868
0.083158
0.158671
0.234125
0.278537
0.324009
0.362558
0.397407
0.413842
0.395909
0.391139
0.369129
0.355618
0.353147
0.353796
0.373273
0.406989
0.446705
0.503296
0.579041
0.629713
0.668487
0.726729
0.753888
0.771145
0.778415
0.756366
0.722948
0.661807
0.562518
0.477178
0.348759
0.244846
0.150841
0.059891
-0.008768
-0.036651
-0.044901
-0.051174
-0.034132
-0.008756
0.011014
0.046839
0.076959
0.096137
0.128650
0.133528
0.141803
0.148013
0.113086
0.036751
-0.025805
-0.064062
-0.130449
-0.148836
-0.174749
-0.173695
-0.067496
-0.099811
-0.145643
-0.100126
-0.017036
0.012570
-0.004691
0.039523
0.095496
0.109084
0.070365
0.018446
0.019175
-0.017159
-0.012628
-0.062751
-0.173458
-0.258455
-0.248862
-0.210311
-0.228818
-0.207710
-0.170171
-0.138858
-0.060139
-0.028730
0.006304
0.026709
0.027552
0.054665
0.066321
0.054096
0.037873
-0.021879
-0.090007
-0.133908
-0.171812
-0.196113
-0.221608
-0.254930
-0.234806
-0.210337
-0.152749
-0.128982
-0.072089
-0.038871
0.009079
0.056263
0.067246
0.075498
0.077952
0.061738
0.043454
0.003775
-0.045809
-0.103620
-0.152073
-0.182962
-0.211985
-0.221079
-0.218669
-0.178734
-0.126216
-0.090256
-0.046183
0.007047
0.035818
0.063794
0.083449
0.085495
0.074364
0.060295
0.020851
-0.023923
-0.047666
-0.087191
-0.135479
-0.169022
-0.180995
-0.164946
-0.141313
-0.135143
-0.098253
-0.060140
-0.027268
-0.018577
0.039484
0.054327
0.108379
0.154939
0.134339
0.092944
0.048449
0.017822
-0.017347
-0.050575
-0.098315
-0.145393
-0.159966
-0.192767
-0.177720
-0.133176
-0.095027
-0.049043
-0.013936
0.047761
0.105375
0.127867
0.137322
0.154985
0.147875
0.124897
0.090468
0.058431
0.009682
-0.042176
-0.089408
-0.122077
-0.123684
-0.125545
-0.128097
-0.097796
-0.041283
-0.019594
0.035739
0.071545
0.094586
0.135832
0.169160
0.187343
0.159551
0.144861
0.108835
0.082182
0.035007
-0.033104
-0.081111
-0.104045
-0.114749
-0.117176
-0.095845
-0.085356
-0.049297
-0.016410
0.029108
0.065048
0.112039
0.145957
0.166005
0.164048
0.147404
0.133248
0.109520
0.073467
0.028176
-0.043740
-0.073779
-0.113679
-0.146913
-0.159458
-0.138960
-0.128323
-0.090506
-0.063338
0.000789
0.098434
0.141842
0.146669
0.149950
0.144231
0.142651
0.124284
0.083088
0.045648
-0.018391
-0.059703
-0.104096
-0.160746
-0.176302
-0.187377
-0.166046
-0.157998
-0.134947
-0.084010
-0.036813
0.011614
0.044602
0.080143
0.094768
0.107638
0.105343
0.076771
0.026058
-0.003214
-0.043854
-0.095348
-0.131127
-0.163921
-0.177978
-0.194344
-0.176429
-0.154039
-0.138126
-0.100128
-0.066986
-0.026577
0.024044
0.048864
0.060840
0.065076
0.055881
0.048998
0.014042
-0.032103
-0.080139
-0.131484
-0.188746
-0.237876
-0.231547
-0.237993
-0.215830
-0.200373
-0.174848
-0.127442
-0.092864
-0.060471
-0.020225
0.023058
0.050772
0.068363
0.038431
0.016666
-0.012762
-0.053843
-0.100783
-0.119261
-0.154389
-0.204170
-0.237888
-0.252586
-0.225682
-0.199946
-0.172009
-0.144562
-0.111281
-0.071155
-0.026033
-0.001081
0.026474
0.036449
0.024446
0.020211
-0.007041
-0.035825
-0.098105
-0.141385
-0.188108
-0.201933
-0.211080
-0.215987
-0.225766
-0.216110
-0.188430
-0.131981
-0.101637
-0.046920
0.002534
0.018934
0.030617
0.042216
0.040213
0.036997
0.022448
-0.040809
-0.102027
-0.135006
-0.179195
-0.215081
-0.245455
-0.253238
-0.193052
-0.189324
-0.174942
-0.135827
-0.085817
-0.048320
0.007302
0.054103
0.061097
0.061591
0.053580
0.039861
-0.005629
-0.043148
-0.098526
-0.161712
-0.182825
-0.190580
-0.209803
-0.216213
-0.230669
-0.218963
-0.182731
-0.111810
-0.056271
-0.032886
0.000431
0.029987
0.064664
0.076414
0.067754
0.040805
0.008946
-0.040010
-0.098100
-0.136095
-0.175750
-0.211576
-0.234951
-0.231996
-0.222178
-0.216665
-0.168860
-0.106005
-0.065662
-0.029708
-0.015533
0.018936
0.028462
0.053055
0.037234
0.022900
-0.002467
-0.042701
-0.068638
-0.133335
-0.181379
-0.221591
-0.209917
-0.220804
-0.212595
-0.194427
-0.170687
-0.139701
-0.096675
-0.045943
-0.006514
0.039741
0.053133
0.053984
0.035667
0.007571
-0.027496
-0.075391
-0.114246
-0.139529
-0.186146
-0.227864
-0.238468
-0.241913
-0.231188
-0.213121
-0.179370
-0.133533
-0.103288
-0.057314
-0.019728
0.008679
0.022836
0.036645
0.030676
0.018519
-0.001702
-0.056994
-0.100533
-0.147545
-0.176084
-0.202027
-0.221092
-0.247992
-0.224177
-0.208808
-0.182359
-0.146034
-0.105934
-0.056418
-0.022727
0.015035
0.024973
0.026542
0.023288
0.009571
-0.014096
-0.052040
-0.112129
-0.158072
-0.211363
-0.235834
-0.253013
-0.249137
-0.231757
-0.225499
-0.201285
-0.159227
-0.133817
-0.082957
-0.031188
0.024646
0.053043
0.047664
0.029707
0.010021
-0.021334
-0.067428
-0.100289
-0.139396
-0.185825
-0.226577
-0.262357
-0.277528
-0.261289
-0.234950
-0.195851
-0.152064
-0.101214
-0.049438
-0.015763
0.006541
0.011578
0.011421
0.003689
0.008733
-0.002856
-0.040191
-0.083544
-0.134618
-0.207066
-0.214292
-0.242982
-0.252324
-0.242348
-0.230937
-0.194773
-0.156323
-0.109119
-0.066050
-0.030528
0.005706
0.017901
-0.008296
0.017146
-0.006163
-0.062981
-0.071347
-0.090129
-0.137016
-0.165034
-0.191293
-0.238315
-0.250559
-0.262898
-0.252638
-0.222507
-0.136682
-0.115951
-0.068417
-0.026392
0.008714
0.061549
0.075001
0.041588
0.032365
0.001193
-0.023798
-0.077859
-0.124486
-0.161975
-0.220152
-0.241492
-0.241504
-0.224386
-0.199974
-0.160425
-0.112426
-0.075331
-0.030737
0.007672
0.032683
0.057050
0.049503
0.044186
0.029873
0.010293
-0.023942
-0.081593
-0.129533
-0.151965
-0.177668
-0.195652
-0.195855
-0.188826
-0.172136
-0.145537
-0.117937
-0.079019
-0.028655
0.038938
0.048488
0.079136
0.098001
0.101500
0.059958
0.015919
-0.024822
-0.064423
-0.105756
-0.138688
-0.182416
-0.227996
-0.250322
-0.235131
-0.202295
-0.151690
-0.134174
-0.111733
-0.069242
0.010681
0.052416
0.057929
0.079986
0.061290
0.035796
-0.023863
-0.060067
-0.096027
-0.144156
-0.184308
-0.232092
-0.255857
-0.266795
-0.250017
-0.216974
-0.176986
-0.148196
-0.120863
-0.073560
-0.038517
-0.005822
0.016671
0.023597
0.026437
-0.008746
-0.051437
-0.077874
-0.127752
-0.193367
-0.246499
-0.256930
-0.278918
-0.316163
-0.266930
-0.237293
-0.218740
-0.178244
-0.136504
-0.095909
-0.062696
-0.025693
0.007319
0.014999
-0.002914
-0.012261
-0.041588
-0.102603
-0.145513
-0.196919
-0.226221
-0.251902
-0.279495
-0.307068
-0.285580
-0.246941
-0.215696
-0.185817
-0.135865
-0.096506
-0.052359
-0.024800
-0.028360
-0.022294
-0.034156
-0.041193
-0.060444
-0.101797
-0.129910
-0.172168
-0.235294
-0.285968
-0.298155
-0.300844
-0.253909
-0.244772
-0.215114
-0.184829
-0.140912
-0.108339
-0.067774
-0.005288
0.028166
0.020454
-0.000086
-0.018417
-0.058447
-0.125159
-0.148551
-0.182038
-0.220706
-0.276796
-0.284939
-0.296057
-0.290970
-0.260163
-0.218756
-0.177211
-0.126614
-0.061579
-0.023317
0.025496
0.050933
0.082986
0.099090
0.069955
0.055433
0.021336
-0.005075
-0.048816
-0.066007
-0.079922
-0.079848
-0.077508
-0.037901
0.025686
0.095445
0.165275
0.231335
0.313810
0.389230
0.456510
0.492241
0.522179
0.550794
0.569050
0.579090
0.561473
0.545536
0.530664
0.529196
0.506163
0.470006
0.460219
0.481642
0.514614
0.541029
0.547259
0.544311
0.541315
0.523037
0.490880
0.460801
0.432863
0.375402
0.272542
0.188650
0.107770
0.045898
-0.020691
-0.081459
-0.129128
-0.158278
-0.174538
-0.181193
-0.165611
-0.139526
-0.095878
-0.065514
-0.015238
0.035422
0.071341
0.072971
0.125813
0.097890
0.055506
0.006493
-0.024710
-0.075506
-0.110248
-0.172096
-0.184469
-0.204614
-0.216077
-0.234648
-0.212857
-0.159431
-0.139000
-0.099693
-0.054730
-0.008718
0.028050
0.074327
0.076827
0.064008
0.027258
-0.014596
-0.050879
-0.102488
-0.150388
-0.183791
-0.219726
-0.249860
-0.263398
-0.232022
-0.210747
-0.182828
-0.153421
-0.096453
-0.061321
-0.005831
0.015911
0.015912
0.035689
0.039616
0.037474
0.000053
-0.043906
-0.098691
-0.140618
-0.176571
-0.237029
-0.261350
-0.253045
-0.243027
-0.220167
-0.192938
-0.123835
-0.086493
-0.027666
0.029650
0.044646
0.071759
0.082310
0.069417
0.038483
0.004851
-0.056170
-0.095704
-0.133969
-0.154629
-0.179741
-0.207763
-0.218879
-0.208916
-0.184029
-0.156597
-0.112448
-0.059377
-0.004771
0.031025
0.079322
0.094870
0.091431
0.081601
0.038506
0.018053
-0.016511
-0.020640
-0.085190
-0.131275
-0.159702
-0.196106
-0.211635
-0.205163
-0.180448
-0.140119
-0.098659
-0.035629
0.040161
0.089201
0.084007
0.098723
0.108302
0.105524
0.091984
0.065239
0.019349
-0.017926
-0.067241
-0.095136
-0.140977
-0.171538
-0.167151
-0.153528
-0.131379
-0.089117
-0.043919
0.002743
0.051067
0.093806
0.114185
0.131583
0.146101
0.142280
0.102982
0.072169
0.028985
-0.010353
-0.004716
-0.023914
-0.067896
-0.107119
-0.136773
-0.121141
-0.071545
-0.057827
-0.017641
0.024294
0.075316
0.112276
0.141608
0.174935
0.179488
0.166930
0.140163
0.102178
0.053804
0.027599
-0.010090
-0.054679
-0.095568
-0.118707
-0.135182
-0.139048
-0.118045
-0.097481
-0.016824
0.030787
0.097807
0.137008
0.130979
0.150623
0.189686
0.186647
0.152669
0.084973
0.040499
0.000991
-0.039089
-0.083799
-0.129906
-0.174918
-0.165200
-0.164845
-0.104433
-0.075571
-0.033712
-0.005055
0.041044
0.089900
0.125122
0.158268
0.154499
0.137013
0.106974
0.080318
0.032640
-0.007159
-0.060374
-0.102607
-0.132341
-0.160637
-0.174843
-0.175000
-0.144624
-0.121455
-0.076462
-0.032453
0.011876
0.048271
0.080925
0.111279
0.075380
0.024099
0.037528
0.016630
-0.035733
-0.074775
-0.091743
-0.104775
-0.166566
-0.212696
-0.212305
-0.202009
-0.209795
-0.196138
-0.127370
-0.084352
-0.043527
0.012594
0.092163
0.099977
0.089885
0.087335
0.044284
0.001993
-0.033407
-0.078156
-0.132911
-0.161840
-0.180061
-0.212862
-0.245361
-0.242303
-0.224953
-0.181485
-0.128851
-0.074428
-0.046263
0.013317
0.055534
0.057741
0.072471
0.041328
0.002113
-0.032073
-0.052479
-0.096701
-0.157885
-0.185624
-0.220204
-0.241692
-0.258210
-0.242094
-0.214367
-0.181560
-0.158313
-0.098733
-0.044464
0.003028
0.026568
0.052587
0.049514
0.049705
0.033313
0.020150
-0.021287
-0.108035
-0.168000
-0.181961
-0.180815
-0.205076
-0.217019
-0.226547
-0.194186
-0.155076
-0.126178
-0.078060
-0.035692
0.014178
0.050890
0.067253
0.055771
0.038945
0.044314
0.022424
-0.027112
-0.063590
-0.121616
-0.154215
-0.179805
-0.202281
-0.210658
-0.221329
-0.209875
-0.175450
-0.125707
-0.072324
-0.015031
0.012244
0.052929
0.059671
0.054413
0.050426
0.031585
0.011046
-0.032823
-0.076192
-0.123676
-0.158453
-0.193304
-0.210075
-0.218307
-0.235895
-0.214975
-0.193239
-0.151457
-0.109205
-0.015579
0.036486
0.068638
0.110933
0.121002
0.076744
0.047465
0.028290
-0.025022
-0.088422
-0.134413
-0.147122
-0.183628
-0.209685
-0.231089
-0.235486
-0.194443
-0.150134
-0.125066
-0.064110
-0.025221
0.026767
0.079847
0.088669
0.067202
0.071069
0.041264
0.023755
-0.020143
-0.067685
-0.122333
-0.165485
-0.197428
-0.212761
-0.221173
-0.222428
-0.205653
-0.160413
-0.131064
-0.094536
-0.041702
-0.008797
0.035945
0.070525
0.099696
0.071146
0.010194
0.013582
-0.010429
-0.064055
-0.096669
-0.152590
-0.210857
-0.235298
-0.239023
-0.233793
-0.201423
-0.151155
-0.105435
-0.082898
-0.049282
-0.024488
0.014059
0.037798
0.051736
0.051545
0.033274
0.007600
-0.041497
-0.093500
-0.130805
-0.177268
-0.214008
-0.230890
-0.238461
-0.208467
-0.192049
-0.171601
-0.138704
-0.056323
-0.034264
-0.013391
0.024207
0.032956
0.055183
0.063073
0.028216
0.008630
-0.036287
-0.075474
-0.130480
-0.167215
-0.212759
-0.237637
-0.235098
-0.221424
-0.198971
-0.155335
-0.127190
-0.069683
-0.015034
-0.004587
0.029806
0.076253
0.071564
0.047692
0.032532
-0.008615
-0.050063
-0.094505
-0.119780
-0.155854
-0.186030
-0.206382
-0.223545
-0.216285
-0.181277
-0.133072
-0.082045
-0.043678
-0.014693
0.022105
0.066377
0.080762
0.080412
0.097679
0.070474
0.035490
0.002760
-0.052524
-0.097543
-0.124132
-0.161722
-0.200943
-0.211455
-0.194986
-0.159495
-0.142755
-0.083589
-0.050942
-0.005798
0.061342
0.090175
0.115110
0.116992
0.096252
0.069752
-0.000680
-0.048922
-0.070216
-0.084742
-0.118634
-0.141936
-0.154938
-0.164770
-0.168732
-0.143109
-0.114595
-0.064065
-0.029332
0.008262
0.053596
0.089945
0.108799
0.121265
0.111211
0.059147
0.041518
-0.006310
-0.030696
-0.060044
-0.119900
-0.128938
-0.160831
-0.174958
-0.167463
-0.160318
-0.159611
-0.126190
-0.061925
-0.028030
0.008417
0.038903
0.066981
0.090601
0.068302
0.039968
-0.010294
-0.033046
-0.029143
-0.095345
-0.163618
-0.197939
-0.225996
-0.249658
-0.231702
-0.206935
-0.168521
-0.123140
-0.078920
-0.051701
-0.006205
0.021553
0.044882
0.040678
0.043552
0.014761
-0.022084
-0.079283
-0.108405
-0.155472
-0.201714
-0.218172
-0.230639
-0.257403
-0.256804
-0.234612
-0.185815
-0.144357
-0.116829
-0.092917
-0.030310
0.014368
0.059920
0.037998
0.028818
0.007490
-0.015492
-0.058372
-0.133562
-0.201777
-0.232262
-0.222241
-0.242394
-0.258675
-0.260148
-0.238509
-0.218535
-0.186299
-0.092142
0.017248
0.040762
0.031495
0.024264
0.030265
0.036995
0.008337
-0.019976
-0.059363
-0.106552
-0.148986
-0.191600
-0.232938
-0.261371
-0.267364
-0.259450
-0.234589
-0.207159
-0.161873
-0.119936
-0.075991
-0.039924
0.003603
0.036584
0.050369
0.013526
-0.015344
-0.028632
-0.064191
-0.112424
-0.121062
-0.176251
-0.212777
-0.210929
-0.217321
-0.196927
-0.170997
-0.118073
-0.047744
-0.006976
0.068275
0.119470
0.152832
0.187678
0.223899
0.230663
0.223247
0.224097
0.212411
0.185169
0.151621
0.143727
0.147880
0.156219
0.186252
0.240437
0.296114
0.351226
0.409512
0.477576
0.544813
0.655320
0.740350
0.792539
0.835142
0.836022
0.820681
0.801476
0.740029
0.656282
0.605094
0.538709
0.485302
0.418520
0.327193
0.274429
0.226739
0.175558
0.203687
0.217532
0.220313
0.214634
0.211678
0.212838
0.206452
0.186696
0.142222
0.095779
0.059495
0.005266
-0.049527
-0.092119
-0.128204
-0.168386
-0.177099
-0.171301
-0.117153
-0.092247
-0.045786
-0.006257
0.023425
0.065593
0.078594
0.128632
0.133151
0.115308
0.074664
0.034201
-0.020004
-0.079774
-0.125009
-0.153693
-0.182776
-0.210672
-0.205298
-0.185625
-0.158084
-0.109832
-0.092722
-0.060234
-0.015428
0.047119
0.099746
0.119454
0.111630
0.108599
0.075115
0.043220
-0.017023
-0.066504
-0.106400
-0.157850
-0.180910
-0.194978
-0.201859
-0.197496
-0.189425
-0.157088
-0.114282
-0.072588
-0.035423
0.009414
0.059489
0.112962
0.105315
0.073428
0.052909
0.013030
-0.006428
-0.035700
-0.080905
-0.120385
-0.180049
-0.174998
-0.183046
-0.192407
-0.177231
-0.143699
-0.067910
-0.025187
0.020986
0.054083
0.072057
0.096123
0.103706
0.082689
0.064047
0.036347
-0.003318
-0.037443
-0.075664
-0.115277
-0.137501
-0.163746
-0.189351
-0.178343
-0.153444
-0.116947
-0.093752
-0.037105
0.011604
0.087333
0.122309
0.131245
0.144171
0.142934
0.148309
0.091763
0.035636
-0.012723
-0.045412
-0.092608
-0.127992
-0.142525
-0.155446
-0.140486
-0.105037
-0.053839
-0.029772
0.032687
0.082564
0.109607
0.114188
0.133589
0.152407
0.134911
0.128108
0.103486
0.046401
0.017983
-0.019171
-0.061935
-0.093933
-0.101119
-0.097374
-0.103458
-0.092904
-0.066904
-0.022311
0.015529
0.094946
0.160752
0.190977
0.202090
0.199546
0.189874
0.176224
0.147996
0.091689
0.039450
-0.001169
-0.042299
-0.055022
-0.065869
-0.080785
-0.073967
-0.050479
-0.026977
0.029722
0.075941
0.118862
0.160374
0.176931
0.193206
0.202422
0.194569
0.176634
0.143390
0.096043
0.042492
-0.008941
-0.059778
-0.094630
-0.093127
-0.100620
-0.105965
-0.084032
-0.023800
0.038738
0.070942
0.080981
0.142889
0.179276
0.180077
0.159943
0.155158
0.136454
0.080353
0.077317
0.042814
-0.001776
-0.039910
-0.093370
-0.121818
-0.144759
-0.141485
-0.116891
-0.073284
-0.033633
0.010663
0.060884
0.083681
0.108967
0.126980
0.148762
0.146325
0.109211
0.065841
0.036403
0.023392
-0.034730
-0.092391
-0.132078
-0.152079
-0.171472
-0.170004
-0.145200
-0.109282
-0.073076
-0.022720
0.018154
0.046431
0.081289
0.101996
0.112279
0.090494
0.072807
0.038018
0.006133
-0.041483
-0.100648
-0.147522
-0.179800
-0.205321
-0.215647
-0.208153
-0.164438
-0.128774
-0.107705
-0.063487
-0.012195
0.028244
0.049991
0.057094
0.071612
0.071749
0.040442
0.009069
-0.033293
-0.070599
-0.115378
-0.158791
-0.182154
-0.200621
-0.225913
-0.225345
-0.196387
-0.163959
-0.122230
-0.060148
-0.022749
-0.013401
0.019197
0.073652
0.092922
0.087675
0.048935
0.005887
-0.036137
-0.074515
-0.104151
-0.146544
-0.185635
-0.215026
-0.220352
-0.224668
-0.229001
-0.168471
-0.131805
-0.056206
0.002807
0.050563
0.070177
0.077632
0.083377
0.059100
0.037068
-0.006467
-0.030391
-0.085297
-0.136029
-0.153757
-0.183410
-0.222516
-0.242942
-0.215170
-0.191147
-0.155936
-0.120177
-0.067033
-0.021910
0.021091
0.064861
0.074268
0.081888
0.074440
0.052544
0.028036
-0.007920
-0.061606
-0.116909
-0.149322
-0.179936
-0.198071
-0.219274
-0.221748
-0.189291
-0.137248
-0.103398
-0.062857
-0.022251
0.025513
0.062279
0.081767
0.092251
0.088410
0.065666
0.036534
-0.000916
-0.054925
-0.101983
-0.145210
-0.180623
-0.204440
-0.214895
-0.208801
-0.171425
-0.145829
-0.101255
-0.052185
0.003996
0.041910
0.077546
0.089799
0.092302
0.083606
0.067620
0.028771
-0.023951
-0.071310
-0.106909
-0.157697
-0.185055
-0.195771
-0.202023
-0.195078
-0.167956
-0.125151
-0.093309
-0.051696
-0.005679
0.036571
0.072785
0.088322
0.072452
0.069002
0.051370
0.032123
-0.010171
-0.061247
-0.108179
-0.149534
-0.184495
-0.213235
-0.214648
-0.202667
-0.189738
-0.157419
-0.109671
-0.073228
-0.035602
-0.000786
0.039877
0.102716
0.112317
0.105152
0.075078
0.037902
-0.009960
-0.062577
-0.119681
-0.172869
-0.201522
-0.212150
-0.236156
-0.228356
-0.192877
-0.146761
-0.104862
-0.065108
-0.021758
0.020266
0.051913
0.069347
0.076049
0.053399
0.048494
0.005721
-0.040774
-0.088319
-0.133588
-0.179107
-0.199255
-0.205328
-0.207816
-0.198318
-0.180460
-0.151786
-0.112022
-0.071854
-0.027853
0.015718
0.042576
0.065993
0.079354
0.073524
0.081275
0.049793
-0.004586
-0.065226
-0.121626
-0.161322
-0.171914
-0.180923
-0.182295
-0.166471
-0.142891
-0.116507
-0.082210
-0.014582
0.011492
0.047945
0.070636
0.107972
0.128224
0.109784
0.075600
0.046328
0.002053
-0.048055
-0.077055
-0.110933
-0.155936
-0.176994
-0.183374
-0.180797
-0.173369
-0.122719
-0.085975
-0.050709
0.010648
0.054281
0.088555
0.121610
0.140197
0.132732
0.106714
0.067298
0.025287
-0.023946
-0.071670
-0.127682
-0.147925
-0.161958
-0.170142
-0.177702
-0.153439
-0.109588
-0.065961
-0.008113
0.032792
0.068913
0.113636
0.117425
0.110405
0.079966
0.070832
0.029538
-0.007585
-0.061752
-0.123091
-0.174269
-0.222222
-0.214629
-0.238534
-0.201227
-0.164962
-0.121816
-0.081637
-0.034427
-0.001564
0.023250
0.049403
0.050235
0.034920
0.034273
0.009364
-0.028118
-0.064205
-0.069151
-0.127612
-0.176171
-0.217428
-0.236630
-0.245078
-0.229508
-0.211929
-0.175339
-0.130246
-0.093591
-0.050415
-0.004688
0.027751
0.063022
0.062318
0.048224
0.026343
-0.004985
-0.045589
-0.093089
-0.151985
-0.203047
-0.234995
-0.269915
-0.284077
-0.257507
-0.230200
-0.182634
-0.156499
-0.108725
-0.060798
-0.018334
0.012869
0.033502
0.054547
0.048723
0.007623
-0.036026
-0.086679
-0.128001
-0.183801
-0.208671
-0.209627
-0.238807
-0.258935
-0.258535
-0.260147
-0.198363
-0.151005
-0.103243
-0.059785
-0.035092
0.015176
0.031347
0.046337
0.031380
0.027187
-0.018326
-0.063730
-0.100500
-0.152678
-0.195741
-0.241287
-0.257941
-0.263893
-0.261479
-0.242479
-0.206936
-0.167106
-0.113887
-0.071673
-0.034246
0.007133
0.038392
0.062791
0.069102
0.055480
0.027218
-0.004622
-0.033605
-0.059459
-0.083329
-0.109668
-0.118868
-0.123217
-0.100469
-0.052923
0.007347
0.072086
0.151801
0.232177
0.300749
0.363941
0.431273
0.487878
0.523005
0.538711
0.522658
0.507146
0.488690
0.492148
0.494821
0.506641
0.522842
0.536402
0.579409
0.624126
0.655967
0.682204
0.732544
0.752112
0.756285
0.773830
0.779466
0.763226
0.706301
0.640857
0.546598
0.427608
0.307324
0.194008
0.113406
0.032201
-0.039684
-0.072246
-0.072426
-0.068535
0.000435
0.057126
0.103313
0.112320
0.123028
0.138831
0.154799
0.144240
0.143677
0.101641
0.071153
0.044237
-0.003483
-0.072088
-0.122469
-0.171235
-0.188805
-0.184158
-0.156637
-0.151690
-0.130570
-0.097296
-0.040056
0.005707
0.052326
0.079549
0.079169
0.093407
0.096830
0.089180
0.040541
-0.010945
-0.068719
-0.128893
-0.164633
-0.199622
-0.211101
-0.233013
-0.208764
-0.184127
-0.134060
-0.093848
-0.044536
0.000169
0.036809
0.066986
0.084532
0.085302
0.069075
0.055829
0.014326
-0.027539
-0.073391
-0.120782
-0.161543
-0.190116
-0.216575
-0.227495
-0.225064
-0.219865
-0.144076
-0.101063
-0.058276
-0.000565
0.052602
0.088944
0.100099
0.094172
0.082695
0.054935
0.025945
-0.022485
-0.060035
-0.109727
-0.145900
-0.170814
-0.193991
-0.197172
-0.179632
-0.152659
-0.114959
-0.068877
-0.034419
0.007599
0.048250
0.078212
0.107163
0.118565
0.116066
0.098629
0.072741
0.025001
-0.028906
-0.080269
-0.128247
-0.159607
-0.174577
-0.180628
-0.167985
-0.132047
-0.091371
-0.058091
-0.014060
0.032929
0.087835
0.110607
0.133391
0.125285
0.134610
0.116976
0.068448
0.025889
-0.005229
-0.032870
-0.073691
-0.114222
-0.131332
-0.125456
-0.117545
-0.104214
-0.059821
-0.017423
0.026442
0.086717
0.117549
0.146516
0.162951
0.177991
0.170547
0.160008
0.125745
0.089397
0.041197
-0.017960
-0.068524
-0.106001
-0.115275
-0.116685
-0.102171
-0.078863
-0.033703
0.018332
0.060350
0.101131
0.146129
0.184873
0.201660
0.212741
0.204429
0.180858
0.147163
0.091038
0.052005
-0.004530
-0.049320
-0.072261
-0.093030
-0.094010
-0.083656
-0.078693
-0.035146
-0.003221
0.043489
0.102351
0.143399
0.166173
0.189231
0.187240
0.177317
0.159522
0.124596
0.081214
0.031077
-0.010220
-0.052587
-0.076805
-0.100491
-0.096307
-0.095630
-0.073587
-0.053380
-0.014111
0.050262
0.080872
0.108011
0.144512
0.152513
0.157943
0.154581
0.120691
0.078657
0.049609
0.006045
-0.039349
-0.089015
-0.128945
-0.145285
-0.145108
-0.141427
-0.110874
-0.088116
-0.050935
-0.008039
0.039662
0.078895
0.107027
0.128647
0.123326
0.111249
0.085861
0.055263
-0.002357
-0.052553
-0.107494
-0.152329
-0.167712
-0.194366
-0.211776
-0.193151
-0.154952
-0.132503
-0.110926
-0.071946
-0.016626
0.034608
0.063270
0.092144
0.100164
0.104952
0.082731
0.028962
-0.041566
-0.085596
-0.130905
-0.170110
-0.208110
-0.225826
-0.238807
-0.217786
-0.196295
-0.166614
-0.124066
-0.075961
-0.017979
0.017846
0.051224
0.075913
0.086522
0.091397
0.059637
0.014064
-0.048022
-0.081529
-0.120296
-0.160574
-0.206481
-0.233848
-0.225219
-0.219667
-0.206462
-0.171283
-0.125370
-0.080131
-0.039919
0.000001
0.037702
0.058746
0.067012
0.068257
0.057688
0.015977
-0.033948
-0.072527
-0.132044
-0.178685
-0.216901
-0.228428
-0.248325
-0.237579
-0.199938
-0.164348
-0.113296
-0.078375
-0.019802
0.020086
0.052916
0.073636
0.067498
0.065360
0.050145
0.017295
-0.022806
-0.061482
-0.113077
-0.154022
-0.193088
-0.210599
-0.232923
-0.211348
-0.205134
-0.175727
-0.126031
-0.073980
-0.021789
0.018233
0.051191
0.071184
0.076836
0.073530
0.050966
0.014726
-0.034456
-0.071665
-0.129850
-0.172724
-0.205990
-0.214279
-0.216802
-0.220063
-0.177436
-0.149888
-0.091572
-0.046129
0.006006
0.030097
0.054414
0.080249
0.081505
0.074113
0.048547
0.019803
-0.024741
-0.089093
-0.137920
-0.148412
-0.190049
-0.220345
-0.204097
-0.201349
-0.192920
-0.144400
-0.105201
-0.077737
-0.038232
0.013132
0.042250
0.046761
0.069279
0.070387
0.052668
0.029419
-0.015349
-0.066613
-0.113543
-0.163620
-0.197531
-0.210656
-0.224668
-0.224324
-0.206389
-0.153346
-0.112783
-0.070927
-0.045527
0.013260
0.049020
0.071041
0.075286
0.073050
0.042596
0.001309
-0.038037
-0.082198
-0.145988
-0.200665
-0.215233
-0.240276
-0.255402
-0.227801
-0.204518
-0.172524
-0.116158
-0.072390
-0.027515
0.019691
0.059148
0.084273
0.101225
0.093323
0.066753
0.028049
-0.022436
-0.060550
-0.100690
-0.152894
-0.189049
-0.213098
-0.220206
-0.211065
-0.169408
-0.128257
-0.094048
-0.054080
-0.016491
0.038309
0.067974
0.087117
0.095632
0.084628
0.072559
0.035144
-0.014106
-0.049416
-0.088915
-0.138537
-0.174774
-0.186512
-0.202104
-0.194030
-0.180286
-0.143938
-0.104408
-0.042111
-0.000122
0.038314
0.082334
0.107053
0.120731
0.114135
0.094621
0.061426
0.011018
-0.042139
-0.077257
-0.108500
-0.143051
-0.167214
-0.198232
-0.179176
-0.152176
-0.113566
-0.075391
-0.031415
0.001450
0.038011
0.082690
0.097495
0.108442
0.109458
0.077164
0.029621
-0.012778
-0.053346
-0.112011
-0.168630
-0.193525
-0.206856
-0.206141
-0.209984
-0.181782
-0.154396
-0.108576
-0.068425
-0.024513
0.015125
0.044163
0.052959
0.063412
0.053848
0.020167
-0.000563
-0.077939
-0.120501
-0.167317
-0.204765
-0.226973
-0.253601
-0.263721
-0.254686
-0.239339
-0.207043
-0.157146
-0.108441
-0.067225
-0.029841
-0.007259
0.014036
0.020416
0.002727
-0.018191
-0.034864
-0.080691
-0.123180
-0.181267
-0.212396
-0.251630
-0.273808
-0.281008
-0.263126
-0.240062
-0.201811
-0.142812
-0.109925
-0.069329
-0.018272
0.007481
0.025833
0.033581
0.020319
0.006144
-0.027361
-0.083873
-0.135273
-0.181971
-0.215537
-0.257874
-0.267372
-0.275360
-0.271882
-0.255506
-0.216424
-0.177825
-0.110401
-0.062975
-0.025730
0.019391
0.037176
0.034690
0.009467
-0.020155
-0.046303
-0.091486
-0.135859
-0.174004
-0.220621
-0.235040
-0.262423
-0.278096
-0.256066
-0.228351
-0.219480
-0.177144
-0.133300
-0.099591
-0.051145
-0.026024
0.004295
0.016504
0.005866
-0.010333
-0.035538
-0.071075
-0.094584
-0.122489
-0.147164
-0.160401
-0.171793
-0.162427
-0.127643
-0.101839
-0.065751
0.002170
0.051650
0.119939
0.195770
0.263900
0.302709
0.337542
0.354154
0.362335
0.355517
0.337682
0.349247
0.329751
0.304908
0.319109
0.334235
0.352309
0.402118
0.472437
0.536582
0.606138
0.677882
0.732936
0.781097
0.816855
0.820419
0.815424
0.782003
0.743553
0.671346
0.570710
0.439365
0.331908
0.227752
0.141926
0.065215
0.009514
-0.012474
-0.027424
-0.017932
0.002483
0.020214
0.060103
0.102055
0.117063
0.140159
0.138007
0.115030
0.086687
0.055587
-0.000690
-0.040556
-0.080861
-0.132413
-0.163000
-0.190758
-0.201602
-0.187528
-0.170978
-0.145663
-0.088314
-0.055878
-0.017978
0.015316
0.048994
0.082435
0.091441
0.084289
0.051692
0.012076
-0.025636
-0.075975
-0.117556
-0.172975
-0.201150
-0.233296
-0.243760
-0.235632
-0.211996
-0.177327
-0.131358
-0.083377
-0.041441
-0.002937
0.019731
0.045575
0.052715
0.044392
0.029155
-0.010860
-0.037690
-0.092237
-0.138852
-0.177627
-0.202593
-0.216649
-0.226423
-0.227155
-0.210421
-0.177229
-0.121287
-0.079335
-0.034938
0.008166
0.049037
0.061778
0.068369
0.059848
0.039699
0.013787
-0.027976
-0.076125
-0.122744
-0.157955
-0.179393
-0.212423
-0.216373
-0.218975
-0.205014
-0.166465
-0.125446
-0.080985
-0.028378
0.033525
0.050281
0.086821
0.070489
0.073245
0.051654
0.019182
-0.009085
-0.056661
-0.107461
-0.140688
-0.162910
-0.191662
-0.194846
-0.189425
-0.169027
-0.131684
-0.083115
-0.036227
0.005270
0.053157
0.077759
0.098153
0.101655
0.098039
0.077170
0.041976
-0.000088
-0.033261
-0.074249
-0.112270
-0.148783
-0.161817
-0.171231
-0.159123
-0.129427
-0.093774
-0.052535
-0.005700
0.045504
0.083261
0.111377
0.141491
0.162037
0.147200
0.125099
0.090828
0.043239
-0.004788
-0.042069
-0.081091
-0.113154
-0.135018
-0.139854
-0.133184
-0.113477
-0.076665
-0.026495
0.029510
0.082881
0.123226
0.148724
0.168668
0.173663
0.174205
0.148298
0.113104
0.061088
0.017862
-0.024489
-0.081164
-0.113298
-0.145798
-0.130669
-0.114187
-0.119950
-0.088512
-0.027415
0.014585
0.063746
0.121783
0.141413
0.168231
0.172453
0.165270
0.130648
0.104147
0.057229
0.005055
-0.041759
-0.085868
-0.116606
-0.135213
-0.144089
-0.138554
-0.117297
-0.091691
-0.040488
0.012338
0.057670
0.090916
0.117293
0.139141
0.150767
0.139639
0.111912
0.079780
0.031710
-0.023454
-0.062362
-0.104284
-0.134491
-0.153065
-0.166663
-0.173284
-0.147716
-0.123796
-0.077848
-0.038027
0.006386
0.048160
0.073138
0.089427
0.092829
0.097133
0.073405
0.025241
-0.005248
-0.054655
-0.116367
-0.174887
-0.198176
-0.194983
-0.210435
-0.204006
-0.186891
-0.163578
-0.112080
-0.067647
-0.031649
0.009195
0.044583
0.063363
0.058034
0.048443
0.030383
-0.001673
-0.044456
-0.090716
-0.138292
-0.190373
-0.208574
-0.227628
-0.229542
-0.217673
-0.207019
-0.174728
-0.128520
-0.087897
-0.051079
-0.005526
0.034252
0.043255
0.047685
0.051611
0.024355
-0.010322
-0.060230
-0.100532
-0.142309
-0.190544
-0.218958
-0.241234
-0.248651
-0.254207
-0.228896
-0.184075
-0.138774
-0.083476
-0.023048
0.017915
0.034480
0.044806
0.056222
0.053496
0.030324
-0.008399
-0.050191
-0.102443
-0.150891
-0.192558
-0.214303
-0.234638
-0.255133
-0.245774
-0.213348
-0.179431
-0.139192
-0.092203
-0.036302
0.010837
0.035773
0.054299
0.068874
0.062575
0.037031
0.008014
-0.044957
-0.092912
-0.134804
-0.184644
-0.220751
-0.241372
-0.236991
-0.222184
-0.202532
-0.180970
-0.130694
-0.086116
-0.033992
0.012462
0.043586
0.059532
0.068128
0.061900
0.032405
0.004043
-0.039207
-0.094894
-0.129018
-0.164706
-0.205226
-0.215248
-0.225113
-0.209739
-0.189935
-0.163064
-0.123117
-0.073135
-0.033760
0.011792
0.044932
0.075545
0.090828
0.088616
0.061229
0.013618
-0.029845
-0.070712
-0.118171
-0.160454
-0.197459
-0.225200
-0.223706
-0.228727
-0.208449
-0.170382
-0.117646
-0.059075
-0.023070
0.008356
0.049701
0.074540
0.090545
0.096197
0.066081
0.015033
-0.062056
-0.095772
-0.118607
-0.160435
-0.192742
-0.206595
-0.218580
-0.215377
-0.190756
-0.158743
-0.114184
-0.067258
-0.022552
0.031876
0.054614
0.067253
0.078982
0.072630
0.050922
0.004508
-0.051889
-0.086509
-0.134462
-0.168357
-0.207221
-0.222529
-0.231413
-0.224926
-0.198004
-0.166471
-0.126821
-0.072579
-0.025847
0.016074
0.059742
0.077452
0.065007
0.060834
0.034454
0.005495
-0.025029
-0.078587
-0.122572
-0.145639
-0.191833
-0.204154
-0.211320
-0.203790
-0.188960
-0.157625
-0.110145
-0.059499
-0.009851
0.046514
0.083687
0.107731
0.099880
0.096775
0.079699
0.026159
-0.004421
-0.049707
-0.096546
-0.128213
-0.165428
-0.194251
-0.213190
-0.197479
-0.167674
-0.146459
-0.102277
-0.048254
0.005433
0.035306
0.073831
0.103020
0.113646
0.101528
0.077484
0.048005
0.020461
-0.048738
-0.106909
-0.139979
-0.162495
-0.175095
-0.177100
-0.169150
-0.143854
-0.112015
-0.057355
-0.011410
0.015191
0.056894
0.081824
0.105674
0.120406
0.114455
0.100766
0.069401
0.013434
-0.031618
-0.078348
-0.127569
-0.158599
-0.192898
-0.194770
-0.176564
-0.159479
-0.139583
-0.096887
-0.045032
-0.003764
0.033056
0.057190
0.090493
0.082572
0.076881
0.065069
0.018259
-0.025768
-0.079399
-0.116513
-0.172256
-0.210563
-0.248540
-0.254252
-0.239381
-0.218517
-0.196184
-0.148315
-0.093097
-0.063389
-0.018942
0.009129
0.047089
0.059382
0.044127
0.020643
-0.019287
-0.067429
-0.108451
-0.153265
-0.195377
-0.226985
-0.251400
-0.260136
-0.265441
-0.243361
-0.208857
-0.166348
-0.103444
-0.044336
-0.008063
0.010744
0.031363
0.032793
0.017420
-0.011851
-0.022883
-0.055104
-0.107007
-0.158004
-0.216738
-0.237590
-0.245994
-0.247001
-0.247828
-0.234597
-0.201365
-0.143097
-0.100040
-0.060670
-0.013230
0.014944
0.023564
0.017424
0.024130
0.009465
-0.009817
-0.058075
-0.103214
-0.148128
-0.190040
-0.223326
-0.251209
-0.258565
-0.246340
-0.220984
-0.194749
-0.148881
-0.104947
-0.055328
-0.030092
0.007304
0.026034
0.033314
0.012205
-0.018772
-0.053707
-0.100337
-0.138723
-0.189773
-0.217250
-0.237164
-0.240155
-0.249829
-0.227413
-0.194931
-0.148897
-0.091396
-0.015862
0.049063
0.111051
0.152369
0.168724
0.184487
0.200208
0.206785
0.189110
0.168929
0.142354
0.135735
0.120300
0.117230
0.135652
0.168101
0.210091
0.259022
0.324822
0.402005
0.485819
0.574697
0.636856
0.724332
0.780470
0.815476
0.845811
0.837830
0.805090
0.759237
0.708528
0.645924
0.589341
0.538188
0.494970
0.463272
0.411675
0.358150
0.310547
0.281566
0.287553
0.289364
0.282790
0.268033
0.247531
0.247051
0.219982
0.184197
0.156376
0.107121
0.037217
-0.021887
-0.082452
-0.097701
-0.126550
-0.144678
-0.148258
-0.131089
-0.094064
-0.055025
-0.009008
0.029537
0.070917
0.103727
0.116144
0.117067
0.108069
0.097043
0.053234
0.002539
-0.052053
-0.087452
-0.120447
-0.150101
-0.176976
-0.201817
-0.186222
-0.175407
-0.143196
-0.100435
-0.050273
-0.000372
0.035166
0.066156
0.075077
0.077734
0.081638
0.065354
0.024853
-0.017842
-0.078321
-0.117330
-0.160468
-0.174663
-0.194810
-0.200173
-0.209699
-0.186628
-0.146867
-0.096503
-0.043807
-0.002379
0.030985
0.070709
0.088590
0.094437
0.084449
0.063098
0.027279
-0.003974
-0.060208
-0.115734
-0.163687
-0.193166
-0.211054
-0.193792
-0.183567
-0.162189
-0.132866
-0.076777
-0.040049
0.016390
0.065880
0.094425
0.110685
0.105851
0.101153
0.083950
0.051860
0.013632
-0.032711
-0.085908
-0.119461
-0.155186
-0.165864
-0.168034
-0.167706
-0.155948
-0.121693
-0.076097
-0.004650
0.038116
0.079684
0.120137
0.138160
0.126050
0.105855
0.101985
0.075630
0.040194
-0.001610
-0.049904
-0.088020
-0.130109
-0.154511
-0.155937
-0.148864
-0.121858
-0.075702
-0.029872
0.016129
0.069059
0.110707
0.145594
0.166969
0.177133
0.166907
0.134237
0.102772
0.068601
0.010202
-0.039016
-0.071696
-0.090174
-0.101339
-0.105963
-0.115386
-0.083006
-0.041340
-0.000369
0.051418
0.094655
0.132316
0.175494
0.200310
0.212109
0.195036
0.175370
0.140436
0.092184
0.032672
-0.015079
-0.060964
-0.093821
-0.097228
-0.092940
-0.094098
-0.080813
-0.048428
0.000019
0.052507
0.104918
0.151603
0.178487
0.182375
0.187776
0.195443
0.172261
0.140924
0.104320
0.051932
0.006326
-0.042222
-0.084817
-0.097194
-0.114449
-0.118878
-0.089418
-0.058815
-0.008793
0.033250
0.076871
0.123086
0.162871
0.174894
0.179593
0.181156
0.158364
0.124920
0.064647
0.004012
-0.036308
-0.071815
-0.111976
-0.129487
-0.133066
-0.128963
-0.097333
-0.066927
-0.041429
-0.000910
0.048090
0.088461
0.130454
0.159479
0.161691
0.119910
0.104704
0.084509
0.053618
-0.004230
-0.049604
-0.097525
-0.137472
-0.163385
-0.173607
-0.176696
-0.151789
-0.112317
-0.072336
-0.032139
0.023706
0.060125
0.090184
0.101029
0.119055
0.102141
0.072497
0.042837
-0.001877
-0.053110
-0.098557
-0.137247
-0.167462
-0.190030
-0.203680
-0.199601
-0.178095
-0.138395
-0.104380
-0.033690
0.007895
0.046884
0.072165
0.088646
0.102231
0.088429
0.070820
0.050982
0.006550
-0.052248
-0.100234
-0.137648
-0.163229
-0.190845
-0.209317
-0.204436
-0.176999
-0.140010
-0.099106
-0.049969
-0.000390
0.036371
0.065616
0.083058
0.082237
0.066939
0.062543
0.045749
-0.006131
-0.048842
-0.094701
-0.135158
-0.174896
-0.200917
-0.206581
-0.205194
-0.172597
-0.145119
-0.090076
-0.036892
0.007084
0.039273
0.076963
0.089093
0.105650
0.096810
0.077057
0.043894
-0.008372
-0.059684
-0.107333
-0.144068
-0.169764
-0.184263
-0.193548
-0.194526
-0.162687
-0.128996
-0.088392
-0.033849
0.010398
0.054692
0.088759
0.106579
0.103906
0.094437
0.069105
0.028694
-0.009782
-0.057055
-0.089574
-0.117026
-0.165765
-0.181400
-0.186493
-0.177144
-0.155932
-0.116827
-0.083439
-0.038591
0.014962
0.044490
0.085916
0.101617
0.096146
0.097918
0.073180
0.048940
0.004858
-0.047156
-0.100459
-0.153054
-0.171232
-0.187567
-0.193551
-0.179779
-0.148777
-0.132322
-0.087703
-0.032864
0.021742
0.060507
0.101084
0.114336
0.128894
0.106079
0.083809
0.050993
-0.003029
-0.049092
-0.078167
-0.118820
-0.158418
-0.179203
-0.180730
-0.173932
-0.164769
-0.123834
-0.081364
-0.037490
0.011036
0.053519
0.088271
0.105429
0.120721
0.108906
0.081377
0.046339
0.007063
-0.039161
-0.076416
-0.118117
-0.157552
-0.173615
-0.192244
-0.183849
-0.173635
-0.141736
-0.092391
-0.040832
0.015495
0.040136
0.083263
0.109576
0.115942
0.090186
0.057574
0.032873
-0.007798
-0.052445
-0.094946
-0.142707
-0.165171
-0.179096
-0.188776
-0.185758
-0.163193
-0.137076
-0.099238
-0.042390
0.012770
0.044373
0.075501
0.080747
0.097270
0.073046
0.062568
0.027145
-0.011285
-0.048912
-0.092377
-0.165061
-0.184457
-0.190450
-0.209863
-0.205910
-0.168092
-0.138450
-0.102094
-0.047178
0.016368
0.074581
0.114678
0.117929
0.110769
0.100557
0.085801
0.050434
0.006739
-0.029012
-0.064629
-0.111978
-0.145242
-0.159008
-0.155972
-0.136877
-0.138120
-0.114426
-0.081369
-0.027324
0.033695
0.076439
0.115218
0.123794
0.138100
0.136069
0.101248
0.061985
0.015638
-0.031984
-0.084236
-0.118502
-0.153760
-0.164343
-0.164793
-0.154384
-0.139138
-0.102772
-0.056086
0.001289
0.061628
0.098303
0.132372
0.150702
0.149330
0.141516
0.125756
0.091245
0.041851
-0.002327
-0.053552
-0.091868
-0.129832
-0.145518
-0.148619
-0.148159
-0.120922
-0.094493
-0.048605
-0.005004
0.052449
0.078183
0.111659
0.130291
0.140875
0.128450
0.100858
0.053547
0.006072
-0.050843
-0.115269
-0.152560
-0.166015
-0.176757
-0.195749
-0.192528
-0.179047
-0.144517
-0.107412
-0.061515
-0.017188
0.023398
0.064034
0.076434
0.087514
0.076803
0.053805
0.017489
-0.028841
-0.063617
-0.114770
-0.162412
-0.204650
-0.219482
-0.223814
-0.219522
-0.192658
-0.164900
-0.130951
-0.081231
-0.028917
0.021090
0.050342
0.065898
0.067177
0.051563
0.032703
0.003660
-0.048750
-0.091374
-0.147896
-0.184226
-0.198400
-0.235805
-0.247101
-0.225889
-0.204913
-0.180537
-0.146512
-0.091230
-0.038144
0.003416
0.033915
0.052591
0.068289
0.060272
0.042724
0.005460
-0.038253
-0.070696
-0.132242
-0.171792
-0.194905
-0.242997
-0.261679
-0.254446
-0.219900
-0.177383
-0.126990
-0.094003
-0.048370
-0.006718
0.030622
0.055929
0.061795
0.045356
0.023273
-0.010383
-0.058319
-0.097550
-0.138542
-0.177356
-0.220809
-0.234620
-0.246657
-0.243606
-0.227014
-0.200322
-0.147133
-0.100872
-0.031479
0.005410
0.032164
0.063104
0.088015
0.082244
0.070041
0.041208
0.022273
0.001162
-0.048521
-0.067966
-0.089501
-0.089566
-0.095490
-0.066285
-0.016553
0.030179
0.096294
0.169866
0.259674
0.325699
0.392730
0.462078
0.501550
0.518184
0.539712
0.533416
0.515226
0.502665
0.493030
0.498384
0.518794
0.523791
0.533833
0.568951
0.626865
0.660682
0.684657
0.740890
0.783519
0.794888
0.797412
0.794141
0.776980
0.694803
0.578297
0.488927
0.378383
0.281053
0.186423
0.098247
0.022990
-0.034944
-0.053245
-0.061209
-0.045026
-0.007354
0.021937
0.066508
0.106774
0.127020
0.164792
0.183854
0.175767
0.180656
0.168630
0.120077
0.066188
0.014454
-0.050777
-0.101326
-0.135833
-0.149550
-0.168177
-0.168243
-0.143677
-0.107983
-0.063315
-0.018063
0.021991
0.042915
0.075591
0.103888
0.128596
0.104570
0.080212
0.041867
0.002179
-0.038834
-0.076355
-0.121197
-0.162761
-0.188883
-0.196668
-0.190845
-0.158246
-0.131295
-0.084607
-0.038177
0.022070
0.055411
0.089472
0.106660
0.117735
0.109264
0.085691
0.045340
0.007008
-0.044484
-0.092639
-0.141553
-0.169092
-0.184781
-0.187881
-0.189723
-0.169191
-0.133125
-0.096484
-0.033242
0.020127
0.057629
0.091066
0.113405
0.119977
0.110071
0.093610
0.059474
0.011550
-0.025063
-0.080681
-0.118840
-0.149504
-0.167677
-0.170279
-0.158195
-0.141953
-0.108672
-0.064050
-0.019206
0.038202
0.082167
0.114705
0.138147
0.145770
0.138037
0.118580
0.085963
0.041711
-0.005084
-0.060703
-0.089460
-0.134754
-0.149737
-0.150129
-0.142301
-0.118018
-0.081954
-0.028050
0.011589
0.067763
0.115649
0.149912
0.171400
0.177600
0.171782
0.149891
0.111413
0.071238
0.024386
-0.021433
-0.060597
-0.091437
-0.117381
-0.115204
-0.092043
-0.064900
-0.037276
0.005428
0.045616
0.094694
0.156159
0.193582
0.205292
0.221028
0.200207
0.169266
0.136482
0.097790
0.050855
-0.003319
-0.028054
-0.044158
-0.081049
-0.083733
-0.079896
-0.044008
-0.004746
0.030151
0.064263
0.092458
0.145545
0.192993
0.224361
0.226368
0.211721
0.200368
0.177955
0.125450
0.086002
0.028219
-0.019179
-0.050619
-0.072975
-0.069750
-0.065876
-0.050303
-0.019899
0.019007
0.068846
0.116636
0.145031
0.184637
0.216497
0.223360
0.200459
0.174066
0.129479
0.101700
0.064451
0.022654
-0.033034
-0.062355
-0.087638
-0.092603
-0.085263
-0.072905
-0.040123
0.001768
0.049128
0.090395
0.124757
0.164041
0.186560
0.191327
0.191821
0.161397
0.132954
0.083876
0.030113
-0.021955
-0.065586
-0.106615
-0.120984
-0.128075
-0.118110
-0.097544
-0.079366
-0.035109
0.003129
0.056129
0.093434
0.118354
0.148751
0.155888
0.139490
0.115290
0.077426
0.025075
-0.021219
-0.058448
-0.110211
-0.153353
-0.164770
-0.171431
-0.167389
-0.147143
-0.106466
-0.068772
-0.023856
0.019994
0.058884
0.089416
0.121896
0.126948
0.110936
0.084846
0.043421
-0.003951
-0.039598
-0.092099
-0.146531
-0.178225
-0.187381
-0.199116
-0.198407
-0.174436
-0.131273
-0.087521
-0.040014
0.007747
0.053183
0.075448
0.101324
0.111081
0.102057
0.080876
0.047283
0.002066
-0.054262
-0.092010
-0.147868
-0.183459
-0.203167
-0.210112
-0.195505
-0.169805
-0.140804
-0.102887
-0.051756
0.007136
0.032589
0.071556
0.106126
0.111107
0.106721
0.087655
0.046167
0.006234
-0.031794
-0.082965
-0.128228
-0.163171
-0.177771
-0.189975
-0.180098
-0.173946
-0.130659
-0.099275
-0.055190
0.007177
0.050833
0.079871
0.102326
0.099022
0.098031
0.088819
0.061213
0.025533
-0.029102
-0.084043
-0.122221
-0.153657
-0.176892
-0.180310
-0.177144
-0.155195
-0.124452
-0.077615
-0.037240
0.008644
0.061267
0.091328
0.102575
0.103607
0.103923
0.084502
0.038800
0.021553
-0.029005
-0.077599
-0.130720
-0.166051
-0.180902
-0.181073
-0.178504
-0.143013
-0.113491
-0.065908
-0.020798
0.027156
0.065894
0.109095
0.129421
0.121934
0.113708
0.095296
0.051279
0.009394
-0.041632
-0.095608
-0.134497
-0.158036
-0.171325
-0.163678
-0.158996
-0.146386
-0.117264
-0.070932
-0.040889
0.034146
0.079787
0.105521
0.118594
0.115083
0.104787
0.084837
0.054931
0.004674
-0.049117
-0.083705
-0.123936
-0.164900
-0.174630
-0.180470
-0.175719
-0.150699
-0.119875
-0.069115
-0.035256
0.012301
0.061158
0.095021
0.112557
0.120565
0.109396
0.080492
0.053373
0.006167
-0.046163
-0.099018
-0.127813
-0.162754
-0.183538
-0.188732
-0.187718
-0.158869
-0.134568
-0.090043
-0.058870
-0.007825
0.053840
0.095486
0.104953
0.116693
0.100293
0.078158
0.046651
-0.009856
-0.052347
-0.104354
-0.149219
-0.176766
-0.194470
-0.204765
-0.186681
-0.160752
-0.120686
-0.080027
-0.033750
0.013361
0.043078
0.072305
0.083925
0.081147
0.097463
0.075212
0.034870
0.002679
-0.039991
-0.095324
-0.143112
-0.175226
-0.192970
-0.198491
-0.184422
-0.166693
-0.140977
-0.099150
-0.040442
0.007267
0.046007
0.083168
0.095918
0.100523
0.087879
0.065739
0.047060
0.000057
-0.044914
-0.096417
-0.143398
-0.183594
-0.192922
-0.199080
-0.189075
-0.170586
-0.135288
-0.085538
-0.034542
0.010251
0.052680
0.089974
0.115088
0.116282
0.108332
0.090359
0.059201
0.012098
-0.042522
-0.078593
-0.112530
-0.145384
-0.162942
-0.170604
-0.168383
-0.158518
-0.134252
-0.092167
-0.036872
0.026179
0.076716
0.119513
0.137813
0.151398
0.133824
0.107525
0.075944
0.029171
-0.011787
-0.059851
-0.106288
-0.141726
-0.170502
-0.175013
-0.158036
-0.135811
-0.098175
-0.049166
-0.008051
0.051077
0.097720
0.122246
0.151055
0.155783
0.146582
0.134574
0.097880
0.061398
0.002184
-0.040855
-0.093947
-0.113711
-0.133555
-0.145171
-0.146623
-0.128285
-0.096296
-0.057180
-0.010631
0.041972
0.079929
0.116826
0.133872
0.131489
0.112295
0.085895
0.053742
0.008693
-0.038977
-0.078912
-0.127065
-0.168445
-0.206956
-0.201984
-0.187850
-0.165054
-0.123365
-0.078235
-0.048444
-0.007458
0.044080
0.069872
0.089996
0.091923
0.069995
0.038340
0.022637
-0.009804
-0.059045
-0.111863
-0.156749
-0.199300
-0.214930
-0.215637
-0.209301
-0.201193
-0.167741
-0.132276
-0.082316
-0.033039
0.018232
0.048192
0.065630
0.074334
0.070925
0.049887
0.019316
-0.024656
-0.069565
-0.122390
-0.173040
-0.197149
-0.201735
-0.216230
-0.214897
-0.193367
-0.157273
-0.121764
-0.081644
-0.028006
0.018426
0.040582
0.062156
0.068376
0.072177
0.046265
0.015523
-0.033764
-0.086905
-0.118902
-0.167137
-0.194503
-0.220085
-0.228095
-0.222846
-0.190313
-0.157181
-0.119145
-0.079184
-0.016514
0.014099
0.041475
0.069670
0.081899
0.068971
0.040001
0.005604
-0.030991
-0.080274
-0.122860
-0.164625
-0.197119
-0.230442
-0.238090
-0.229214
-0.215196
-0.173288
-0.132945
-0.092488
-0.033345
0.015312
0.034109
0.058227
0.083147
0.088487
0.067528
0.039365
0.008008
-0.038477
-0.072040
-0.101482
-0.125317
-0.129892
-0.113510
-0.091932
-0.064446
-0.014212
0.050074
0.125084
0.186893
0.261524
0.310267
0.360527
0.416339
0.451068
0.471316
0.472214
0.461864
0.437347
0.428888
0.406196
0.414605
0.445063
0.477814
0.526326
0.581467
0.644780
0.702816
0.750513
0.781422
0.829431
0.853304
0.857032
0.848356
0.815991
0.757654
0.649117
0.530876
0.415458
0.315532
0.232907
0.152393
0.070061
0.011902
-0.010205
-0.012313
0.022108
0.068511
0.108514
0.138410
0.174237
0.204230
0.221486
0.214174
0.201917
0.168850
0.122938
0.075359
0.028048
-0.024077
-0.069312
-0.109371
-0.136438
-0.148454
-0.140839
-0.117485
-0.087836
-0.053878
-0.014114
0.033935
0.079165
0.105191
0.122438
0.120646
0.120124
0.103532
0.068750
0.028781
-0.015562
-0.061690
-0.114167
-0.145316
-0.178499
-0.197259
-0.176764
-0.153703
-0.126992
-0.088198
-0.035866
0.013501
0.060324
0.090905
0.113521
0.117545
0.107985
0.090119
0.051499
0.018433
-0.032457
-0.068741
-0.120855
-0.159501
-0.194217
-0.202975
-0.184615
-0.147455
-0.113285
-0.069074
-0.022610
0.034196
0.084820
0.115131
0.127427
0.132686
0.128521
0.100095
0.065425
0.040250
-0.005953
-0.057409
-0.097660
-0.126798
-0.156463
-0.164845
-0.163201
-0.132368
-0.097399
-0.043145
0.002061
0.047141
0.093043
0.130234
0.156205
0.145653
0.151205
0.126730
0.098320
0.055074
-0.006759
-0.054495
-0.096608
-0.124477
-0.125720
-0.131977
-0.120921
-0.097607
-0.065380
-0.025594
0.024760
0.066047
0.117029
0.140098
0.169053
0.183044
0.152291
0.143780
0.124256
0.088965
0.047265
0.005933
-0.050733
-0.077245
-0.099827
-0.117093
-0.099118
-0.074421
-0.049054
-0.010289
0.048269
0.106952
0.164950
0.193461
0.208269
0.218383
0.205892
0.183890
0.156106
0.123794
0.091722
0.038114
-0.003468
-0.038408
-0.059974
-0.067916
-0.060946
-0.040717
-0.003265
0.038459
0.089686
0.142980
0.185135
0.217999
0.227715
0.239445
0.243938
0.212318
0.177571
0.136505
0.093156
0.043535
-0.004913
-0.044934
-0.061367
-0.074083
-0.050858
-0.024301
0.008753
0.045854
0.095164
0.134975
0.178704
0.209146
0.242608
0.245521
0.233248
0.205689
0.175537
0.142568
0.088093
0.038442
-0.005670
-0.030741
-0.067013
-0.079081
-0.065780
-0.042845
-0.013180
0.032522
0.071968
0.109820
0.172937
0.203856
0.199368
0.222358
0.213819
0.190539
0.150665
0.113578
0.061491
0.013070
-0.042582
-0.077131
-0.110118
-0.122276
-0.118039
-0.086228
-0.054227
-0.023446
0.037955
0.079460
0.125556
0.153557
0.171392
0.169471
0.161851
0.137240
0.109592
0.064329
0.011413
-0.045382
-0.094574
-0.116489
-0.146693
-0.141823
-0.124203
-0.113505
-0.089514
-0.052699
-0.005350
0.026462
0.091039
0.118611
0.133856
0.140465
0.117135
0.106566
0.086442
0.044426
-0.004823
-0.057003
-0.105631
-0.140017
-0.167170
-0.178327
-0.176632
-0.150349
-0.116639
-0.080760
-0.023764
0.017310
0.063120
0.089190
0.113820
0.124830
0.112874
0.098291
0.056977
0.011989
-0.031808
-0.079808
-0.113628
-0.150877
-0.178804
-0.184668
-0.169205
-0.144910
-0.122777
-0.080401
-0.026541
0.007723
0.061900
0.091187
0.102772
0.115714
0.104360
0.093121
0.057375
0.018239
-0.030622
-0.080673
-0.124457
-0.153869
-0.183897
-0.185697
-0.168610
-0.136230
-0.104809
-0.064889
-0.037644
-0.001153
0.061974
0.100169
0.131313
0.125262
0.109387
0.085343
0.057587
0.016328
-0.021230
-0.076157
-0.113939
-0.146100
-0.164889
-0.173392
-0.159226
-0.143900
-0.118683
-0.079302
-0.018041
0.030447
0.085847
0.113593
0.125040
0.127413
0.112957
0.105645
0.080642
0.037737
-0.006117
-0.059190
-0.104320
-0.137274
-0.165142
-0.186742
-0.179361
-0.155419
-0.110912
-0.056337
-0.012144
0.036135
0.072382
0.099572
0.107032
0.117999
0.117282
0.108247
0.078788
0.042462
-0.016568
-0.070952
-0.116200
-0.147586
-0.163163
-0.166033
-0.150539
-0.134101
-0.101998
-0.048448
-0.017973
0.031360
0.082662
0.112332
0.139582
0.148191
0.125491
0.087885
0.043897
0.017433
-0.014721
-0.056199
-0.107868
-0.161404
-0.187824
-0.203377
-0.185590
-0.143675
-0.105191
-0.062895
-0.014086
0.029410
0.072442
0.117420
0.125285
0.133076
0.126507
0.106465
0.064522
0.020651
-0.033080
-0.071337
-0.118048
-0.154398
-0.170423
-0.189971
-0.176522
-0.148947
-0.116122
-0.065628
-0.021072
0.022858
0.060763
0.097236
0.120959
0.116670
0.109204
0.086211
0.063148
0.011259
-0.034174
-0.073857
-0.113770
-0.144563
-0.179474
-0.189642
-0.183376
-0.168048
-0.126793
-0.077896
-0.033469
0.018210
0.061545
0.097470
0.123536
0.119718
0.087827
0.081354
0.071244
0.026228
-0.034564
-0.087273
-0.138498
-0.165469
-0.191758
-0.194789
-0.177857
-0.163264
-0.134111
-0.090627
-0.054290
-0.004380
0.045539
0.083348
0.112476
0.117550
0.092673
0.074756
0.043043
0.000869
-0.050676
-0.101166
-0.141545
-0.169781
-0.190106
-0.202143
-0.186697
-0.172138
-0.138012
-0.102514
-0.056487
0.000930
0.051206
0.077325
0.104148
0.129696
0.124269
0.097623
0.053097
-0.000677
-0.041047
-0.093222
-0.140573
-0.172151
-0.185274
-0.192162
-0.187544
-0.164700
-0.141222
-0.109705
-0.056991
0.000197
0.043875
0.081855
0.099811
0.105697
0.088135
0.071718
0.042902
0.014292
-0.026321
-0.075817
-0.124793
-0.159974
-0.174761
-0.181671
-0.180346
-0.152438
-0.116522
-0.081164
-0.030168
0.029461
0.065807
0.096622
0.121126
0.128864
0.124811
0.109228
0.077539
0.038257
-0.009831
-0.068346
-0.110642
-0.141460
-0.182952
-0.168280
-0.174638
-0.146444
-0.107161
-0.074853
-0.016267
0.031581
0.078592
0.101287
0.123229
0.130515
0.130581
0.104181
0.069718
0.025988
-0.005126
-0.047079
-0.086800
-0.127095
-0.143742
-0.137956
-0.132976
-0.114103
-0.067120
-0.018601
0.015051
0.068946
0.107169
0.152243
0.149948
0.147565
0.140335
0.115025
0.064701
0.050139
-0.010878
-0.058329
-0.111188
-0.159773
-0.184120
-0.192506
-0.191679
-0.169668
-0.127597
-0.072016
-0.031872
0.022488
0.062254
0.083276
0.104863
0.113248
0.103907
0.059395
0.023034
-0.003186
-0.053013
-0.100967
-0.146140
-0.175658
-0.198535
-0.197900
-0.208078
-0.190775
-0.151668
-0.111278
-0.061863
-0.012693
0.022215
0.051159
0.075394
0.082987
0.070421
0.053009
0.026549
-0.023939
-0.077631
-0.129935
-0.175970
-0.201231
-0.230438
-0.251296
-0.226855
-0.200866
-0.176212
-0.141045
-0.090758
-0.036703
0.011228
0.045538
0.067719
0.074938
0.066120
0.045623
0.006957
-0.042278
-0.078105
-0.117135
-0.163613
-0.203069
-0.222414
-0.237090
-0.228118
-0.200361
-0.167116
-0.139092
-0.096218
-0.043462
-0.007871
0.024502
0.055492
0.065318
0.061054
0.034245
0.000015
-0.050245
-0.086642
-0.124883
-0.168599
-0.209942
-0.228452
-0.229234
-0.215700
-0.209666
-0.179011
-0.138601
-0.094178
-0.048312
0.008226
0.043868
0.058938
0.057547
0.059502
0.019530
-0.002094
-0.038585
-0.092993
-0.144669
-0.185858
-0.204770
-0.217913
-0.242478
-0.218026
-0.186797
-0.126766
-0.079637
-0.019483
0.044162
0.112564
0.162208
0.196615
0.219998
0.209779
0.194173
0.179483
0.164702
0.145498
0.116271
0.085058
0.095493
0.095993
0.116632
0.170326
0.223525
0.293176
0.372911
0.443502
0.515647
0.588911
0.677772
0.736881
0.772160
0.799539
0.804652
0.785395
0.754738
0.688920
0.651693
0.592005
0.544713
0.501631
0.462563
0.434481
0.384164
0.350182
0.325648
0.309540
0.324523
0.321104
0.307167
0.282463
0.261266
0.228452
0.187822
0.136862
0.086130
0.046207
-0.015351
-0.063634
-0.111311
-0.133482
-0.148609
-0.134494
-0.110320
-0.085915
-0.051704
-0.007479
0.033896
0.091080
0.117533
0.144882
0.136601
0.139601
0.109786
0.082296
0.033131
-0.028924
-0.071372
-0.108469
-0.148864
-0.172010
-0.178103
-0.178346
-0.159024
-0.131202
-0.092147
-0.034435
0.012460
0.058704
0.090852
0.108499
0.123016
0.109509
0.084397
0.051641
0.017280
-0.027171
-0.085177
-0.139568
-0.173993
-0.193025
-0.192389
-0.184193
-0.163458
-0.126693
-0.085369
-0.037675
0.014338
0.055758
0.095850
0.113074
0.125778
0.114743
0.092099
0.046419
0.006704
-0.036147
-0.084690
-0.119902
-0.154735
-0.174320
-0.186928
-0.173677
-0.151628
-0.113251
-0.075378
-0.031889
0.025072
0.059763
0.102362
0.127131
0.142317
0.125833
0.100767
0.071415
0.033053
-0.021006
-0.057016
-0.098165
-0.142004
-0.158945
-0.182972
-0.162356
-0.128301
-0.085958
-0.056020
-0.013368
0.044770
0.097036
0.134112
0.171962
0.182150
0.158748
0.133711
0.097786
0.056812
0.014605
-0.037792
-0.074530
-0.101623
-0.122123
-0.132700
-0.139167
-0.113160
-0.075244
-0.021811
0.022977
0.080168
0.119168
0.168246
0.191502
0.194005
0.194327
0.184482
0.142631
0.094643
0.043588
0.011921
-0.034576
-0.073845
-0.090263
-0.096439
-0.080111
-0.061075
-0.026041
0.011588
0.060389
0.128799
0.168647
0.216171
0.234196
0.240489
0.223489
0.197005
0.153436
0.118306
0.085009
0.041732
-0.002708
-0.041242
-0.066984
-0.084225
-0.070432
-0.036377
0.004180
0.038198
0.083171
0.130716
0.176793
0.215890
0.234938
0.238597
0.234728
0.202329
0.155438
0.118968
0.089235
0.035804
-0.000834
-0.053557
-0.059314
-0.055758
-0.055414
-0.038939
-0.016284
0.020728
0.075656
0.128754
0.168238
0.203114
0.221660
0.221138
0.211328
0.190390
0.157470
0.122385
0.069015
0.020095
-0.032494
-0.067892
-0.085735
-0.106179
-0.095204
-0.062540
-0.040117
-0.003753
0.054746
0.095335
0.128566
0.177721
0.194183
0.189027
0.177833
0.148970
0.115130
0.081852
0.036156
-0.012616
-0.066062
-0.115959
-0.145614
-0.146649
-0.139044
-0.108829
-0.078534
-0.044771
-0.003237
0.050060
0.089263
0.131851
0.149102
0.160051
0.137408
0.111238
0.076038
0.033669
-0.016869
-0.070617
-0.109792
-0.139637
-0.161539
-0.172768
-0.166880
-0.143641
-0.102067
-0.063124
-0.023821
0.012638
0.046935
0.101219
0.119865
0.125902
0.122850
0.083213
0.044868
0.001472
-0.034140
-0.069085
-0.119730
-0.165921
-0.178619
-0.189766
-0.185357
-0.185288
-0.163607
-0.101002
-0.037719
0.027078
0.061017
0.093639
0.113023
0.124708
0.110305
0.083526
0.045210
0.003044
-0.044041
-0.091446
-0.142557
-0.181318
-0.194619
-0.194678
-0.182326
-0.157538
-0.126975
-0.079482
-0.028808
0.012281
0.043760
0.088092
0.105315
0.107249
0.111216
0.099463
0.070771
0.020844
-0.024727
-0.075773
-0.123899
-0.156181
-0.174476
-0.179479
-0.173171
-0.147659
-0.117875
-0.081931
-0.037458
0.010045
0.057303
0.102453
0.125016
0.118671
0.112664
0.098120
0.054756
0.021046
-0.031548
-0.075713
-0.114681
-0.158201
-0.174839
-0.178612
-0.164157
-0.133039
-0.100704
-0.070443
-0.023661
0.023881
0.062068
0.104390
0.137628
0.141107
0.130205
0.102276
0.059874
0.020585
-0.023417
-0.074614
-0.124046
-0.158006
-0.171041
-0.181533
-0.166367
-0.143221
-0.109493
-0.069893
-0.036913
0.024370
0.079866
0.108786
0.126585
0.132421
0.133056
0.103636
0.062763
0.017139
-0.018146
-0.063894
-0.112673
-0.153648
-0.158721
-0.171610
-0.185029
-0.154886
-0.106042
-0.065065
-0.034943
0.002198
0.043201
0.098900
0.134732
0.142927
0.142314
0.118802
0.076908
0.023672
-0.034147
-0.076757
-0.110112
-0.152034
-0.168306
-0.185810
-0.179681
-0.154439
-0.119403
-0.083637
-0.036797
0.007998
0.049438
0.096733
0.135384
0.129534
0.117314
0.097043
0.061703
0.028649
-0.026273
-0.083618
-0.121402
-0.154855
-0.173409
-0.182482
-0.179425
-0.156868
-0.125064
-0.079878
-0.033946
0.014544
0.059425
0.096647
0.108268
0.128901
0.120503
0.084536
0.055770
0.009076
-0.021851
-0.075205
-0.124147
-0.156822
-0.165798
-0.179872
-0.188330
-0.160791
-0.134758
-0.090892
-0.033006
0.010015
0.048323
0.088767
0.098583
0.109657
0.100463
0.065152
0.056564
0.010899
-0.034703
-0.086487
-0.132722
-0.161119
-0.173449
-0.190365
-0.191718
-0.153841
-0.115385
-0.097599
-0.038652
0.004925
0.040704
0.063811
0.094273
0.117662
0.108938
0.071780
0.040924
0.004631
-0.040525
-0.088614
-0.134123
-0.185116
-0.200591
-0.194294
-0.181259
-0.148023
-0.136071
-0.084666
-0.045147
0.003783
0.040841
0.084329
0.095585
0.109614
0.103198
0.086212
0.052334
-0.001115
-0.049745
-0.087151
-0.136335
-0.172564
-0.192982
-0.196046
-0.186431
-0.158121
-0.116731
-0.066116
-0.031425
0.019754
0.060262
0.084267
0.104844
0.140370
0.124331
0.086922
0.068117
0.005976
-0.041912
-0.077553
-0.121091
-0.151473
-0.172080
-0.167754
-0.152571
-0.129352
-0.098575
-0.056297
-0.005674
0.046976
0.086337
0.131004
0.144206
0.150862
0.147085
0.117402
0.086497
0.050877
-0.005086
-0.056443
-0.104309
-0.143446
-0.158544
-0.167757
-0.173305
-0.148968
-0.097464
-0.049999
-0.010535
0.049231
0.088338
0.125384
0.150996
0.163284
0.159187
0.148491
0.116790
0.060539
0.005637
-0.027098
-0.067199
-0.096346
-0.133801
-0.139424
-0.121458
-0.105770
-0.088359
-0.034676
0.004966
0.048041
0.094353
0.125040
0.139233
0.139261
0.130972
0.104673
0.079373
0.029458
-0.014969
-0.061006
-0.105113
-0.147429
-0.174269
-0.185947
-0.197189
-0.165265
-0.131954
-0.084549
-0.022691
0.025356
0.060664
0.094426
0.111667
0.119568
0.112618
0.089807
0.059650
0.001931
-0.044368
-0.086670
-0.130068
-0.183478
-0.201245
-0.212827
-0.212248
-0.174789
-0.144862
-0.118258
-0.063029
-0.015552
0.017514
0.055669
0.087592
0.094688
0.074651
0.056171
0.020135
-0.026445
-0.063688
-0.110454
-0.153892
-0.172705
-0.207677
-0.210451
-0.209327
-0.194484
-0.159203
-0.106114
-0.052466
-0.019941
0.030108
0.058279
0.083640
0.082885
0.088514
0.058477
0.017159
-0.028047
-0.068219
-0.111413
-0.156864
-0.202470
-0.220772
-0.227681
-0.212765
-0.187387
-0.146549
-0.103838
-0.066120
-0.033169
0.011493
0.048514
0.073217
0.079959
0.086072
0.055618
0.027708
-0.019236
-0.069960
-0.121317
-0.151901
-0.192879
-0.205587
-0.212125
-0.207033
-0.193232
-0.155643
-0.111160
-0.066614
-0.028565
0.008968
0.053732
0.071125
0.056795
0.059561
0.050889
0.022230
-0.022284
-0.068275
-0.104654
-0.116163
-0.150050
-0.163537
-0.148932
-0.125915
-0.090777
-0.041586
0.019800
0.064223
0.118131
0.191841
0.253853
0.302040
0.328884
0.350232
0.363617
0.375962
0.363239
0.365181
0.346947
0.345420
0.363091
0.371217
0.380932
0.422372
0.503444
0.585907
0.653010
0.732082
0.805995
0.880289
0.928790
0.931515
0.942332
0.940534
0.885069
0.827408
0.762012
0.673433
0.594081
0.487841
0.389462
0.297637
0.225565
0.174507
0.147202
0.116762
0.128291
0.150504
0.189874
0.233734
0.261254
0.282538
0.265490
0.244452
0.214676
0.174270
0.121289
0.065241
0.014788
-0.032808
-0.088878
-0.118269
-0.119275
-0.118585
-0.101281
-0.070503
-0.015812
0.026325
0.055051
0.097151
0.122256
0.150503
0.161387
0.154882
0.133640
0.095105
0.030182
-0.016740
-0.059339
-0.103838
-0.139110
-0.159242
-0.179238
-0.170001
-0.140742
-0.100835
-0.040007
-0.006086
0.023889
0.070466
0.108747
0.143274
0.145285
0.134588
0.115669
0.083164
0.039640
-0.004647
-0.055434
-0.098070
-0.132534
-0.164900
-0.177632
-0.166111
-0.145029
-0.111726
-0.078105
-0.042286
0.007025
0.075270
0.123557
0.148582
0.157638
0.146890
0.124302
0.079227
0.042241
-0.001205
-0.056411
-0.092526
-0.132779
-0.151414
-0.157012
-0.146735
-0.124344
-0.088479
-0.050189
-0.002623
0.038597
0.094733
0.134343
0.169325
0.169944
0.164018
0.137466
0.108966
0.053298
0.018438
-0.028356
-0.058964
-0.099728
-0.133173
-0.138170
-0.126682
-0.101369
-0.062740
-0.018992
0.020043
0.064579
0.110415
0.142825
0.168744
0.193495
0.203087
0.177185
0.135742
0.082163
0.041203
0.003154
-0.042789
-0.062316
-0.081273
-0.098220
-0.090043
-0.062507
-0.030179
0.009818
0.060984
0.105326
0.143774
0.192379
0.245273
0.248740
0.231864
0.199822
0.169307
0.121158
0.081195
0.043183
0.007988
-0.030051
-0.053940
-0.064384
-0.047299
-0.025627
0.009142
0.056677
0.095126
0.136891
0.196030
0.224150
0.247609
0.249063
0.249160
0.222948
0.188345
0.144562
0.108413
0.059389
0.017135
-0.007996
-0.032149
-0.040449
-0.038394
-0.022959
0.021039
0.049314
0.094077
0.151551
0.202362
0.221925
0.247395
0.261945
0.255438
0.226661
0.186495
0.156419
0.106034
0.051819
0.001162
-0.031060
-0.065076
-0.076897
-0.062675
-0.041668
0.000672
0.061601
0.094997
0.134443
0.176659
0.218940
0.240709
0.247302
0.240492
0.211335
0.171543
0.123188
0.075601
0.026464
-0.017720
-0.052642
-0.077338
-0.087129
-0.083868
-0.077188
-0.041197
0.008579
0.052859
0.093561
0.137910
0.166301
0.201163
0.203765
0.193398
0.169874
0.128018
0.077429
0.021728
-0.027794
-0.073190
-0.087516
-0.116206
-0.125923
-0.122892
-0.107716
-0.068468
-0.034595
0.014239
0.066552
0.108143
0.139175
0.151260
0.155891
0.149401
0.120611
0.079636
0.041388
-0.003769
-0.057861
-0.112993
-0.141540
-0.154341
-0.155556
-0.153402
-0.139194
-0.115721
-0.072796
-0.027746
0.029144
0.072228
0.105739
0.146115
0.148890
0.138309
0.119279
0.078526
0.032869
-0.017189
-0.067004
-0.108609
-0.143917
-0.172099
-0.180909
-0.168340
-0.143440
-0.105094
-0.061089
-0.023629
0.017244
0.067808
0.100273
0.118289
0.108160
0.120023
0.109217
0.070868
0.027499
-0.014613
-0.055000
-0.095008
-0.132909
-0.164136
-0.176708
-0.174900
-0.142390
-0.104612
-0.061893
-0.025653
0.020888
0.071746
0.096671
0.128737
0.134928
0.136710
0.115619
0.086461
0.036735
-0.011471
-0.068008
-0.111724
-0.136528
-0.163998
-0.162033
-0.152926
-0.133323
-0.108121
-0.070888
-0.016930
0.025749
0.064498
0.099884
0.135033
0.153849
0.131890
0.115287
0.087319
0.043247
0.001256
-0.050457
-0.095689
-0.127960
-0.159286
-0.154293
-0.148087
-0.121224
-0.087414
-0.049076
0.002681
0.052023
0.082866
0.116161
0.150088
0.145902
0.140515
0.119077
0.090131
0.044025
-0.006562
-0.047474
-0.093711
-0.129203
-0.148414
-0.160554
-0.154143
-0.126698
-0.087514
-0.041433
0.011947
0.058335
0.105467
0.130697
0.150427
0.155380
0.148825
0.130202
0.099255
0.035759
-0.008489
-0.044353
-0.093052
-0.124643
-0.155852
-0.171586
-0.158363
-0.134709
-0.101104
-0.056301
-0.014174
0.041850
0.088620
0.124588
0.149658
0.158063
0.142641
0.121108
0.073885
0.036871
-0.010365
-0.063860
-0.102590
-0.120147
-0.144687
-0.160585
-0.156923
-0.136604
-0.097186
-0.058449
-0.022093
0.028737
0.079339
0.102895
0.127557
0.138382
0.147774
0.123965
0.077157
0.027560
-0.026169
-0.073555
-0.099687
-0.133743
-0.165222
-0.173473
-0.165990
-0.168125
-0.107185
-0.051688
-0.009388
0.033893
0.062273
0.106581
0.137384
0.140678
0.129305
0.113051
0.077769
0.037258
-0.009375
-0.062545
-0.097563
-0.133890
-0.163146
-0.176049
-0.164785
-0.152998
-0.107486
-0.074094
-0.026153
0.031714
0.068583
0.095379
0.131268
0.126301
0.105984
0.096607
0.066215
0.025687
-0.019026
-0.062970
-0.102210
-0.136626
-0.168290
-0.179337
-0.171522
-0.147570
-0.115555
-0.073274
-0.035413
0.012641
0.058193
0.096571
0.119605
0.133112
0.119154
0.092924
0.065539
0.026994
-0.028014
-0.079135
-0.117614
-0.153465
-0.176890
-0.176047
-0.164194
-0.142689
-0.107697
-0.068747
-0.024027
0.022506
0.062462
0.097967
0.129746
0.127135
0.114801
0.094913
0.053228
0.010704
-0.027440
-0.068912
-0.115361
-0.149641
-0.171886
-0.174225
-0.172934
-0.159456
-0.116067
-0.077085
-0.035217
0.013143
0.059251
0.089712
0.112778
0.119227
0.115383
0.099405
0.062316
0.013728
-0.029394
-0.085968
-0.132944
-0.162422
-0.186422
-0.192101
-0.161547
-0.141594
-0.119310
-0.074138
-0.028720
0.018659
0.068086
0.113141
0.137124
0.140834
0.130429
0.114020
0.074395
0.039871
-0.007073
-0.045156
-0.076140
-0.106954
-0.142188
-0.155349
-0.144685
-0.127405
-0.090155
-0.047224
-0.002259
0.042561
0.079538
0.127259
0.146765
0.158720
0.150698
0.128021
0.090145
0.046620
0.000200
-0.047549
-0.087699
-0.126562
-0.151550
-0.162060
-0.153971
-0.129542
-0.086882
-0.045933
0.010672
0.068198
0.111202
0.151381
0.180976
0.191074
0.188451
0.161752
0.138065
0.092906
0.013279
-0.032779
-0.070006
-0.102446
-0.130659
-0.132378
-0.115913
-0.090794
-0.056911
-0.026400
0.010597
0.063273
0.103000
0.124999
0.139144
0.132849
0.135093
0.128178
0.070790
0.034160
-0.013149
-0.052019
-0.100779
-0.140128
-0.163845
-0.164934
-0.156889
-0.136831
-0.101358
-0.073724
-0.025355
0.017098
0.055299
0.097358
0.102843
0.120383
0.116073
0.093808
0.050627
0.000867
-0.039904
-0.088845
-0.135302
-0.166377
-0.189024
-0.197718
-0.188610
-0.173495
-0.128555
-0.098102
-0.044911
-0.009336
0.028204
0.059133
0.083683
0.100632
0.092057
0.072631
0.033371
-0.009983
-0.046316
-0.095973
-0.133874
-0.169570
-0.206923
-0.218828
-0.202950
-0.181792
-0.147844
-0.102086
-0.054364
0.003438
0.041424
0.074290
0.104740
0.110800
0.096501
0.079378
0.042431
-0.001533
-0.045360
-0.087527
-0.134698
-0.185827
-0.212284
-0.209951
-0.203221
-0.188685
-0.156424
-0.101259
-0.047086
-0.008903
0.032028
0.066134
0.090146
0.102922
0.098271
0.073223
0.039098
-0.003354
-0.052847
-0.096777
-0.140305
-0.170552
-0.202551
-0.213498
-0.207611
-0.194663
-0.151363
-0.109808
-0.072034
-0.025233
0.004110
0.051038
0.083282
0.097681
0.098749
0.091502
0.057355
0.027657
0.002544
-0.036437
-0.068040
-0.081562
-0.100251
-0.092052
-0.063567
-0.040619
0.002645
0.058496
0.126744
0.191906
0.244611
0.298974
0.346049
0.399420
0.426363
0.442347
0.444015
0.444258
0.432732
0.415159
0.404964
0.394916
0.418608
0.457657
0.483247
0.558505
0.618309
0.682754
0.747668
0.793397
0.820216
0.860595
0.869084
0.849697
0.818269
0.772314
0.688834
0.564032
0.453012
0.338361
0.245564
0.169885
0.101934
0.035069
-0.000734
0.006016
0.036466
0.063291
0.115639
0.169287
0.211222
0.228171
0.234516
0.233556
0.214672
0.183320
0.128557
0.080974
0.034565
-0.014442
-0.060095
-0.093637
-0.121067
-0.125440
-0.118783
-0.103941
-0.070171
-0.028914
0.017543
0.060276
0.103017
0.130721
0.149991
0.153631
0.137702
0.104367
0.076676
0.039425
-0.003736
-0.059258
-0.104495
-0.141833
-0.160201
-0.175875
-0.161818
-0.139335
-0.102962
-0.062453
-0.007988
0.029860
0.071820
0.115208
0.145571
0.151491
0.134252
0.112841
0.089101
0.047112
0.001338
-0.061264
-0.102519
-0.138781
-0.154998
-0.164612
-0.167233
-0.148186
-0.104602
-0.049219
-0.012364
0.032373
0.084132
0.115373
0.129689
0.141199
0.142929
0.129662
0.094168
0.058319
-0.003470
-0.060651
-0.091132
-0.119043
-0.141688
-0.159744
-0.149344
-0.133038
-0.095112
-0.051858
-0.002749
0.038957
0.094108
0.135004
0.140223
0.172642
0.167454
0.143516
0.110191
0.066378
0.016222
-0.028667
-0.062304
-0.086041
-0.116213
-0.129822
-0.118629
-0.091567
-0.055973
-0.016895
0.025946
0.070014
0.119198
0.156879
0.182372
0.195972
0.186828
0.167856
0.143371
0.099932
0.054859
0.001083
-0.035556
-0.090787
-0.097545
-0.105357
-0.107082
-0.074270
-0.043047
0.023053
0.069960
0.122447
0.158812
0.196849
0.214580
0.232755
0.208330
0.181882
0.160799
0.125507
0.081416
0.038749
-0.009708
-0.030809
-0.054745
-0.064680
-0.068632
-0.031388
0.011339
0.036543
0.082320
0.138320
0.196784
0.240174
0.246323
0.258936
0.235414
0.204008
0.179031
0.131741
0.081973
0.043671
0.020090
-0.014883
-0.033754
-0.048550
-0.048184
-0.019086
0.017025
0.052503
0.088027
0.137716
0.188174
0.228926
0.244231
0.235459
0.219923
0.201917
0.192169
0.158521
0.094259
0.050312
0.005968
-0.035059
-0.058748
-0.062972
-0.063153
-0.048808
-0.018522
0.023840
0.089656
0.129397
0.163698
0.201546
0.217798
0.231027
0.222955
0.202869
0.168944
0.117817
0.057231
0.006967
-0.035279
-0.064788
-0.095814
-0.113656
-0.094830
-0.082557
-0.052793
-0.021733
0.011654
0.083963
0.127699
0.153020
0.167072
0.189536
0.182530
0.151555
0.111541
0.065858
0.012674
-0.031830
-0.083447
-0.117197
-0.133419
-0.150390
-0.144396
-0.133259
-0.108739
-0.060388
-0.004856
0.032725
0.077929
0.116089
0.139099
0.154287
0.133767
0.111293
0.073844
0.034395
-0.024435
-0.064443
-0.104644
-0.133758
-0.169067
-0.188873
-0.178221
-0.152893
-0.119443
-0.074250
-0.038460
0.010626
0.068047
0.104457
0.129893
0.131416
0.110646
0.082207
0.049837
0.002368
-0.049028
-0.095352
-0.137055
-0.175583
-0.186001
-0.185615
-0.186251
-0.183045
-0.132643
-0.078813
-0.024829
0.016757
0.052560
0.091287
0.107637
0.112230
0.102882
0.087914
0.054336
0.015484
-0.032111
-0.082933
-0.124297
-0.157547
-0.197106
-0.202675
-0.193314
-0.172434
-0.136940
-0.082198
-0.041507
0.014138
0.055485
0.095119
0.115805
0.131291
0.122438
0.093509
0.066080
0.026264
-0.034409
-0.081971
-0.117562
-0.138782
-0.173473
-0.187968
-0.166011
-0.140735
-0.109043
-0.066590
-0.029589
0.012489
0.035345
0.094813
0.121703
0.129747
0.124801
0.106327
0.078087
0.033541
-0.022211
-0.072625
-0.112599
-0.151311
-0.174402
-0.185309
-0.172983
-0.150665
-0.122333
-0.079364
-0.038677
0.003095
0.065577
0.088931
0.121252
0.132864
0.125891
0.103636
0.050012
0.009943
-0.028505
-0.068701
-0.105097
-0.142887
-0.160665
-0.176864
-0.172870
-0.142508
-0.115774
-0.077694
-0.033258
0.010881
0.060932
0.096517
0.121207
0.139570
0.115809
0.097002
0.066449
0.022452
-0.014086
-0.065921
-0.120112
-0.152282
-0.166766
-0.178499
-0.158833
-0.139133
-0.124508
-0.081654
-0.031601
0.016078
0.059218
0.089006
0.113657
0.124826
0.118587
0.093676
0.060247
-0.000898
-0.042734
-0.081827
-0.118329
-0.163079
-0.169652
-0.200727
-0.191847
-0.159029
-0.134592
-0.089737
-0.041672
-0.004084
0.040745
0.078974
0.110483
0.114121
0.098262
0.084282
0.065374
0.007338
-0.051282
-0.085858
-0.133311
-0.171310
-0.186876
-0.194320
-0.177333
-0.157025
-0.126039
-0.082454
-0.034137
0.012083
0.051876
0.078940
0.105633
0.111698
0.094762
0.071894
0.045028
0.002071
-0.045914
-0.092018
-0.138034
-0.169126
-0.198963
-0.215224
-0.203589
-0.174529
-0.140246
-0.087839
-0.053972
0.000936
0.042625
0.070601
0.096786
0.107961
0.094159
0.069000
0.041903
0.009729
-0.047326
-0.098905
-0.148278
-0.176190
-0.197004
-0.212738
-0.200694
-0.186418
-0.152505
-0.108988
-0.053587
-0.003541
0.038262
0.071109
0.092042
0.103255
0.099815
0.068420
0.042270
-0.011069
-0.048023
-0.093047
-0.124731
-0.160580
-0.195909
-0.224702
-0.221296
-0.194623
-0.154058
-0.117433
-0.082992
-0.032282
0.021198
0.043260
0.073189
0.097916
0.084993
0.064172
0.039253
-0.005409
-0.047624
-0.088606
-0.137212
-0.159968
-0.196766
-0.211568
-0.206048
-0.183086
-0.152742
-0.107800
-0.067585
-0.021149
0.025311
0.066499
0.082428
0.101760
0.088680
0.069589
0.035839
-0.008361
-0.055977
-0.107811
-0.156164
-0.175293
-0.196059
-0.207204
-0.198556
-0.185420
-0.157079
-0.096172
-0.042568
0.003742
0.048897
0.074905
0.094951
0.107284
0.088379
0.083175
0.054515
-0.000701
-0.038368
-0.082909
-0.117928
-0.142095
-0.162293
-0.177352
-0.175890
-0.152194
-0.117865
-0.056470
-0.006503
0.028585
0.067535
0.100076
0.129472
0.134704
0.116180
0.095900
0.050163
-0.000795
-0.037475
-0.072683
-0.114592
-0.140919
-0.170107
-0.179200
-0.180003
-0.151401
-0.118308
-0.061638
-0.017898
0.025609
0.083736
0.122102
0.150126
0.159515
0.141460
0.133688
0.103016
0.054718
0.014987
-0.034080
-0.071708
-0.098540
-0.133707
-0.159270
-0.154728
-0.152157
-0.117955
-0.079696
-0.032060
0.012452
0.053688
0.084650
0.106377
0.118616
0.108553
0.100271
0.067826
0.011977
-0.034853
-0.089307
-0.126985
-0.163330
-0.175306
-0.197401
-0.190290
-0.175147
-0.134737
-0.107555
-0.070802
-0.016911
0.022273
0.068241
0.086656
0.093749
0.078862
0.058583
0.026456
-0.022888
-0.071015
-0.125872
-0.166223
-0.204501
-0.214471
-0.232500
-0.236995
-0.210292
-0.171420
-0.125187
-0.081737
-0.038594
-0.000326
0.025475
0.047030
0.051534
0.066909
0.042189
0.011769
-0.036391
-0.081055
-0.129645
-0.169839
-0.202262
-0.227434
-0.245324
-0.233544
-0.212006
-0.166919
-0.131124
-0.084603
-0.036611
-0.000735
0.032741
0.058733
0.074526
0.068347
0.049472
0.013437
-0.029439
-0.080442
-0.122411
-0.169910
-0.205627
-0.222826
-0.241425
-0.224256
-0.201918
-0.177478
-0.135528
-0.083418
-0.034126
0.010751
0.044691
0.062515
0.065385
0.058917
0.035203
0.011172
-0.042137
-0.096584
-0.155040
-0.182538
-0.201294
-0.229119
-0.227249
-0.218315
-0.206939
-0.178950
-0.145919
-0.106745
-0.052073
-0.017422
0.020371
0.063629
0.075104
0.089997
0.068141
0.031166
-0.002308
-0.024806
-0.047786
-0.076541
-0.093632
-0.105497
-0.118633
-0.105456
-0.056220
0.019613
0.074130
0.128559
0.211063
0.286990
0.352783
0.403441
0.466831
0.499662
0.519803
0.520279
0.507532
0.480109
0.464039
0.465209
0.490923
0.501675
0.527508
0.560026
0.625959
0.667358
0.707572
0.742055
0.798939
0.817765
0.828930
0.824234
0.817477
0.783167
0.698973
0.596500
0.482806
0.365755
0.269764
0.184992
0.085675
0.024945
-0.012403
-0.009247
0.002893
0.021361
0.072226
0.099351
0.135192
0.165207
0.182868
0.199809
0.198808
0.185887
0.167866
0.128934
0.079674
0.030702
-0.034751
-0.074247
-0.110386
-0.142130
-0.163031
-0.150596
-0.133623
-0.096502
-0.057944
-0.019313
0.019231
0.059367
0.089204
0.113262
0.119993
0.105689
0.097541
0.063114
0.026804
-0.032104
-0.084436
-0.127210
-0.151270
-0.182086
-0.188609
-0.180153
-0.159639
-0.127063
-0.080734
-0.045942
-0.004350
0.039092
0.069795
0.095598
0.106374
0.100220
0.099083
0.048757
0.006566
-0.036789
-0.075207
-0.102356
-0.144263
-0.164348
-0.183368
-0.172540
-0.149415
-0.120402
-0.076814
-0.026118
0.016635
0.058531
0.106094
0.128876
0.123210
0.121513
0.088909
0.063114
0.020574
-0.028814
-0.075820
-0.124538
-0.156663
-0.177730
-0.177430
-0.163921
-0.134737
-0.100983
-0.070520
-0.011090
0.043712
0.089836
0.121114
0.146511
0.142470
0.147705
0.120902
0.085824
0.046599
0.005980
-0.051210
-0.082943
-0.105239
-0.133007
-0.153870
-0.147408
-0.113543
-0.086951
-0.032781
0.010552
0.063080
0.106973
0.141230
0.164802
0.178046
0.166204
0.148901
0.119158
0.075957
0.024630
-0.017772
-0.063087
-0.083960
-0.101978
-0.111569
-0.097109
-0.072000
-0.030803
0.007983
0.047902
0.093736
0.144016
0.179906
0.206466
0.220642
0.218281
0.193207
0.141364
0.102730
0.061028
0.021689
-0.015814
-0.050968
-0.069579
-0.076921
-0.069226
-0.035444
-0.018834
0.011264
0.072403
0.128516
0.172023
0.200452
0.224286
0.225309
0.245693
0.225011
0.187524
0.145370
0.098316
0.056093
0.016226
-0.024820
-0.051158
-0.059519
-0.063352
-0.046334
-0.014027
0.013578
0.070377
0.115877
0.161760
0.197147
0.222302
0.249563
0.237490
0.219574
0.186676
0.147534
0.091631
0.038535
-0.003917
-0.036437
-0.065595
-0.076567
-0.074012
-0.053951
-0.021215
0.025014
0.076252
0.125494
0.163478
0.199325
0.211482
0.199790
0.201944
0.155336
0.122758
0.089146
0.037015
-0.005134
-0.033695
-0.061633
-0.090949
-0.122036
-0.125431
-0.094445
-0.052098
-0.014093
0.022139
0.057055
0.106826
0.135699
0.152388
0.152147
0.147353
0.124364
0.084768
0.050789
0.002700
-0.061837
-0.107991
-0.134757
-0.150624
-0.167342
-0.181287
-0.157234
-0.119391
-0.070416
-0.036811
0.020506
0.073984
0.096256
0.120818
0.117261
0.104852
0.083074
0.045437
0.013756
-0.036624
-0.089800
-0.132890
-0.156988
-0.193875
-0.211958
-0.212180
-0.174516
-0.138715
-0.103913
-0.057489
-0.007859
0.030814
0.067453
0.085859
0.112000
0.110440
0.079925
0.037513
-0.001498
-0.057805
-0.100663
-0.152583
-0.186558
-0.211983
-0.211668
-0.203926
-0.173574
-0.151255
-0.111339
-0.066670
-0.030754
0.011661
0.045014
0.080126
0.088735
0.097058
0.061166
0.029432
-0.003266
-0.049157
-0.102877
-0.145884
-0.191448
-0.201021
-0.206111
-0.218210
-0.197274
-0.151116
-0.106562
-0.055604
-0.011484
0.023689
0.063231
0.087078
0.089088
0.098750
0.068024
0.033639
-0.000919
-0.052038
-0.094563
-0.138545
-0.167721
-0.195861
-0.199916
-0.212581
-0.184751
-0.151004
-0.107160
-0.059818
-0.010059
0.018751
0.057377
0.096217
0.102270
0.088838
0.064920
0.043157
0.000671
-0.051367
-0.101742
-0.152494
-0.184279
-0.194461
-0.206796
-0.200035
-0.178297
-0.150013
-0.109016
-0.055245
-0.006472
0.029026
0.064652
0.087696
0.092076
0.094348
0.073026
0.034682
0.001737
-0.048483
-0.086210
-0.137868
-0.168486
-0.197199
-0.206567
-0.204346
-0.170652
-0.128818
-0.100110
-0.063733
-0.008762
0.028839
0.047405
0.083355
0.087492
0.083959
0.061892
0.039659
-0.008061
-0.045998
-0.110916
-0.147341
-0.190139
-0.209287
-0.221442
-0.211532
-0.184180
-0.144544
-0.108343
-0.068180
-0.017404
0.029411
0.076572
0.100828
0.098515
0.088952
0.056416
0.021283
-0.019192
-0.063086
-0.112835
-0.151906
-0.186788
-0.210583
-0.224096
-0.213930
-0.184139
-0.139396
-0.118415
-0.064900
-0.006766
0.035466
0.062916
0.083817
0.094145
0.084553
0.041094
0.014022
-0.016284
-0.074152
-0.122144
-0.160574
-0.191771
-0.213935
-0.225378
-0.224758
-0.187412
-0.146660
-0.112182
-0.083959
-0.035559
0.015793
0.055197
0.082741
0.079724
0.085457
0.055239
0.021337
-0.011347
-0.068665
-0.125830
-0.161058
-0.192687
-0.221678
-0.232671
-0.227122
-0.194298
-0.155018
-0.123334
-0.067478
-0.020640
0.023949
0.051277
0.087344
0.085492
0.066925
0.042628
0.021673
-0.029098
-0.073961
-0.123367
-0.154094
-0.189502
-0.218629
-0.224077
-0.234913
-0.208069
-0.146930
-0.118242
-0.076131
-0.035616
0.004160
0.034153
0.041262
0.060747
0.061657
0.042050
0.002841
-0.027041
-0.072483
-0.112379
-0.143921
-0.200223
-0.227483
-0.229920
-0.221751
-0.201838
-0.170717
-0.123169
-0.071760
-0.027724
0.009115
0.044273
0.066771
0.085907
0.087237
0.064171
0.025316
0.000021
-0.054756
-0.116948
-0.153544
-0.178732
-0.202335
-0.216652
-0.201849
-0.179943
-0.147155
-0.111502
-0.057789
-0.001880
0.033933
0.076173
0.097525
0.112470
0.114381
0.092971
0.056411
0.014573
-0.051885
-0.084342
-0.119317
-0.154540
-0.183749
-0.197849
-0.196349
-0.173382
-0.129131
-0.100515
-0.053505
-0.007484
0.034651
0.068299
0.097123
0.108497
0.104723
0.090093
0.062356
0.028982
-0.024487
-0.068280
-0.112257
-0.146834
-0.175115
-0.171115
-0.160183
-0.139781
-0.124935
-0.072849
-0.006563
0.042170
0.066469
0.090010
0.113125
0.114390
0.118841
0.096782
0.057902
0.014600
-0.028806
-0.086040
-0.134295
-0.160151
-0.182072
-0.189128
-0.201035
-0.184116
-0.153200
-0.113241
-0.064016
-0.008661
0.037980
0.058495
0.083642
0.099534
0.102211
0.077706
0.028537
-0.013211
-0.061229
-0.110117
-0.151974
-0.192037
-0.223707
-0.234734
-0.222493
-0.217434
-0.196879
-0.161173
-0.073375
-0.023235
0.003726
0.019249
0.038451
0.041474
0.050361
0.022269
-0.014980
-0.046282
-0.096088
-0.145490
-0.182118
-0.214883
-0.240979
-0.250197
-0.253878
-0.229172
-0.186269
-0.146583
-0.097867
-0.051454
-0.012338
0.021436
0.040884
0.045659
0.043361
0.027010
-0.007826
-0.050887
-0.103682
-0.147719
-0.190741
-0.230383
-0.247389
-0.251181
-0.250160
-0.231182
-0.190118
-0.155721
-0.100459
-0.041846
-0.003876
0.011733
0.044029
0.059563
0.056200
0.035850
0.005760
-0.056021
-0.095873
-0.138007
-0.174959
-0.213189
-0.233264
-0.235299
-0.232545
-0.209060
-0.185972
-0.140793
-0.094801
-0.054757
-0.007558
0.026986
0.043706
0.050989
0.043689
0.019703
-0.012885
-0.062560
-0.118683
-0.160420
-0.197759
-0.216870
-0.232961
-0.241533
-0.224091
-0.195437
-0.151271
-0.094695
-0.017802
0.038983
0.087845
0.128117
0.158130
0.180858
0.191363
0.182729
0.163647
0.151084
0.126935
0.104179
0.073058
0.063443
0.083241
0.109926
0.146107
0.204318
0.266790
0.335375
0.421422
0.495184
0.569287
0.652470
0.707320
0.770629
0.792125
0.786893
0.755353
0.705761
0.663810
0.602388
0.545432
0.496012
0.454836
0.402230
0.340166
0.285876
0.270342
0.255503
0.259687
0.264461
0.267887
0.268294
0.250187
0.242091
0.205893
0.167191
0.115227
0.073248
0.028099
-0.016848
-0.090110
-0.138223
-0.142248
-0.151553
-0.147374
-0.133652
-0.097685
-0.063829
-0.019232
0.021232
0.070899
0.103336
0.118687
0.134236
0.132513
0.096920
0.061364
0.019552
-0.034713
-0.083885
-0.138468
-0.173121
-0.191086
-0.193246
-0.212320
-0.196919
-0.156826
-0.103595
-0.043151
0.001976
0.028037
0.068938
0.091724
0.092244
0.083756
0.065685
0.029895
-0.012068
-0.067163
-0.105666
-0.155125
-0.190864
-0.210107
-0.209972
-0.205229
-0.190822
-0.152338
-0.113714
-0.065892
-0.022453
0.011065
0.056885
0.079618
0.092451
0.082033
0.063508
0.027765
-0.013167
-0.058052
-0.102758
-0.135805
-0.171768
-0.198838
-0.202697
-0.194624
-0.174097
-0.147982
-0.098154
-0.049986
-0.011584
0.034893
0.071489
0.092756
0.099583
0.098110
0.085382
0.043130
0.005352
-0.038015
-0.075998
-0.127903
-0.151551
-0.169559
-0.173574
-0.166869
-0.153563
-0.120961
-0.074421
-0.020278
0.021051
0.067291
0.104336
0.122134
0.133423
0.124021
0.114398
0.080573
0.029247
-0.020533
-0.081133
-0.110624
-0.120386
-0.147489
-0.147245
-0.140181
-0.121177
-0.096023
-0.041480
0.014237
0.053172
0.099146
0.140018
0.158808
0.168786
0.165294
0.151933
0.120700
0.084844
0.042191
-0.019598
-0.049199
-0.081947
-0.106146
-0.117544
-0.107618
-0.080319
-0.040826
-0.017950
0.036327
0.084258
0.141929
0.167645
0.192922
0.212525
0.207247
0.168347
0.139692
0.102028
0.069822
0.011888
-0.035968
-0.075575
-0.089227
-0.097155
-0.087403
-0.067506
-0.036796
0.005072
0.048435
0.088001
0.135522
0.177874
0.210165
0.227360
0.213978
0.181659
0.160879
0.112415
0.057477
0.013580
-0.027158
-0.059060
-0.081218
-0.087269
-0.093800
-0.082793
-0.049642
0.001223
0.050991
0.088701
0.125039
0.156014
0.189526
0.206164
0.198575
0.173122
0.129852
0.090682
0.052346
-0.000736
-0.049558
-0.086352
-0.116908
-0.118806
-0.119168
-0.104006
-0.071601
-0.034265
0.023589
0.075128
0.112398
0.136125
0.147446
0.147715
0.148785
0.130138
0.088203
0.049683
-0.004664
-0.048634
-0.098755
-0.145406
-0.144042
-0.161431
-0.160078
-0.149959
-0.122128
-0.070919
-0.027132
0.014367
0.068087
0.092277
0.111270
0.110928
0.101379
0.072610
0.032691
-0.010656
-0.060105
-0.097642
-0.140792
-0.170997
-0.203900
-0.205780
-0.198014
-0.181525
-0.138456
-0.108520
-0.065758
-0.021390
0.010552
0.047407
0.070975
0.073589
0.065213
0.052870
0.018288
-0.020523
-0.071938
-0.117809
-0.165627
-0.195263
-0.216114
-0.216505
-0.218899
-0.206067
-0.172391
-0.130016
-0.075784
-0.022745
0.017257
0.049489
0.065965
0.057413
0.054225
0.054382
0.016199
-0.032029
-0.079500
-0.127901
-0.170639
-0.208154
-0.223310
-0.240049
-0.241925
-0.224838
-0.179927
-0.133330
-0.089303
-0.029784
0.019417
0.065020
0.089773
0.083670
0.075189
0.062765
0.030384
-0.021977
-0.066027
-0.116685
-0.173208
-0.200930
-0.207094
-0.222894
-0.217014
-0.189140
-0.152645
-0.107004
-0.070465
-0.024165
0.013635
0.052898
0.073285
0.084152
0.068442
0.050366
0.021691
-0.011784
-0.063428
-0.113475
-0.151223
-0.179829
-0.201758
-0.209276
-0.206750
-0.192672
-0.154605
-0.110275
-0.070932
-0.024398
0.015761
0.064799
0.081812
0.082757
0.062926
0.061040
0.022596
-0.024826
-0.052691
-0.087529
-0.129760
-0.164426
-0.194721
-0.207260
-0.199575
-0.189399
-0.157113
-0.115846
-0.073978
-0.026540
0.031964
0.046902
0.086848
0.095340
0.090080
0.060422
0.029051
-0.014583
-0.047926
-0.101620
-0.156047
-0.177383
-0.202608
-0.206113
-0.190486
-0.186789
-0.145931
-0.108410
-0.062248
-0.013393
0.021462
0.053925
0.089690
0.097580
0.060670
0.059924
0.027057
-0.010138
-0.050564
-0.102778
-0.148556
-0.197504
-0.212168
-0.208664
-0.210345
-0.191353
-0.148260
-0.113763
-0.071257
-0.020452
0.024793
0.069447
0.082174
0.082498
0.074384
0.055371
0.016114
-0.017747
-0.065344
-0.104627
-0.149722
-0.186649
-0.204939
-0.216694
-0.211492
-0.196164
-0.165886
-0.120856
-0.081128
-0.025213
0.017254
0.051891
0.067493
0.076582
0.058706
0.045313
0.019682
-0.023926
-0.066262
-0.115534
-0.158835
-0.186185
-0.204410
-0.233757
-0.231343
-0.211111
-0.169876
-0.122825
-0.076502
-0.031413
0.017961
0.046884
0.078976
0.081569
0.071330
0.052344
0.014797
-0.030293
-0.072268
-0.130296
-0.163793
-0.194694
-0.221680
-0.233990
-0.208732
-0.192288
-0.159752
-0.126300
-0.090638
-0.037689
0.009514
0.038752
0.060777
0.072388
0.062296
0.050629
0.010305
-0.033305
-0.071827
-0.119824
-0.159036
-0.191588
-0.216838
-0.234325
-0.210363
-0.200230
-0.158643
-0.116941
-0.072675
-0.014007
0.029108
0.057557
0.075257
0.085185
0.082521
0.073005
0.047657
0.005273
-0.045102
-0.087565
-0.132048
-0.161835
-0.178775
-0.193055
-0.183318
-0.165875
-0.127026
-0.085431
-0.040376
0.007102
0.056827
0.083859
0.101664
0.109072
0.101706
0.090032
0.057071
0.004072
-0.043155
-0.109849
-0.131503
-0.164309
-0.178685
-0.185325
-0.185566
-0.161067
-0.124361
-0.083088
-0.032258
0.011120
0.058504
0.084167
0.111135
0.117991
0.121456
0.105602
0.068819
0.026309
-0.024658
-0.069854
-0.118137
-0.161951
-0.188781
-0.188610
-0.186967
-0.171194
-0.129057
-0.091631
-0.059811
-0.010642
0.028634
0.049727
0.077082
0.089319
0.078024
0.060551
0.031693
-0.020959
-0.072327
-0.119715
-0.159253
-0.194538
-0.226102
-0.245236
-0.227660
-0.221804
-0.186910
-0.144524
-0.086471
-0.040444
0.000548
0.026953
0.052024
0.051630
0.037566
0.013309
-0.024486
-0.063425
-0.100211
-0.146952
-0.193461
-0.231054
-0.259152
-0.283782
-0.276817
-0.253151
-0.207416
-0.163369
-0.110042
-0.061813
-0.019804
0.004837
0.031916
0.036500
0.033227
0.012586
-0.021348
-0.058608
-0.107062
-0.159713
-0.213368
-0.246221
-0.264957
-0.277570
-0.267057
-0.247800
-0.213046
-0.172994
-0.135700
-0.069279
-0.037969
-0.006387
0.020654
0.037650
0.030247
0.010744
-0.024846
-0.076448
-0.097142
-0.149194
-0.193516
-0.229737
-0.265345
-0.271652
-0.264623
-0.236056
-0.201639
-0.164045
-0.128048
-0.072402
-0.028201
0.008886
0.029135
0.044064
0.041356
0.020825
-0.013816
-0.051513
-0.115874
-0.159369
-0.206454
-0.246828
-0.273663
-0.287351
-0.274187
-0.257050
-0.229564
-0.176051
-0.117367
-0.060504
-0.021479
0.025036
0.057105
0.067341
0.070629
0.070312
0.048739
0.021435
-0.001574
-0.045029
-0.075968
-0.103037
-0.098423
-0.083476
-0.052421
0.002177
0.062204
0.139880
0.220575
0.313904
0.393892
0.473631
0.537688
0.583916
0.596915
0.611965
0.620831
0.653462
0.650542
0.632185
0.615508
0.604074
0.609396
0.609333
0.612053
0.623086
0.636687
0.659133
0.688123
0.716707
0.730047
0.703935
0.644667
0.594266
0.519639
0.439780
0.341297
0.242928
0.164488
0.080203
0.039592
-0.005544
-0.050752
-0.077191
-0.065448
-0.059184
-0.039200
-0.010966
0.018869
0.057887
0.087892
0.112056
0.136259
0.142049
0.143012
0.122249
0.083569
0.030177
-0.027666
-0.080668
-0.112557
-0.149532
-0.174997
-0.183551
-0.185064
-0.171155
-0.137076
-0.104230
-0.060005
-0.009681
0.034618
0.063382
0.097296
0.098787
0.074697
0.061140
0.019273
-0.015579
-0.051273
-0.111385
-0.150603
-0.186217
-0.206159
-0.227398
-0.223736
-0.201999
-0.156008
-0.111974
-0.075953
-0.021305
0.015611
0.049527
0.079319
0.080414
0.078062
0.057669
0.016801
-0.017332
-0.065161
-0.111884
-0.153978
-0.194293
-0.201288
-0.210510
-0.202966
-0.177958
-0.140730
-0.106981
-0.063915
-0.010621
0.034707
0.068454
0.090690
0.093424
0.088994
0.066955
0.040292
-0.005653
-0.053126
-0.102404
-0.136939
-0.172685
-0.180509
-0.189575
-0.184132
-0.166959
-0.130365
-0.089174
-0.048148
0.008757
0.052452
0.077270
0.103486
0.113197
0.107371
0.091739
0.057375
0.013879
-0.022590
-0.061911
-0.105663
-0.132491
-0.162297
-0.156757
-0.167875
-0.159983
-0.123710
-0.073399
-0.027404
0.031576
0.074735
0.109291
0.128991
0.137625
0.134307
0.117267
0.087485
0.038824
0.003222
-0.032580
-0.089164
-0.119042
-0.129491
-0.126149
-0.123537
-0.110034
-0.078731
-0.029095
0.015373
0.070595
0.115800
0.153198
0.171928
0.176917
0.170289
0.150316
0.114237
0.084467
0.035513
-0.014638
-0.065056
-0.096147
-0.105544
-0.096079
-0.091737
-0.072043
-0.047527
-0.012623
0.036520
0.098496
0.136699
0.173150
0.190270
0.200456
0.192246
0.174084
0.135934
0.088726
0.040422
-0.000004
-0.041240
-0.072890
-0.094305
-0.103931
-0.097940
-0.093036
-0.051937
-0.015732
0.029399
0.074630
0.111375
0.155764
0.186485
0.178154
0.160310
0.155749
0.139808
0.090726
0.030608
-0.012928
-0.055314
-0.100482
-0.133996
-0.134826
-0.133739
-0.102635
-0.075166
-0.040614
0.006593
0.052667
0.089748
0.136357
0.156166
0.154023
0.146670
0.127765
0.091058
0.047311
-0.013660
-0.054974
-0.085964
-0.128199
-0.161076
-0.170057
-0.148825
-0.136917
-0.110249
-0.066415
-0.027632
0.014915
0.047902
0.083423
0.101861
0.118532
0.109606
0.079481
0.043620
0.001372
-0.045961
-0.090994
-0.132927
-0.166931
-0.191167
-0.193098
-0.182890
-0.165465
-0.142075
-0.101795
-0.065695
-0.019758
0.028062
0.075306
0.083228
0.079780
0.070367
0.053958
0.023526
-0.010207
-0.061196
-0.114237
-0.161926
-0.192354
-0.207240
-0.213815
-0.217679
-0.198302
-0.173006
-0.119180
-0.063984
-0.027407
0.017799
0.047110
0.064855
0.063657
0.061044
0.058862
0.025812
-0.013905
-0.065679
-0.112359
-0.154450
-0.190611
-0.216670
-0.221503
-0.215092
-0.199776
-0.173378
-0.134362
-0.074494
-0.030103
0.014368
0.042893
0.057458
0.073985
0.061701
0.050659
0.025747
-0.014756
-0.060034
-0.115826
-0.166384
-0.203135
-0.208269
-0.204554
-0.199482
-0.183845
-0.154215
-0.108037
-0.062233
-0.017319
0.029951
0.057267
0.077166
0.085369
0.082079
0.063146
0.034272
-0.009869
-0.057250
-0.106642
-0.142798
-0.186151
-0.208162
-0.217554
-0.211546
-0.185061
-0.155080
-0.115962
-0.081052
-0.030808
0.030285
0.067628
0.073957
0.068606
0.080667
0.065579
0.046803
0.008878
-0.050528
-0.099687
-0.140069
-0.169269
-0.190427
-0.215188
-0.221043
-0.188878
-0.155888
-0.119755
-0.073801
-0.018955
0.021988
0.070671
0.088404
0.094420
0.082280
0.067056
0.041949
-0.005767
-0.050652
-0.100471
-0.149336
-0.185325
-0.196911
-0.198030
-0.205974
-0.181044
-0.158532
-0.114713
-0.053226
-0.011026
0.035588
0.066399
0.079261
0.071444
0.066338
0.054954
0.033188
-0.012980
-0.050339
-0.099181
-0.146277
-0.183107
-0.194928
-0.215328
-0.216532
-0.185483
-0.151942
-0.118674
-0.086221
-0.041700
0.010022
0.046897
0.070660
0.081332
0.077394
0.054457
0.028442
-0.013339
-0.045660
-0.101547
-0.153517
-0.191596
-0.207702
-0.221295
-0.212880
-0.185209
-0.164372
-0.116546
-0.068477
-0.025518
0.030714
0.056560
0.076950
0.080397
0.079470
0.049718
0.017213
-0.026396
-0.078163
-0.112972
-0.160364
-0.195098
-0.209504
-0.219861
-0.212787
-0.195238
-0.169628
-0.123733
-0.070808
-0.022551
0.007349
0.054044
0.067800
0.073441
0.068720
0.037408
0.001715
-0.037196
-0.077760
-0.130352
-0.170706
-0.210828
-0.232839
-0.237271
-0.229177
-0.206460
-0.173717
-0.138274
-0.098907
-0.031924
0.027842
0.055336
0.066191
0.076632
0.062450
0.020954
0.008486
-0.016604
-0.057098
-0.101705
-0.140092
-0.181470
-0.211029
-0.234246
-0.221632
-0.209815
-0.181983
-0.115982
-0.060934
-0.006328
0.039879
0.074324
0.097236
0.098863
0.096060
0.080686
0.050578
0.017136
-0.028224
-0.072575
-0.116675
-0.154528
-0.172686
-0.176456
-0.164779
-0.154599
-0.137952
-0.096135
-0.034245
0.006787
0.039268
0.077484
0.103824
0.104846
0.097565
0.079086
0.049498
0.010348
-0.039374
-0.079317
-0.118154
-0.139155
-0.164458
-0.168363
-0.161216
-0.146998
-0.110246
-0.074669
-0.040708
0.016685
0.070631
0.094120
0.107668
0.117509
0.135901
0.108733
0.079640
0.021038
-0.030110
-0.079426
-0.127612
-0.158218
-0.179854
-0.187317
-0.187984
-0.188370
-0.155675
-0.124920
-0.076096
-0.026963
0.026583
0.064040
0.092631
0.092920
0.080730
0.049841
0.017063
-0.014064
-0.044326
-0.101679
-0.145296
-0.195867
-0.225335
-0.233589
-0.224572
-0.198848
-0.170909
-0.127340
-0.087993
-0.051242
-0.011836
0.021397
0.043324
0.047033
0.031365
0.014044
-0.004674
-0.050832
-0.098896
-0.140517
-0.186583
-0.225485
-0.240593
-0.252866
-0.253187
-0.227183
-0.201911
-0.157982
-0.104286
-0.068047
-0.027908
0.025055
0.041064
0.046236
0.043741
0.028156
-0.007436
-0.053759
-0.102898
-0.150408
-0.199342
-0.226934
-0.246221
-0.252772
-0.248209
-0.235351
-0.197205
-0.153421
-0.105746
-0.058670
-0.011377
0.011271
0.037671
0.041754
0.032985
0.014208
-0.016136
-0.060883
-0.101610
-0.144868
-0.199624
-0.235752
-0.247221
-0.250147
-0.246675
-0.222157
-0.192608
-0.136413
-0.090988
-0.046998
-0.007542
0.025641
0.045130
0.044003
0.043632
0.026680
-0.020401
-0.064622
-0.114430
-0.159624
-0.216973
-0.250375
-0.263413
-0.258245
-0.246727
-0.221810
-0.192576
-0.138239
-0.085623
-0.031563
0.033925
0.079885
0.120557
0.136788
0.147080
0.138555
0.121930
0.083207
0.050231
0.030699
0.010757
0.006558
0.025169
0.055608
0.098738
0.151135
0.214316
0.298407
0.391024
0.474740
0.557575
0.633884
0.690345
0.741184
0.787775
0.795016
0.787847
0.783608
0.773032
0.722846
0.658413
0.622157
0.570264
0.553659
0.551388
0.541453
0.536947
0.532224
0.500041
0.479340
0.466972
0.432874
0.404669
0.362788
0.318658
0.287882
0.245774
0.195463
0.134892
0.074972
0.022819
-0.029274
-0.065150
-0.087521
-0.103470
-0.094701
-0.076515
-0.041789
-0.002611
0.046118
0.087810
0.118756
0.138314
0.129481
0.123834
0.098746
0.066171
0.036257
-0.014715
-0.067680
-0.109503
-0.143699
-0.167484
-0.180025
-0.175971
-0.165895
-0.144341
-0.090439
-0.049506
0.001496
0.041013
0.058371
0.087301
0.090318
0.088879
0.070336
0.036251
0.006396
-0.054456
-0.103896
-0.157759
-0.188861
-0.202847
-0.206970
-0.198867
-0.181245
-0.151692
-0.115099
-0.064617
-0.026103
0.028167
0.062351
0.090704
0.097585
0.091851
0.071861
0.046542
0.002472
-0.040389
-0.073595
-0.127817
-0.161367
-0.194737
-0.202111
-0.193516
-0.162458
-0.128554
-0.087010
-0.038271
0.003198
0.047271
0.091519
0.110309
0.122144
0.097841
0.080042
