0.071353
0.089965
0.146867
0.202956
0.265545
0.296581
0.318961
0.330108
0.319798
0.302014
0.284336
0.270227
0.288995
0.281905
0.297444
0.331595
0.370560
0.426793
0.483067
0.531875
0.626308
0.716525
0.783788
0.851141
0.868168
0.853085
0.862354
0.830937
0.769546
0.700101
0.656734
0.593639
0.453814
0.327051
0.272316
0.196706
0.135623
0.109718
0.083459
0.087834
0.093791
0.111006
0.147878
0.172588
0.180133
0.198286
0.203742
0.202235
0.152363
0.086777
0.027520
-0.048513
-0.094613
-0.117472
-0.133530
-0.134132
-0.131486
-0.105142
-0.096948
-0.042254
-0.012933
0.009389
0.067972
0.109097
0.103798
0.118087
0.128601
0.118925
0.104053
0.062586
0.007401
-0.047506
-0.104134
-0.153669
-0.191070
-0.184430
-0.164621
-0.152856
-0.148337
-0.103694
-0.044492
0.003070
0.044877
0.069150
0.113365
0.152990
0.099965
0.035802
0.009262
-0.010272
0.001290
-0.060658
-0.144441
-0.152404
-0.154308
-0.173834
-0.176816
-0.143169
-0.114839
-0.090286
-0.039021
0.003610
0.055872
0.106470
0.097083
0.107543
0.096520
0.075115
0.061025
0.011306
-0.034601
-0.057732
-0.098737
-0.156139
-0.167568
-0.174424
-0.176486
-0.176989
-0.161110
-0.066243
-0.010757
0.035306
0.071063
0.081983
0.112361
0.132200
0.135574
0.126408
0.087843
0.048688
0.007722
-0.026407
-0.077158
-0.114878
-0.146241
-0.156732
-0.147179
-0.139033
-0.089712
-0.037494
0.012353
0.043296
0.077486
0.129541
0.166236
0.170961
0.169557
0.142870
0.114670
0.078637
0.033248
-0.013288
-0.057024
-0.091041
-0.104756
-0.112185
-0.105957
-0.088643
-0.063365
-0.002575
0.041553
0.064212
0.112025
0.143705
0.184897
0.217648
0.180436
0.171111
0.156398
0.113286
0.061859
0.021369
-0.050715
-0.037407
-0.066493
-0.070917
-0.073826
-0.044633
-0.016502
0.041056
0.064698
0.126964
0.170673
0.190887
0.207665
0.222333
0.222973
0.192639
0.187043
0.152470
0.095885
0.050156
0.009906
-0.039790
-0.071300
-0.077142
-0.053496
-0.035556
-0.004814
0.013861
0.043255
0.090847
0.178297
0.224506
0.238727
0.248460
0.239370
0.198594
0.144281
0.156134
0.098896
0.032053
-0.009092
-0.026143
-0.062965
-0.084061
-0.080185
-0.047038
-0.010596
0.035825
0.069280
0.105895
0.141591
0.172469
0.199415
0.191591
0.213216
0.190639
0.142000
0.101144
0.045320
-0.004968
-0.043058
-0.069612
-0.097290
-0.118317
-0.109188
-0.085957
-0.061058
-0.034884
-0.011581
0.031373
0.107239
0.137686
0.148871
0.159631
0.142685
0.118330
0.114654
0.069072
0.011607
-0.028358
-0.063302
-0.113473
-0.167597
-0.188519
-0.168440
-0.121644
-0.081628
-0.058332
-0.016160
0.035388
0.057438
0.077604
0.120534
0.174955
0.141018
0.093081
0.062801
0.025436
-0.031889
-0.082546
-0.120970
-0.165070
-0.177679
-0.197958
-0.188222
-0.175869
-0.146613
-0.125987
-0.057161
-0.014499
0.040953
0.079043
0.118883
0.127715
0.110705
0.084754
0.043408
0.019364
-0.031209
-0.090794
-0.138331
-0.166091
-0.191287
-0.188262
-0.187283
-0.173589
-0.157735
-0.111914
-0.053516
-0.006495
0.031064
0.066205
0.099111
0.112383
0.101697
0.071953
0.035853
-0.002249
-0.056797
-0.073885
-0.133819
-0.170783
-0.179811
-0.200195
-0.197686
-0.191109
-0.160432
-0.119467
-0.080617
-0.032397
0.045341
0.090104
0.105940
0.112539
0.110308
0.072098
0.045151
0.013298
-0.030050
-0.082857
-0.109077
-0.137493
-0.192368
-0.183988
-0.170540
-0.158518
-0.144640
-0.104626
-0.075976
-0.011007
0.032687
0.079151
0.111721
0.120231
0.125548
0.104206
0.064774
0.026915
-0.036750
-0.084874
-0.129560
-0.159039
-0.174686
-0.166307
-0.166194
-0.162115
-0.126356
-0.083093
-0.032100
-0.000529
0.056113
0.069170
0.093745
0.103051
0.096150
0.087713
0.039864
0.023950
-0.021337
-0.086509
-0.111308
-0.134667
-0.150833
-0.171371
-0.157063
-0.131998
-0.138285
-0.107541
-0.052996
0.001896
0.053754
0.089784
0.121012
0.128970
0.110967
0.097026
0.054361
0.011867
-0.022445
-0.045133
-0.101968
-0.159185
-0.176517
-0.194314
-0.193292
-0.164619
-0.111977
-0.115108
-0.081785
0.023232
0.062028
0.094689
0.137712
0.113572
0.090079
0.068151
0.023874
-0.010706
0.011281
-0.047895
-0.128917
-0.175244
-0.176224
-0.187873
-0.190724
-0.154038
-0.122694
-0.093634
-0.041929
0.006938
0.063712
0.079221
0.099290
0.099860
0.101732
0.097085
0.084762
0.038778
-0.027497
-0.079339
-0.108991
-0.146206
-0.193136
-0.209359
-0.195169
-0.176261
-0.150242
-0.113162
-0.039131
0.013823
0.052374
0.072523
0.080181
0.090577
0.091085
0.071626
0.036239
-0.002862
-0.045038
-0.083064
-0.121731
-0.163660
-0.190337
-0.212196
-0.211234
-0.174300
-0.111863
-0.080157
-0.038120
0.009826
0.029831
0.039258
0.063619
0.073081
0.084915
0.088781
0.075016
0.038556
-0.022079
-0.094422
-0.155013
-0.206873
-0.192794
-0.193587
-0.191124
-0.173064
-0.140076
-0.102145
-0.034303
0.011586
0.018867
0.077437
0.097151
0.090019
0.082449
0.068674
0.050663
0.009259
-0.044907
-0.077629
-0.096595
-0.142444
-0.170761
-0.189103
-0.208492
-0.175062
-0.181072
-0.127953
-0.071976
-0.024201
0.015371
0.063419
0.115820
0.125676
0.110028
0.089876
0.058875
0.015228
-0.059679
-0.124426
-0.173975
-0.200404
-0.210879
-0.223458
-0.208803
-0.166294
-0.116496
-0.081071
-0.035314
0.005509
0.043798
0.081405
0.096700
0.106592
0.090940
0.073785
0.043348
-0.004970
-0.053137
-0.118506
-0.134697
-0.171197
-0.191839
-0.200323
-0.201727
-0.161523
-0.120711
-0.087726
-0.049719
0.001113
0.057457
0.096371
0.112258
0.122236
0.121386
0.101668
0.071534
0.039811
-0.012370
-0.064048
-0.109305
-0.136646
-0.151869
-0.172303
-0.151710
-0.125282
-0.082830
-0.045764
-0.013720
0.015921
0.046421
0.083200
0.116226
0.143267
0.129680
0.105987
0.075874
0.031621
-0.017265
-0.040951
-0.072144
-0.115315
-0.150748
-0.167765
-0.143753
-0.111529
-0.087710
-0.054252
-0.016727
0.035798
0.087258
0.125017
0.163039
0.152550
0.128837
0.117658
0.089586
0.032713
0.001863
-0.033769
-0.088739
-0.123726
-0.150527
-0.158627
-0.150426
-0.142358
-0.119480
-0.074513
-0.023355
0.022930
0.061692
0.094100
0.096950
0.104253
0.092575
0.078444
0.038654
-0.010407
-0.033488
-0.079859
-0.125259
-0.150775
-0.186275
-0.199142
-0.193414
-0.165995
-0.134909
-0.091810
-0.048740
-0.009219
0.038580
0.072657
0.082917
0.090144
0.074243
0.050854
0.029447
-0.008939
-0.051778
-0.098814
-0.153168
-0.205219
-0.225154
-0.223169
-0.225528
-0.220787
-0.176181
-0.119585
-0.079525
-0.020952
0.012159
0.064260
0.079603
0.086267
0.056530
0.044970
0.026588
-0.010915
-0.048888
-0.103307
-0.160974
-0.194012
-0.217782
-0.218766
-0.191296
-0.201813
-0.185392
-0.136164
-0.111132
-0.054358
0.008489
0.024513
0.044326
0.064175
0.074357
0.065827
0.037583
-0.014769
-0.045280
-0.096856
-0.139111
-0.198637
-0.208172
-0.193707
-0.197704
-0.176938
-0.157388
-0.132227
-0.086261
-0.033549
0.002147
0.027723
0.074245
0.107551
0.077952
0.044436
0.021326
-0.007589
-0.056498
-0.112188
-0.147770
-0.173620
-0.221550
-0.222010
-0.209238
-0.186858
-0.162465
-0.109245
-0.071843
-0.000958
0.040607
0.089702
0.107694
0.120016
0.151139
0.162086
0.155645
0.119739
0.086403
0.033511
0.012784
0.010329
0.018868
0.019811
0.068819
0.120324
0.182110
0.267086
0.357404
0.426623
0.514531
0.593346
0.627727
0.635809
0.679797
0.681876
0.708922
0.704527
0.722587
0.713248
0.689371
0.620608
0.627140
0.610646
0.603518
0.605081
0.601893
0.615416
0.628262
0.612945
0.592261
0.570386
0.520280
0.477435
0.437335
0.363593
0.249383
0.163392
0.120903
0.063677
-0.002161
-0.036944
-0.076889
-0.069279
-0.091549
-0.080970
-0.029347
0.025070
0.045142
0.085166
0.105731
0.141907
0.174721
0.146859
0.130370
0.137345
0.114075
0.082797
0.037097
-0.038814
-0.084511
-0.124300
-0.152907
-0.185098
-0.118687
-0.089115
-0.084360
-0.056847
-0.037455
0.032467
0.097477
0.078073
0.110293
0.143369
0.123241
0.097933
0.069688
0.034531
0.013879
-0.039536
-0.082010
-0.098743
-0.157316
-0.175568
-0.160103
-0.157603
-0.123358
-0.071837
-0.016103
0.010987
0.038249
0.073470
0.113566
0.115007
0.124554
0.108650
0.094824
0.056564
0.009711
-0.040607
-0.090143
-0.111605
-0.157408
-0.146170
-0.147365
-0.139761
-0.118977
-0.083948
-0.051194
-0.017926
0.067989
0.148062
0.149617
0.150245
0.120354
0.091531
0.051241
0.060457
0.025718
-0.020357
-0.055647
-0.099433
-0.120139
-0.139871
-0.160813
-0.140569
-0.106453
-0.067655
0.027531
0.066591
0.129619
0.138765
0.179161
0.181928
0.168628
0.158239
0.109207
0.046859
0.018155
-0.030888
-0.046615
-0.078791
-0.092522
-0.091131
-0.078903
-0.072579
-0.035249
0.015111
0.056523
0.106202
0.155314
0.169382
0.196539
0.228540
0.194153
0.175247
0.151017
0.113917
0.072916
0.021920
-0.027169
-0.056950
-0.070142
-0.054683
-0.055660
-0.042498
0.000096
0.050316
0.085562
0.125442
0.184377
0.236665
0.243716
0.241343
0.244386
0.240003
0.215686
0.153235
0.097646
0.062175
0.023094
-0.022007
-0.038187
-0.052820
-0.038055
-0.021409
0.001672
0.011450
0.072046
0.116605
0.161771
0.219949
0.235072
0.244051
0.235219
0.205114
0.213157
0.188111
0.127583
0.075597
0.030865
0.000624
-0.018247
-0.035909
-0.031603
-0.013075
0.032384
0.072866
0.097661
0.142140
0.168122
0.217325
0.247743
0.254118
0.238078
0.212063
0.172274
0.139479
0.096363
0.055502
0.000130
-0.076949
-0.037629
-0.032613
-0.034447
-0.015495
-0.005495
0.017863
0.069649
0.118457
0.153201
0.187800
0.195713
0.211568
0.205239
0.171340
0.139793
0.091800
0.038764
0.030061
-0.024661
-0.083333
-0.114046
-0.108223
-0.067575
-0.043209
-0.034143
0.001982
0.059930
0.075441
0.096870
0.127915
0.145135
0.152280
0.199173
0.157155
0.117842
0.058548
-0.012048
-0.047807
-0.078641
-0.109181
-0.121166
-0.135919
-0.143560
-0.126334
-0.094164
-0.034125
-0.007059
0.014703
0.055632
0.078229
0.119406
0.132144
0.152368
0.131287
0.068850
0.019019
-0.020114
-0.046196
-0.108088
-0.145309
-0.172534
-0.151485
-0.147583
-0.146297
-0.096514
-0.044889
-0.000711
0.022163
0.037272
0.082410
0.097897
0.127269
0.112559
0.086806
0.049290
0.026204
-0.001358
-0.045661
-0.095199
-0.116599
-0.165250
-0.179792
-0.176155
-0.150790
-0.109518
-0.063233
-0.027341
0.009635
0.062583
0.102251
0.128811
0.147449
0.141611
0.112997
0.086302
0.055314
0.004368
-0.065346
-0.111085
-0.141982
-0.126230
-0.143196
-0.163995
-0.145438
-0.100986
-0.076615
-0.040997
0.017026
0.075429
0.109066
0.104313
0.119400
0.122970
0.123196
0.099817
0.054174
-0.003607
-0.051185
-0.108899
-0.130422
-0.138192
-0.157798
-0.160858
-0.142743
-0.087800
-0.051271
-0.005042
0.019945
0.059280
0.112155
0.129443
0.136151
0.141881
0.128530
0.075116
0.053265
0.008649
-0.058660
-0.110424
-0.140394
-0.152646
-0.141634
-0.137991
-0.129985
-0.099290
-0.048200
0.003700
0.040318
0.063474
0.096819
0.138322
0.140841
0.133113
0.116652
0.083030
0.042727
0.007995
-0.025555
-0.070480
-0.114330
-0.156584
-0.162118
-0.129997
-0.099815
-0.075362
-0.053632
-0.008548
0.034589
0.086215
0.106990
0.120560
0.136227
0.140412
0.123585
0.093234
0.052547
-0.025503
-0.069341
-0.092054
-0.098209
-0.126032
-0.145410
-0.142525
-0.132049
-0.091142
-0.052026
-0.013502
0.037406
0.069158
0.143622
0.168412
0.154115
0.139215
0.112933
0.074974
0.031892
-0.008217
-0.046700
-0.113912
-0.136512
-0.128465
-0.147201
-0.143557
-0.128699
-0.089995
-0.047423
-0.027706
0.028091
0.082290
0.124274
0.140156
0.150613
0.137021
0.120325
0.073130
0.022153
-0.031629
-0.080039
-0.113661
-0.133267
-0.156385
-0.178730
-0.170500
-0.143989
-0.121650
-0.076520
-0.020907
0.032829
0.088113
0.136284
0.130631
0.130300
0.114950
0.096810
0.077257
0.020977
-0.026169
-0.061268
-0.105910
-0.153456
-0.169822
-0.185749
-0.187784
-0.163635
-0.121162
-0.076560
-0.019996
0.011506
0.038546
0.077562
0.123107
0.131460
0.121857
0.098989
0.051037
0.017053
-0.024725
-0.069103
-0.111093
-0.145956
-0.158600
-0.180473
-0.181080
-0.131597
-0.100240
-0.063065
-0.007699
0.035359
0.054128
0.074720
0.095343
0.098835
0.102576
0.088921
0.060304
0.027812
-0.021801
-0.059036
-0.104560
-0.152596
-0.176027
-0.166337
-0.153765
-0.191985
-0.190629
-0.094757
-0.035445
0.030981
0.050471
0.104097
0.115846
0.109999
0.095299
0.060172
0.033789
-0.005566
-0.050428
-0.095147
-0.125369
-0.136886
-0.155503
-0.187718
-0.184402
-0.163970
-0.121530
-0.065825
-0.031367
0.008272
0.044449
0.088997
0.128396
0.143255
0.131567
0.092661
0.053732
0.002390
-0.049904
-0.075127
-0.114446
-0.159465
-0.198536
-0.217588
-0.200028
-0.179141
-0.153044
-0.126329
-0.069501
-0.007494
0.045436
0.075342
0.089369
0.087460
0.095192
0.088163
0.055740
0.011006
-0.022288
-0.100560
-0.129956
-0.148775
-0.163404
-0.175092
-0.179382
-0.158812
-0.136838
-0.082989
-0.032180
0.016526
0.036398
0.054487
0.074718
0.090510
0.087651
0.067353
0.029511
-0.015600
-0.031266
-0.050752
-0.109806
-0.150513
-0.188478
-0.201210
-0.187615
-0.149731
-0.122426
-0.075888
-0.022358
0.026210
0.067612
0.094899
0.116927
0.112845
0.102424
0.096607
0.073501
0.023505
-0.022842
-0.066598
-0.108271
-0.138480
-0.157622
-0.172559
-0.181391
-0.151028
-0.108138
-0.058342
-0.024454
0.021863
0.054585
0.095006
0.123870
0.121108
0.129120
0.112158
0.073952
0.019237
-0.046617
-0.084601
-0.110761
-0.121939
-0.123206
-0.135430
-0.119630
-0.133888
-0.104501
-0.043939
0.011523
0.070528
0.101405
0.124860
0.134430
0.136578
0.130179
0.113012
0.069703
0.024064
-0.024400
-0.072591
-0.117316
-0.139792
-0.163937
-0.179390
-0.167178
-0.140793
-0.113087
-0.063141
-0.040002
-0.002003
0.039071
0.071940
0.092476
0.090792
0.075419
0.044975
0.017130
-0.010135
-0.069748
-0.124186
-0.152302
-0.182625
-0.188873
-0.190957
-0.204392
-0.195456
-0.157403
-0.123979
-0.063219
-0.035847
0.000517
0.041340
0.059576
0.072901
0.081051
0.040529
-0.008580
-0.036463
-0.069713
-0.115594
-0.146063
-0.196830
-0.216593
-0.210797
-0.206193
-0.199962
-0.157851
-0.116653
-0.072838
-0.025869
0.002026
0.027692
0.049629
0.054020
0.049521
0.038442
0.011299
-0.047578
-0.100490
-0.136256
-0.185637
-0.206199
-0.227314
-0.230843
-0.225322
-0.198682
-0.174427
-0.139149
-0.101785
-0.047235
-0.010210
0.035501
0.054296
0.065140
0.059893
0.041400
0.001216
-0.024705
-0.072780
-0.124041
-0.162180
-0.192935
-0.216290
-0.227750
-0.235404
-0.214254
-0.169339
-0.135278
-0.086624
-0.048060
-0.014247
0.030648
0.049146
0.052088
0.048986
0.022483
-0.010089
-0.046364
-0.106130
-0.150372
-0.181572
-0.209320
-0.232926
-0.233854
-0.220286
-0.180726
-0.147384
-0.102025
-0.056770
0.004693
0.057450
0.108419
0.163786
0.184098
0.190676
0.190506
0.168405
0.158708
0.143043
0.119957
0.121080
0.110850
0.100052
0.116501
0.183315
0.241052
0.315357
0.399986
0.459516
0.533679
0.612044
0.689688
0.726692
0.777376
0.838750
0.837696
0.829134
0.821104
0.772753
0.722440
0.677687
0.608281
0.564290
0.544907
0.518163
0.499414
0.468829
0.447486
0.423958
0.398905
0.395214
0.381941
0.337185
0.281347
0.267347
0.199766
0.177774
0.145291
0.093884
0.038090
-0.008211
-0.060349
-0.069794
-0.064779
-0.077140
-0.072130
-0.061133
-0.025785
0.022849
0.059922
0.092838
0.136454
0.157215
0.155087
0.146911
0.113801
0.078820
0.040117
-0.009484
-0.057192
-0.100531
-0.147506
-0.143298
-0.147192
-0.135160
-0.123935
-0.097378
-0.048860
-0.012860
0.034615
0.068500
0.094074
0.116505
0.132379
0.138285
0.109439
0.066019
0.015172
-0.039714
-0.089177
-0.084717
-0.128702
-0.153439
-0.160465
-0.157491
-0.131437
-0.105742
-0.059527
-0.020015
0.032289
0.068341
0.085401
0.101788
0.119925
0.116628
0.095167
0.074464
0.045349
-0.002144
-0.051307
-0.088559
-0.118964
-0.136711
-0.148932
-0.139448
-0.114670
-0.077460
-0.037836
-0.001471
0.038759
0.065224
0.107814
0.139726
0.142603
0.160778
0.125756
0.080401
0.042930
0.000591
-0.041739
-0.071291
-0.101606
-0.129742
-0.136094
-0.146519
-0.129401
-0.096973
-0.030255
0.034000
0.077126
0.105443
0.136303
0.155604
0.158985
0.148988
0.140416
0.122025
0.074362
0.023513
-0.021462
-0.062592
-0.091951
-0.103491
-0.088549
-0.073190
-0.064817
-0.043893
-0.006611
0.034829
0.080853
0.130218
0.154660
0.186500
0.221365
0.216585
0.204917
0.171303
0.117804
0.068697
0.011103
-0.020508
-0.016836
-0.057228
-0.078590
-0.056435
-0.034496
0.004984
0.045262
0.082571
0.113784
0.162332
0.221035
0.226990
0.240412
0.242702
0.213942
0.189786
0.172394
0.093044
0.043796
0.007952
-0.021089
-0.038798
-0.043543
-0.031931
-0.012307
0.018763
0.072177
0.110487
0.142951
0.196590
0.220508
0.240614
0.238616
0.252128
0.240400
0.186724
0.142733
0.083947
0.025835
-0.011267
-0.028802
-0.041618
-0.040337
-0.051783
-0.046258
0.007127
0.056095
0.099549
0.131234
0.172801
0.211871
0.257693
0.251124
0.254740
0.224691
0.174081
0.136042
0.086628
0.027356
-0.019175
-0.048884
-0.061401
-0.061601
-0.058750
-0.049643
-0.018741
0.027482
0.069727
0.109105
0.151109
0.168758
0.190895
0.200924
0.189045
0.156637
0.155451
0.097022
0.046168
-0.002073
-0.043758
-0.072326
-0.103728
-0.107504
-0.099988
-0.093328
-0.063668
-0.026439
0.028713
0.050926
0.087267
0.110561
0.140694
0.147829
0.163144
0.137698
0.091864
0.043279
-0.004920
-0.064854
-0.090933
-0.129126
-0.163670
-0.160713
-0.134488
-0.092979
-0.078797
-0.043394
-0.013282
0.026070
0.072987
0.095753
0.121537
0.124883
0.108566
0.092244
0.060863
0.020207
-0.014944
-0.070346
-0.120234
-0.139941
-0.155537
-0.157443
-0.157103
-0.135115
-0.108710
-0.066565
-0.028749
0.008556
0.052236
0.083960
0.093747
0.098764
0.094519
0.087646
0.059783
0.008062
-0.049759
-0.112330
-0.132418
-0.131216
-0.152734
-0.184194
-0.168748
-0.129957
-0.085020
-0.052760
-0.026260
0.008624
0.064821
0.094704
0.102833
0.077687
0.066965
0.093862
0.079895
0.005227
-0.058025
-0.061602
-0.125495
-0.160271
-0.188212
-0.182309
-0.156344
-0.134665
-0.101181
-0.065983
-0.015647
0.025685
0.074461
0.103522
0.126231
0.142879
0.120693
0.100583
0.057455
0.008597
-0.035822
-0.066431
-0.103655
-0.120721
-0.146998
-0.180591
-0.143476
-0.128349
-0.107237
-0.077996
-0.035584
0.023896
0.077798
0.110514
0.122098
0.142883
0.130169
0.109432
0.064148
0.015216
-0.020828
-0.059186
-0.103384
-0.149427
-0.157491
-0.175231
-0.145066
-0.122116
-0.096899
-0.055550
-0.015445
0.020763
0.078864
0.115921
0.124350
0.127273
0.115879
0.089447
0.053180
0.024305
-0.016790
-0.051776
-0.086618
-0.124368
-0.162552
-0.166860
-0.153616
-0.135412
-0.106619
-0.060472
0.007912
0.058597
0.082809
0.106452
0.130689
0.122666
0.099202
0.077480
0.049042
0.018332
-0.023741
-0.066925
-0.119313
-0.151564
-0.164030
-0.167075
-0.156769
-0.134196
-0.098394
-0.057193
-0.022275
0.020054
0.060519
0.086929
0.108647
0.128566
0.124514
0.093994
0.038551
-0.005648
-0.053146
-0.098014
-0.105946
-0.117845
-0.152318
-0.165177
-0.157016
-0.145365
-0.111875
-0.074127
-0.028481
0.012531
0.054982
0.090741
0.105779
0.113979
0.101709
0.085513
0.065672
0.033477
-0.009144
-0.058457
-0.112000
-0.141776
-0.173642
-0.172208
-0.158362
-0.153239
-0.125149
-0.086341
-0.033122
0.015286
0.046463
0.095960
0.127005
0.136010
0.120592
0.097337
0.063596
0.014000
-0.033607
-0.090733
-0.147093
-0.161389
-0.189413
-0.194951
-0.197139
-0.168382
-0.149355
-0.071761
-0.018110
0.023609
0.053858
0.071266
0.081637
0.087292
0.101076
0.075135
0.048735
0.020185
-0.040739
-0.093856
-0.122588
-0.154522
-0.183804
-0.196400
-0.186022
-0.166317
-0.125915
-0.077245
-0.023490
0.017618
0.043349
0.070047
0.088968
0.104861
0.109334
0.081295
0.050566
0.004091
-0.037762
-0.086191
-0.137098
-0.172436
-0.169950
-0.166687
-0.190451
-0.185219
-0.152787
-0.097641
-0.031462
0.022299
0.053521
0.070074
0.077340
0.095954
0.079516
0.067089
0.040781
0.007867
-0.041589
-0.107287
-0.149065
-0.180152
-0.181920
-0.174267
-0.170368
-0.162420
-0.131273
-0.068339
-0.018816
0.022310
0.053841
0.083368
0.098508
0.104022
0.098212
0.077909
0.046022
0.005941
-0.049881
-0.095077
-0.141366
-0.168904
-0.186151
-0.195875
-0.192020
-0.176429
-0.137455
-0.094612
-0.039358
0.003648
0.044010
0.077308
0.085631
0.093568
0.082695
0.079402
0.053992
0.010143
-0.024726
-0.084200
-0.122100
-0.156044
-0.163062
-0.170410
-0.175095
-0.144113
-0.115538
-0.077711
-0.014930
0.030671
0.054282
0.097293
0.117932
0.128648
0.137959
0.117090
0.083270
0.041923
0.002836
-0.038823
-0.071910
-0.125705
-0.141646
-0.148439
-0.154190
-0.134465
-0.088676
-0.054766
-0.007632
0.037815
0.069838
0.106764
0.145092
0.147803
0.139155
0.117441
0.093464
0.053545
0.011122
-0.031133
-0.071964
-0.101152
-0.105547
-0.122773
-0.119775
-0.101892
-0.068824
-0.032749
0.007812
0.049791
0.091560
0.118490
0.125103
0.126794
0.116200
0.095455
0.070531
0.023696
-0.020355
-0.070949
-0.111017
-0.141775
-0.161527
-0.181718
-0.171119
-0.136389
-0.105370
-0.071728
-0.031721
0.000136
0.039857
0.078758
0.103473
0.107032
0.110508
0.066940
0.043692
0.000719
-0.054365
-0.097943
-0.137968
-0.182810
-0.195658
-0.194248
-0.181828
-0.160096
-0.132632
-0.098020
-0.053759
-0.026848
0.010025
0.051666
0.082188
0.084073
0.073469
0.051469
0.020714
-0.033678
-0.065700
-0.106377
-0.133037
-0.187004
-0.203828
-0.208023
-0.206442
-0.192962
-0.154742
-0.096298
-0.064051
-0.019969
0.032609
0.059980
0.080088
0.083305
0.069934
0.046438
0.024904
-0.013789
-0.066027
-0.105410
-0.156009
-0.203658
-0.209253
-0.211387
-0.213720
-0.194584
-0.169637
-0.124889
-0.079710
-0.026115
0.021857
0.040013
0.072865
0.085551
0.076029
0.056925
0.027904
-0.022073
-0.059625
-0.099959
-0.143599
-0.184494
-0.203247
-0.204744
-0.207602
-0.190240
-0.151380
-0.109469
-0.056955
-0.015534
0.018274
0.037534
0.040894
0.057485
0.051698
0.033219
0.006489
-0.038469
-0.073206
-0.099261
-0.135261
-0.142956
-0.150830
-0.152199
-0.128269
-0.086113
-0.046852
0.012608
0.067092
0.118354
0.177378
0.225278
0.256726
0.285919
0.317270
0.325418
0.322079
0.314487
0.315460
0.313765
0.311092
0.322173
0.339622
0.365135
0.395685
0.446745
0.516277
0.601883
0.696943
0.759459
0.839482
0.914970
0.933960
0.922460
0.908533
0.864988
0.792657
0.735293
0.692942
0.626473
0.525387
0.403771
0.338002
0.296887
0.254863
0.213382
0.188252
0.175857
0.178316
0.198645
0.233916
0.257395
0.266869
0.254311
0.237759
0.211343
0.167150
0.101871
0.032755
-0.011648
-0.092040
-0.120302
-0.116128
-0.111817
-0.112978
-0.080282
-0.066509
-0.023089
0.033149
0.080958
0.117125
0.150405
0.158309
0.162069
0.139390
0.097974
0.047628
0.021145
0.002233
-0.047481
-0.080951
-0.117762
-0.154367
-0.158624
-0.156001
-0.131297
-0.090059
-0.043396
-0.018157
0.027928
0.062417
0.103095
0.124313
0.129095
0.126292
0.104536
0.080751
0.034479
-0.015704
-0.073117
-0.113599
-0.150468
-0.168909
-0.173441
-0.164735
-0.133710
-0.102867
-0.059754
-0.001221
0.042401
0.079379
0.116120
0.138110
0.137908
0.138291
0.115734
0.085299
0.047426
-0.002845
-0.040065
-0.096260
-0.125437
-0.145493
-0.147929
-0.151926
-0.117776
-0.083715
-0.056744
-0.013460
0.028434
0.066544
0.107987
0.125235
0.142304
0.120171
0.096040
0.089787
0.058600
0.023042
-0.027724
-0.074105
-0.114401
-0.132754
-0.120182
-0.118424
-0.090457
-0.063646
-0.020262
0.023237
0.071695
0.112586
0.141687
0.164920
0.158802
0.153085
0.139629
0.110643
0.090034
0.050089
-0.000649
-0.051359
-0.085569
-0.099604
-0.089277
-0.072670
-0.054757
-0.028385
0.025681
0.058750
0.099678
0.154829
0.171497
0.196577
0.202204
0.199396
0.183635
0.150062
0.111166
0.058954
0.027299
0.002729
-0.020476
-0.038845
-0.037322
-0.021404
-0.006447
0.019908
0.057149
0.104763
0.148759
0.173859
0.197675
0.238153
0.233336
0.228511
0.210584
0.165608
0.138772
0.112695
0.064561
0.020841
-0.010014
-0.041139
-0.047419
-0.036672
-0.011272
0.028341
0.063948
0.095653
0.130324
0.187808
0.227563
0.246767
0.242390
0.248551
0.222925
0.181354
0.135308
0.095769
0.045842
0.006961
-0.028051
-0.063254
-0.066854
-0.052615
-0.017706
0.019865
0.045546
0.085469
0.129844
0.171854
0.201766
0.221544
0.215612
0.217547
0.196250
0.161502
0.126295
0.064277
0.017476
-0.025640
-0.079453
-0.127981
-0.088189
-0.070645
-0.049444
-0.015591
0.009805
0.050246
0.104002
0.142991
0.172548
0.194884
0.200250
0.192149
0.177211
0.126682
0.085816
0.029480
-0.028323
-0.075248
-0.099081
-0.120622
-0.114579
-0.115212
-0.100923
-0.077550
-0.036807
0.005508
0.053145
0.093958
0.128913
0.138531
0.144245
0.130836
0.111928
0.068983
0.039203
-0.006442
-0.049705
-0.103575
-0.142781
-0.163966
-0.166623
-0.155842
-0.137405
-0.112284
-0.076177
-0.029224
0.021986
0.068401
0.095595
0.121788
0.124436
0.124322
0.095563
0.051725
0.019186
-0.021140
-0.074998
-0.116963
-0.145302
-0.177739
-0.187238
-0.168390
-0.137652
-0.111553
-0.083636
-0.028821
0.016816
0.055257
0.096334
0.112902
0.107041
0.114019
0.090616
0.056815
0.012366
-0.019716
-0.071245
-0.125073
-0.145923
-0.176363
-0.183012
-0.157159
-0.125175
-0.100279
-0.064569
-0.021291
0.024939
0.061704
0.093530
0.118539
0.114764
0.093291
0.095177
0.068405
0.024979
-0.022781
-0.069553
-0.120200
-0.152996
-0.162082
-0.158566
-0.156943
-0.128063
-0.094038
-0.048900
-0.013982
0.026538
0.063525
0.095440
0.113788
0.120122
0.119787
0.091451
0.045826
0.009023
-0.034659
-0.094363
-0.131548
-0.138399
-0.165673
-0.168201
-0.141859
-0.130218
-0.097224
-0.056217
-0.012892
0.032830
0.077240
0.110900
0.134712
0.138756
0.131255
0.108262
0.075600
0.030141
-0.013265
-0.056193
-0.095778
-0.124183
-0.160900
-0.171613
-0.161599
-0.135949
-0.102023
-0.069878
-0.024456
0.032074
0.072452
0.105339
0.118112
0.128306
0.116458
0.105328
0.071372
0.036183
-0.018142
-0.057220
-0.097509
-0.140202
-0.156877
-0.167428
-0.164017
-0.142451
-0.114016
-0.058315
-0.008135
0.041661
0.075987
0.097123
0.121638
0.130141
0.119971
0.096411
0.066496
0.021492
-0.021010
-0.068711
-0.105366
-0.137090
-0.144362
-0.160202
-0.161309
-0.137130
-0.098177
-0.059940
-0.010011
0.034023
0.082661
0.108874
0.122323
0.119488
0.107393
0.081111
0.052321
0.022241
-0.023601
-0.071594
-0.113632
-0.152013
-0.150301
-0.152864
-0.159767
-0.150235
-0.117406
-0.069544
-0.009939
0.029176
0.058129
0.096143
0.102390
0.103227
0.105368
0.086840
0.057882
0.013138
-0.038150
-0.076928
-0.115242
-0.158992
-0.169213
-0.173944
-0.155754
-0.144639
-0.111512
-0.058950
-0.030644
0.011427
0.050506
0.089737
0.097117
0.109497
0.097818
0.080444
0.050759
0.013077
-0.043488
-0.084316
-0.115646
-0.152447
-0.169464
-0.186531
-0.170563
-0.163450
-0.127331
-0.085409
-0.032589
0.013843
0.065259
0.096151
0.112607
0.111255
0.110789
0.090797
0.067274
0.006145
-0.035258
-0.071586
-0.127790
-0.164029
-0.176374
-0.180758
-0.171052
-0.152661
-0.112012
-0.070286
-0.018778
0.010959
0.054075
0.090386
0.113778
0.100851
0.089594
0.070013
0.041716
0.013440
-0.032297
-0.071858
-0.106728
-0.143524
-0.162939
-0.165575
-0.162536
-0.143353
-0.130142
-0.089652
-0.052030
-0.001386
0.053009
0.083919
0.109912
0.119373
0.109288
0.094739
0.062491
0.012559
-0.027077
-0.076906
-0.129221
-0.161565
-0.155128
-0.168327
-0.146251
-0.123235
-0.092799
-0.054914
-0.020109
0.028803
0.077774
0.123293
0.137342
0.138097
0.131708
0.114379
0.080126
0.017659
-0.007869
-0.037823
-0.070228
-0.109315
-0.137411
-0.141014
-0.129689
-0.112502
-0.070905
-0.022955
0.014270
0.069556
0.112067
0.138944
0.167055
0.173703
0.140269
0.118939
0.088393
0.043460
0.004500
-0.041904
-0.082741
-0.116815
-0.131270
-0.135166
-0.124841
-0.090761
-0.047362
0.006299
0.051690
0.089152
0.116528
0.144034
0.159514
0.165319
0.150038
0.119767
0.079989
0.032152
-0.009566
-0.052847
-0.104991
-0.129413
-0.152238
-0.161013
-0.141322
-0.128144
-0.088353
-0.042376
0.005807
0.039075
0.078130
0.113481
0.128873
0.129962
0.115519
0.079499
0.047664
0.007123
-0.032946
-0.074452
-0.124303
-0.158385
-0.178053
-0.189758
-0.172130
-0.140462
-0.122649
-0.075007
-0.029261
0.013226
0.057657
0.085663
0.109312
0.111121
0.088710
0.060218
0.028940
-0.013990
-0.050722
-0.106378
-0.144023
-0.183974
-0.196970
-0.209731
-0.198120
-0.177836
-0.143691
-0.100324
-0.055661
-0.016886
0.024267
0.059634
0.090447
0.095187
0.083775
0.057314
0.030522
-0.000643
-0.042340
-0.093620
-0.135988
-0.168103
-0.191713
-0.202049
-0.195730
-0.170045
-0.133986
-0.090875
-0.049650
0.000637
0.042745
0.073247
0.099256
0.103332
0.091352
0.061026
0.038322
-0.010217
-0.051524
-0.104533
-0.134984
-0.166976
-0.197242
-0.205645
-0.195512
-0.164634
-0.130204
-0.098061
-0.051646
-0.019086
0.028101
0.065163
0.067511
0.080723
0.064458
0.030844
0.008135
-0.036561
-0.065938
-0.116236
-0.155217
-0.178261
-0.191590
-0.195150
-0.171734
-0.134405
-0.090225
-0.035508
0.023230
0.079480
0.133768
0.199685
0.225422
0.226107
0.235146
0.233543
0.215213
0.199698
0.175850
0.152722
0.147145
0.149727
0.175621
0.216126
0.250641
0.298599
0.357303
0.451526
0.525939
0.602935
0.695107
0.780130
0.834211
0.871328
0.891798
0.908084
0.880958
0.836690
0.782635
0.738364
0.677035
0.616197
0.573316
0.548447
0.518166
0.465662
0.437554
0.410252
0.395161
0.393531
0.378782
0.364974
0.353277
0.315945
0.290105
0.260486
0.231200
0.190241
0.129993
0.074610
0.024258
-0.040379
-0.064778
-0.100090
-0.087501
-0.057004
-0.024156
0.014717
0.046883
0.100582
0.137653
0.174965
0.180656
0.186118
0.197039
0.171719
0.121443
0.060768
0.003687
-0.041089
-0.079503
-0.107600
-0.117903
-0.125765
-0.128428
-0.111359
-0.084558
-0.035292
0.002301
0.047861
0.083710
0.116188
0.142962
0.158084
0.148032
0.116070
0.082193
0.042932
-0.008163
-0.055309
-0.106204
-0.124811
-0.131313
-0.146431
-0.134245
-0.118803
-0.095201
-0.054082
-0.000300
0.052642
0.099104
0.128702
0.148487
0.159923
0.154042
0.112883
0.079708
0.037405
0.002760
-0.039053
-0.075299
-0.110866
-0.121957
-0.126793
-0.123041
-0.093930
-0.066578
-0.027504
0.022309
0.070849
0.114169
0.139285
0.170270
0.172937
0.157148
0.132967
0.113415
0.067964
0.022127
-0.017647
-0.053335
-0.094399
-0.120372
-0.126248
-0.104040
-0.071151
-0.048205
0.004444
0.045991
0.094205
0.129053
0.167332
0.183129
0.189187
0.187932
0.170009
0.138524
0.097673
0.048815
0.013662
-0.036739
-0.069535
-0.086159
-0.086847
-0.087008
-0.058661
-0.023518
0.022181
0.079215
0.139970
0.175391
0.208055
0.225788
0.224918
0.200434
0.192240
0.181524
0.157981
0.106557
0.049552
0.016583
-0.029965
-0.054077
-0.068505
-0.063400
-0.030121
0.012422
0.058814
0.107580
0.149188
0.205533
0.245916
0.266726
0.268721
0.268938
0.255320
0.220040
0.165830
0.123061
0.083499
0.034593
-0.001128
-0.021054
-0.022174
-0.016960
0.021407
0.057289
0.093322
0.130969
0.169530
0.204431
0.244606
0.277434
0.274087
0.250031
0.233991
0.212021
0.180122
0.119881
0.071231
0.029732
0.006763
-0.010752
-0.017664
-0.015024
0.013992
0.036317
0.069486
0.116438
0.165640
0.212934
0.234842
0.249491
0.243408
0.229269
0.208428
0.180322
0.133112
0.075885
0.054125
0.016607
-0.019801
-0.037988
-0.048235
-0.038368
-0.030976
0.006994
0.039844
0.081264
0.134155
0.171379
0.205204
0.215168
0.218980
0.223823
0.186295
0.151489
0.104904
0.051158
0.008323
-0.024045
-0.073285
-0.091932
-0.096560
-0.088104
-0.061517
-0.033428
0.002694
0.046124
0.085549
0.122804
0.152515
0.165987
0.177810
0.163170
0.135482
0.111492
0.072213
0.018291
-0.031986
-0.076577
-0.102416
-0.117348
-0.123806
-0.122693
-0.103624
-0.065326
-0.024736
0.010025
0.043087
0.088111
0.124989
0.138729
0.142335
0.142223
0.123280
0.086113
0.037936
-0.005446
-0.048055
-0.095391
-0.131777
-0.152940
-0.154536
-0.147954
-0.122418
-0.083372
-0.056521
-0.002469
0.039419
0.082494
0.113770
0.150084
0.152271
0.146339
0.123433
0.077990
0.037130
-0.004105
-0.048055
-0.095662
-0.127938
-0.148703
-0.155975
-0.150215
-0.119829
-0.078339
-0.041273
-0.003794
0.039050
0.078829
0.119697
0.130504
0.133968
0.130829
0.106701
0.075070
0.041298
-0.003285
-0.048844
-0.096646
-0.121212
-0.149942
-0.165940
-0.143986
-0.121173
-0.085645
-0.050193
-0.006343
0.032735
0.074565
0.108735
0.136248
0.147830
0.137262
0.115839
0.091072
0.047018
0.006302
-0.032322
-0.077493
-0.115324
-0.132677
-0.140523
-0.127547
-0.115880
-0.079084
-0.033617
0.015188
0.052106
0.096872
0.124173
0.148089
0.161909
0.152991
0.140722
0.099878
0.060116
0.003849
-0.043313
-0.079774
-0.109935
-0.133897
-0.147208
-0.139515
-0.109146
-0.078776
-0.035665
0.006126
0.052866
0.094702
0.128066
0.152530
0.156893
0.152547
0.125834
0.084644
0.051695
0.006174
-0.055024
-0.096741
-0.124234
-0.137118
-0.141282
-0.133659
-0.117122
-0.087441
-0.045372
0.002909
0.060786
0.100073
0.125551
0.150681
0.154710
0.146160
0.122423
0.089457
0.045727
-0.002529
-0.047288
-0.095298
-0.121770
-0.149222
-0.151637
-0.142581
-0.125397
-0.085911
-0.044279
-0.005948
0.031567
0.068458
0.103783
0.122585
0.139368
0.128575
0.107047
0.072763
0.028397
-0.015906
-0.054868
-0.092459
-0.134317
-0.152696
-0.157129
-0.146444
-0.127881
-0.085329
-0.040690
-0.001093
0.039310
0.080121
0.113188
0.134376
0.140379
0.130519
0.103898
0.063019
0.029134
-0.008910
-0.061172
-0.108933
-0.129750
-0.149136
-0.153655
-0.151351
-0.118065
-0.089183
-0.044856
-0.000167
0.047507
0.069846
0.108867
0.121255
0.119385
0.110560
0.092056
0.052010
0.021977
-0.023917
-0.064425
-0.104022
-0.143668
-0.168987
-0.175069
-0.158043
-0.142671
-0.104385
-0.070564
-0.019151
0.032684
0.069431
0.095653
0.113026
0.106043
0.105710
0.084887
0.051483
0.015317
-0.022652
-0.073473
-0.120298
-0.148475
-0.176483
-0.176775
-0.162790
-0.151928
-0.102831
-0.070780
-0.019270
0.029479
0.070288
0.109617
0.129600
0.129285
0.119260
0.080880
0.039310
0.003450
-0.033378
-0.080799
-0.125548
-0.160989
-0.173157
-0.170619
-0.162835
-0.149139
-0.115593
-0.072443
-0.023717
0.019038
0.064818
0.106239
0.125156
0.129080
0.128136
0.101798
0.056018
0.011185
-0.036063
-0.079724
-0.124278
-0.152641
-0.172797
-0.184102
-0.170901
-0.152473
-0.118641
-0.084213
-0.027837
0.024908
0.066872
0.095615
0.115632
0.130347
0.117844
0.096074
0.063420
0.020060
-0.029862
-0.071618
-0.116589
-0.151599
-0.169704
-0.175322
-0.158248
-0.142918
-0.108201
-0.064114
-0.004532
0.038470
0.083389
0.108204
0.131308
0.146761
0.125353
0.107472
0.089523
0.048478
-0.000779
-0.055930
-0.080270
-0.115687
-0.138640
-0.149422
-0.135432
-0.099981
-0.072609
-0.041093
0.004692
0.055902
0.083555
0.127412
0.146026
0.150509
0.141425
0.120527
0.084948
0.042674
0.004817
-0.046748
-0.079399
-0.103040
-0.121358
-0.132344
-0.128244
-0.104709
-0.068612
-0.010910
0.040880
0.080937
0.125540
0.151607
0.155063
0.158192
0.155444
0.138970
0.095247
0.039866
-0.003004
-0.046956
-0.091405
-0.128872
-0.161797
-0.152146
-0.148226
-0.126834
-0.103737
-0.067398
-0.017462
0.032616
0.077402
0.099783
0.118650
0.120823
0.112709
0.094154
0.046922
0.005350
-0.042273
-0.082382
-0.121658
-0.158497
-0.175364
-0.184145
-0.190538
-0.168531
-0.122434
-0.100049
-0.046148
-0.011071
0.028618
0.068435
0.089110
0.096279
0.070567
0.052193
0.014599
-0.022334
-0.060998
-0.118338
-0.149022
-0.184224
-0.210859
-0.200546
-0.199034
-0.176410
-0.148533
-0.099933
-0.029218
0.010232
0.042937
0.075782
0.095699
0.109637
0.086825
0.065182
0.024215
-0.018675
-0.069750
-0.119209
-0.162627
-0.187449
-0.201970
-0.217580
-0.210077
-0.184900
-0.150932
-0.098948
-0.053241
-0.005408
0.035834
0.059191
0.078247
0.084527
0.072666
0.050423
0.022909
-0.019168
-0.064638
-0.121818
-0.164013
-0.192322
-0.213661
-0.233087
-0.211804
-0.189961
-0.156342
-0.089094
-0.039668
-0.012175
0.033729
0.071411
0.093699
0.076318
0.078875
0.048555
0.013496
-0.029434
-0.074547
-0.126797
-0.156923
-0.183110
-0.206064
-0.221527
-0.198718
-0.158991
-0.109885
-0.046299
0.012755
0.060634
0.102014
0.155367
0.206647
0.220698
0.224537
0.216785
0.202536
0.187862
0.162927
0.140885
0.130205
0.122541
0.140205
0.168980
0.212541
0.257354
0.320086
0.393104
0.463320
0.548355
0.623684
0.686545
0.744103
0.794131
0.828266
0.835830
0.819282
0.773654
0.728498
0.679562
0.627175
0.574836
0.548514
0.521656
0.502172
0.463117
0.419635
0.414293
0.389502
0.377634
0.361411
0.339901
0.329704
0.295643
0.265207
0.213025
0.167792
0.116218
0.064590
0.024809
-0.026911
-0.087996
-0.114883
-0.117808
-0.111017
-0.079328
-0.038442
0.003130
0.040625
0.072204
0.104186
0.133655
0.148905
0.153737
0.161351
0.135801
0.101214
0.056210
0.010325
-0.045305
-0.092614
-0.115630
-0.130047
-0.145022
-0.144935
-0.121575
-0.103718
-0.052670
-0.013398
0.032488
0.071572
0.118898
0.130546
0.132826
0.129982
0.114634
0.075756
0.030667
-0.018396
-0.064876
-0.113285
-0.141472
-0.163395
-0.174240
-0.162798
-0.142820
-0.105028
-0.053095
-0.009642
0.035441
0.071521
0.104347
0.131565
0.138862
0.133047
0.106288
0.077046
0.032112
-0.014243
-0.059298
-0.099407
-0.131867
-0.137900
-0.150851
-0.146889
-0.118841
-0.094546
-0.052561
-0.001661
0.057790
0.087712
0.114114
0.147786
0.159414
0.140920
0.119812
0.086685
0.051162
0.012338
-0.050998
-0.089977
-0.131686
-0.151611
-0.135488
-0.115672
-0.092227
-0.068742
-0.024816
0.034539
0.088950
0.123517
0.143286
0.171374
0.177720
0.174645
0.161197
0.117631
0.065518
0.019987
-0.019473
-0.056507
-0.082569
-0.096038
-0.098765
-0.089228
-0.064313
-0.027932
0.020538
0.065782
0.107173
0.155772
0.187930
0.216223
0.222071
0.212237
0.188602
0.170124
0.117124
0.071638
0.021298
-0.023874
-0.053271
-0.065455
-0.072626
-0.065875
-0.036063
-0.019592
0.036106
0.082833
0.135438
0.185502
0.226879
0.250617
0.250509
0.237268
0.218938
0.181741
0.136634
0.094904
0.061363
0.022663
-0.001609
-0.029920
-0.033266
-0.031554
-0.008004
0.015896
0.069105
0.112553
0.151315
0.194026
0.226843
0.254257
0.255568
0.238747
0.211004
0.181325
0.140332
0.105195
0.053207
0.011601
-0.024609
-0.042822
-0.048282
-0.034573
-0.014357
0.017853
0.052920
0.098767
0.142917
0.185218
0.211794
0.241328
0.255721
0.246929
0.230884
0.198453
0.145566
0.099630
0.044538
-0.001543
-0.030581
-0.053918
-0.067529
-0.057111
-0.042420
-0.009512
0.036903
0.080741
0.119178
0.157788
0.186977
0.201276
0.211042
0.204454
0.169337
0.145444
0.097514
0.051757
0.002256
-0.047635
-0.075610
-0.093563
-0.101350
-0.102560
-0.083687
-0.049149
-0.006495
0.034576
0.092091
0.130267
0.157329
0.168643
0.170249
0.165874
0.141457
0.088392
0.040127
-0.006920
-0.046818
-0.088783
-0.120656
-0.147876
-0.164757
-0.147576
-0.122801
-0.085558
-0.035405
0.009264
0.060585
0.098622
0.126017
0.138176
0.138542
0.134714
0.112584
0.073123
0.026959
-0.024131
-0.068665
-0.104321
-0.131021
-0.155522
-0.164098
-0.153614
-0.129576
-0.086507
-0.043942
0.002042
0.043785
0.068609
0.081835
0.117695
0.140303
0.125120
0.099674
0.076931
0.045296
-0.003947
-0.055381
-0.101191
-0.137964
-0.156708
-0.165058
-0.160571
-0.137362
-0.101057
-0.057130
-0.017739
0.032837
0.073558
0.114190
0.135142
0.136450
0.135843
0.109327
0.081498
0.052268
0.010062
-0.045496
-0.095210
-0.118141
-0.148053
-0.142721
-0.144001
-0.125161
-0.088514
-0.049257
0.001302
0.051820
0.082191
0.108928
0.133474
0.140505
0.139064
0.115892
0.079271
0.033799
-0.009858
-0.050464
-0.091509
-0.126532
-0.138529
-0.152940
-0.149918
-0.117739
-0.073011
-0.035090
0.012430
0.056138
0.094388
0.130214
0.151929
0.159841
0.145794
0.123174
0.093130
0.052520
-0.005099
-0.043946
-0.089227
-0.130948
-0.149769
-0.160533
-0.146658
-0.119312
-0.071278
-0.031212
0.012095
0.056413
0.109204
0.147770
0.164237
0.163273
0.157807
0.136526
0.092963
0.049078
-0.000917
-0.044737
-0.087299
-0.119836
-0.134556
-0.139322
-0.144893
-0.112794
-0.081518
-0.043893
0.009669
0.045009
0.094715
0.136959
0.157293
0.163435
0.156688
0.129613
0.093265
0.049396
0.000532
-0.050656
-0.103533
-0.134647
-0.141267
-0.149286
-0.149010
-0.124443
-0.090057
-0.051538
0.009660
0.052173
0.094139
0.128104
0.157539
0.156691
0.152011
0.125963
0.093768
0.046200
-0.007639
-0.056867
-0.087813
-0.124712
-0.150629
-0.162423
-0.155686
-0.136111
-0.091845
-0.028006
0.004729
0.054644
0.095707
0.121560
0.130409
0.140119
0.139632
0.114430
0.073800
0.032801
-0.014129
-0.054883
-0.098111
-0.131350
-0.148582
-0.153302
-0.154014
-0.128588
-0.097136
-0.048909
0.001629
0.046924
0.084955
0.115665
0.139356
0.136448
0.129037
0.106617
0.068130
0.026382
-0.024778
-0.070848
-0.111156
-0.142378
-0.157836
-0.160212
-0.149233
-0.129113
-0.097897
-0.058892
-0.007588
0.039668
0.087357
0.116120
0.121116
0.122533
0.134679
0.113759
0.076593
0.022501
-0.029641
-0.081532
-0.119133
-0.157908
-0.187293
-0.174293
-0.155252
-0.128240
-0.098976
-0.056969
-0.008657
0.042401
0.104463
0.126536
0.145655
0.139389
0.130529
0.104402
0.065351
0.019038
-0.022420
-0.072396
-0.120181
-0.162462
-0.157992
-0.162096
-0.152734
-0.128154
-0.096758
-0.051933
-0.001899
0.048848
0.088800
0.133858
0.150893
0.163673
0.152654
0.143696
0.106814
0.057475
0.017077
-0.023152
-0.069322
-0.111755
-0.131363
-0.135088
-0.134641
-0.115103
-0.075043
-0.018684
0.036217
0.073353
0.112211
0.153322
0.168843
0.166410
0.170053
0.153453
0.103609
0.051423
0.008360
-0.039589
-0.075097
-0.112112
-0.128242
-0.130546
-0.123072
-0.096131
-0.061212
-0.016744
0.038914
0.087893
0.141109
0.169373
0.177844
0.195408
0.181239
0.150642
0.126046
0.090759
0.032443
-0.010631
-0.055651
-0.096962
-0.113199
-0.123421
-0.115758
-0.094978
-0.064107
-0.032071
0.014793
0.054343
0.085046
0.122688
0.139643
0.141046
0.123377
0.100873
0.058791
0.019204
-0.037187
-0.079748
-0.110146
-0.124879
-0.143024
-0.157712
-0.156337
-0.150834
-0.119631
-0.072251
-0.027444
0.011713
0.056280
0.088074
0.111444
0.116940
0.111697
0.078686
0.047005
0.007469
-0.038261
-0.089048
-0.133609
-0.173639
-0.194959
-0.194437
-0.179372
-0.161862
-0.131438
-0.084454
-0.032825
0.011145
0.054049
0.078419
0.105653
0.102933
0.101342
0.074691
0.037175
-0.007406
-0.052426
-0.107511
-0.143050
-0.183962
-0.193346
-0.201703
-0.196333
-0.169468
-0.134504
-0.086023
-0.039854
0.001437
0.043537
0.070068
0.085928
0.102108
0.089112
0.071489
0.033799
-0.011003
-0.062211
-0.106342
-0.148833
-0.174403
-0.199500
-0.202556
-0.194492
-0.178521
-0.139832
-0.093531
-0.043948
0.005722
0.044772
0.075003
0.099342
0.101834
0.095513
0.076004
0.040859
-0.007326
-0.048972
-0.109056
-0.154797
-0.184212
-0.212365
-0.218762
-0.208379
-0.189864
-0.145092
-0.101727
-0.046300
0.016917
0.069831
0.110577
0.144320
0.183452
0.187883
0.171228
0.173715
0.131936
0.091371
0.051129
0.028222
0.022017
0.024013
0.043645
0.081161
0.131695
0.193446
0.268657
0.356623
0.424350
0.496129
0.561667
0.605572
0.653018
0.685988
0.707233
0.711014
0.712286
0.681845
0.656671
0.632855
0.621388
0.620967
0.613082
0.607940
0.605818
0.622553
0.638177
0.656691
0.653403
0.617391
0.583808
0.539752
0.492261
0.436043
0.375511
0.292818
0.214093
0.135376
0.072229
0.026044
-0.023520
-0.037844
-0.052251
-0.057644
-0.044584
-0.011664
0.023484
0.059615
0.105150
0.153021
0.175397
0.191726
0.199296
0.187423
0.164792
0.124303
0.066124
0.014389
-0.030103
-0.066290
-0.113843
-0.133001
-0.140868
-0.123631
-0.110511
-0.073055
-0.037330
0.012956
0.052782
0.094117
0.125412
0.148389
0.150366
0.141891
0.122297
0.086171
0.054844
0.008275
-0.046770
-0.091235
-0.122703
-0.135736
-0.148946
-0.147930
-0.126568
-0.093729
-0.060621
-0.002192
0.045421
0.082960
0.114630
0.131604
0.139603
0.141065
0.133128
0.095470
0.042055
0.002636
-0.060845
-0.101274
-0.132309
-0.146129
-0.151707
-0.135058
-0.108970
-0.074213
-0.037441
0.005497
0.058016
0.098731
0.128806
0.147942
0.153124
0.142584
0.127189
0.093130
0.056779
0.018738
-0.044317
-0.078314
-0.115697
-0.128918
-0.143914
-0.129570
-0.123742
-0.079936
-0.024321
0.036482
0.094360
0.134416
0.158028
0.187591
0.187444
0.178884
0.152257
0.129089
0.090139
0.038395
-0.004471
-0.045336
-0.076583
-0.109213
-0.132643
-0.121004
-0.083784
-0.043116
0.014884
0.064245
0.116499
0.153343
0.189102
0.212334
0.223060
0.217379
0.193700
0.166407
0.124410
0.084363
0.033264
-0.005205
-0.044361
-0.072398
-0.068546
-0.050881
-0.037808
-0.013181
0.026286
0.075964
0.133037
0.170068
0.219163
0.239604
0.246750
0.240758
0.216820
0.179622
0.146631
0.110767
0.051125
0.008420
-0.020102
-0.025139
-0.033590
-0.026945
-0.008296
0.030931
0.063864
0.124751
0.180922
0.214276
0.253241
0.267382
0.267842
0.254046
0.210947
0.182636
0.150864
0.096839
0.061122
0.015740
-0.015910
-0.035222
-0.044188
-0.031791
-0.005328
0.028557
0.063302
0.111674
0.158851
0.200296
0.226581
0.253754
0.259857
0.248801
0.217044
0.192875
0.148455
0.093601
0.052888
0.003315
-0.031472
-0.057546
-0.062661
-0.064033
-0.029494
0.000438
0.035818
0.084171
0.131371
0.174095
0.205112
0.220837
0.221257
0.212017
0.194985
0.152594
0.104057
0.059945
0.009713
-0.034287
-0.069798
-0.092537
-0.100445
-0.101463
-0.087120
-0.051920
-0.010940
0.030482
0.077179
0.123121
0.157483
0.174018
0.183214
0.165295
0.146872
0.109307
0.066547
0.017732
-0.040217
-0.082278
-0.116842
-0.143566
-0.147947
-0.141256
-0.121898
-0.096680
-0.049304
-0.004569
0.035321
0.085362
0.115075
0.144396
0.151653
0.142675
0.118417
0.080758
0.032460
-0.014151
-0.073450
-0.120272
-0.154249
-0.183334
-0.179030
-0.178100
-0.149336
-0.102854
-0.061449
-0.009475
0.029412
0.075514
0.110677
0.123891
0.125589
0.120368
0.100059
0.058323
0.023827
-0.032267
-0.071695
-0.116645
-0.148669
-0.165300
-0.163431
-0.163507
-0.144652
-0.116243
-0.068033
-0.015160
0.041763
0.093112
0.117018
0.137990
0.131018
0.112431
0.095330
0.069007
0.023942
-0.013044
-0.059678
-0.112388
-0.140179
-0.161044
-0.159908
-0.165571
-0.136949
-0.098957
-0.063068
-0.023572
0.030935
0.063594
0.102278
0.127078
0.137865
0.128735
0.111634
0.075934
0.032016
-0.015632
-0.055649
-0.097593
-0.137927
-0.153926
-0.160133
-0.151429
-0.131753
-0.098223
-0.047466
-0.004041
0.044847
0.085593
0.121023
0.139308
0.142005
0.143772
0.111112
0.077283
0.033005
-0.021398
-0.063286
-0.114608
-0.141003
-0.158896
-0.161044
-0.156215
-0.135489
-0.099493
-0.053271
-0.007307
0.047556
0.084335
0.111828
0.140177
0.145838
0.141638
0.121206
0.089123
0.037977
-0.001709
-0.063057
-0.111651
-0.141800
-0.165737
-0.176281
-0.155568
-0.139254
-0.103705
-0.055987
-0.008240
0.030704
0.074951
0.110516
0.140469
0.147998
0.142135
0.111973
0.081113
0.048826
-0.003304
-0.058060
-0.111020
-0.136082
-0.164086
-0.175109
-0.164395
-0.142195
-0.104199
-0.067920
-0.024371
0.025204
0.077125
0.106768
0.123390
0.131284
0.127664
0.111465
0.075257
0.032931
-0.013357
-0.060901
-0.108454
-0.132201
-0.164789
-0.173519
-0.167886
-0.140152
-0.115103
-0.073318
-0.023537
0.025111
0.072435
0.102265
0.124274
0.130490
0.115813
0.085726
0.057126
0.015921
-0.028182
-0.075063
-0.124648
-0.151186
-0.180765
-0.185314
-0.167400
-0.134168
-0.110808
-0.066107
-0.021164
0.020612
0.073308
0.090852
0.112049
0.119369
0.116014
0.084729
0.055050
0.007461
-0.041234
-0.084510
-0.133702
-0.166699
-0.182782
-0.189634
-0.165333
-0.149709
-0.119874
-0.090912
-0.025877
0.019731
0.069981
0.094958
0.112524
0.127689
0.124430
0.097386
0.067081
0.015669
-0.027612
-0.077417
-0.130182
-0.161875
-0.178510
-0.189489
-0.176240
-0.156915
-0.121202
-0.074476
-0.026679
0.016219
0.061921
0.093211
0.120124
0.129930
0.112267
0.093265
0.056126
0.014928
-0.033355
-0.086690
-0.131833
-0.159254
-0.185564
-0.192280
-0.184749
-0.165682
-0.127552
-0.086746
-0.036904
0.012985
0.059924
0.091936
0.112333
0.126456
0.116827
0.097632
0.061054
0.019071
-0.024671
-0.073930
-0.116286
-0.149632
-0.169631
-0.170762
-0.148411
-0.131486
-0.092637
-0.052230
-0.008933
0.038426
0.083827
0.126604
0.143838
0.143988
0.129594
0.108613
0.082719
0.043361
-0.002299
-0.045052
-0.080989
-0.115210
-0.141295
-0.146473
-0.129971
-0.103999
-0.075308
-0.038168
0.003913
0.040072
0.088089
0.125094
0.140227
0.154888
0.144088
0.126471
0.084158
0.048400
0.012746
-0.023939
-0.076108
-0.102809
-0.122219
-0.133547
-0.117377
-0.094774
-0.071295
-0.021949
0.029211
0.070176
0.104636
0.136990
0.159620
0.151542
0.141290
0.115916
0.080701
0.040047
-0.011928
-0.060027
-0.098905
-0.136436
-0.159138
-0.167388
-0.159459
-0.138776
-0.106212
-0.071119
-0.012850
0.033525
0.080141
0.111163
0.125004
0.127971
0.114822
0.099168
0.051601
0.007036
-0.038773
-0.081418
-0.133247
-0.172890
-0.195942
-0.214304
-0.204929
-0.194569
-0.150782
-0.105876
-0.053488
-0.002630
0.046442
0.077763
0.096292
0.100373
0.085016
0.066190
0.038143
-0.010511
-0.068838
-0.115078
-0.152699
-0.180185
-0.197673
-0.215826
-0.216116
-0.194539
-0.161721
-0.119024
-0.070689
-0.015792
0.021319
0.059554
0.082730
0.090950
0.088605
0.047319
0.014629
-0.027368
-0.059483
-0.095222
-0.133154
-0.177811
-0.209225
-0.208382
-0.192228
-0.173200
-0.137093
-0.103437
-0.053585
-0.011886
0.024860
0.053418
0.068489
0.072071
0.078307
0.060509
0.020628
-0.017468
-0.068113
-0.115147
-0.159656
-0.196277
-0.218054
-0.224030
-0.202555
-0.182515
-0.149926
-0.112071
-0.063467
-0.028822
0.003799
0.032477
0.065257
0.079259
0.082780
0.058440
0.015093
-0.026721
-0.063302
-0.117925
-0.157047
-0.187441
-0.193839
-0.192884
-0.189436
-0.157797
-0.087022
-0.015291
0.047194
0.102343
0.168768
0.218827
0.245380
0.266058
0.273640
0.280997
0.256416
0.258668
0.245398
0.227848
0.208577
0.199632
0.212357
0.228110
0.272864
0.331916
0.390592
0.462823
0.545697
0.639278
0.726818
0.816282
0.871037
0.907085
0.922176
0.899154
0.850118
0.809631
0.743416
0.678269
0.612208
0.548718
0.497118
0.431533
0.362709
0.318797
0.298807
0.272335
0.266992
0.268565
0.263610
0.259928
0.255972
0.250879
0.237052
0.217420
0.179748
0.129829
0.072307
0.022820
-0.028202
-0.069586
-0.099405
-0.112854
-0.110106
-0.080661
-0.054192
-0.012410
0.034320
0.075844
0.112973
0.149307
0.163921
0.161587
0.149393
0.121460
0.073247
0.023893
-0.013720
-0.074139
-0.112959
-0.150338
-0.153464
-0.156819
-0.156196
-0.137498
-0.103940
-0.059638
-0.006506
0.030463
0.064138
0.104143
0.125576
0.137543
0.138598
0.101552
0.074143
0.031858
-0.021767
-0.074811
-0.114523
-0.144117
-0.165066
-0.170610
-0.162435
-0.136974
-0.091134
-0.057112
-0.010209
0.039181
0.076082
0.117734
0.138866
0.143922
0.138731
0.113940
0.077024
0.027991
-0.023645
-0.048370
-0.092182
-0.133565
-0.171174
-0.177941
-0.158145
-0.129910
-0.091396
-0.041008
0.002728
0.052903
0.090573
0.130927
0.156070
0.157129
0.157267
0.131148
0.095697
0.051441
0.005645
-0.037224
-0.084381
-0.127203
-0.148536
-0.149152
-0.141254
-0.112545
-0.076448
-0.035166
0.012528
0.058649
0.104290
0.142259
0.176284
0.186579
0.171776
0.149673
0.123887
0.080366
0.031849
-0.012819
-0.037709
-0.059434
-0.099636
-0.098832
-0.097504
-0.078760
-0.036030
0.002245
0.046494
0.097812
0.151626
0.185992
0.209306
0.216074
0.211049
0.187855
0.158449
0.113552
0.072475
0.025732
-0.013132
-0.048862
-0.057110
-0.064396
-0.063272
-0.039529
-0.002246
0.044830
0.089374
0.133938
0.180656
0.225434
0.239294
0.245490
0.245186
0.229680
0.189942
0.151362
0.091034
0.049800
0.019143
-0.010800
-0.038449
-0.038903
-0.035365
-0.011789
0.028945
0.058349
0.088896
0.149501
0.181950
0.222800
0.244368
0.246534
0.240160
0.224193
0.193991
0.161472
0.115332
0.057534
0.004913
-0.037757
-0.061573
-0.069830
-0.054983
-0.025049
0.011244
0.050911
0.093886
0.136606
0.187220
0.230579
0.251873
0.243690
0.228432
0.214759
0.183762
0.141460
0.092556
0.041613
-0.002808
-0.044138
-0.072726
-0.091742
-0.089153
-0.060721
-0.017478
0.022033
0.065086
0.098359
0.137818
0.186195
0.196890
0.200860
0.199731
0.175850
0.139002
0.090701
0.033038
-0.007864
-0.059868
-0.095494
-0.126578
-0.132795
-0.126436
-0.101308
-0.069951
-0.032453
0.012503
0.057421
0.097115
0.130028
0.158751
0.161648
0.157593
0.136520
0.108287
0.048468
0.001355
-0.053836
-0.088972
-0.122899
-0.154222
-0.162125
-0.156392
-0.129139
-0.100261
-0.058259
-0.015532
0.035404
0.077126
0.109870
0.130164
0.121254
0.102707
0.081782
0.058822
0.015437
-0.026459
-0.067308
-0.116629
-0.151033
-0.175828
-0.185990
-0.164172
-0.149616
-0.111772
-0.069250
-0.008920
0.034658
0.076852
0.107175
0.126615
0.141858
0.132783
0.099792
0.068340
0.016231
-0.034422
-0.075437
-0.113908
-0.136602
-0.162353
-0.163648
-0.156262
-0.138503
-0.110232
-0.075203
-0.022697
0.030815
0.077957
0.112279
0.129793
0.133264
0.124267
0.100426
0.069111
0.037671
-0.006252
-0.057258
-0.106573
-0.153420
-0.176249
-0.184013
-0.168122
-0.137640
-0.110594
-0.069019
-0.007869
0.036244
0.073166
0.096209
0.148180
0.150517
0.143698
0.119519
0.078999
0.027566
-0.006676
-0.051663
-0.107602
-0.148765
-0.162772
-0.175645
-0.168268
-0.131258
-0.109899
-0.061403
-0.013986
0.033073
0.076319
0.098864
0.131997
0.149460
0.149102
0.132489
0.106749
0.056768
0.008421
-0.043235
-0.092720
-0.117167
-0.146807
-0.149495
-0.139019
-0.130166
-0.100151
-0.061040
-0.013577
0.044996
0.091979
0.126311
0.139963
0.150134
0.137057
0.121729
0.084858
0.043747
-0.005044
-0.062180
-0.110715
-0.139608
-0.152640
-0.153082
-0.147899
-0.128602
-0.088290
-0.047989
-0.002112
0.039178
0.079842
0.118923
0.144328
0.147483
0.134429
0.110659
0.071974
0.040661
-0.012702
-0.065031
-0.100679
-0.138063
-0.165307
-0.167123
-0.154832
-0.136459
-0.098944
-0.052927
-0.007540
0.041181
0.079210
0.118091
0.134632
0.141237
0.133575
0.110165
0.078192
0.031019
-0.013267
-0.054961
-0.101650
-0.137933
-0.154136
-0.168268
-0.167416
-0.144118
-0.108666
-0.081018
-0.037112
0.008161
0.042490
0.073653
0.108283
0.107103
0.117345
0.116876
0.076439
0.031337
-0.012229
-0.062736
-0.117657
-0.149055
-0.159439
-0.171378
-0.162325
-0.139061
-0.112945
-0.071440
-0.026330
0.024542
0.064065
0.103661
0.129692
0.138875
0.132770
0.100759
0.067055
0.013042
-0.030632
-0.070773
-0.106536
-0.139378
-0.171570
-0.182803
-0.176225
-0.158854
-0.116796
-0.076381
-0.036663
0.014200
0.052769
0.086794
0.109391
0.115108
0.119783
0.098341
0.074111
0.028645
-0.026210
-0.071713
-0.110568
-0.150770
-0.169946
-0.172590
-0.164044
-0.153458
-0.113186
-0.079833
-0.031249
0.009870
0.048267
0.092161
0.119013
0.131281
0.118492
0.101940
0.071522
0.023771
-0.029802
-0.061886
-0.108844
-0.145086
-0.168460
-0.170430
-0.165095
-0.137257
-0.100192
-0.049131
-0.003556
0.057181
0.092452
0.123781
0.146244
0.152147
0.140549
0.106580
0.066614
0.052896
0.001059
-0.045683
-0.069435
-0.105353
-0.143122
-0.153706
-0.154702
-0.137318
-0.081710
-0.040333
-0.007025
0.040683
0.091837
0.131869
0.155390
0.158740
0.145799
0.139248
0.103884
0.071804
0.035078
-0.012617
-0.059602
-0.091686
-0.115719
-0.138241
-0.135287
-0.113419
-0.064756
-0.024097
0.027904
0.071583
0.121410
0.147775
0.170166
0.169026
0.158470
0.142367
0.099477
0.049749
-0.008708
-0.052159
-0.087072
-0.118190
-0.145518
-0.164301
-0.164929
-0.143650
-0.105233
-0.059367
-0.019864
0.024354
0.065640
0.100726
0.124584
0.124027
0.121383
0.103722
0.065813
0.026607
-0.028888
-0.084480
-0.128412
-0.163442
-0.188257
-0.201291
-0.196850
-0.189318
-0.165789
-0.105054
-0.028003
0.008956
0.040891
0.076686
0.085031
0.093110
0.087389
0.071948
0.023000
-0.008357
-0.052045
-0.098706
-0.140514
-0.179831
-0.202135
-0.199280
-0.188272
-0.168171
-0.130879
-0.090816
-0.044904
-0.002436
0.020924
0.055769
0.092018
0.105252
0.090575
0.070674
0.039982
-0.007362
-0.059163
-0.101591
-0.158370
-0.199462
-0.206900
-0.221476
-0.217513
-0.184904
-0.128235
-0.088606
-0.042671
-0.003020
0.043334
0.084998
0.092788
0.098203
0.117593
0.088082
0.032571
-0.005142
-0.040968
-0.094203
-0.146135
-0.160142
-0.190795
-0.208866
-0.198384
-0.180641
-0.159318
-0.115277
-0.072002
-0.026350
0.017492
0.050983
0.076789
0.087934
0.072716
0.048684
0.030196
-0.009548
-0.054119
-0.113580
-0.149912
-0.174975
-0.180828
-0.183836
-0.162267
-0.137666
-0.089258
-0.022822
0.040107
0.093685
0.163889
0.204206
0.233671
0.263315
0.272752
0.268020
0.266786
0.250704
0.227688
0.219674
0.215401
0.206097
0.212597
0.216771
0.263995
0.316750
0.350582
0.425741
0.525172
0.614297
0.686119
0.770163
0.840731
0.878188
0.888492
0.878176
0.845131
0.801828
0.752670
0.676686
0.613380
0.559222
0.498811
0.444053
0.378017
0.334740
0.308379
0.302612
0.301052
0.293989
0.281953
0.288950
0.295130
0.283962
0.252601
0.193427
0.169878
0.136792
0.085229
0.023122
-0.026416
-0.063335
-0.089611
-0.104064
-0.099368
-0.081849
-0.046345
-0.007231
0.031077
0.068490
0.128729
0.158809
0.175242
0.184961
0.176109
0.143874
0.118402
0.059856
0.015088
-0.028193
-0.078689
-0.120060
-0.137441
-0.155097
-0.149419
-0.121795
-0.088887
-0.047559
0.001578
0.055826
0.092725
0.131085
0.150780
0.164613
0.147023
0.115861
0.079657
0.023070
-0.019127
-0.046240
-0.084438
-0.122444
-0.149018
-0.165250
-0.159339
-0.133085
-0.101593
-0.058942
-0.008264
0.041675
0.095834
0.122438
0.149397
0.167501
0.152670
0.129752
0.094743
0.046867
0.003707
-0.040949
-0.087174
-0.121930
-0.138368
-0.146403
-0.136817
-0.118631
-0.093006
-0.040396
-0.001889
0.043722
0.100290
0.137352
0.149201
0.170465
0.155084
0.141023
0.109252
0.055106
0.021907
-0.010498
-0.057510
-0.089028
-0.101034
-0.109892
-0.099578
-0.088820
-0.060578
-0.015977
0.038167
0.071712
0.107881
0.143664
0.188272
0.213563
0.203175
0.174867
0.149354
0.106254
0.051198
0.007589
-0.030225
-0.057774
-0.070946
-0.074616
-0.070493
-0.050136
-0.016325
0.036331
0.076479
0.120045
0.166152
0.196607
0.219117
0.239740
0.240376
0.220474
0.185708
0.129600
0.082445
0.042787
0.005618
-0.029880
-0.046306
-0.053079
-0.035302
-0.025034
0.009555
0.053844
0.107780
0.152478
0.197828
0.232161
0.255414
0.273686
0.261402
0.242397
0.206651
0.158803
0.112741
0.078518
0.031522
-0.004273
-0.033291
-0.042300
-0.019009
0.002612
0.024307
0.071494
0.121524
0.159274
0.214331
0.249716
0.290211
0.292355
0.274870
0.251163
0.222070
0.173176
0.127808
0.080648
0.031653
-0.001053
-0.031044
-0.037844
-0.038145
-0.021264
0.017109
0.052892
0.100057
0.162343
0.208009
0.241517
0.256992
0.267624
0.255815
0.234706
0.192625
0.148381
0.109629
0.065811
0.019712
-0.014160
-0.041416
-0.059208
-0.055816
-0.027413
-0.006447
0.030333
0.072046
0.117664
0.165566
0.197542
0.218754
0.226115
0.213724
0.196642
0.153758
0.107826
0.065696
0.008885
-0.035335
-0.075794
-0.100037
-0.115452
-0.113418
-0.089651
-0.054544
-0.030671
0.016180
0.080602
0.115074
0.154058
0.185489
0.189396
0.170221
0.133869
0.105544
0.068726
0.023585
-0.032611
-0.073665
-0.112342
-0.134419
-0.149796
-0.141167
-0.123045
-0.098950
-0.051761
-0.010888
0.037200
0.073588
0.125479
0.153464
0.151704
0.149122
0.121055
0.071526
0.036382
-0.007696
-0.059989
-0.104619
-0.146980
-0.163000
-0.166751
-0.171046
-0.138597
-0.101650
-0.068173
-0.018532
0.029523
0.075999
0.100858
0.127127
0.138103
0.130368
0.109019
0.072115
0.024865
-0.015892
-0.069904
-0.110522
-0.141330
-0.164418
-0.178561
-0.173633
-0.138724
-0.104155
-0.065080
-0.015613
0.034280
0.080236
0.109680
0.128159
0.136897
0.137269
0.116313
0.092957
0.047592
-0.013492
-0.064170
-0.110061
-0.144262
-0.155954
-0.169389
-0.166911
-0.144278
-0.097284
-0.047802
-0.013103
0.038728
0.080928
0.114484
0.135623
0.151808
0.149149
0.126496
0.093810
0.047369
-0.006117
-0.057270
-0.110962
-0.134384
-0.150606
-0.140391
-0.135330
-0.128583
-0.108574
-0.073563
-0.014896
0.038229
0.075315
0.115227
0.133947
0.132290
0.139774
0.117927
0.086637
0.048128
0.003123
-0.053912
-0.094996
-0.118715
-0.153469
-0.160400
-0.155446
-0.120732
-0.095320
-0.057940
-0.003261
0.032446
0.068335
0.116837
0.144613
0.146098
0.132655
0.107216
0.086236
0.055530
-0.002477
-0.049010
-0.086390
-0.137397
-0.159704
-0.160623
-0.157897
-0.138324
-0.103594
-0.065116
-0.012103
0.044619
0.084767
0.119766
0.134645
0.145298
0.140789
0.111782
0.083810
0.050646
-0.004080
-0.055157
-0.098999
-0.138201
-0.157257
-0.170726
-0.164123
-0.143463
-0.113036
-0.075550
-0.019610
0.021845
0.065267
0.099637
0.132495
0.137794
0.132980
0.103271
0.066674
0.040411
-0.015410
-0.066720
-0.097527
-0.130943
-0.159639
-0.174786
-0.177712
-0.159436
-0.118774
-0.067175
-0.020286
0.024653
0.064092
0.114720
0.135159
0.134181
0.120202
0.101655
0.068658
0.037660
-0.012927
-0.070281
-0.113054
-0.147985
-0.170258
-0.181792
-0.170623
-0.153691
-0.134056
-0.069406
-0.017582
0.013462
0.061403
0.091199
0.113990
0.116806
0.111178
0.099104
0.074600
0.018263
-0.027010
-0.050162
-0.096496
-0.146348
-0.174630
-0.188758
-0.178760
-0.151426
-0.117586
-0.077161
-0.017530
0.018502
0.064511
0.098631
0.119253
0.124269
0.122545
0.089638
0.056530
0.014000
-0.039788
-0.086507
-0.126100
-0.144750
-0.163871
-0.172603
-0.177814
-0.164347
-0.123507
-0.071192
-0.025220
0.020457
0.063630
0.093656
0.111952
0.119269
0.111522
0.090486
0.058461
0.020524
-0.028550
-0.073726
-0.120104
-0.171056
-0.198501
-0.198332
-0.182398
-0.146325
-0.110879
-0.069615
-0.024844
0.015353
0.054423
0.090615
0.112118
0.131393
0.127133
0.102386
0.067331
0.016567
-0.040648
-0.049018
-0.078325
-0.114520
-0.135131
-0.143206
-0.142476
-0.114840
-0.081586
-0.045559
-0.005780
0.051681
0.090837
0.136726
0.155488
0.167280
0.154094
0.127387
0.091633
0.058291
0.002163
-0.037712
-0.095181
-0.140214
-0.156125
-0.159239
-0.152299
-0.125392
-0.091115
-0.041918
0.014034
0.066004
0.113577
0.149338
0.173265
0.180452
0.181349
0.146447
0.103173
0.075883
0.033004
-0.024901
-0.065853
-0.091225
-0.100611
-0.116916
-0.123504
-0.115626
-0.072403
-0.047052
-0.005082
0.029870
0.074665
0.105357
0.132027
0.147832
0.138904
0.120181
0.076991
0.028755
-0.015369
-0.054324
-0.098820
-0.132555
-0.166818
-0.173098
-0.152815
-0.152136
-0.126150
-0.088733
-0.036460
0.011216
0.049187
0.082210
0.103251
0.114749
0.106521
0.073380
0.038827
0.000461
-0.033657
-0.093024
-0.139249
-0.179277
-0.205997
-0.217562
-0.187936
-0.160249
-0.124758
-0.097940
-0.050703
-0.002068
0.052276
0.076279
0.084568
0.094822
0.093875
0.076293
0.039421
-0.006263
-0.048615
-0.094281
-0.140736
-0.181193
-0.202618
-0.203787
-0.192669
-0.180435
-0.142795
-0.108854
-0.070141
-0.015471
0.029975
0.044980
0.079464
0.093885
0.090990
0.082672
0.054083
-0.007470
-0.054992
-0.096963
-0.145060
-0.167699
-0.193732
-0.208368
-0.199652
-0.183548
-0.150194
-0.101038
-0.056384
-0.013052
0.035436
0.069998
0.091574
0.104653
0.096851
0.082006
0.036667
0.001568
-0.052258
-0.105674
-0.148308
-0.176454
-0.195552
-0.202540
-0.200329
-0.183984
-0.156174
-0.116816
-0.085781
-0.034589
0.012862
0.053442
0.091444
0.107123
0.105452
0.096354
0.083405
0.057510
0.029121
-0.002229
-0.039561
-0.069325
-0.079134
-0.075185
-0.060944
-0.025841
0.027932
0.082989
0.154501
0.233573
0.294216
0.360451
0.425012
0.474160
0.494670
0.516474
0.517110
0.507538
0.493594
0.479217
0.474149
0.486015
0.498386
0.527169
0.568326
0.607473
0.655947
0.690986
0.734064
0.789534
0.819456
0.831263
0.822411
0.803831
0.765719
0.688675
0.586840
0.473712
0.363689
0.278001
0.182859
0.101500
0.029533
-0.012927
-0.019238
-0.007796
0.011492
0.059296
0.097149
0.134856
0.173281
0.198370
0.211861
0.215128
0.194971
0.173438
0.128998
0.091721
0.054648
0.003715
-0.046175
-0.092643
-0.115065
-0.137601
-0.132753
-0.108963
-0.086915
-0.056419
-0.010634
0.046956
0.099333
0.141838
0.161238
0.163905
0.141760
0.121869
0.091739
0.048785
0.000446
-0.049905
-0.086344
-0.115367
-0.147112
-0.159603
-0.143885
-0.129381
-0.095717
-0.052289
-0.012080
0.022626
0.067064
0.112869
0.126524
0.124772
0.114408
0.113322
0.098526
0.059437
-0.000222
-0.056737
-0.100099
-0.108049
-0.130804
-0.143881
-0.144490
-0.121864
-0.093973
-0.050653
-0.006452
0.038154
0.077896
0.127013
0.147708
0.153393
0.144553
0.138386
0.104284
0.064721
0.023740
-0.038715
-0.075542
-0.112748
-0.140861
-0.132698
-0.123447
-0.107318
-0.068780
-0.029475
0.029916
0.074369
0.110540
0.139073
0.161455
0.165031
0.173999
0.150577
0.119030
0.083358
0.040212
-0.003469
-0.041192
-0.073487
-0.103054
-0.108301
-0.104383
-0.079244
-0.048850
0.002418
0.048148
0.096087
0.135119
0.159988
0.197378
0.200566
0.203132
0.185482
0.151895
0.112837
0.073721
0.037525
-0.010437
-0.048187
-0.061405
-0.064503
-0.060406
-0.047270
-0.005621
0.029312
0.084549
0.142259
0.175821
0.209337
0.221137
0.238627
0.232585
0.224122
0.205364
0.151305
0.102912
0.052624
0.023149
-0.001556
-0.018005
-0.026140
-0.024332
-0.005026
0.029583
0.069138
0.114473
0.172692
0.211200
0.253257
0.271996
0.278172
0.271202
0.244683
0.214272
0.175965
0.140118
0.085933
0.047770
0.007460
-0.015557
-0.030341
-0.019593
-0.007158
0.023053
0.057425
0.120168
0.167147
0.211174
0.248257
0.263190
0.274132
0.265339
0.248345
0.213528
0.176374
0.130028
0.080216
0.030011
0.001088
-0.028230
-0.043390
-0.034939
-0.014385
0.007204
0.054864
0.099751
0.149766
0.187794
0.217828
0.243079
0.262171
0.255645
0.229614
0.192667
0.144354
0.087740
0.035504
-0.010571
-0.041840
-0.056085
-0.069475
-0.064737
-0.046039
-0.026996
0.013173
0.057577
0.104506
0.142918
0.172391
0.195508
0.205168
0.180191
0.159547
0.147044
0.094109
0.032799
-0.012251
-0.046352
-0.088313
-0.107895
-0.120828
-0.121132
-0.101698
-0.077720
-0.050942
-0.003090
0.063364
0.105636
0.146864
0.151892
0.152853
0.135377
0.114572
0.090723
0.046703
-0.000243
-0.052123
-0.091021
-0.126677
-0.147921
-0.164765
-0.151304
-0.135538
-0.100875
-0.064334
-0.018278
0.033455
0.086498
0.115925
0.135426
0.148643
0.134778
0.113394
0.092489
0.045240
-0.008412
-0.057899
-0.106428
-0.144077
-0.169071
-0.178466
-0.168864
-0.146148
-0.121953
-0.090663
-0.032754
0.013646
0.057370
0.099828
0.119462
0.132582
0.129693
0.106013
0.088142
0.044613
-0.005559
-0.059478
-0.105888
-0.143181
-0.154363
-0.171595
-0.167194
-0.138506
-0.107809
-0.071005
-0.024513
0.017322
0.061104
0.098187
0.114213
0.125272
0.126256
0.113883
0.090703
0.034563
-0.019589
-0.076267
-0.094590
-0.135541
-0.150984
-0.160279
-0.147993
-0.130278
-0.110168
-0.076256
-0.049183
0.014485
0.066924
0.098758
0.139407
0.149106
0.140479
0.114936
0.089034
0.043662
-0.013314
-0.054494
-0.098442
-0.126045
-0.146420
-0.161595
-0.151323
-0.125405
-0.096009
-0.054783
-0.002649
0.038804
0.088476
0.125053
0.132686
0.139130
0.135035
0.109069
0.085584
0.034820
-0.008767
-0.048563
-0.092186
-0.134119
-0.153960
-0.156202
-0.147690
-0.124016
-0.097857
-0.061334
-0.011634
0.033148
0.092603
0.122601
0.141615
0.144453
0.130610
0.116104
0.083369
0.038462
-0.013254
-0.051392
-0.095992
-0.127531
-0.153265
-0.166020
-0.157576
-0.150042
-0.118491
-0.079144
-0.022997
0.029508
0.078787
0.107568
0.123968
0.131896
0.122366
0.108572
0.078620
0.035836
-0.008933
-0.058993
-0.107633
-0.141425
-0.164504
-0.170546
-0.167611
-0.157562
-0.134855
-0.091860
-0.035109
0.020102
0.065999
0.104152
0.124221
0.137135
0.127337
0.099186
0.068817
0.027062
-0.021799
-0.057121
-0.112071
-0.141515
-0.167454
-0.183420
-0.179427
-0.149869
-0.113477
-0.087241
-0.041466
0.003426
0.059416
0.094609
0.124105
0.119044
0.110286
0.089772
0.064123
0.015354
-0.026424
-0.073223
-0.120145
-0.146074
-0.164706
-0.177690
-0.170104
-0.152993
-0.129752
-0.090505
-0.037694
0.016665
0.059176
0.087031
0.106145
0.101992
0.103437
0.098994
0.060411
0.015308
-0.033239
-0.076881
-0.121624
-0.160342
-0.184159
-0.183210
-0.176300
-0.166950
-0.128596
-0.079136
-0.030735
0.016391
0.051921
0.077404
0.102286
0.114863
0.103211
0.088403
0.055053
0.016435
-0.030978
-0.082656
-0.128908
-0.161371
-0.188252
-0.196328
-0.190848
-0.170463
-0.137714
-0.094597
-0.042811
0.011514
0.053185
0.080497
0.113654
0.126815
0.120568
0.103087
0.068593
0.020754
-0.023500
-0.071934
-0.113326
-0.139076
-0.163805
-0.175210
-0.161243
-0.134671
-0.103219
-0.059184
-0.009435
0.026681
0.077339
0.110712
0.136264
0.147520
0.143503
0.126276
0.102096
0.060592
-0.000977
-0.047678
-0.090339
-0.132720
-0.145367
-0.157512
-0.150790
-0.131569
-0.095501
-0.066993
-0.017470
0.031932
0.066898
0.100059
0.128754
0.138848
0.134462
0.116140
0.092436
0.066750
0.030439
-0.017738
-0.057740
-0.091769
-0.121667
-0.125197
-0.117668
-0.105076
-0.074419
-0.033795
0.007439
0.057940
0.095095
0.122419
0.138011
0.142982
0.131252
0.111906
0.083339
0.034012
-0.020960
-0.078197
-0.103855
-0.125917
-0.147500
-0.165297
-0.165503
-0.140015
-0.121538
-0.090159
-0.042328
0.003724
0.045559
0.071866
0.095284
0.096103
0.089787
0.073125
0.038197
-0.000000
-0.041583
-0.094063
-0.124898
-0.159504
-0.187514
-0.197548
-0.197369
-0.181217
-0.139917
-0.107675
-0.061127
-0.008601
0.029003
0.059264
0.081277
0.079231
0.073542
0.050486
0.015720
-0.019561
-0.070080
-0.110511
-0.148275
-0.188174
-0.208351
-0.215369
-0.202843
-0.194138
-0.155810
-0.121847
-0.074080
-0.033557
0.015822
0.047669
0.069772
0.071880
0.063014
0.046334
0.021477
-0.015521
-0.066247
-0.107322
-0.159263
-0.203211
-0.232171
-0.229643
-0.204852
-0.189883
-0.163073
-0.126558
-0.070325
-0.023905
0.010721
0.048486
0.064528
0.075256
0.071912
0.055997
0.021256
-0.017880
-0.063382
-0.117062
-0.154222
-0.196956
-0.228955
-0.231385
-0.219125
-0.213169
-0.180287
-0.143884
-0.085596
-0.023565
0.023905
0.040891
0.061657
0.065197
0.073052
0.058576
0.019535
-0.015074
-0.061847
-0.107136
-0.145045
-0.172363
-0.180893
-0.172957
-0.163848
-0.128614
-0.084521
-0.038194
0.033623
0.080310
0.134093
0.175561
0.228377
0.276280
0.276173
0.268481
0.258956
0.247135
0.225956
0.211581
0.207708
0.222987
0.230729
0.246938
0.298436
0.350597
0.396691
0.470673
0.570057
0.659716
0.730377
0.804850
0.859756
0.895584
0.885216
0.840133
0.799586
0.751782
0.687714
0.610090
0.553069
0.478620
0.405397
0.323016
0.265170
0.223492
0.200498
0.195328
0.195920
0.189131
0.190019
0.209369
0.225373
0.230597
0.232669
0.206659
0.168559
0.123062
0.062869
0.004410
-0.044647
-0.088985
-0.121164
-0.129890
-0.123135
-0.097750
-0.072815
-0.038059
-0.012611
0.043176
0.095572
0.135466
0.138522
0.143886
0.127665
0.106894
0.065638
0.028731
-0.013261
-0.070246
-0.105358
-0.144508
-0.165340
-0.174478
-0.166640
-0.146007
-0.117278
-0.076854
-0.031890
0.010327
0.051248
0.082667
0.103787
0.115754
0.114593
0.085787
0.050163
0.021069
-0.023693
-0.077192
-0.123715
-0.157248
-0.181097
-0.189749
-0.173233
-0.156923
-0.121564
-0.077048
-0.036131
0.006697
0.046731
0.086945
0.116627
0.120808
0.110593
0.088560
0.066288
0.024973
-0.003969
-0.055360
-0.103949
-0.136007
-0.154053
-0.160115
-0.154809
-0.139416
-0.109082
-0.068711
-0.024381
0.029155
0.076198
0.096435
0.119132
0.137348
0.129753
0.107395
0.081689
0.053287
0.013082
-0.035921
-0.068342
-0.118699
-0.147757
-0.145088
-0.135840
-0.118542
-0.077693
-0.044632
0.006341
0.052357
0.101527
0.140434
0.155422
0.176017
0.154477
0.137817
0.109356
0.062327
0.023849
-0.021197
-0.053451
-0.093635
-0.110115
-0.114903
-0.110732
-0.075785
-0.039905
0.004297
0.047876
0.101552
0.141235
0.172284
0.197863
0.204550
0.194051
0.169765
0.141262
0.097562
0.056505
0.019649
-0.013042
-0.044023
-0.078193
-0.086149
-0.067086
-0.059737
-0.015566
0.031493
0.076848
0.115922
0.167628
0.206619
0.224388
0.243861
0.236833
0.201289
0.168482
0.134394
0.098379
0.044161
-0.007986
-0.031031
-0.041387
-0.053623
-0.045525
-0.034768
-0.001692
0.042395
0.079094
0.123037
0.168909
0.205798
0.215682
0.240426
0.232830
0.217064
0.185922
0.137675
0.096447
0.052145
0.010913
-0.031609
-0.053786
-0.057538
-0.061789
-0.045185
-0.015152
0.036570
0.078679
0.124522
0.159720
0.192477
0.214470
0.214121
0.209894
0.189154
0.161808
0.115784
0.079572
0.031154
-0.033117
-0.075635
-0.079645
-0.101730
-0.092487
-0.080813
-0.046019
-0.006650
0.029291
0.071643
0.115054
0.146302
0.143818
0.166294
0.159174
0.137505
0.098990
0.057508
0.011287
-0.035641
-0.083488
-0.106936
-0.122586
-0.136871
-0.134905
-0.115914
-0.083066
-0.060105
-0.025340
0.035124
0.071129
0.099615
0.113510
0.116126
0.095385
0.068392
0.044110
0.021176
-0.022828
-0.063725
-0.118109
-0.146271
-0.160266
-0.168372
-0.164461
-0.146079
-0.125333
-0.084093
-0.046807
0.001505
0.051989
0.077160
0.087480
0.102555
0.092803
0.072895
0.042209
0.000024
-0.046082
-0.091034
-0.127980
-0.163722
-0.189798
-0.198555
-0.200203
-0.197719
-0.167148
-0.119427
-0.068237
-0.016363
0.027065
0.062272
0.094497
0.105175
0.086586
0.063617
0.028256
-0.009264
-0.056268
-0.107806
-0.144524
-0.171618
-0.199851
-0.208434
-0.204635
-0.173081
-0.147544
-0.110182
-0.069257
-0.014560
0.026720
0.055163
0.084269
0.099288
0.088201
0.067575
0.043047
-0.002761
-0.051492
-0.101059
-0.147256
-0.174261
-0.193025
-0.201191
-0.196915
-0.183148
-0.159944
-0.110560
-0.058501
0.004082
0.039762
0.061954
0.078840
0.075187
0.083914
0.057739
0.030545
-0.004641
-0.049318
-0.093811
-0.120826
-0.147821
-0.187169
-0.202850
-0.192982
-0.167665
-0.135899
-0.089780
-0.052955
-0.010910
0.035171
0.058168
0.085115
0.097099
0.093526
0.074419
0.031330
0.002629
-0.046774
-0.102742
-0.146413
-0.159058
-0.180908
-0.187959
-0.180837
-0.166807
-0.124878
-0.092043
-0.051948
0.000892
0.038932
0.074306
0.093427
0.085089
0.084240
0.076726
0.039518
-0.006513
-0.051338
-0.100687
-0.137755
-0.166261
-0.201956
-0.210834
-0.200257
-0.174423
-0.144432
-0.102326
-0.051280
-0.001106
0.033606
0.057153
0.082288
0.096664
0.094245
0.070846
0.028947
-0.006783
-0.060566
-0.105438
-0.143697
-0.180427
-0.206449
-0.221335
-0.206227
-0.181593
-0.145599
-0.106166
-0.061077
-0.027420
0.014722
0.037399
0.074773
0.089167
0.085851
0.063516
0.025022
-0.009714
-0.056535
-0.116252
-0.157534
-0.179470
-0.199572
-0.211606
-0.202683
-0.177930
-0.149282
-0.116773
-0.085293
-0.048212
-0.000430
0.039956
0.068869
0.077814
0.066000
0.050968
0.020244
-0.018354
-0.064271
-0.097285
-0.133142
-0.173419
-0.204459
-0.222185
-0.214605
-0.201392
-0.163110
-0.120645
-0.082916
-0.041921
-0.007649
0.029568
0.066087
0.074498
0.068271
0.048044
0.010822
-0.030763
-0.076300
-0.117208
-0.147700
-0.179966
-0.207515
-0.220730
-0.211667
-0.187822
-0.155877
-0.116925
-0.075373
-0.031659
0.011685
0.037923
0.057327
0.070252
0.060760
0.030130
0.004470
-0.037556
-0.081220
-0.122729
-0.173901
-0.201819
-0.214532
-0.224358
-0.226429
-0.222950
-0.203060
-0.140848
-0.087427
-0.038756
0.013670
0.029086
0.052648
0.054004
0.057414
0.034165
0.006543
-0.025331
-0.080835
-0.124445
-0.171481
-0.198053
-0.222225
-0.232729
-0.227982
-0.196015
-0.171609
-0.129615
-0.082337
-0.036762
0.009263
0.039010
0.057457
0.068007
0.064023
0.037688
0.005226
-0.035784
-0.076627
-0.109120
-0.154629
-0.187411
-0.197854
-0.206174
-0.212838
-0.181984
-0.140292
-0.093495
-0.053453
-0.013051
0.031392
0.070799
0.083221
0.087266
0.099629
0.069003
0.039392
0.004488
-0.041884
-0.086803
-0.136912
-0.169533
-0.187803
-0.198026
-0.185839
-0.168295
-0.140769
-0.100360
-0.061762
-0.034113
0.007961
0.048847
0.083098
0.106699
0.102145
0.083637
0.057033
0.033773
-0.015095
-0.057267
-0.107343
-0.144258
-0.169910
-0.177022
-0.161080
-0.132966
-0.110239
-0.087754
-0.031861
0.000709
0.027273
0.053467
0.075427
0.094102
0.077692
0.048266
0.021791
-0.008649
-0.057553
-0.102837
-0.143694
-0.179560
-0.202272
-0.216941
-0.219255
-0.203597
-0.171834
-0.130480
-0.085889
-0.032554
0.012112
0.037404
0.040899
0.047369
0.049717
0.027951
-0.006501
-0.041291
-0.084179
-0.125460
-0.177224
-0.216537
-0.230002
-0.244363
-0.242456
-0.232201
-0.197154
-0.146425
-0.104745
-0.066017
-0.023518
0.015318
0.030015
0.031866
0.030586
0.012666
-0.033204
-0.068271
-0.106503
-0.154962
-0.200811
-0.239353
-0.256500
-0.256942
-0.249984
-0.233499
-0.205142
-0.167698
-0.121915
-0.072695
-0.035630
-0.005258
0.004931
0.017884
0.024040
0.015617
-0.016058
-0.056095
-0.106833
-0.145999
-0.194467
-0.224397
-0.235642
-0.259881
-0.251543
-0.240259
-0.218872
-0.182416
-0.123343
-0.067094
-0.034028
-0.019055
0.025400
0.043458
0.050846
0.011484
-0.026725
-0.065261
-0.111976
-0.154205
-0.201875
-0.221930
-0.242790
-0.261126
-0.262003
-0.248756
-0.225104
-0.193130
-0.124769
-0.085923
-0.048927
-0.020289
0.004575
0.021374
0.027094
0.011335
-0.010137
-0.047578
-0.104745
-0.143831
-0.171264
-0.200630
-0.211548
-0.197740
-0.173271
-0.150050
-0.095392
-0.038762
0.017062
0.062521
0.113399
0.169047
0.210953
0.256233
0.270377
0.272347
0.264319
0.250441
0.237271
0.243576
0.239704
0.242288
0.253338
0.257798
0.297156
0.354582
0.435107
0.520234
0.603226
0.688346
0.748698
0.803746
0.818201
0.817909
0.821499
0.787861
0.729629
0.660992
0.588450
0.501462
0.414619
0.307082
0.227074
0.160759
0.127454
0.107258
0.089633
0.081096
0.098708
0.127066
0.148888
0.166584
0.180762
0.192272
0.174853
0.137791
0.097627
0.053874
0.001442
-0.050765
-0.096667
-0.141001
-0.166002
-0.169400
-0.163243
-0.147683
-0.122430
-0.084714
-0.047772
-0.004082
0.034269
0.070798
0.091405
0.097804
0.094704
0.072810
0.027158
-0.012544
-0.056519
-0.099860
-0.147320
-0.179044
-0.208221
-0.214603
-0.204112
-0.182427
-0.155342
-0.112162
-0.072755
-0.036045
0.007675
0.041426
0.063485
0.066998
0.059133
0.052080
0.020893
-0.015793
-0.060579
-0.110697
-0.150395
-0.181526
-0.204813
-0.220774
-0.210351
-0.195188
-0.161897
-0.115464
-0.075844
-0.025946
0.020709
0.053199
0.062225
0.070488
0.079092
0.056387
0.025904
-0.004267
-0.053329
-0.107321
-0.151404
-0.178460
-0.189154
-0.203590
-0.189179
-0.170964
-0.138624
-0.105674
-0.053915
-0.005197
0.031616
0.064801
0.097138
0.105894
0.095680
0.075523
0.040904
0.003464
-0.034744
-0.081036
-0.117337
-0.151774
-0.180765
-0.182416
-0.180431
-0.156716
-0.120301
-0.087032
-0.036018
0.039430
0.071723
0.102681
0.125177
0.130313
0.131982
0.111179
0.074834
0.029433
-0.018286
-0.051637
-0.102348
-0.143101
-0.156200
-0.167614
-0.148597
-0.119138
-0.081559
-0.035761
0.006991
0.060056
0.106756
0.143016
0.157186
0.159282
0.157514
0.143150
0.104525
0.060955
0.016046
-0.024879
-0.063175
-0.087658
-0.105487
-0.112336
-0.110324
-0.078651
-0.036184
0.005267
0.054563
0.093609
0.115543
0.155976
0.173967
0.184291
0.197375
0.173503
0.131463
0.092620
0.065198
0.014237
-0.030178
-0.070961
-0.081918
-0.092424
-0.085102
-0.066375
-0.028745
-0.002028
0.037659
0.108140
0.140712
0.167865
0.189057
0.207457
0.196838
0.173734
0.139764
0.098608
0.053954
0.013458
-0.022763
-0.065899
-0.081971
-0.090443
-0.094288
-0.074192
-0.037656
-0.010195
0.034915
0.079272
0.113118
0.149749
0.162850
0.182795
0.176631
0.158718
0.114732
0.075203
0.038079
-0.017233
-0.055870
-0.091246
-0.112127
-0.119769
-0.119367
-0.114447
-0.082040
-0.037468
0.001795
0.045795
0.078448
0.114325
0.135006
0.143300
0.124166
0.100645
0.063452
0.017077
-0.021587
-0.075928
-0.110175
-0.142496
-0.161826
-0.170299
-0.170417
-0.155701
-0.116191
-0.080527
-0.047001
0.002561
0.030646
0.058381
0.078904
0.076912
0.079884
0.059716
0.025279
-0.012676
-0.065808
-0.119442
-0.160600
-0.188832
-0.219818
-0.224416
-0.221035
-0.192931
-0.157705
-0.118857
-0.077390
-0.026243
0.001887
0.032675
0.053640
0.056116
0.052121
0.031468
0.002927
-0.028908
-0.074478
-0.116314
-0.162531
-0.192718
-0.209841
-0.238018
-0.241946
-0.219062
-0.179435
-0.131783
-0.087964
-0.035015
0.001752
0.038013
0.061986
0.056990
0.054355
0.031544
0.011877
-0.028633
-0.085245
-0.129166
-0.167157
-0.203317
-0.225001
-0.231174
-0.242106
-0.216438
-0.190616
-0.141233
-0.092719
-0.038776
0.004292
0.033949
0.052633
0.052666
0.073736
0.045909
0.008907
-0.030240
-0.083156
-0.125714
-0.161299
-0.199503
-0.229908
-0.227841
-0.217130
-0.190733
-0.160306
-0.127293
-0.082644
-0.032609
0.007466
0.036713
0.063436
0.074110
0.066139
0.035179
0.006339
-0.030713
-0.072080
-0.128677
-0.173530
-0.212297
-0.239601
-0.239104
-0.213484
-0.176970
-0.141279
-0.114256
-0.073727
-0.044693
-0.016992
0.025744
0.066143
0.069239
0.063105
0.044830
0.012295
-0.036267
-0.080579
-0.121730
-0.164202
-0.192133
-0.204731
-0.221694
-0.209774
-0.183470
-0.155966
-0.115306
-0.066783
-0.020508
0.016769
0.046741
0.057858
0.062606
0.060703
0.040563
0.010614
-0.030300
-0.070658
-0.116845
-0.160833
-0.191894
-0.210187
-0.217975
-0.221150
-0.191777
-0.164098
-0.121283
-0.077040
-0.037362
0.009820
0.035600
0.059850
0.064267
0.058640
0.037320
0.007815
-0.040169
-0.093547
-0.131652
-0.169676
-0.203090
-0.223698
-0.238031
-0.223865
-0.202545
-0.170974
-0.144179
-0.100300
-0.056197
-0.003618
0.038706
0.063651
0.070832
0.060473
0.038820
0.007227
-0.038653
-0.089519
-0.132442
-0.170929
-0.203534
-0.238840
-0.243008
-0.237329
-0.226983
-0.179390
-0.140369
-0.083341
-0.041012
-0.004407
0.036829
0.050070
0.055150
0.054012
0.027642
-0.002068
-0.045089
-0.097234
-0.146186
-0.166538
-0.190741
-0.230619
-0.246188
-0.245518
-0.220952
-0.200253
-0.156055
-0.092266
-0.050566
-0.015855
0.018011
0.043473
0.054363
0.045052
0.026800
-0.006597
-0.054249
-0.100989
-0.142082
-0.176601
-0.206877
-0.222477
-0.236596
-0.239564
-0.217443
-0.191459
-0.148542
-0.102703
-0.048365
-0.016218
0.012107
0.035926
0.033925
0.028181
0.005406
-0.039259
-0.075895
-0.111921
-0.147940
-0.172471
-0.199823
-0.227604
-0.246617
-0.241221
-0.216911
-0.190566
-0.136506
-0.096412
-0.055684
-0.018762
0.007216
0.030215
0.043837
0.035370
0.021816
-0.010186
-0.058261
-0.103268
-0.147824
-0.184982
-0.209915
-0.227439
-0.243870
-0.240001
-0.214003
-0.169281
-0.124458
-0.079897
-0.037425
-0.000056
0.022482
0.049447
0.055559
0.046713
0.041303
-0.003457
-0.033463
-0.073261
-0.114297
-0.163947
-0.177174
-0.203854
-0.211975
-0.210425
-0.195271
-0.158641
-0.107950
-0.064408
-0.022739
0.017486
0.043532
0.070505
0.074478
0.070494
0.045832
0.011586
-0.026643
-0.081356
-0.128779
-0.162580
-0.192523
-0.215388
-0.226200
-0.209198
-0.198454
-0.157993
-0.101816
-0.052609
-0.013706
0.033099
0.066105
0.090863
0.098654
0.084434
0.074447
0.051258
0.013677
-0.039372
-0.094516
-0.142348
-0.163667
-0.180500
-0.188194
-0.191970
-0.189137
-0.160577
-0.113043
-0.068746
-0.025767
0.017194
0.040835
0.059571
0.063672
0.055207
0.039890
-0.001190
-0.041524
-0.079430
-0.130422
-0.169046
-0.193173
-0.225385
-0.239001
-0.231759
-0.213828
-0.180126
-0.140156
-0.100311
-0.060174
-0.016657
0.023358
0.029051
0.021812
-0.001264
-0.006025
-0.024240
-0.070602
-0.109813
-0.157609
-0.201615
-0.225121
-0.264253
-0.264162
-0.240486
-0.231632
-0.206237
-0.168081
-0.125807
-0.086916
-0.043039
-0.018577
0.017024
0.033280
0.023983
0.009175
-0.033474
-0.078497
-0.127097
-0.175409
-0.213420
-0.243916
-0.263913
-0.274217
-0.263822
-0.244945
-0.210597
-0.175079
-0.116651
-0.072424
-0.040585
-0.000444
0.020759
0.027026
0.010044
-0.005401
-0.045020
-0.093665
-0.125173
-0.161604
-0.197484
-0.235136
-0.255827
-0.256399
-0.254292
-0.236810
-0.210533
-0.171549
-0.118345
-0.064839
-0.029927
-0.000623
0.019614
0.029870
0.007523
-0.000902
-0.033092
-0.080395
-0.124678
-0.170734
-0.211131
-0.236423
-0.254470
-0.259387
-0.259041
-0.237965
-0.206901
-0.179088
-0.130477
-0.081150
-0.028771
-0.003187
0.023009
0.031717
0.047098
0.051828
0.020589
-0.001141
-0.030037
-0.067770
-0.087494
-0.108928
-0.121890
-0.118937
-0.103868
-0.068178
-0.016118
0.052239
0.119842
0.188476
0.266857
0.323033
0.381659
0.421918
0.455799
0.479558
0.466982
0.456195
0.438415
0.437993
0.451028
0.452832
0.457055
0.473179
0.519514
0.546887
0.565209
0.601333
0.643359
0.673526
0.699899
0.708544
0.706672
0.672210
0.588414
0.510609
0.408890
0.322425
0.245301
0.156893
0.076460
0.002292
-0.046454
-0.063522
-0.064120
-0.049940
-0.032338
-0.007803
0.028004
0.066324
0.096178
0.123768
0.118265
0.119183
0.121139
0.107561
0.068908
0.019284
-0.024204
-0.070000
-0.114801
-0.150189
-0.172905
-0.186762
-0.175158
-0.154715
-0.133576
-0.098648
-0.055625
-0.006396
0.026161
0.062651
0.076926
0.081543
0.076380
0.057231
0.027402
-0.017342
-0.072882
-0.122871
-0.152828
-0.189991
-0.204918
-0.221544
-0.211633
-0.189423
-0.167646
-0.127581
-0.083279
-0.041184
0.018831
0.056435
0.077233
0.082565
0.073550
0.054481
0.022893
-0.024517
-0.074268
-0.117356
-0.149802
-0.187074
-0.212268
-0.217895
-0.204252
-0.175631
-0.143451
-0.104251
-0.058049
-0.014195
0.031324
0.057282
0.074148
0.084174
0.071706
0.055398
0.027693
-0.006154
-0.056157
-0.101750
-0.135485
-0.166410
-0.186515
-0.198437
-0.177297
-0.148317
-0.127603
-0.086545
-0.038181
0.001797
0.045928
0.079474
0.101752
0.115712
0.110548
0.084791
0.054182
0.022658
-0.032707
-0.081797
-0.114576
-0.142072
-0.150903
-0.158914
-0.149098
-0.125640
-0.096758
-0.054445
-0.007267
0.036329
0.071283
0.102119
0.125289
0.134769
0.128385
0.115546
0.082839
0.044457
-0.005852
-0.052507
-0.089588
-0.111789
-0.119406
-0.119780
-0.118208
-0.083948
-0.047675
-0.013624
0.029050
0.078264
0.116155
0.151516
0.166284
0.170276
0.165464
0.147552
0.130225
0.078236
0.045498
0.007352
-0.032771
-0.075249
-0.094901
-0.092709
-0.085617
-0.058715
-0.031409
0.014960
0.061429
0.105197
0.149016
0.177018
0.193220
0.208320
0.204489
0.184990
0.156115
0.100200
0.052024
0.019111
-0.016277
-0.054642
-0.073694
-0.078660
-0.071291
-0.043935
-0.021679
0.014179
0.049572
0.103841
0.141280
0.172193
0.186391
0.193061
0.182903
0.160100
0.142765
0.102180
0.054025
0.012433
-0.028136
-0.060609
-0.084648
-0.087571
-0.084730
-0.065633
-0.037155
0.005231
0.042411
0.081506
0.123163
0.150354
0.165641
0.177564
0.167272
0.144158
0.114208
0.070646
0.010974
-0.056288
-0.093873
-0.105059
-0.132863
-0.144027
-0.141127
-0.111987
-0.073110
-0.041013
-0.010700
0.033791
0.084658
0.111711
0.131838
0.131036
0.124598
0.100772
0.071464
0.016016
-0.041867
-0.079215
-0.114382
-0.145473
-0.147126
-0.166985
-0.174078
-0.166536
-0.132201
-0.089143
-0.052096
0.011107
0.060133
0.077255
0.091002
0.097129
0.088143
0.061276
0.022853
-0.011714
-0.056007
-0.105890
-0.149183
-0.187291
-0.212233
-0.221238
-0.218246
-0.187388
-0.148428
-0.103293
-0.068768
-0.029484
0.010796
0.052517
0.072966
0.072880
0.073953
0.051679
0.021224
-0.036391
-0.076454
-0.113234
-0.155226
-0.186952
-0.202187
-0.217962
-0.209661
-0.192811
-0.168996
-0.130186
-0.080326
-0.032118
0.015225
0.039830
0.065202
0.075368
0.075776
0.057632
0.021089
-0.033193
-0.072337
-0.110419
-0.157211
-0.184553
-0.200846
-0.208011
-0.190574
-0.175237
-0.144370
-0.119682
-0.068273
-0.032545
0.023595
0.048892
0.069742
0.065327
0.058144
0.039442
0.015274
-0.022526
-0.054727
-0.106590
-0.156177
-0.181714
-0.197622
-0.198729
-0.203116
-0.184593
-0.149516
-0.096767
-0.057274
-0.007399
0.034813
0.067428
0.083587
0.089541
0.087466
0.069320
0.036191
-0.001933
-0.058571
-0.103288
-0.146331
-0.183296
-0.184100
-0.189311
-0.175116
-0.166588
-0.144888
-0.089868
-0.047268
-0.003188
0.036107
0.067584
0.085815
0.089235
0.079016
0.052065
0.026607
0.007612
-0.048938
-0.097212
-0.138307
-0.179034
-0.198575
-0.211318
-0.213807
-0.186031
-0.140057
-0.109541
-0.053931
-0.004258
0.045151
0.069957
0.078939
0.085474
0.085065
0.068995
0.036555
-0.014450
-0.054640
-0.097883
-0.155449
-0.196971
-0.215561
-0.202800
-0.199920
-0.169563
-0.146876
-0.103810
-0.059341
-0.002802
0.030104
0.055980
0.084649
0.083632
0.070160
0.053133
0.029871
-0.016508
-0.054821
-0.108120
-0.147166
-0.181638
-0.217963
-0.209421
-0.200929
-0.175837
-0.140218
-0.106584
-0.060570
-0.018724
0.024354
0.052974
0.065849
0.066915
0.068422
0.036138
0.005813
-0.024481
-0.056874
-0.099411
-0.154986
-0.177657
-0.200220
-0.206933
-0.203844
-0.174907
-0.146389
-0.107823
-0.075351
-0.019895
0.016367
0.054192
0.066130
0.073294
0.074034
0.035800
0.005734
-0.044447
-0.082817
-0.121911
-0.178782
-0.221644
-0.208032
-0.201111
-0.205521
-0.189365
-0.158177
-0.122554
-0.083657
-0.010772
0.026309
0.056646
0.070148
0.065368
0.060702
0.039583
0.011412
-0.028137
-0.085469
-0.139679
-0.174914
-0.201679
-0.217565
-0.212109
-0.213410
-0.191695
-0.157826
-0.126739
-0.086114
-0.031052
0.022881
0.056730
0.069098
0.071774
0.072480
0.041953
0.009907
-0.022388
-0.069602
-0.120115
-0.163760
-0.200281
-0.215107
-0.221045
-0.209805
-0.197821
-0.157376
-0.117762
-0.074492
-0.032971
0.017080
0.048220
0.069168
0.071938
0.071200
0.059106
0.021939
-0.018930
-0.063765
-0.098369
-0.148275
-0.179266
-0.193939
-0.206345
-0.205276
-0.176643
-0.125229
-0.084534
-0.037027
-0.001781
0.040542
0.070117
0.093413
0.095527
0.080175
0.056947
0.050139
0.014442
-0.047894
-0.078247
-0.102133
-0.141762
-0.173765
-0.182940
-0.197838
-0.158715
-0.120107
-0.096492
-0.049554
-0.001369
0.039320
0.079449
0.096838
0.099160
0.094632
0.085245
0.064200
0.030480
-0.009267
-0.057938
-0.098775
-0.136476
-0.149280
-0.147208
-0.138466
-0.116290
-0.086287
-0.042329
-0.010363
0.028718
0.063627
0.080930
0.098909
0.112646
0.107547
0.086200
0.047672
0.001314
-0.048015
-0.091441
-0.132947
-0.166430
-0.189124
-0.188356
-0.184837
-0.171356
-0.134980
-0.106365
-0.069198
-0.016111
0.038054
0.067202
0.077128
0.086271
0.072826
0.052351
0.021823
-0.026221
-0.068414
-0.121040
-0.175372
-0.210535
-0.225296
-0.240660
-0.241071
-0.213916
-0.173322
-0.128453
-0.074123
-0.030133
0.005885
0.035449
0.058321
0.064673
0.056433
0.028882
-0.017334
-0.057540
-0.109537
-0.148516
-0.178200
-0.207886
-0.237187
-0.240811
-0.228234
-0.196603
-0.172060
-0.140441
-0.088121
-0.044623
-0.001883
0.030044
0.041989
0.063248
0.044065
0.010369
-0.001987
-0.025778
-0.071656
-0.132104
-0.179500
-0.219074
-0.231853
-0.237909
-0.232234
-0.214033
-0.179336
-0.138374
-0.085652
-0.044087
-0.006197
0.025023
0.053236
0.059738
0.043535
0.019509
0.001617
-0.052695
-0.104408
-0.133528
-0.173418
-0.211785
-0.246470
-0.246918
-0.224448
-0.205241
-0.178095
-0.135674
-0.086433
-0.051763
-0.014210
0.011461
0.030820
0.051313
0.053482
0.028511
-0.009105
-0.055053
-0.098204
-0.135400
-0.177780
-0.226040
-0.209366
-0.187226
-0.159464
-0.144725
-0.097321
-0.040768
0.030576
0.066883
0.124749
0.164722
0.203111
0.222256
0.229848
0.227290
0.222948
0.217044
0.188392
0.170275
0.174562
0.168797
0.179627
0.201480
0.249541
0.291002
0.354861
0.439874
0.527524
0.608923
0.684249
0.744214
0.798205
0.829500
0.820938
0.791417
0.744798
0.687360
0.633013
0.559727
0.491514
0.423278
0.359369
0.293989
0.242409
0.204153
0.194006
0.192295
0.195899
0.194467
0.204718
0.230203
0.243580
0.235483
0.220440
0.193157
0.139589
0.091159
0.043655
-0.000838
-0.054947
-0.103951
-0.144781
-0.140286
-0.132779
-0.111725
-0.086593
-0.055220
-0.016986
0.037575
0.087709
0.117289
0.127617
0.135859
0.104491
0.092809
0.064580
0.001798
-0.038327
-0.076739
-0.115787
-0.153669
-0.168045
-0.169910
-0.157491
-0.149503
-0.126381
-0.076347
-0.035435
-0.000817
0.038847
0.078306
0.093418
0.109786
0.094457
0.069327
0.037018
-0.003387
-0.046788
-0.093102
-0.145555
-0.161678
-0.174826
-0.178617
-0.157740
-0.149915
-0.126626
-0.076101
-0.033765
0.003422
0.048541
0.081202
0.107250
0.114820
0.099031
0.080213
0.055707
0.007135
-0.034221
-0.083909
-0.119526
-0.156760
-0.170869
-0.181405
-0.156307
-0.135344
-0.096675
-0.056396
-0.006118
0.036370
0.065237
0.107667
0.120640
0.130912
0.110526
0.089922
0.061560
0.023529
-0.019353
-0.055572
-0.101664
-0.130305
-0.147189
-0.146557
-0.143521
-0.120403
-0.096135
-0.040601
-0.000013
0.043412
0.079298
0.123506
0.159829
0.159966
0.161211
0.152383
0.112400
0.065195
0.022865
-0.018233
-0.063557
-0.108261
-0.122346
-0.114566
-0.097985
-0.085909
-0.048598
-0.009435
0.047388
0.092848
0.136484
0.168616
0.197533
0.202972
0.194592
0.159670
0.133081
0.095918
0.071463
0.010153
-0.041335
-0.068385
-0.077477
-0.082846
-0.069393
-0.043601
-0.022822
0.015581
0.063714
0.113877
0.156674
0.189192
0.213216
0.220523
0.215687
0.195367
0.158682
0.121702
0.086044
0.043745
-0.001224
-0.029682
-0.055388
-0.065580
-0.048670
-0.033670
-0.008723
0.025285
0.068085
0.123375
0.175347
0.205900
0.228598
0.233429
0.220915
0.200030
0.172090
0.125837
0.082975
0.036372
-0.016466
-0.055317
-0.058605
-0.076537
-0.061497
-0.033068
-0.000383
0.046185
0.083108
0.118812
0.160523
0.187351
0.200287
0.214836
0.221151
0.197720
0.154207
0.100614
0.058050
0.009792
-0.021440
-0.054467
-0.072846
-0.096147
-0.088249
-0.058681
-0.033576
0.006230
0.044376
0.094969
0.132506
0.170545
0.181356
0.188903
0.164299
0.146456
0.111227
0.070040
0.016483
-0.034095
-0.080137
-0.111990
-0.135962
-0.148159
-0.126209
-0.108504
-0.090894
-0.050014
-0.016813
0.038747
0.083437
0.117778
0.129384
0.138114
0.120301
0.106851
0.071799
0.025174
-0.025798
-0.068099
-0.115905
-0.146076
-0.166917
-0.176415
-0.160636
-0.148382
-0.114254
-0.078347
-0.029341
0.002643
0.031746
0.080302
0.097293
0.088985
0.089546
0.066428
0.049658
0.009698
-0.050008
-0.096303
-0.126454
-0.159236
-0.189534
-0.201075
-0.188454
-0.167420
-0.135718
-0.090374
-0.044633
0.004816
0.049061
0.078605
0.109303
0.106535
0.098495
0.072828
0.037095
-0.000483
-0.052226
-0.096909
-0.140169
-0.170389
-0.185148
-0.193718
-0.184075
-0.161853
-0.137606
-0.093869
-0.051560
-0.001004
0.035699
0.074167
0.102690
0.105139
0.096650
0.059743
0.036654
-0.006674
-0.046650
-0.093707
-0.138725
-0.166545
-0.169668
-0.182914
-0.182065
-0.175421
-0.126225
-0.085768
-0.035240
0.015907
0.059976
0.081419
0.100076
0.112809
0.110255
0.078882
0.038077
0.001109
-0.046116
-0.093229
-0.126824
-0.166880
-0.194454
-0.211926
-0.190655
-0.152502
-0.113776
-0.076763
-0.039277
-0.003702
0.035243
0.068358
0.104591
0.111926
0.101194
0.079395
0.059919
0.030388
-0.022141
-0.076072
-0.129049
-0.169312
-0.183015
-0.183874
-0.183442
-0.145678
-0.116751
-0.070168
-0.029699
0.003342
0.048009
0.084282
0.101720
0.116898
0.120645
0.086597
0.047277
0.002671
-0.044284
-0.091023
-0.129783
-0.158035
-0.176276
-0.193771
-0.191332
-0.166587
-0.129690
-0.086141
-0.039183
0.002342
0.050902
0.084927
0.104476
0.104582
0.085247
0.072802
0.058194
0.009598
-0.041465
-0.098273
-0.138318
-0.172120
-0.194153
-0.195875
-0.198664
-0.175219
-0.143508
-0.084451
-0.031519
0.004954
0.056976
0.072918
0.092053
0.103755
0.094378
0.069719
0.043179
-0.007771
-0.065235
-0.113907
-0.157314
-0.178749
-0.196250
-0.210717
-0.204741
-0.162019
-0.125101
-0.082237
-0.046051
-0.001740
0.027302
0.072544
0.090136
0.090182
0.082294
0.054379
0.026998
-0.010008
-0.059128
-0.103500
-0.140484
-0.179625
-0.195868
-0.198963
-0.201361
-0.172477
-0.139912
-0.101074
-0.063061
-0.006956
0.027182
0.053405
0.082103
0.092511
0.087893
0.062237
0.014062
-0.031613
-0.067028
-0.116597
-0.165949
-0.190747
-0.192194
-0.204065
-0.186216
-0.166630
-0.131163
-0.087476
-0.052747
-0.012277
0.031221
0.055234
0.081791
0.096642
0.081587
0.049679
0.018792
-0.020406
-0.075522
-0.118804
-0.168786
-0.200713
-0.223387
-0.230012
-0.207521
-0.176471
-0.143840
-0.109372
-0.062469
-0.014830
0.040046
0.070833
0.082621
0.077519
0.065236
0.050206
0.023568
-0.011634
-0.048686
-0.104826
-0.138793
-0.171179
-0.200895
-0.214979
-0.204875
-0.170604
-0.129301
-0.094393
-0.062238
0.003317
0.049973
0.082683
0.103327
0.109222
0.110322
0.103790
0.063434
0.018006
-0.014974
-0.078133
-0.127086
-0.163350
-0.156883
-0.168853
-0.170679
-0.153944
-0.113846
-0.067306
-0.022132
0.032249
0.069077
0.096027
0.112805
0.106283
0.099638
0.092855
0.044912
0.006231
-0.029029
-0.077926
-0.108578
-0.132591
-0.152496
-0.160098
-0.150676
-0.127684
-0.086680
-0.048171
-0.003601
0.051559
0.086828
0.121365
0.133991
0.149263
0.133725
0.104211
0.064468
0.025359
-0.018186
-0.066691
-0.105766
-0.136141
-0.159267
-0.174648
-0.170068
-0.147927
-0.120569
-0.084652
-0.043535
-0.002448
0.047039
0.074084
0.100847
0.097680
0.083880
0.068110
0.023390
-0.016063
-0.055769
-0.098473
-0.141688
-0.176193
-0.205551
-0.209747
-0.198011
-0.171025
-0.148648
-0.099323
-0.052727
-0.005563
0.033627
0.057181
0.064336
0.072175
0.064461
0.022131
-0.020590
-0.046392
-0.080398
-0.115551
-0.153915
-0.195504
-0.211488
-0.230884
-0.229280
-0.209164
-0.172459
-0.122469
-0.072627
-0.031374
0.011256
0.042421
0.063039
0.080721
0.068446
0.035970
0.006060
-0.045741
-0.091805
-0.127457
-0.171337
-0.208868
-0.233777
-0.235205
-0.240367
-0.213025
-0.176253
-0.134874
-0.076016
-0.035426
0.002905
0.026835
0.060917
0.059471
0.050678
0.051267
0.014969
-0.030678
-0.085246
-0.133818
-0.175030
-0.210412
-0.227058
-0.234525
-0.226406
-0.200751
-0.168823
-0.124471
-0.085691
-0.025093
0.018639
0.034225
0.056838
0.062063
0.059202
0.025412
-0.025776
-0.061934
-0.092956
-0.147835
-0.184925
-0.223508
-0.243741
-0.244067
-0.220265
-0.206881
-0.160916
-0.100872
-0.053609
-0.009789
0.056829
0.105531
0.142896
0.154121
0.148589
0.141538
0.105419
0.088370
0.052870
0.027782
0.009390
-0.005681
-0.023081
-0.008960
0.030854
0.084530
0.155137
0.231918
0.309281
0.386205
0.452568
0.521217
0.555188
0.586119
0.617373
0.639264
0.648962
0.632583
0.618647
0.606208
0.589070
0.545612
0.508354
0.512915
0.508130
0.527352
0.536139
0.545438
0.564302
0.548378
0.533170
0.514382
0.479052
0.425139
0.383799
0.323452
0.239602
0.164368
0.108817
0.052166
0.014147
-0.028717
-0.057487
-0.074875
-0.060504
-0.057133
-0.024481
0.002621
0.025928
0.053662
0.089369
0.115601
0.136929
0.151822
0.136550
0.122597
0.089756
0.047513
-0.012229
-0.059858
-0.094489
-0.126616
-0.151910
-0.149603
-0.153329
-0.134442
-0.095650
-0.067872
-0.031083
0.012228
0.053835
0.090827
0.101755
0.108847
0.105411
0.090167
0.052581
0.003502
-0.037139
-0.091777
-0.122460
-0.157447
-0.180843
-0.185596
-0.176136
-0.148082
-0.129685
-0.078130
-0.030471
0.026854
0.053281
0.080521
0.099082
0.105014
0.106049
0.082828
0.040451
-0.003348
-0.042816
-0.091318
-0.131299
-0.158983
-0.160200
-0.178931
-0.170302
-0.150065
-0.104808
-0.065960
-0.023329
0.028012
0.063425
0.102973
0.130229
0.134290
0.126153
0.101733
0.063673
0.017659
-0.022150
-0.074752
-0.105039
-0.154092
-0.163835
-0.165862
-0.144567
-0.135427
-0.102119
-0.048889
-0.001834
0.044700
0.084204
0.118342
0.151004
0.160788
0.149599
0.129610
0.105714
0.062034
0.019054
-0.030196
-0.077540
-0.117412
-0.132190
-0.132996
-0.119165
-0.099341
-0.062804
-0.007529
0.037578
0.076901
0.122486
0.167740
0.177808
0.178768
0.183950
0.161338
0.135886
0.081520
0.032618
-0.006083
-0.041819
-0.081385
-0.092890
-0.085825
-0.077864
-0.064291
-0.015996
0.017735
0.062532
0.109616
0.153563
0.193531
0.207793
0.211258
0.204577
0.186423
0.159879
0.116634
0.084061
0.035073
-0.014319
-0.062394
-0.078334
-0.074751
-0.062594
-0.033503
-0.006469
0.047675
0.089540
0.139463
0.174178
0.196853
0.220886
0.225654
0.220170
0.208031
0.175855
0.134926
0.095187
0.041763
0.002036
-0.035051
-0.051846
-0.059180
-0.047179
-0.029357
0.002344
0.045034
0.087344
0.129719
0.161492
0.205294
0.226037
0.224581
0.215843
0.177140
0.154369
0.108685
0.065636
0.029313
-0.012641
-0.050638
-0.072012
-0.075932
-0.070931
-0.046123
-0.017442
0.029110
0.055368
0.102828
0.157598
0.184511
0.209578
0.205940
0.189229
0.162130
0.126192
0.079246
0.033414
-0.015382
-0.059500
-0.087512
-0.107979
-0.117138
-0.109330
-0.090114
-0.062641
-0.027714
0.022005
0.076535
0.111588
0.140652
0.161386
0.175863
0.158700
0.131651
0.102253
0.040540
-0.007174
-0.045740
-0.090664
-0.126425
-0.145868
-0.167422
-0.162059
-0.130663
-0.109101
-0.049859
-0.020298
0.036466
0.095154
0.103914
0.117783
0.134499
0.122389
0.093770
0.062438
0.013616
-0.036766
-0.080388
-0.125220
-0.147581
-0.168992
-0.173008
-0.173757
-0.149475
-0.124991
-0.076446
-0.028157
0.011060
0.051969
0.093624
0.123651
0.120599
0.101816
0.081586
0.045698
0.004492
-0.029181
-0.086326
-0.126663
-0.142816
-0.170854
-0.182705
-0.170117
-0.153045
-0.129437
-0.091590
-0.040920
0.006394
0.051849
0.083037
0.121205
0.115818
0.107085
0.086138
0.055688
0.005850
-0.036247
-0.067576
-0.121137
-0.156639
-0.170150
-0.177404
-0.170420
-0.146272
-0.115504
-0.070927
-0.021573
0.014219
0.060588
0.108262
0.134240
0.131941
0.118781
0.101584
0.062233
0.014896
-0.033204
-0.076266
-0.120061
-0.149050
-0.174524
-0.184513
-0.169404
-0.145666
-0.102922
-0.052275
-0.021702
0.028064
0.073125
0.102291
0.124723
0.126539
0.123096
0.102310
0.060423
0.005803
-0.035670
-0.082322
-0.120049
-0.147806
-0.172772
-0.180253
-0.160591
-0.131092
-0.096778
-0.054024
-0.006908
0.021632
0.069944
0.103263
0.125136
0.127653
0.123307
0.105342
0.069591
0.022741
-0.018243
-0.067297
-0.111237
-0.144652
-0.167057
-0.189909
-0.173344
-0.142585
-0.110793
-0.075377
-0.025125
0.020297
0.061668
0.099508
0.119032
0.121889
0.113626
0.097022
0.065213
0.023208
-0.022332
-0.064230
-0.120528
-0.144829
-0.174156
-0.206440
-0.186557
-0.147510
-0.106459
-0.061288
-0.020504
0.020078
0.064548
0.088249
0.109595
0.122062
0.110792
0.092599
0.048748
0.014916
-0.027538
-0.079775
-0.125590
-0.153469
-0.180142
-0.179237
-0.169521
-0.145405
-0.120558
-0.071700
-0.037433
0.008729
0.051302
0.076988
0.102598
0.111246
0.102542
0.081053
0.048881
0.003769
-0.042210
-0.081965
-0.136026
-0.162387
-0.166020
-0.179654
-0.176542
-0.158648
-0.128505
-0.079663
-0.041022
0.004163
0.046171
0.085813
0.100517
0.111708
0.112534
0.085395
0.049825
-0.008842
-0.052844
-0.091609
-0.136128
-0.168830
-0.198016
-0.201842
-0.185230
-0.161255
-0.121315
-0.076054
-0.023886
0.014360
0.063369
0.085682
0.087510
0.100978
0.094764
0.065124
0.033212
0.003994
-0.032706
-0.084066
-0.132879
-0.158307
-0.173672
-0.191218
-0.194309
-0.163164
-0.120841
-0.083979
-0.031378
0.017630
0.062699
0.087747
0.103897
0.115974
0.112594
0.096409
0.059446
0.016987
-0.028878
-0.073538
-0.119542
-0.150153
-0.169584
-0.176186
-0.162641
-0.153544
-0.113761
-0.065424
-0.008152
0.041190
0.081175
0.111280
0.127990
0.133483
0.124679
0.112092
0.084991
0.040478
-0.010941
-0.061969
-0.089035
-0.119249
-0.147365
-0.152440
-0.145391
-0.123438
-0.091468
-0.040709
-0.003488
0.036026
0.068769
0.105512
0.126691
0.134779
0.137456
0.126168
0.093159
0.047346
0.006315
-0.015057
-0.058280
-0.097808
-0.119927
-0.123161
-0.122364
-0.092610
-0.059887
-0.016823
0.032237
0.071501
0.107924
0.138808
0.147289
0.149341
0.133864
0.113792
0.068765
0.023585
-0.023636
-0.058152
-0.102790
-0.141694
-0.167274
-0.167344
-0.164001
-0.157680
-0.126505
-0.076994
-0.010361
0.038284
0.079619
0.092045
0.112401
0.120399
0.115684
0.084759
0.051096
0.003835
-0.050228
-0.103404
-0.142245
-0.182105
-0.213159
-0.233203
-0.227465
-0.186682
-0.148770
-0.104476
-0.059438
-0.014588
0.023096
0.056862
0.090261
0.112007
0.091524
0.054501
0.026374
-0.017808
-0.075893
-0.120273
-0.159474
-0.189097
-0.212592
-0.213133
-0.206482
-0.186466
-0.146082
-0.101833
-0.057750
-0.015230
0.005813
0.058986
0.082560
0.087776
0.078722
0.065579
0.031179
-0.016046
-0.068200
-0.112192
-0.152864
-0.191067
-0.211917
-0.219867
-0.213852
-0.182399
-0.142227
-0.115297
-0.058247
-0.012910
0.026488
0.055933
0.073110
0.074510
0.072989
0.056559
0.024355
-0.015901
-0.066193
-0.119232
-0.157663
-0.184863
-0.206836
-0.226692
-0.215369
-0.187138
-0.148394
-0.105996
-0.060441
-0.014698
0.027429
0.062600
0.081155
0.079821
0.065589
0.035763
0.013625
-0.025082
-0.079286
-0.120311
-0.162023
-0.177680
-0.187030
-0.175749
-0.161231
-0.119369
-0.055897
0.009157
0.074101
0.122828
0.182314
0.221837
0.249259
0.263424
0.281968
0.276871
0.270922
0.250681
0.225778
0.206185
0.203675
0.188430
0.187035
0.226434
0.285198
0.327293
0.386622
0.479087
0.560160
0.637124
0.721876
0.795207
0.841178
0.849516
0.849137
0.804796
0.773567
0.707295
0.648553
0.590097
0.517828
0.437146
0.377571
0.293064
0.237924
0.210787
0.193636
0.199610
0.211450
0.206746
0.220094
0.237724
0.236148
0.224617
0.215881
0.188960
0.154751
0.107088
0.056574
0.001418
-0.040768
-0.083712
-0.108532
-0.118253
-0.114704
-0.097836
-0.066312
-0.023462
0.009463
0.054033
0.101547
0.137169
0.149578
0.148195
0.139407
0.111710
0.083599
0.039481
-0.014518
-0.063136
-0.107201
-0.134845
-0.153205
-0.162881
-0.162624
-0.138991
-0.103681
-0.080510
-0.025882
0.016986
0.073304
0.108644
0.131645
0.123999
0.112872
0.087252
0.053207
0.009661
-0.026588
-0.059486
-0.099532
-0.127146
-0.155012
-0.179498
-0.159218
-0.135447
-0.103264
-0.064681
-0.023056
0.026163
0.078501
0.113744
0.140282
0.144101
0.128739
0.112577
0.088237
0.037348
-0.000090
-0.054551
-0.106716
-0.140161
-0.155684
-0.157695
-0.139913
-0.116036
-0.094974
-0.045629
-0.002924
0.048086
0.093631
0.126883
0.152872
0.162331
0.150348
0.120755
0.084613
0.053647
0.020784
-0.039163
-0.090246
-0.111742
-0.137013
-0.133354
-0.122132
-0.100221
-0.068074
-0.023702
0.030115
0.070474
0.109660
0.150651
0.173645
0.174759
0.152235
0.155291
0.137350
0.091370
0.032246
-0.015765
-0.058941
-0.081637
-0.115084
-0.108950
-0.095652
-0.076628
-0.026763
0.010353
0.047249
0.099273
0.137879
0.170812
0.207728
0.206086
0.196151
0.187856
0.147254
0.124112
0.089801
0.043710
-0.012386
-0.043613
-0.073582
-0.076223
-0.071184
-0.046553
0.004423
0.047096
0.095737
0.154729
0.186446
0.227784
0.236118
0.246920
0.238793
0.215194
0.168158
0.135888
0.087275
0.039480
0.004664
-0.031143
-0.065999
-0.065411
-0.042301
-0.029841
0.014664
0.061485
0.106019
0.158496
0.194542
0.227305
0.248276
0.241117
0.239335
0.217879
0.170664
0.125676
0.096850
0.044091
-0.009240
-0.041101
-0.071149
-0.076682
-0.059049
-0.039820
-0.002298
0.036041
0.078614
0.135218
0.178425
0.207985
0.236278
0.233899
0.217706
0.203243
0.162076
0.114176
0.073553
0.021473
-0.025392
-0.087494
-0.080789
-0.076085
-0.066013
-0.064831
-0.029687
0.003035
0.049549
0.108474
0.157065
0.184720
0.198119
0.195949
0.183313
0.163720
0.141010
0.093526
0.043026
-0.023363
-0.059304
-0.090932
-0.126940
-0.133204
-0.130763
-0.109474
-0.073522
-0.029415
0.019578
0.073524
0.105140
0.138787
0.159686
0.160974
0.144701
0.113590
0.072990
0.030180
-0.011750
-0.059949
-0.093448
-0.130086
-0.149143
-0.157798
-0.150007
-0.135164
-0.101832
-0.066121
-0.019911
0.037005
0.078239
0.113182
0.129613
0.135937
0.123911
0.098026
0.058691
0.018040
-0.030364
-0.085991
-0.128458
-0.154875
-0.176111
-0.177262
-0.167159
-0.158133
-0.129416
-0.083046
-0.028148
0.027703
0.067116
0.107559
0.126768
0.129511
0.114634
0.093213
0.059228
0.005171
-0.034705
-0.073009
-0.106637
-0.154142
-0.183557
-0.175955
-0.168510
-0.147796
-0.118112
-0.070704
-0.014277
0.032270
0.063621
0.097037
0.127986
0.130332
0.128459
0.096794
0.052645
0.011269
-0.035171
-0.068155
-0.106565
-0.152482
-0.177263
-0.180747
-0.173661
-0.149819
-0.102185
-0.065757
-0.023256
0.025266
0.065113
0.096020
0.122690
0.132720
0.134342
0.111349
0.077936
0.030861
-0.018518
-0.074067
-0.106588
-0.140118
-0.166421
-0.171817
-0.170934
-0.150807
-0.110015
-0.066281
-0.019300
0.026147
0.064653
0.100104
0.115208
0.120231
0.108369
0.107431
0.080107
0.026220
-0.014865
-0.064787
-0.104095
-0.134797
-0.157548
-0.170828
-0.157250
-0.135762
-0.111147
-0.080853
-0.042494
0.014363
0.069687
0.106129
0.136923
0.131521
0.118554
0.106839
0.080137
0.029943
-0.022395
-0.058481
-0.096565
-0.127042
-0.172019
-0.180552
-0.177710
-0.152827
-0.115159
-0.064043
-0.026372
0.019290
0.069190
0.107730
0.135974
0.140131
0.126604
0.103653
0.064988
0.020437
-0.032478
-0.088418
-0.125792
-0.152650
-0.159567
-0.169276
-0.166909
-0.148997
-0.114283
-0.076704
-0.021536
0.030086
0.062987
0.098241
0.116797
0.118097
0.099427
0.066909
0.056631
0.019578
-0.036753
-0.084754
-0.119340
-0.149569
-0.185165
-0.188681
-0.175103
-0.154204
-0.129016
-0.083661
-0.036930
0.019405
0.066454
0.102845
0.116752
0.121689
0.114023
0.088689
0.044198
0.005480
-0.047105
-0.100515
-0.150525
-0.169603
-0.177034
-0.186270
-0.184577
-0.162946
-0.137038
-0.093687
-0.047443
-0.000233
0.044953
0.079233
0.099999
0.108445
0.108786
0.077493
0.050887
0.009442
-0.038050
-0.091298
-0.141296
-0.170559
-0.181652
-0.194682
-0.185002
-0.152933
-0.115554
-0.078199
-0.032427
0.015256
0.064667
0.106923
0.126775
0.136046
0.120229
0.083379
0.062355
0.013283
-0.021444
-0.052466
-0.095102
-0.131774
-0.154798
-0.158489
-0.145628
-0.136490
-0.121613
-0.062572
0.000721
0.056428
0.110389
0.132638
0.141511
0.145227
0.141427
0.112000
0.082305
0.036725
-0.020130
-0.070678
-0.121747
-0.142471
-0.156220
-0.159476
-0.138732
-0.125926
-0.099103
-0.057890
-0.011103
0.068043
0.109542
0.144457
0.165348
0.172107
0.145800
0.116573
0.103734
0.070235
0.021576
-0.034174
-0.078347
-0.124448
-0.141756
-0.156031
-0.150482
-0.118937
-0.097036
-0.068102
-0.021638
0.022812
0.069660
0.091244
0.114817
0.120092
0.110076
0.101867
0.071632
0.032661
-0.026741
-0.084245
-0.143611
-0.168267
-0.192992
-0.194633
-0.184592
-0.161824
-0.123476
-0.087147
-0.049890
-0.009821
0.034220
0.069751
0.087414
0.097520
0.086195
0.059458
0.024023
-0.022864
-0.069066
-0.103909
-0.146351
-0.190379
-0.202813
-0.213750
-0.220073
-0.199533
-0.165800
-0.110268
-0.065648
-0.026080
0.024447
0.062356
0.079819
0.091442
0.070185
0.050821
-0.000051
-0.029205
-0.069229
-0.111225
-0.157497
-0.189053
-0.219617
-0.210944
-0.202589
-0.189340
-0.164411
-0.134897
-0.082445
-0.033266
0.014529
0.051730
0.079608
0.080540
0.065569
0.040119
0.003753
-0.024425
-0.067224
-0.131008
-0.165129
-0.200681
-0.221551
-0.228825
-0.212012
-0.184617
-0.147931
-0.104286
-0.058221
-0.015999
0.032887
0.060977
0.088826
0.094509
0.077775
0.049694
0.015443
-0.023431
-0.067760
-0.120603
-0.179571
-0.218070
-0.227394
-0.235969
-0.224461
-0.198457
-0.168325
-0.129684
-0.084437
-0.033460
0.017230
0.053536
0.078282
0.104767
0.092352
0.079966
0.066474
0.042383
0.013337
-0.032405
-0.065755
-0.089184
-0.087999
-0.092386
-0.073854
-0.023707
0.025460
0.090414
0.151855
0.229068
0.296631
0.364735
0.414861
0.455833
0.477112
0.475885
0.490417
0.499515
0.489594
0.470692
0.478554
0.475776
0.472359
0.512759
0.546802
0.581160
0.613399
0.640859
0.693797
0.721013
0.751190
0.771060
0.762621
0.727242
0.659432
0.585546
0.497532
0.404421
0.313981
0.217359
0.128908
0.053266
-0.000671
-0.019055
-0.012041
-0.012697
0.027385
0.057592
0.090318
0.130412
0.169825
0.195814
0.203471
0.195171
0.165042
0.140379
0.112972
0.061336
0.028930
-0.027362
-0.079915
-0.113039
-0.142994
-0.151366
-0.143971
-0.119943
-0.088476
-0.054720
-0.010575
0.026921
0.068736
0.109929
0.135271
0.141757
0.131338
0.111826
0.085994
0.044175
-0.018120
-0.069587
-0.119678
-0.154704
-0.168547
-0.179629
-0.173483
-0.153271
-0.114728
-0.077732
-0.026409
0.020667
0.065694
0.100222
0.123633
0.124105
0.117785
0.100709
0.058569
0.015419
-0.032664
-0.090594
-0.127857
-0.160311
-0.167792
-0.174517
-0.164318
-0.163971
-0.112394
-0.062845
-0.005192
0.037371
0.080495
0.119926
0.138080
0.145622
0.130235
0.116500
0.073803
0.036837
-0.006756
-0.040940
-0.082334
-0.126321
-0.161699
-0.157166
-0.146903
-0.113341
-0.076076
-0.035616
0.001944
0.044962
0.066909
0.122977
0.150670
0.149598
0.143237
0.134403
0.102089
0.056433
-0.000719
-0.040052
-0.060705
-0.093234
-0.117660
-0.126942
-0.123384
-0.110244
-0.067580
-0.030633
0.013843
0.077648
0.125192
0.165023
0.182770
0.184345
0.177830
0.152084
0.122147
0.087228
0.036329
-0.014036
-0.049895
-0.085343
-0.105776
-0.110788
-0.099787
-0.072239
-0.041962
0.013753
0.070304
0.114945
0.153875
0.193640
0.205852
0.210807
0.218525
0.203117
0.175508
0.134719
0.069616
0.014297
-0.022205
-0.055086
-0.074450
-0.089252
-0.084985
-0.048648
-0.008338
0.041239
0.082679
0.134086
0.171469
0.216121
0.238108
0.250498
0.249248
0.219733
0.187868
0.143208
0.085600
0.042708
-0.011559
-0.037300
-0.054497
-0.059722
-0.060562
-0.048174
-0.037345
0.013250
0.084291
0.129166
0.165449
0.211017
0.238329
0.226834
0.245734
0.208872
0.169821
0.129530
0.081587
0.031532
-0.017373
-0.059432
-0.078181
-0.095578
-0.088399
-0.058006
-0.017124
0.025911
0.059290
0.097660
0.144886
0.181219
0.207580
0.209565
0.203333
0.183601
0.144773
0.088439
0.048304
-0.004342
-0.051502
-0.091345
-0.102326
-0.115365
-0.117962
-0.080907
-0.046719
-0.006411
0.035549
0.073541
0.110365
0.147022
0.163218
0.168446
0.170442
0.139976
0.102580
0.051908
-0.009691
-0.050102
-0.090083
-0.128951
-0.149234
-0.155878
-0.154225
-0.142733
-0.111579
-0.061539
-0.014926
0.033000
0.068645
0.109833
0.135310
0.139801
0.135921
0.104276
0.065981
0.024314
-0.028460
-0.078038
-0.115322
-0.153586
-0.165793
-0.175358
-0.169969
-0.148696
-0.122928
-0.070134
-0.020846
0.008886
0.045025
0.089053
0.113087
0.113435
0.122585
0.079863
0.042949
-0.009828
-0.042736
-0.076343
-0.131608
-0.165384
-0.188299
-0.201038
-0.186523
-0.173371
-0.136612
-0.084446
-0.032297
0.013710
0.054032
0.088484
0.113226
0.121612
0.110925
0.092401
0.056798
-0.001428
-0.033986
-0.077615
-0.116292
-0.150339
-0.177599
-0.186171
-0.176893
-0.161018
-0.127669
-0.095280
-0.040597
0.009523
0.050126
0.077036
0.108294
0.109407
0.100321
0.096392
0.064107
0.025701
-0.027185
-0.082614
-0.125764
-0.154298
-0.181890
-0.183714
-0.169099
-0.156007
-0.114350
-0.067140
-0.024746
0.021138
0.066699
0.109902
0.123251
0.127563
0.131277
0.110085
0.077306
0.025555
-0.025751
-0.072598
-0.121816
-0.163116
-0.185338
-0.196588
-0.166853
-0.147401
-0.112924
-0.076380
-0.025597
0.012565
0.061110
0.094129
0.115215
0.121533
0.115942
0.096062
0.066839
0.023511
-0.029490
-0.081449
-0.124659
-0.153822
-0.176359
-0.190913
-0.168025
-0.149676
-0.133247
-0.077678
-0.021559
0.019183
0.050343
0.076979
0.104420
0.122969
0.102016
0.083092
0.055639
0.015456
-0.046651
-0.102109
-0.143188
-0.177683
-0.186323
-0.184305
-0.172637
-0.157160
-0.130606
-0.090890
-0.043937
0.004548
0.039749
0.086716
0.120305
0.118771
0.123195
0.092195
0.065531
0.019009
-0.029541
-0.094242
-0.135443
-0.173278
-0.201790
-0.195064
-0.184285
-0.179427
-0.136716
-0.092973
-0.044422
0.001317
0.045228
0.069665
0.093949
0.095913
0.089497
0.068286
0.040594
0.003188
-0.042640
-0.093693
-0.134616
-0.173502
-0.199453
-0.207032
-0.197175
-0.174558
-0.137587
-0.097016
-0.060895
-0.008500
0.037176
0.073233
0.100195
0.106212
0.089626
0.083015
0.042189
-0.012182
-0.039370
-0.090169
-0.146990
-0.174723
-0.210630
-0.208217
-0.198568
-0.183759
-0.154506
-0.099229
-0.050814
-0.000408
0.035679
0.071624
0.092220
0.092616
0.085098
0.071297
0.033647
-0.005002
-0.058165
-0.106453
-0.141175
-0.174821
-0.201906
-0.198592
-0.196259
-0.180284
-0.128952
-0.091339
-0.047625
0.007900
0.060319
0.088300
0.119616
0.122737
0.100672
0.081472
0.039512
0.012078
-0.029689
-0.074143
-0.115975
-0.148233
-0.174076
-0.185045
-0.174448
-0.156811
-0.109874
-0.064728
-0.021837
0.020392
0.055361
0.100432
0.122477
0.128393
0.113188
0.096704
0.057345
0.025555
-0.005304
-0.071536
-0.106972
-0.140297
-0.166390
-0.171263
-0.165292
-0.136231
-0.093827
-0.054180
-0.012298
0.038986
0.082954
0.113236
0.143503
0.150559
0.146869
0.123901
0.093551
0.045345
0.000877
-0.051003
-0.099199
-0.140899
-0.178251
-0.187379
-0.177807
-0.160395
-0.143313
-0.103205
-0.041619
0.016749
0.066566
0.104189
0.122651
0.128457
0.104287
0.082474
0.036843
-0.008453
-0.056284
-0.089342
-0.143763
-0.177011
-0.196781
-0.211932
-0.197776
-0.180508
-0.149898
-0.113507
-0.049271
0.006256
0.036886
0.069584
0.083549
0.075164
0.066467
0.046846
0.013524
-0.030087
-0.085583
-0.120932
-0.159430
-0.188507
-0.231439
-0.246366
-0.238634
-0.210107
-0.174890
-0.134733
-0.081925
-0.036296
0.003822
0.038051
0.072127
0.085148
0.067481
0.043988
0.006662
-0.037223
-0.087902
-0.135540
-0.180623
-0.215186
-0.244385
-0.238862
-0.227607
-0.210506
-0.166754
-0.118925
-0.081112
-0.033743
-0.003083
0.040802
0.067108
0.071668
0.070436
0.049348
0.006153
-0.034995
-0.085524
-0.132070
-0.185648
-0.219639
-0.223769
-0.235180
-0.236988
-0.218523
-0.184678
-0.145250
-0.090222
-0.043242
-0.011077
0.025541
0.046220
0.062327
0.052120
0.039402
0.018196
-0.028955
-0.083587
-0.128044
-0.170457
-0.206503
-0.234760
-0.244792
-0.248573
-0.218072
-0.194316
-0.137783
-0.087031
-0.028289
0.030779
0.080763
0.117656
0.124019
0.124471
0.115089
0.101455
0.074408
0.039217
0.005253
-0.031301
-0.052737
-0.054556
-0.057110
-0.038879
0.019859
0.089547
0.151024
0.213053
0.294479
0.372155
0.450430
0.505812
0.535580
0.550777
0.574675
0.585000
0.584697
0.566675
0.547645
0.538164
0.532033
0.532194
0.512463
0.500520
0.523904
0.541633
0.582565
0.611487
0.625105
0.628017
0.591616
0.556510
0.521400
0.461533
0.410237
0.334131
0.240261
0.143412
0.072741
0.016911
-0.024970
-0.064989
-0.083720
-0.062325
-0.049112
-0.025864
0.003848
0.044586
0.085050
0.111220
0.143241
0.163806
0.162070
0.170022
0.150231
0.105552
0.050924
-0.006176
-0.053968
-0.102111
-0.134250
-0.148549
-0.155079
-0.150678
-0.135616
-0.112180
-0.085404
-0.034007
0.006996
0.045606
0.083314
0.097482
0.111179
0.108643
0.090384
0.052750
0.017126
-0.039344
-0.093774
-0.126188
-0.152621
-0.171762
-0.176019
-0.166279
-0.156541
-0.125557
-0.085643
-0.035893
0.013035
0.058359
0.092505
0.105349
0.119126
0.119866
0.092062
0.054123
0.010435
-0.037056
-0.069614
-0.126130
-0.160770
-0.163332
-0.181261
-0.181133
-0.157422
-0.117425
-0.069890
-0.021413
0.022387
0.081607
0.110601
0.135184
0.144331
0.139571
0.115256
0.081243
0.025586
-0.022775
-0.060620
-0.108136
-0.147642
-0.161406
-0.160495
-0.158348
-0.142650
-0.101058
-0.076645
-0.022915
0.033571
0.077876
0.124060
0.146482
0.151081
0.141038
0.124440
0.105253
0.072056
0.022799
-0.029224
-0.072647
-0.102535
-0.126294
-0.139024
-0.128927
-0.108959
-0.068456
-0.025778
0.018227
0.073003
0.116440
0.145796
0.167509
0.190158
0.182368
0.161326
0.128167
0.084416
0.038447
-0.007982
-0.044363
-0.078912
-0.099475
-0.111712
-0.098548
-0.070593
-0.035304
0.007720
0.047583
0.087249
0.136860
0.172755
0.192479
0.215990
0.209383
0.187454
0.144963
0.113098
0.070637
0.026228
-0.022995
-0.064416
-0.082219
-0.078818
-0.067022
-0.059253
-0.017394
0.041568
0.086136
0.135415
0.174293
0.195868
0.220086
0.238591
0.225974
0.202270
0.159766
0.118781
0.073393
0.027008
-0.010619
-0.049835
-0.077847
-0.084411
-0.067866
-0.051005
-0.019215
0.033590
0.070500
0.112524
0.146133
0.191014
0.226413
0.229885
0.232443
0.207656
0.181651
0.135189
0.072599
0.011976
-0.030366
-0.056459
-0.071914
-0.078704
-0.088734
-0.072639
-0.042942
-0.003227
0.045283
0.092930
0.134900
0.167478
0.190911
0.201437
0.202967
0.181161
0.135621
0.087162
0.037487
-0.010784
-0.053524
-0.085845
-0.117694
-0.116635
-0.108787
-0.092200
-0.068404
-0.028554
0.017114
0.058801
0.102739
0.142048
0.151209
0.159362
0.153598
0.133478
0.087356
0.037737
-0.010302
-0.050681
-0.095982
-0.125293
-0.151066
-0.166329
-0.167581
-0.147079
-0.119406
-0.067991
-0.021233
0.027255
0.056422
0.084668
0.116145
0.126270
0.125957
0.104498
0.071777
0.024135
-0.023660
-0.068840
-0.110111
-0.147529
-0.168579
-0.183318
-0.204725
-0.167785
-0.113240
-0.072430
-0.029776
0.007460
0.039077
0.063010
0.106939
0.123346
0.115551
0.092275
0.053103
0.005794
-0.036129
-0.079736
-0.114933
-0.153923
-0.184046
-0.190202
-0.188236
-0.167003
-0.136426
-0.090002
-0.051945
0.010700
0.042923
0.087140
0.117963
0.112440
0.115630
0.090963
0.055908
0.015210
-0.043324
-0.082108
-0.123962
-0.159638
-0.182829
-0.197860
-0.187988
-0.169126
-0.132899
-0.096220
-0.054461
0.010174
0.070623
0.109554
0.124006
0.132309
0.132751
0.104995
0.066930
0.019281
-0.018018
-0.071331
-0.110673
-0.152573
-0.179947
-0.197250
-0.185217
-0.156419
-0.119636
-0.075677
-0.040019
0.009930
0.041991
0.072484
0.116066
0.106792
0.124524
0.101085
0.063175
0.017781
-0.017229
-0.068023
-0.105914
-0.143197
-0.164879
-0.175411
-0.178077
-0.159310
-0.126457
-0.088886
-0.038540
0.008618
0.046286
0.083604
0.116175
0.129800
0.121781
0.093531
0.058152
0.018645
-0.026626
-0.073383
-0.111812
-0.147568
-0.177132
-0.181484
-0.184344
-0.162325
-0.121304
-0.079385
-0.037000
0.011901
0.039029
0.078104
0.104801
0.111584
0.106685
0.083115
0.059881
0.017046
-0.044475
-0.094560
-0.119109
-0.152807
-0.174579
-0.185809
-0.188603
-0.178696
-0.140136
-0.092838
-0.035114
0.015310
0.050071
0.078584
0.105445
0.102720
0.100612
0.077905
0.045652
0.006237
-0.046986
-0.097297
-0.120261
-0.164428
-0.180966
-0.189690
-0.190301
-0.186533
-0.143930
-0.107466
-0.060158
-0.005520
0.039054
0.072906
0.096458
0.099330
0.099873
0.076495
0.047233
0.009773
-0.046526
-0.093778
-0.130074
-0.166624
-0.197639
-0.210824
-0.216581
-0.198126
-0.154640
-0.104984
-0.058547
-0.015062
0.026442
0.083523
0.102958
0.106409
0.095043
0.082184
0.049967
0.005234
-0.046118
-0.089802
-0.139739
-0.175594
-0.195265
-0.214344
-0.215067
-0.187476
-0.143807
-0.104136
-0.053524
-0.010910
0.029856
0.065262
0.089297
0.096039
0.097062
0.066648
0.033304
0.006766
-0.046424
-0.094978
-0.134893
-0.161445
-0.180518
-0.185165
-0.183093
-0.161465
-0.128006
-0.091094
-0.039491
0.014125
0.059029
0.096861
0.111570
0.111494
0.105883
0.095290
0.075647
0.023723
-0.026827
-0.069227
-0.111331
-0.144867
-0.159231
-0.166794
-0.157513
-0.144042
-0.115496
-0.067272
-0.018982
0.020545
0.061647
0.092549
0.113350
0.119645
0.105199
0.097172
0.070173
0.033696
-0.006641
-0.050329
-0.093757
-0.126538
-0.153774
-0.155439
-0.147091
-0.124260
-0.090538
-0.049641
-0.000353
0.044688
0.088689
0.103592
0.138944
0.147534
0.135630
0.123526
0.096503
0.038677
-0.015388
-0.061619
-0.110485
-0.148364
-0.176848
-0.188842
-0.180476
-0.162639
-0.132169
-0.086571
-0.030940
0.002755
0.044773
0.070863
0.087161
0.102140
0.095866
0.079297
0.049852
0.000281
-0.046952
-0.099216
-0.152188
-0.180949
-0.210469
-0.213690
-0.201575
-0.192292
-0.159730
-0.108337
-0.056011
-0.015572
0.017485
0.051349
0.066685
0.083482
0.068818
0.049390
0.012348
-0.028744
-0.077120
-0.125408
-0.173146
-0.210872
-0.231700
-0.233608
-0.235310
-0.223574
-0.176097
-0.133340
-0.092555
-0.047231
0.005572
0.045576
0.068426
0.072411
0.067854
0.048415
0.009016
-0.032341
-0.082516
-0.137486
-0.175611
-0.195682
-0.218739
-0.241228
-0.229043
-0.204124
-0.169327
-0.130942
-0.090120
-0.040036
0.015838
0.043292
0.062992
0.071712
0.059660
0.046887
0.014369
-0.044364
-0.078624
-0.124080
-0.162620
-0.202249
-0.225689
-0.235859
-0.225944
-0.221100
-0.184890
-0.132682
-0.089959
-0.048252
-0.004591
0.035945
0.067431
0.072762
0.065051
0.045004
0.006386
-0.040451
-0.104525
-0.142877
-0.165172
-0.182087
-0.215132
-0.214103
-0.201207
-0.179881
-0.130452
-0.070573
-0.010348
0.048885
0.110046
0.168574
0.202592
0.210404
0.217948
0.207879
0.191413
0.168751
0.151187
0.132952
0.112734
0.102540
0.107417
0.150063
0.184609
0.209372
0.278738
0.348382
0.407311
0.488976
0.568800
0.643661
0.705388
0.756255
0.783727
0.771370
0.734882
0.679843
0.637916
0.590709
0.542772
0.509102
0.463264
0.400458
0.370534
0.321953
0.295300
0.280851
0.275089
0.285605
0.284617
0.278201
0.257513
0.243397
0.226810
0.197104
0.151524
0.103734
0.053661
-0.008581
-0.075095
-0.109731
-0.119965
-0.121420
-0.111207
-0.102010
-0.074250
-0.029691
0.010430
0.057245
0.094715
0.117985
0.138064
0.146346
0.135124
0.111511
0.074540
0.031408
-0.016448
-0.071266
-0.117286
-0.152671
-0.178070
-0.187525
-0.168795
-0.144609
-0.116376
-0.079231
-0.042245
0.008299
0.047544
0.084709
0.105860
0.121517
0.104786
0.094503
0.061321
0.010341
-0.031273
-0.079563
-0.116527
-0.150165
-0.176161
-0.193517
-0.194355
-0.167673
-0.133517
-0.093231
-0.044721
0.016190
0.052672
0.074959
0.104650
0.108327
0.107927
0.098570
0.063759
0.025535
-0.011502
-0.071211
-0.107521
-0.147131
-0.164270
-0.174501
-0.178579
-0.163086
-0.110921
-0.070647
-0.032661
0.017684
0.049868
0.106943
0.134539
0.143255
0.132451
0.114719
0.083813
0.040272
-0.005919
-0.057924
-0.097086
-0.141402
-0.167110
-0.164780
-0.153499
-0.123900
-0.091872
-0.053256
-0.004559
0.046391
0.089138
0.126171
0.153514
0.172653
0.164756
0.144337
0.109870
0.070727
0.024880
-0.023606
-0.063969
-0.121045
-0.133296
-0.125526
-0.106189
-0.100180
-0.064359
-0.016714
0.020285
0.071758
0.123712
0.155390
0.181383
0.187930
0.186055
0.172794
0.139501
0.086286
0.057068
0.004918
-0.047909
-0.077183
