-0.004358
0.017966
0.061258
0.108812
0.113464
0.126715
0.098048
0.080041
0.046306
0.003785
-0.039672
-0.086452
-0.131878
-0.150244
-0.180748
-0.198358
-0.192881
-0.181528
-0.150532
-0.099387
-0.047089
-0.005843
0.048097
0.090949
0.098960
0.109530
0.097116
0.053886
0.029091
-0.015021
-0.066846
-0.106051
-0.146218
-0.184435
-0.190191
-0.194933
-0.185694
-0.178364
-0.153098
-0.093998
-0.072387
-0.033931
0.043617
0.078889
0.081304
0.094471
0.101441
0.082671
0.044383
-0.019153
-0.057568
-0.106379
-0.153820
-0.187353
-0.195116
-0.184798
-0.184043
-0.170823
-0.157050
-0.115420
-0.060427
-0.028887
0.014386
0.063454
0.083262
0.078486
0.072702
0.038735
0.033633
-0.001875
-0.070336
-0.134440
-0.163448
-0.196038
-0.205909
-0.195055
-0.173652
-0.152897
-0.125246
-0.096084
-0.056992
0.010659
0.042863
0.046693
0.064444
0.087727
0.076049
0.052439
0.025143
-0.022064
-0.064585
-0.108962
-0.162381
-0.204070
-0.215313
-0.207849
-0.196631
-0.174146
-0.132627
-0.105005
-0.056491
0.005907
0.035785
0.065147
0.083962
0.091785
0.073619
0.051156
0.005015
-0.032641
-0.060056
-0.116362
-0.174062
-0.203118
-0.206120
-0.204839
-0.179934
-0.169687
-0.149651
-0.100274
-0.054222
-0.005865
0.047952
0.091127
0.109769
0.109122
0.110001
0.099134
0.064352
0.007939
-0.060086
-0.118825
-0.183709
-0.212205
-0.212576
-0.207015
-0.179516
-0.147298
-0.111677
-0.057725
-0.010485
0.026542
0.061408
0.083781
0.101856
0.109764
0.090884
0.055699
0.025356
-0.031295
-0.074141
-0.118884
-0.140686
-0.168592
-0.184218
-0.204654
-0.191248
-0.173173
-0.157852
-0.092925
-0.035584
-0.006037
0.036681
0.062517
0.074540
0.078468
0.067235
0.039679
0.026370
-0.023525
-0.072324
-0.097826
-0.124925
-0.163814
-0.173886
-0.170473
-0.171905
-0.150134
-0.105793
-0.064012
-0.041676
0.013662
0.048589
0.071502
0.094133
0.090064
0.082198
0.040856
-0.000620
-0.053607
-0.076468
-0.098086
-0.143353
-0.169365
-0.195830
-0.202389
-0.192972
-0.182225
-0.153188
-0.108530
-0.059783
0.003467
0.054925
0.082906
0.076881
0.088538
0.075151
0.044722
0.033595
-0.026712
-0.061278
-0.097047
-0.123874
-0.154956
-0.183782
-0.185377
-0.169679
-0.166223
-0.147178
-0.107039
-0.059396
-0.000437
0.050941
0.081871
0.101749
0.109288
0.125956
0.107204
0.074630
0.022530
-0.050958
-0.075378
-0.096378
-0.131672
-0.153931
-0.163268
-0.157868
-0.137115
-0.123556
-0.076976
-0.020581
0.033812
0.058294
0.069313
0.088810
0.082469
0.097607
0.089306
0.060370
0.038964
0.002388
-0.044157
-0.088569
-0.140273
-0.165655
-0.145241
-0.145134
-0.127004
-0.100405
-0.058051
0.002716
0.038813
0.094757
0.118410
0.128799
0.121691
0.124415
0.099984
0.049598
0.013956
-0.038862
-0.079114
-0.124651
-0.142771
-0.178736
-0.184821
-0.184700
-0.172658
-0.160214
-0.120837
-0.073101
-0.017327
0.048371
0.092374
0.099024
0.074662
0.082229
0.056317
0.033936
-0.008226
-0.073464
-0.115028
-0.167173
-0.205232
-0.220846
-0.234535
-0.238372
-0.230873
-0.198765
-0.148346
-0.095553
-0.038800
0.014580
0.039152
0.051812
0.053821
0.025363
0.025980
-0.005057
-0.067386
-0.087332
-0.146151
-0.216189
-0.206132
-0.214760
-0.245443
-0.237968
-0.216126
-0.189398
-0.154696
-0.117635
-0.061636
-0.006649
0.038986
0.047520
0.062713
0.048613
0.004472
-0.031900
-0.068995
-0.102253
-0.145538
-0.182637
-0.207270
-0.240607
-0.250771
-0.247269
-0.209625
-0.168593
-0.129896
-0.097238
-0.034437
-0.018351
0.012300
0.054426
0.043897
0.055727
0.036887
0.015864
-0.039913
-0.107564
-0.159346
-0.199045
-0.224009
-0.249863
-0.271053
-0.265841
-0.221215
-0.178795
-0.130895
-0.082689
-0.021020
0.017827
0.026848
0.055259
0.062189
0.014404
-0.004450
-0.047974
-0.075243
-0.098770
-0.112103
-0.173301
-0.201450
-0.205716
-0.206901
-0.179293
-0.110746
-0.107745
-0.028598
0.057507
0.110670
0.163674
0.210135
0.237530
0.254327
0.275494
0.289482
0.265758
0.241796
0.203431
0.163555
0.183635
0.185559
0.186260
0.198405
0.264134
0.312539
0.391866
0.458823
0.545713
0.613985
0.732360
0.811895
0.792252
0.861513
0.840052
0.781876
0.744446
0.677963
0.639627
0.565469
0.490117
0.455410
0.390536
0.322156
0.271881
0.220823
0.205299
0.191797
0.216053
0.237327
0.242732
0.217735
0.201498
0.195656
0.148854
0.123974
0.121838
0.092279
0.033937
-0.033031
-0.085825
-0.108394
-0.125803
-0.125448
-0.124861
-0.098261
-0.067253
-0.043790
-0.023161
0.034933
0.083729
0.121929
0.139399
0.142319
0.091000
0.040370
0.008485
-0.027572
-0.067509
-0.095840
-0.134115
-0.163008
-0.148356
-0.172085
-0.170450
-0.175277
-0.118796
-0.073106
-0.020356
0.000568
0.033127
0.058569
0.092551
0.112275
0.086976
0.063621
0.019923
-0.028809
-0.090646
-0.138767
-0.169718
-0.209192
-0.230937
-0.224167
-0.219902
-0.199582
-0.177854
-0.093121
-0.028128
0.007027
0.029252
0.045313
0.137057
0.152950
0.098028
0.045156
0.016113
-0.005885
-0.048297
-0.099651
-0.139996
-0.177218
-0.188943
-0.201891
-0.200898
-0.165189
-0.123431
-0.079490
-0.036948
0.009900
0.047097
0.065669
0.088055
0.121968
0.113888
0.101965
0.071432
0.009720
-0.059630
-0.084700
-0.115904
-0.163992
-0.174589
-0.176131
-0.169459
-0.126275
-0.081857
-0.049904
-0.029485
0.014137
0.074863
0.112479
0.142191
0.140893
0.124917
0.084468
0.058205
0.021245
-0.017291
-0.064557
-0.093661
-0.144856
-0.145893
-0.147814
-0.153296
-0.107996
-0.064577
-0.041461
-0.021357
0.027076
0.108077
0.157345
0.187731
0.165928
0.133858
0.116654
0.069935
0.053032
0.024920
-0.032827
-0.100334
-0.125428
-0.125662
-0.138994
-0.131920
-0.100276
-0.066510
-0.030470
0.002039
0.031350
0.067887
0.108142
0.184748
0.201300
0.166434
0.130430
0.102502
0.070463
0.018968
-0.039281
-0.097024
-0.141132
-0.160506
-0.152151
-0.122607
-0.071793
-0.074697
-0.042970
0.018348
0.069147
0.133924
0.160991
0.168630
0.157538
0.159905
0.136633
0.102466
0.034912
0.001488
-0.033708
-0.081771
-0.125310
-0.155131
-0.156556
-0.142974
-0.104619
-0.073258
-0.034365
0.019454
0.057708
0.092326
0.132873
0.142559
0.144264
0.098853
0.052579
0.021363
0.021912
-0.039168
-0.031180
-0.068373
-0.115032
-0.169149
-0.158685
-0.152028
-0.138611
-0.110283
-0.081354
0.013498
0.055021
0.070268
0.100463
0.114413
0.139832
0.102243
0.092564
0.074727
0.028674
-0.021210
-0.088922
-0.118662
-0.146097
-0.186094
-0.212232
-0.167885
-0.127972
-0.116288
-0.068809
-0.033691
0.001023
0.053150
0.106686
0.117550
0.119057
0.097423
0.074688
0.041326
0.004131
-0.041680
-0.077405
-0.126584
-0.160932
-0.170727
-0.181113
-0.191131
-0.198228
-0.164862
-0.113249
-0.047919
0.022388
0.057952
0.089241
0.124602
0.116165
0.074748
0.047340
0.006668
-0.000945
-0.040520
-0.078284
-0.125591
-0.176299
-0.204628
-0.194016
-0.228134
-0.192999
-0.125405
-0.068608
-0.030873
0.020852
0.062439
0.075146
0.087717
0.121989
0.105385
0.068990
0.038544
-0.015455
-0.055877
-0.101250
-0.130054
-0.168104
-0.192438
-0.190042
-0.202907
-0.166742
-0.139539
-0.094037
-0.023805
0.031406
0.086560
0.108093
0.107709
0.121391
0.111553
0.081622
0.032442
-0.014618
-0.055535
-0.100033
-0.138373
-0.188488
-0.211077
-0.194697
-0.159007
-0.121766
-0.075714
-0.054945
-0.042363
-0.005633
0.048998
0.108494
0.132793
0.122267
0.105211
0.066300
0.031746
-0.024595
-0.035319
-0.068808
-0.108651
-0.168131
-0.184757
-0.191804
-0.185189
-0.158656
-0.105890
-0.063460
-0.010489
0.014642
0.067982
0.103663
0.117379
0.100336
0.095760
0.075772
0.051388
0.028289
-0.024431
-0.060543
-0.101112
-0.140399
-0.154072
-0.177045
-0.193023
-0.172267
-0.116621
-0.084127
-0.049291
0.012688
0.062406
0.114952
0.133473
0.138034
0.119818
0.080053
0.052415
-0.001640
-0.027926
-0.058952
-0.115512
-0.138334
-0.168439
-0.166004
-0.164855
-0.149515
-0.114394
-0.081442
-0.028276
0.035740
0.089812
0.088319
0.081483
0.111462
0.116418
0.087221
0.044218
0.003181
-0.032953
-0.083454
-0.118371
-0.139727
-0.171660
-0.179220
-0.192352
-0.149560
-0.118602
-0.076640
-0.025371
0.007706
0.034159
0.089302
0.141231
0.106510
0.092041
0.067953
0.027473
-0.011665
-0.071050
-0.114276
-0.124213
-0.162661
-0.180108
-0.160909
-0.184607
-0.175312
-0.130398
-0.093916
-0.045818
0.009508
0.068580
0.102156
0.116724
0.097551
0.080886
0.058207
0.039263
0.009268
-0.046967
-0.100707
-0.151704
-0.189099
-0.199471
-0.194452
-0.181657
-0.097925
-0.084478
-0.075601
-0.036066
0.021046
0.048126
0.082567
0.097349
0.095148
0.098991
0.072918
0.033709
-0.021549
-0.054853
-0.070406
-0.104745
-0.163859
-0.197780
-0.190078
-0.170540
-0.141937
-0.111126
-0.050430
-0.001599
0.056838
0.107294
0.141762
0.145772
0.138569
0.123505
0.104239
0.073650
0.027691
-0.032790
-0.090361
-0.097510
-0.108780
-0.140261
-0.155590
-0.137248
-0.115380
-0.080618
-0.051050
-0.007452
0.049699
0.096650
0.122782
0.114133
0.132192
0.107316
0.096271
0.100163
0.057889
-0.005621
-0.035927
-0.068237
-0.116194
-0.134013
-0.148146
-0.147020
-0.129002
-0.092327
-0.051145
-0.013553
0.023021
0.085146
0.108993
0.135238
0.148155
0.151458
0.140004
0.078843
0.023343
-0.021262
-0.080601
-0.142259
-0.158493
-0.183350
-0.195650
-0.213602
-0.189902
-0.136630
-0.083106
-0.057203
-0.004060
0.033800
0.048381
0.070423
0.086481
0.101216
0.081710
0.038794
-0.015160
-0.082654
-0.111985
-0.148483
-0.181912
-0.196593
-0.183238
-0.189318
-0.182880
-0.142480
-0.104094
-0.069214
-0.011168
0.030745
0.062450
0.082332
0.073587
0.042766
0.019342
-0.032273
-0.049055
-0.108622
-0.132076
-0.161584
-0.169635
-0.200449
-0.217028
-0.215942
-0.185785
-0.160251
-0.123881
-0.079449
-0.032253
0.003038
0.022952
0.079305
0.073422
0.074813
0.052680
0.031495
-0.015024
-0.085581
-0.141495
-0.167168
-0.221099
-0.233463
-0.235431
-0.216664
-0.231409
-0.210656
-0.135447
-0.029471
0.013504
0.036310
0.046960
0.057101
0.069209
0.065215
0.033336
0.023665
-0.003730
-0.053616
-0.104641
-0.154241
-0.196564
-0.238139
-0.245761
-0.232689
-0.210411
-0.177845
-0.123762
-0.060078
-0.034642
0.012382
0.047700
0.047713
0.079238
0.067288
0.066228
0.026705
-0.029409
-0.039666
-0.078090
-0.107756
-0.129408
-0.123535
-0.121666
-0.091452
-0.054714
-0.027529
0.014448
0.101969
0.186540
0.258077
0.301964
0.341806
0.388958
0.382229
0.375577
0.362015
0.326605
0.332356
0.315975
0.307315
0.279377
0.287803
0.344752
0.394815
0.488044
0.566645
0.635305
0.684291
0.759637
0.809592
0.810313
0.842792
0.823561
0.814979
0.782793
0.721309
0.661392
0.563636
0.425166
0.295859
0.219166
0.160589
0.105019
0.069518
0.048933
0.045470
0.070689
0.103366
0.140508
0.182390
0.201722
0.235942
0.189802
0.182593
0.159098
0.138963
0.099912
0.043175
-0.018352
-0.050405
-0.073892
-0.106146
-0.123983
-0.107989
-0.080631
-0.070106
-0.043139
0.005127
0.076543
0.107989
0.118186
0.125871
0.145160
0.134271
0.112521
0.058351
-0.006914
-0.030160
-0.062630
-0.106792
-0.152949
-0.180476
-0.202040
-0.207162
-0.162923
-0.100006
-0.057707
-0.024418
0.012387
0.055952
0.101005
0.130248
0.113028
0.089880
0.076513
0.049123
-0.000342
-0.024050
-0.108050
-0.122849
-0.128960
-0.146424
-0.161379
-0.168947
-0.159644
-0.114898
-0.066932
-0.026206
-0.006071
0.052614
0.098047
0.137338
0.132019
0.134241
0.113784
0.082094
0.034245
-0.051242
-0.085171
-0.106360
-0.126309
-0.152498
-0.167289
-0.163827
-0.131623
-0.108943
-0.083371
-0.042479
0.024425
0.069554
0.142791
0.162707
0.137997
0.121490
0.095866
0.069192
0.018792
-0.009927
-0.078931
-0.115237
-0.108995
-0.107391
-0.128350
-0.141186
-0.120998
-0.078805
-0.029428
0.030650
0.074777
0.093572
0.109044
0.159242
0.171497
0.167737
0.138652
0.131280
0.086180
0.014014
-0.024384
-0.055009
-0.095058
-0.116179
-0.123158
-0.106735
-0.087886
-0.060621
-0.011896
0.044612
0.090052
0.127233
0.175488
0.203606
0.172479
0.147906
0.149118
0.104661
0.087193
0.030536
-0.020754
-0.060424
-0.082461
-0.104002
-0.101257
-0.084566
-0.064167
-0.031745
0.004034
0.038941
0.094355
0.143178
0.175540
0.196565
0.208464
0.215157
0.168856
0.137274
0.106171
0.058908
0.010319
-0.031966
-0.061684
-0.116321
-0.110220
-0.097295
-0.078445
-0.041817
0.019544
0.040328
0.101167
0.133401
0.163832
0.184204
0.203008
0.196654
0.156695
0.126318
0.101264
0.057811
-0.004003
-0.063997
-0.103669
-0.141626
-0.160536
-0.133274
-0.117817
-0.067458
0.002457
0.058984
0.064652
0.126655
0.172606
0.164615
0.171655
0.160045
0.140483
0.105810
0.058277
0.012754
-0.058408
-0.104988
-0.119697
-0.145547
-0.161440
-0.151688
-0.140060
-0.095553
-0.051448
-0.024475
0.035873
0.109147
0.155046
0.166856
0.134210
0.119837
0.084986
0.076280
0.030454
-0.024557
-0.075366
-0.119491
-0.148642
-0.169374
-0.172617
-0.196688
-0.157711
-0.120623
-0.065597
-0.006496
0.032913
0.068660
0.097727
0.128358
0.136839
0.118863
0.082800
0.035490
0.009317
-0.036048
-0.107563
-0.153778
-0.166843
-0.189116
-0.205460
-0.204660
-0.194735
-0.157569
-0.111281
-0.075883
0.005590
0.060478
0.074585
0.104047
0.108172
0.068374
0.022287
-0.006025
-0.069093
-0.088401
-0.089203
-0.107892
-0.159068
-0.195691
-0.218427
-0.199308
-0.151793
-0.100655
-0.059377
-0.027033
0.003406
0.057348
0.090189
0.114474
0.106565
0.099287
0.084240
0.042730
-0.002069
-0.062689
-0.100551
-0.149984
-0.178638
-0.194667
-0.193064
-0.159527
-0.141793
-0.121855
-0.108621
-0.052984
0.006193
0.041802
0.080709
0.090599
0.085966
0.064655
0.037522
0.002981
-0.027172
-0.055651
-0.105269
-0.130502
-0.162301
-0.194334
-0.198039
-0.180481
-0.155462
-0.122860
-0.082661
-0.041309
0.002816
0.035128
0.079192
0.094575
0.081104
0.099021
0.055046
0.020197
-0.020289
-0.050863
-0.090732
-0.142090
-0.178146
-0.188746
-0.186887
-0.193248
-0.183340
-0.145352
-0.111035
-0.053875
-0.014531
0.014059
0.063628
0.109662
0.079748
0.061122
0.062726
0.059391
-0.006820
-0.085032
-0.124986
-0.152461
-0.178983
-0.188757
-0.203810
-0.208005
-0.168251
-0.117853
-0.077300
-0.042015
0.009478
0.026750
0.046180
0.076110
0.081690
0.071674
0.065451
0.032778
-0.012574
-0.060231
-0.109593
-0.160232
-0.211999
-0.234682
-0.218571
-0.191178
-0.170366
-0.139505
-0.102279
-0.057909
-0.022721
0.012409
0.037039
0.058190
0.077753
0.091781
0.057869
0.010331
-0.036002
-0.071901
-0.121203
-0.172777
-0.216533
-0.245101
-0.225885
-0.201848
-0.167917
-0.129381
-0.111355
-0.096137
-0.046564
0.004661
0.048770
0.057430
0.060452
0.049392
0.018364
-0.027199
-0.058672
-0.118096
-0.169826
-0.186091
-0.222721
-0.255410
-0.241442
-0.237943
-0.217839
-0.201656
-0.168135
-0.102394
-0.068269
-0.031789
0.047111
0.088554
0.072549
0.066541
0.058907
0.018307
-0.031666
-0.081845
-0.143978
-0.201088
-0.237322
-0.236075
-0.220836
-0.202385
-0.191602
-0.156306
-0.118545
-0.086770
-0.038343
0.009473
0.025300
0.035924
0.047220
0.047309
0.021449
-0.006989
-0.046502
-0.092321
-0.148360
-0.186188
-0.215712
-0.257488
-0.268976
-0.255495
-0.222512
-0.195691
-0.160232
-0.101218
-0.054800
-0.002758
0.016948
0.025064
0.030317
0.032396
0.010805
-0.021314
-0.063842
-0.117482
-0.146421
-0.214316
-0.257945
-0.269742
-0.267264
-0.257987
-0.216101
-0.181304
-0.160272
-0.110673
-0.060230
-0.026667
0.024017
0.045811
0.031944
0.022992
0.002355
-0.032133
-0.077904
-0.113791
-0.161407
-0.220759
-0.234235
-0.246594
-0.245168
-0.237270
-0.224410
-0.181360
-0.139606
-0.086239
-0.031416
-0.001952
0.024409
0.054012
0.081805
0.094440
0.039013
-0.011770
-0.068515
-0.087526
-0.122247
-0.169766
-0.194797
-0.242113
-0.242320
-0.248461
-0.209413
-0.176969
-0.138656
-0.093888
-0.057879
-0.021669
0.018654
0.040025
0.063447
0.036660
0.018509
0.005944
-0.048927
-0.088792
-0.143635
-0.179003
-0.216176
-0.235530
-0.224194
-0.207706
-0.180011
-0.132554
-0.093489
-0.047115
-0.000811
0.040937
0.072008
0.078714
0.072912
0.063312
0.042665
0.001230
-0.056043
-0.118124
-0.193179
-0.223916
-0.252195
-0.254615
-0.252408
-0.241836
-0.223202
-0.190544
-0.139811
-0.104378
-0.064951
-0.029222
0.000059
0.009055
0.023316
0.020807
-0.014805
-0.064769
-0.091501
-0.129040
-0.181274
-0.220070
-0.255433
-0.289036
-0.304465
-0.303182
-0.279978
-0.244660
-0.207924
-0.155574
-0.112236
-0.054664
-0.032351
0.001502
0.015657
-0.007634
-0.041409
-0.087229
-0.140866
-0.182675
-0.231398
-0.274606
-0.305198
-0.327475
-0.323312
-0.311125
-0.303212
-0.244309
-0.194743
-0.157338
-0.123886
-0.081709
-0.033846
-0.002270
-0.005676
-0.020196
-0.053674
-0.087100
-0.121510
-0.151564
-0.200783
-0.227574
-0.259736
-0.297787
-0.302245
-0.299554
-0.284416
-0.268440
-0.228589
-0.167833
-0.116111
-0.071366
-0.033780
0.001939
0.012237
-0.024684
-0.052920
-0.072955
-0.135657
-0.176799
-0.231558
-0.282394
-0.333811
-0.350758
-0.311267
-0.298149
-0.278325
-0.249349
-0.205012
-0.150221
-0.119768
-0.089595
-0.057109
-0.038360
-0.037576
-0.056772
-0.093617
-0.138401
-0.166572
-0.191973
-0.240309
-0.276355
-0.307300
-0.306831
-0.310044
-0.308909
-0.272271
-0.217970
-0.145675
-0.095683
-0.036672
-0.005431
0.041114
0.078426
0.099080
0.100609
0.079545
0.063991
0.051005
0.026570
-0.001197
-0.015014
-0.034728
-0.032973
0.025658
0.075950
0.106875
0.164749
0.238128
0.328533
0.410102
0.469008
0.530601
0.609966
0.662206
0.697369
0.700291
0.688492
0.670029
0.615237
0.551597
0.537778
0.510754
0.478454
0.445516
0.414449
0.422093
0.403553
0.368132
0.340507
0.313468
0.302036
0.269710
0.234717
0.219690
0.166954
0.102184
0.050144
-0.001983
-0.047963
-0.098670
-0.137274
-0.169043
-0.186108
-0.203100
-0.178388
-0.140185
-0.107774
-0.076805
-0.032492
0.008917
-0.004255
-0.006316
0.035869
0.053871
0.052947
-0.004440
-0.105734
-0.139981
-0.105599
-0.124392
-0.175713
-0.207846
-0.212375
-0.198659
-0.229056
-0.223250
-0.199800
-0.159299
-0.095936
-0.078252
-0.056813
-0.033483
-0.003040
-0.000606
-0.020203
-0.061511
-0.070949
-0.094122
-0.131453
-0.181098
-0.243035
-0.266199
-0.261404
-0.248384
-0.250710
-0.235767
-0.230400
-0.208902
-0.163901
-0.080558
-0.000254
0.023938
0.040367
0.046218
0.033022
-0.009153
-0.055842
-0.104902
-0.161297
-0.202483
-0.237239
-0.271876
-0.295595
-0.308752
-0.293008
-0.244067
-0.209402
-0.162570
-0.099948
-0.056041
-0.022296
0.024396
0.030547
0.035096
0.011579
-0.017257
-0.058304
-0.099934
-0.135164
-0.163008
-0.184502
-0.215154
-0.250107
-0.236292
-0.214126
-0.222635
-0.220153
-0.187217
-0.084105
-0.029315
0.018758
0.025130
0.045559
0.048207
0.036681
0.031246
0.010692
-0.016581
-0.033137
-0.122171
-0.210215
-0.261273
-0.290656
-0.279476
-0.257114
-0.240249
-0.193403
-0.135990
-0.077177
-0.021703
0.005341
0.044389
0.061107
0.055138
0.088253
0.091242
0.058567
-0.014897
-0.088813
-0.137855
-0.145629
-0.185507
-0.209598
-0.207697
-0.193036
-0.185246
-0.129734
-0.072334
-0.024919
0.033739
0.079354
0.051317
0.083845
0.143145
0.147368
0.080415
0.052252
0.031303
-0.019532
-0.085209
-0.126991
-0.154767
-0.175306
-0.194904
-0.238245
-0.187499
-0.081771
-0.030624
0.030586
0.045664
0.098787
0.145045
0.151142
0.123473
0.110460
0.043838
0.001688
-0.016250
-0.075859
-0.107972
-0.139234
-0.143359
-0.140710
-0.178538
-0.197668
-0.178535
-0.137823
-0.081086
-0.019197
0.013758
0.072824
0.111969
0.154429
0.147914
0.124888
0.078856
0.038982
-0.053873
-0.135617
-0.168692
-0.200722
-0.182630
-0.198647
-0.201713
-0.208174
-0.164861
-0.167847
-0.141732
-0.058437
-0.000402
0.039447
0.048368
0.064261
0.048442
0.031913
-0.011932
-0.036101
-0.052532
-0.068706
-0.127435
-0.174579
-0.210207
-0.202398
-0.218625
-0.208585
-0.222335
-0.191846
-0.146977
-0.101914
-0.037130
-0.044143
-0.106365
-0.028356
0.036903
0.045691
-0.006681
-0.031633
-0.046110
-0.116441
-0.141232
-0.187441
-0.243356
-0.276954
-0.282050
-0.280605
-0.258929
-0.232830
-0.181813
-0.160937
-0.102760
-0.047911
-0.018173
0.011560
0.020896
0.033196
0.053692
0.022475
-0.043504
-0.127635
-0.183417
-0.232228
-0.268287
-0.278451
-0.277759
-0.326178
-0.269016
-0.226190
-0.179992
-0.156324
-0.086619
-0.076225
-0.063552
-0.026062
-0.032034
-0.056445
-0.030875
-0.048822
-0.133202
-0.150041
-0.170227
-0.228282
-0.275404
-0.299377
-0.272531
-0.232756
-0.231676
-0.223833
-0.197087
-0.132949
-0.046544
0.003539
0.012881
0.011734
0.006155
0.008786
-0.013831
-0.051076
-0.109658
-0.166187
-0.204300
-0.252457
-0.272842
-0.296072
-0.299080
-0.285994
-0.248920
-0.201601
-0.153554
-0.121936
-0.069630
-0.040562
0.018520
0.084119
0.090619
0.055472
-0.001892
-0.041026
-0.086450
-0.129577
-0.181457
-0.218144
-0.248557
-0.257971
-0.250918
-0.245971
-0.235219
-0.171300
-0.116744
-0.094084
-0.069160
-0.041954
0.000478
0.034037
0.043598
0.038524
0.022357
-0.017523
-0.067173
-0.116465
-0.156917
-0.201972
-0.245354
-0.260888
-0.259910
-0.248080
-0.230868
-0.207971
-0.173140
-0.131685
-0.078455
-0.033703
-0.010380
0.015125
0.019480
0.010355
-0.006475
-0.055195
-0.110961
-0.153236
-0.197444
-0.247921
-0.273495
-0.291822
-0.281828
-0.244256
-0.223558
-0.174516
-0.115728
-0.089981
-0.049924
-0.011418
0.025003
0.055858
0.022682
-0.032145
-0.039755
-0.016660
-0.042386
-0.109089
-0.158775
-0.174910
-0.209701
-0.242302
-0.257488
-0.250524
-0.215360
-0.193029
-0.153960
-0.093298
-0.034230
-0.011922
0.024355
0.043689
0.048220
0.034613
0.010748
-0.049187
-0.112222
-0.133296
-0.165779
-0.205853
-0.235039
-0.265423
-0.251346
-0.250366
-0.234387
-0.209329
-0.207920
-0.210875
-0.137347
-0.075011
-0.051075
-0.014979
-0.000832
-0.004825
-0.008926
-0.029284
-0.057188
-0.119314
-0.183310
-0.196063
-0.241631
-0.269553
-0.274976
-0.270176
-0.248333
-0.216678
-0.175238
-0.130453
-0.076067
-0.042708
-0.002979
0.031861
0.032285
-0.000980
-0.044085
-0.066907
-0.118422
-0.167250
-0.202200
-0.243725
-0.271580
-0.277641
-0.287875
-0.249968
-0.228110
-0.214687
-0.178911
-0.146979
-0.115921
-0.065917
-0.055306
-0.026959
-0.021005
-0.044353
-0.039237
-0.055853
-0.126333
-0.211987
-0.257454
-0.290196
-0.300365
-0.314723
-0.274724
-0.261108
-0.253019
-0.216049
-0.152482
-0.090122
-0.067782
-0.026200
-0.001331
0.001464
0.010494
-0.011462
-0.052961
-0.070215
-0.105157
-0.177673
-0.205939
-0.242081
-0.270735
-0.281592
-0.279075
-0.251571
-0.210097
-0.169799
-0.137427
-0.089366
-0.036520
0.001499
0.029689
0.050706
0.061897
0.038720
0.018141
-0.033066
-0.061899
-0.106679
-0.156810
-0.202691
-0.238054
-0.254615
-0.259942
-0.243007
-0.221672
-0.182968
-0.133836
-0.112672
-0.076785
-0.061401
-0.036229
-0.026722
0.002404
-0.026185
-0.061843
-0.088171
-0.110525
-0.146999
-0.202105
-0.218350
-0.220798
-0.237563
-0.207180
-0.214576
-0.204185
-0.172743
-0.110223
-0.073677
-0.015397
0.040452
0.055334
0.037474
0.027298
0.019148
-0.005249
-0.049908
-0.102199
-0.170866
-0.219595
-0.226289
-0.246080
-0.271908
-0.266487
-0.253098
-0.227213
-0.193840
-0.147608
-0.134386
-0.108826
-0.082123
-0.038638
-0.008323
-0.007993
0.007100
0.001745
-0.024620
-0.076169
-0.124737
-0.179584
-0.243835
-0.249499
-0.273273
-0.279501
-0.277855
-0.265215
-0.223942
-0.186164
-0.150975
-0.109097
-0.055170
-0.023665
-0.015897
-0.019068
-0.038387
-0.056758
-0.074235
-0.111413
-0.165726
-0.219684
-0.266128
-0.322109
-0.338429
-0.323606
-0.309996
-0.279151
-0.260080
-0.228663
-0.168670
-0.107972
-0.069405
-0.029036
-0.018951
-0.046269
-0.066582
-0.079010
-0.080072
-0.133811
-0.213594
-0.276493
-0.294886
-0.314632
-0.367437
-0.376416
-0.354530
-0.311218
-0.251741
-0.203654
-0.140639
-0.099956
-0.075012
-0.035715
0.021835
0.033911
0.011848
-0.044422
-0.073542
-0.138499
-0.187823
-0.260687
-0.282932
-0.313116
-0.326035
-0.322637
-0.309648
-0.296291
-0.278126
-0.233305
-0.176227
-0.124711
-0.097525
-0.065685
-0.035086
-0.024268
-0.034467
-0.059849
-0.075118
-0.120357
-0.179744
-0.217350
-0.244822
-0.265636
-0.293500
-0.307006
-0.309147
-0.300400
-0.252179
-0.166599
-0.087196
-0.036171
-0.000946
0.026680
0.030896
0.051914
0.081230
0.078982
0.036248
0.001460
-0.015245
-0.048169
-0.051830
-0.036085
-0.014952
-0.012541
0.022323
0.072292
0.144676
0.201738
0.287584
0.389805
0.456224
0.493617
0.540490
0.602178
0.636348
0.632142
0.642145
0.649921
0.635735
0.600047
0.536450
0.504794
0.498701
0.475572
0.460996
0.486244
0.481487
0.474047
0.450099
0.411120
0.380375
0.353363
0.334909
0.294746
0.221148
0.153374
0.084753
0.044216
-0.030342
-0.083503
-0.105640
-0.130083
-0.147154
-0.149005
-0.152427
-0.134059
-0.114338
-0.092718
-0.059450
-0.008113
0.042020
0.050050
0.061929
0.073502
0.081597
0.039143
0.002286
-0.044225
-0.109211
-0.134202
-0.173651
-0.213181
-0.225396
-0.241011
-0.244882
-0.223908
-0.176854
-0.138800
-0.112218
-0.057460
-0.009989
0.018843
0.021386
0.006612
-0.013065
-0.020139
-0.060265
-0.112512
-0.165182
-0.216735
-0.255514
-0.276975
-0.284489
-0.271319
-0.269692
-0.259020
-0.236656
-0.199267
-0.149632
-0.075090
-0.038597
0.014295
0.032999
0.036963
0.032794
0.003317
-0.031641
-0.084101
-0.124846
-0.180251
-0.185593
-0.179518
-0.216908
-0.214609
-0.203155
-0.180484
-0.147437
-0.111838
-0.076298
-0.051256
0.001571
0.039901
0.034543
0.018728
0.028551
0.033609
-0.008350
-0.060503
-0.076512
-0.119390
-0.162391
-0.222788
-0.245483
-0.254092
-0.248610
-0.212826
-0.184987
-0.108423
-0.031847
0.020978
0.037167
0.059241
0.087976
0.084606
0.065309
0.044684
-0.007538
-0.024183
-0.057736
-0.110948
-0.160482
-0.197661
-0.225552
-0.218059
-0.199392
-0.198828
-0.151033
-0.083098
-0.017233
-0.000745
0.050335
0.103383
0.140135
0.139866
0.132928
0.117656
0.074254
0.032177
-0.024918
-0.048664
-0.091731
-0.142664
-0.130562
-0.123649
-0.139770
-0.128393
-0.104268
-0.087015
-0.040912
0.024738
0.061478
0.097727
0.138293
0.139683
0.106816
0.136458
0.151107
0.093520
0.036449
-0.001602
-0.051082
-0.095381
-0.129725
-0.126850
-0.129163
-0.096166
-0.076828
-0.042156
0.003546
0.062945
0.115233
0.137859
0.166027
0.161256
0.169069
0.139713
0.099839
0.038520
-0.012229
-0.052224
-0.070867
-0.129902
-0.166540
-0.156741
-0.135250
-0.111398
-0.058881
-0.035014
0.026051
0.080156
0.126514
0.162466
0.178299
0.176297
0.161874
0.143321
0.110589
0.066651
0.016057
-0.062003
-0.114794
-0.143416
-0.159022
-0.167809
-0.189919
-0.160062
-0.111844
-0.068268
-0.021554
0.039595
0.096888
0.120232
0.120235
0.134541
0.138926
0.120223
0.064652
0.006670
-0.039194
-0.087712
-0.142059
-0.184180
-0.216950
-0.207308
-0.195487
-0.162095
-0.115635
-0.077094
-0.047407
-0.012970
-0.010987
0.035687
0.100456
0.096683
0.045953
0.023987
0.000866
-0.042771
-0.085266
-0.097411
-0.158899
-0.201130
-0.220060
-0.206639
-0.204752
-0.182171
-0.159570
-0.107410
-0.053793
-0.011969
-0.008855
0.042387
0.085780
0.054275
0.051947
0.014166
-0.023785
-0.038350
-0.067290
-0.125880
-0.187220
-0.239141
-0.251419
-0.240909
-0.228652
-0.220966
-0.202624
-0.144433
-0.105536
-0.054812
0.009763
0.040870
0.053031
0.051925
0.022577
-0.019160
-0.032841
-0.063484
-0.094726
-0.130305
-0.168843
-0.160835
-0.195582
-0.257786
-0.289565
-0.238570
-0.159330
-0.098265
-0.040618
-0.011229
0.009183
0.031902
0.041552
0.078237
0.067386
0.022237
-0.021228
-0.069472
-0.114377
-0.167635
-0.232603
-0.260376
-0.261252
-0.259247
-0.245549
-0.195781
-0.145462
-0.132526
-0.079860
-0.018960
0.020859
0.057510
0.093935
0.108284
0.123643
0.096991
0.060100
-0.010562
-0.064801
-0.126598
-0.182561
-0.211487
-0.201737
-0.196075
-0.207237
-0.180493
-0.135587
-0.093521
-0.055115
0.001084
0.045585
0.064069
0.079139
0.065488
0.040672
0.011102
0.016682
-0.017829
-0.056697
-0.133155
-0.177275
-0.185789
-0.199587
-0.198290
-0.181728
-0.159042
-0.124923
-0.105148
-0.126242
-0.051108
0.035574
0.076993
0.086501
0.074677
0.082703
0.069505
-0.001449
-0.033436
-0.065763
-0.113019
-0.171603
-0.179502
-0.204710
-0.211247
-0.205387
-0.174732
-0.124968
-0.089640
-0.058417
-0.029515
0.008992
0.058972
0.047393
0.084391
0.086511
0.061724
0.036789
-0.001863
-0.052383
-0.101781
-0.165967
-0.199756
-0.215177
-0.228377
-0.237949
-0.212142
-0.170798
-0.095469
-0.038456
-0.005377
0.050476
0.073151
0.111874
0.106057
0.075603
0.059446
-0.014698
-0.074854
-0.105914
-0.110988
-0.151945
-0.213825
-0.232289
-0.229478
-0.202432
-0.181608
-0.136623
-0.103317
-0.038510
-0.009661
0.021284
0.061108
0.067869
0.049743
0.041354
0.025240
-0.026631
-0.087476
-0.127409
-0.166242
-0.187383
-0.189239
-0.198621
-0.203487
-0.212169
-0.191031
-0.158698
-0.102832
-0.023155
0.038927
0.042246
0.080567
0.071813
0.053738
0.047058
0.009400
-0.018113
-0.039379
-0.068357
-0.108291
-0.155709
-0.185703
-0.206295
-0.221611
-0.206248
-0.175877
-0.153522
-0.106600
-0.063548
-0.009201
0.030542
0.035321
0.013961
0.060562
0.062651
0.015642
-0.069166
-0.085158
-0.100277
-0.109530
-0.154643
-0.178769
-0.188105
-0.221061
-0.216587
-0.215546
-0.142960
-0.105214
-0.061491
-0.030437
-0.003434
0.015486
0.021498
0.039101
0.032799
0.002709
-0.029988
-0.084434
-0.116780
-0.120698
-0.149147
-0.210906
-0.222360
-0.202709
-0.193487
-0.161720
-0.126129
-0.082461
-0.042519
0.019006
0.075023
0.087030
0.089824
0.081575
0.082665
0.088648
-0.002597
-0.098775
-0.101677
-0.145911
-0.166723
-0.188398
-0.198728
-0.197762
-0.195945
-0.174983
-0.151212
-0.102176
-0.045472
0.017479
0.071703
0.050337
0.046488
0.061248
0.065181
0.058721
0.046361
0.010314
-0.036782
-0.100698
-0.140963
-0.165628
-0.192973
-0.221424
-0.189290
-0.147497
-0.103664
-0.083182
-0.049033
0.007090
0.035803
0.079879
0.113140
0.096404
0.113479
0.093398
0.043024
-0.004257
-0.048091
-0.083006
-0.094691
-0.142819
-0.191278
-0.196728
-0.186444
-0.180782
-0.154839
-0.089176
-0.051552
-0.025454
0.024445
0.080091
0.127580
0.152078
0.139331
0.112944
0.090260
0.036165
-0.001138
-0.042853
-0.084350
-0.096499
-0.132124
-0.153132
-0.114724
-0.082223
-0.077664
-0.028615
0.004544
0.049688
0.073602
0.098410
0.099973
0.126801
0.128050
0.109645
0.080133
0.038964
-0.022399
-0.119367
-0.148389
-0.144548
-0.194999
-0.243978
-0.229646
-0.179130
-0.159081
-0.094897
-0.027679
0.014621
0.070143
0.116570
0.118248
0.118445
0.136223
0.108859
0.071919
-0.027594
-0.094013
-0.105460
-0.115806
-0.148900
-0.226062
-0.248296
-0.239479
-0.206521
-0.169497
-0.135846
-0.092086
-0.041458
0.013416
0.041302
0.049220
0.032682
0.038507
0.037842
-0.003506
-0.068113
-0.130611
-0.174078
-0.216123
-0.261722
-0.267276
-0.220809
-0.191729
-0.155354
-0.107155
-0.077453
-0.036691
0.010321
0.052522
0.090714
0.081117
0.066282
0.069380
0.064159
0.025830
-0.012976
-0.081769
-0.180093
-0.227778
-0.212805
-0.204234
-0.176891
-0.166160
-0.162265
-0.122105
-0.096320
-0.098660
-0.017882
0.055912
0.084212
0.101804
0.108325
0.076823
0.041231
0.006011
-0.049916
-0.083350
-0.140335
-0.171527
-0.199235
-0.222370
-0.215440
-0.200478
-0.185020
-0.136824
-0.104050
-0.064755
-0.010992
0.033235
0.082274
0.102426
0.100463
0.091773
0.038487
0.010800
-0.019370
-0.065690
-0.124911
-0.142949
-0.158363
-0.169449
-0.171986
-0.144972
-0.073966
-0.035968
0.040860
0.067604
0.145517
0.171983
0.217701
0.241878
0.293733
0.294591
0.284619
0.274834
0.241843
0.247430
0.255814
0.271736
0.258763
0.281721
0.300285
0.348037
0.406871
0.478759
0.528164
0.643855
0.771648
0.847945
0.909665
0.952329
0.936738
0.897626
0.855497
0.815166
0.769314
0.681828
0.581679
0.540562
0.463479
0.368066
0.315452
0.257094
0.260923
0.250997
0.238600
0.229966
0.249467
0.268650
0.266787
0.282230
0.255425
0.233954
0.205242
0.188667
0.153131
0.074840
-0.040945
-0.064556
-0.084702
-0.106198
-0.122216
-0.092945
-0.048603
-0.006498
0.036541
0.047050
0.071721
0.108093
0.153110
0.160869
0.120118
0.138290
0.106215
0.075612
0.045744
-0.012724
-0.075355
-0.104811
-0.116547
-0.128253
-0.143495
-0.113103
-0.104563
-0.079919
-0.028088
0.015573
0.064463
0.106767
0.136785
0.150062
0.178468
0.163626
0.098194
0.059098
0.038492
0.000031
-0.080345
-0.094116
-0.114081
-0.158429
-0.153889
-0.109076
-0.109739
-0.070614
-0.024175
-0.002073
0.060063
0.115652
0.139382
0.133421
0.119092
0.117719
0.118737
0.071972
0.008936
-0.046464
-0.075402
-0.115218
-0.148370
-0.169664
-0.145543
-0.131779
-0.121943
-0.065634
0.006178
0.064113
0.110933
0.133868
0.174931
0.198359
0.192159
0.165269
0.121084
0.099213
0.093420
0.056097
-0.007459
-0.041115
-0.086078
-0.094140
-0.142861
-0.177039
-0.182572
-0.079353
0.023226
0.084557
0.149161
0.181166
0.217557
0.223077
0.209021
0.178421
0.158307
0.157792
0.135595
0.067758
0.032180
0.038035
-0.017035
-0.006931
-0.002341
-0.031266
-0.044883
-0.021594
0.029007
0.061563
0.124163
0.179694
0.210801
0.257486
0.257816
0.243361
0.219628
0.187663
0.148016
0.118222
0.073304
0.036829
0.016542
-0.008804
0.008619
-0.009270
-0.061099
-0.013258
0.035504
0.104115
0.168653
0.217009
0.227103
0.242739
0.257398
0.238794
0.241763
0.232352
0.202230
0.156120
0.091791
0.042756
0.035509
0.037604
0.025831
0.022435
0.027091
0.048859
0.056503
0.105669
0.179558
0.201756
0.238073
0.268448
0.263967
0.252259
0.234271
0.205506
0.176396
0.137760
0.072185
0.051257
0.038379
0.023000
0.002870
0.024346
0.037718
0.053382
0.062372
0.106088
0.159236
0.208192
0.248294
0.286479
0.292162
0.279081
0.237569
0.189173
0.138023
0.085266
0.065607
0.049753
-0.000251
-0.061751
-0.048432
-0.038587
-0.043562
-0.026176
0.017077
0.067476
0.098035
0.127886
0.186590
0.203664
0.219670
0.213665
0.179679
0.110863
0.071801
0.042934
0.010544
-0.046822
-0.113589
-0.115306
-0.101411
-0.087103
-0.035903
0.001879
0.021640
0.044957
0.104409
0.151679
0.155631
0.138582
0.199015
0.194172
0.169967
0.107246
0.035702
0.013501
-0.040004
-0.059051
-0.068898
-0.103442
-0.139621
-0.148526
-0.104567
-0.061909
-0.005061
0.053474
0.094338
0.131228
0.177943
0.185991
0.170354
0.128205
0.118538
0.116303
0.065692
-0.014385
-0.033351
-0.057991
-0.073796
-0.103931
-0.164255
-0.159852
-0.099362
-0.049705
0.000616
0.014382
0.030280
0.064729
0.148758
0.187576
0.177332
0.125192
0.105333
0.087048
0.072821
0.021759
-0.036119
-0.084987
-0.142351
-0.168743
-0.164928
-0.172031
-0.178941
-0.109600
-0.025067
0.044096
0.088340
0.142263
0.124753
0.150174
0.166128
0.169538
0.121888
0.044098
0.029160
-0.013703
-0.056407
-0.125335
-0.148111
-0.153437
-0.126382
-0.105066
-0.087696
-0.037563
0.015410
0.062841
0.099268
0.118434
0.137983
0.160317
0.217303
0.202130
0.167838
0.134143
0.078018
0.014814
-0.046880
-0.069467
-0.099771
-0.136843
-0.152269
-0.115087
-0.072259
-0.033378
0.010472
0.058061
0.112897
0.161601
0.171723
0.183252
0.188435
0.160881
0.138189
0.118848
0.058877
0.004308
-0.097581
-0.097231
-0.108936
-0.132111
-0.132060
-0.135230
-0.093055
-0.044802
-0.008873
0.049868
0.108109
0.112412
0.118874
0.156023
0.164125
0.177942
0.170144
0.127609
0.066361
-0.022445
-0.100582
-0.122160
-0.109282
-0.086600
-0.065722
-0.093075
-0.073646
-0.049862
0.001320
0.007970
0.064658
0.118479
0.142826
0.165685
0.182407
0.158316
0.187848
0.135373
0.086896
0.068263
0.011843
-0.037218
-0.060619
-0.070525
-0.081009
-0.133021
-0.092713
-0.035805
0.003482
0.077632
0.123369
0.093954
0.129020
0.180871
0.153331
0.162793
0.129799
0.136211
0.114544
0.075748
-0.002897
-0.069181
-0.132356
-0.118462
-0.094608
-0.108700
-0.109291
-0.083099
-0.040257
0.039656
0.090581
0.128963
0.162650
0.188055
0.192533
0.176003
0.137793
0.098396
0.034766
0.014008
-0.047810
-0.071407
-0.078754
-0.117421
-0.107599
-0.118734
-0.084191
-0.032573
-0.014836
-0.003027
0.060256
0.070751
0.113664
0.143095
0.149882
0.126476
0.114375
0.055415
0.023110
-0.018724
-0.037175
-0.053989
-0.088104
-0.119727
-0.126927
-0.128263
-0.132358
-0.099150
-0.058235
0.018742
0.072792
0.087771
0.105763
0.134495
0.145530
0.129894
0.125180
0.109730
0.064858
0.006815
-0.048828
0.012220
0.013286
-0.042535
-0.088845
-0.155924
-0.094973
-0.044962
-0.001420
0.009670
0.067250
0.114460
0.155410
0.168445
0.158008
0.162193
0.135177
0.079188
0.053444
-0.004507
-0.037249
-0.058982
-0.095032
-0.128043
-0.137287
-0.107693
-0.109828
-0.072048
-0.030732
0.007256
0.033216
0.077018
0.131697
0.147145
0.169106
0.176307
0.166127
0.153640
0.050870
0.026399
-0.012260
-0.063206
-0.118748
-0.126364
-0.141389
-0.144373
-0.124126
-0.084829
-0.034351
0.015669
0.067601
0.102749
0.125227
0.135470
0.115255
0.098165
0.096925
0.066432
0.046655
-0.011195
-0.071339
-0.090840
-0.121900
-0.138440
-0.127366
-0.133111
-0.132554
-0.067670
-0.042738
0.021847
0.076535
0.120919
0.152175
0.131431
0.139902
0.159353
0.174774
0.141523
0.088409
0.032045
-0.013191
-0.034530
-0.051987
-0.062502
-0.099333
-0.090570
-0.092604
-0.064649
-0.010798
0.021474
0.094152
0.127489
0.142874
0.197145
0.194808
0.199328
0.186251
0.158144
0.119580
0.062123
-0.018443
-0.032271
-0.073846
-0.119905
-0.113534
-0.121528
-0.102903
-0.064501
-0.036393
0.012971
0.040380
0.142084
0.177165
0.193711
0.204004
0.226115
0.202466
0.185554
0.132071
0.104441
0.046404
0.012761
-0.014109
-0.000033
-0.029482
-0.037278
-0.038994
-0.024146
0.033478
0.029820
0.068183
0.144464
0.177519
0.205999
0.179249
0.171742
0.151243
0.120820
0.080853
0.064336
-0.004667
-0.039495
-0.082094
-0.108871
-0.109630
-0.121793
-0.110381
-0.080738
-0.013620
0.002260
0.061190
0.123366
0.147783
0.172418
0.199769
0.181457
0.174511
0.126058
0.068611
0.006807
-0.067676
-0.109237
-0.114379
-0.146115
-0.157415
-0.175289
-0.178714
-0.107068
-0.069538
-0.000297
0.053830
0.105262
0.155856
0.161457
0.197949
0.181650
0.179798
0.128525
0.033983
-0.037038
-0.038148
-0.083660
-0.149411
-0.153756
-0.151925
-0.141487
-0.148760
-0.089005
-0.024547
0.020141
0.067133
0.118910
0.134657
0.160516
0.145172
0.132641
0.144773
0.105020
0.041702
0.005773
-0.046047
-0.100045
-0.149238
-0.170036
-0.170748
-0.158563
-0.137380
-0.085412
-0.067556
-0.005586
0.039905
0.090267
0.155308
0.170602
0.164375
0.140049
0.135534
0.093705
0.052463
-0.002438
-0.051498
-0.113428
-0.160163
-0.191428
-0.207264
-0.206551
-0.166194
-0.106377
-0.021956
-0.010276
0.023603
0.075904
0.140589
0.150849
0.171863
0.162282
0.124665
0.065771
0.003891
-0.018634
-0.075421
-0.097719
-0.130515
-0.180834
-0.169708
-0.127018
-0.094288
-0.036812
0.047060
0.111834
0.188587
0.231758
0.271410
0.292261
0.329851
0.315280
0.303911
0.302216
0.291010
0.252578
0.207907
0.245448
0.273903
0.236122
0.270346
0.330935
0.401561
0.440266
0.500046
0.598590
0.696395
0.779677
0.857502
0.917966
0.932405
0.963307
0.967373
0.910903
0.837088
0.779104
0.728042
0.678622
0.588358
0.561934
0.528240
0.464968
0.420442
0.434950
0.413360
0.402647
0.413775
0.382509
0.355762
0.363204
0.367255
0.309973
0.282562
0.226821
0.183048
0.131760
0.059043
0.009206
-0.023009
-0.056914
-0.054641
-0.054615
-0.035255
-0.021192
0.034329
0.087437
0.160384
0.192773
0.200088
0.224477
0.227085
0.202060
0.173138
0.134646
0.079785
0.037368
-0.035230
-0.058658
-0.059255
-0.088711
-0.110832
-0.092434
-0.076174
-0.036003
0.013084
0.071171
0.137591
0.139116
0.163672
0.230175
0.212212
0.190389
0.186431
0.139050
0.075775
0.026409
-0.004745
-0.061517
-0.104357
-0.088629
-0.091063
-0.069780
-0.057154
-0.028339
0.019640
0.062179
0.120778
0.150047
0.172282
0.179695
0.219990
0.194940
0.176393
0.144630
0.095218
0.022664
-0.043749
-0.036633
-0.064522
-0.069162
-0.097907
-0.129189
-0.053516
-0.027367
0.025517
0.088805
0.130227
0.161716
0.180104
0.185327
0.200640
0.202898
0.146707
0.113467
0.084813
0.050646
0.010603
0.000202
-0.023621
-0.050488
-0.083697
-0.063250
-0.039697
-0.001576
0.063698
0.120087
0.157940
0.212393
0.241898
0.256354
0.238152
0.226996
0.234021
0.185092
0.153344
0.098348
0.053292
0.027789
-0.006426
-0.013673
-0.005716
-0.023071
0.007246
0.027530
0.040212
0.085424
0.172683
0.247186
0.233734
0.221203
0.237697
0.233786
0.205238
0.164948
0.141302
0.140058
0.114008
0.072643
0.048942
0.033832
0.010583
-0.025730
0.012493
0.086090
0.123125
0.182646
0.223316
0.237255
0.268061
0.295321
0.293859
0.282789
0.245783
0.218803
0.192233
0.154309
0.136597
0.119098
0.101089
0.050601
0.029917
0.035231
0.038535
0.105085
0.134034
0.172001
0.244681
0.278244
0.287252
0.313036
0.320763
0.303835
0.297999
0.270645
0.207497
0.139535
0.113342
0.088517
0.058261
0.023821
0.025961
0.032114
0.049432
0.089483
0.134119
0.139959
0.163785
0.213360
0.259422
0.276476
0.315512
0.313923
0.300022
0.272965
0.207169
0.170255
0.086143
0.039672
0.036390
0.023711
0.024729
0.015601
0.019953
0.047448
0.097293
0.102173
0.174479
0.195334
0.217223
0.221187
0.258568
0.239968
0.194810
0.175828
0.155756
0.117283
0.066043
0.018408
-0.010155
-0.030426
-0.041731
-0.035225
-0.038291
-0.010836
0.030442
0.073426
0.123087
0.183769
0.211191
0.219365
0.196133
0.184786
0.190048
0.166141
0.118133
0.065527
0.026000
-0.042864
-0.089312
-0.102526
-0.096028
-0.093986
-0.065303
-0.017748
0.012163
0.042838
0.113815
0.157336
0.166058
0.162137
0.169981
0.161977
0.161161
0.126708
0.066322
0.010363
-0.010871
-0.006151
-0.069005
-0.099598
-0.118829
-0.099595
-0.090302
-0.059645
0.002507
0.024121
0.077233
0.126123
0.160262
0.193497
0.206629
0.191446
0.166620
0.140407
0.084618
0.032643
-0.031368
-0.086035
-0.102580
-0.098145
-0.119572
-0.130612
-0.069657
-0.033270
-0.014153
0.019665
0.081059
0.129838
0.183733
0.214883
0.207814
0.183617
0.165175
0.131484
0.094535
0.063929
0.015533
-0.043011
-0.070201
-0.102359
-0.131865
-0.141814
-0.094383
-0.054325
-0.034478
0.028302
0.079988
0.146016
0.191804
0.192326
0.190166
0.184829
0.158674
0.136490
0.114674
0.057591
-0.010524
-0.095179
-0.130552
-0.149863
-0.144554
-0.117253
-0.092928
-0.081308
-0.026214
0.006472
0.085988
0.161931
0.191979
0.198191
0.161359
0.184350
0.189556
0.166397
0.122253
0.055722
-0.019360
-0.033952
-0.049210
-0.047791
-0.068803
-0.069300
-0.057360
-0.030641
0.020073
0.060976
0.103886
0.150655
0.191927
0.212551
0.215629
0.178221
0.147235
0.118925
0.091227
0.055822
0.004927
-0.056045
-0.094039
-0.071872
-0.081070
-0.095387
-0.110722
-0.036117
0.033539
0.095011
0.116088
0.119358
0.175088
0.198622
0.226499
0.205545
0.155811
0.119308
0.100216
0.026331
-0.039820
-0.049738
-0.062331
-0.109063
-0.094757
-0.074025
-0.058169
-0.038293
-0.018177
0.022153
0.069153
0.140354
0.178454
0.203270
0.167001
0.167602
0.147895
0.107587
0.079877
0.026970
-0.047365
-0.069607
-0.095986
-0.112019
-0.094217
-0.108135
-0.111216
-0.081411
-0.016596
0.028574
0.078695
0.127105
0.140026
0.149679
0.148197
0.132126
0.123495
0.103636
0.051633
0.018869
-0.042251
-0.081503
-0.089637
-0.074470
-0.083978
-0.059630
-0.033760
-0.027524
-0.026916
0.036630
0.109779
0.151512
0.153341
0.143836
0.142891
0.139956
0.122882
0.090255
0.077042
0.022185
-0.038662
-0.042201
-0.052323
-0.101238
-0.117102
-0.095246
-0.101484
-0.043028
0.008886
0.049121
0.099516
0.131148
0.159211
0.191611
0.199964
0.184071
0.157264
0.110595
0.061383
0.019944
-0.038072
-0.058297
-0.084477
-0.127625
-0.131884
-0.134722
-0.150407
-0.087924
-0.005244
0.054029
0.090935
0.114719
0.126867
0.152761
0.145662
0.144708
0.120718
0.080170
0.037745
-0.011406
-0.050074
-0.065122
-0.079844
-0.110935
-0.118603
-0.096985
-0.078395
-0.046070
-0.000388
0.048642
0.078400
0.126224
0.122820
0.128527
0.171605
0.165517
0.148446
0.122090
0.052920
-0.009812
-0.015085
-0.047536
-0.081011
-0.129002
-0.146956
-0.141043
-0.096477
-0.064534
-0.032737
0.020778
0.066560
0.095158
0.107143
0.115645
0.147200
0.161505
0.127884
0.098370
0.029744
-0.008942
-0.031662
-0.033542
-0.072542
-0.101254
-0.133094
-0.131103
-0.096239
-0.099371
-0.071401
-0.019548
0.056426
0.119448
0.167141
0.164682
0.164541
0.183834
0.172338
0.140791
0.118685
0.043943
-0.007655
-0.064008
-0.098097
-0.118428
-0.112177
-0.078310
-0.052470
-0.039003
0.005066
0.045162
0.103454
0.160444
0.195572
0.208689
0.206914
0.193782
0.173672
0.151023
0.142988
0.078052
0.016326
-0.007078
-0.051395
-0.086672
-0.114741
-0.112520
-0.082255
-0.070353
-0.030437
0.020920
0.078273
0.107888
0.114947
0.170245
0.164962
0.143419
0.161960
0.178948
0.133623
0.084627
0.025923
0.000459
-0.018432
-0.024161
-0.024708
-0.028125
-0.017351
0.001996
0.048890
0.089195
0.123058
0.169258
0.200221
0.192645
0.196299
0.180373
0.181671
0.123094
0.067683
0.039642
-0.017167
-0.057274
-0.109577
-0.107573
-0.114156
-0.081519
-0.067815
-0.053270
-0.023142
0.010616
0.072265
0.116235
0.161226
0.188535
0.177171
0.178562
0.158536
0.079150
0.061037
-0.016327
-0.018748
-0.040958
-0.090967
-0.120085
-0.123884
-0.104540
-0.117341
-0.093517
-0.054554
-0.001306
0.044470
0.085944
0.125226
0.176013
0.166956
0.148225
0.120652
0.053530
0.009661
-0.001375
-0.041649
-0.077110
-0.137825
-0.165601
-0.178256
-0.161239
-0.149551
-0.115114
-0.020268
0.036218
0.092962
0.119945
0.149307
0.170680
0.181288
0.151825
0.101105
0.073994
0.039423
-0.007714
-0.054920
-0.115073
-0.188187
-0.226074
-0.170844
-0.144648
-0.153952
-0.082996
-0.041664
0.014174
0.067890
0.098657
0.111358
0.167401
0.178030
0.157343
0.110735
0.074495
0.050943
0.013644
-0.032676
-0.095918
-0.114603
-0.140045
-0.155909
-0.152366
-0.119851
-0.076645
-0.044910
0.008595
0.071410
0.106289
0.131323
0.127738
0.111148
0.101222
0.078025
0.037202
0.001193
-0.030149
-0.067044
-0.081205
-0.101123
-0.152494
-0.162260
-0.135291
-0.115802
-0.045612
0.019104
0.090215
0.147377
0.202141
0.231383
0.268513
0.286414
0.275645
0.270324
0.263893
0.253674
0.238635
0.214960
0.166577
0.188157
0.194619
0.200291
0.269387
0.333808
0.422676
0.485925
0.551619
0.610746
0.677674
0.742109
0.797744
0.853646
0.900733
0.911229
0.867723
0.828277
0.784442
0.761702
0.720877
0.677469
0.630647
0.587064
0.555109
0.522750
0.497998
0.465967
0.454764
0.453344
0.471722
0.450170
0.404211
0.349249
0.317059
0.269994
0.230729
0.173228
0.148506
0.088031
0.028518
-0.013614
-0.013414
-0.037618
-0.068776
-0.014286
0.045701
0.092525
0.124260
0.136236
0.194305
0.230183
0.224852
0.199596
0.177479
0.159014
0.162253
0.110893
0.044715
-0.011619
-0.050178
-0.084395
-0.077767
-0.108488
-0.091510
-0.083021
-0.045346
0.000393
0.063735
0.103166
0.132814
0.152849
0.194832
0.181777
0.185039
0.163330
0.142165
0.072660
0.022027
-0.019976
-0.046092
-0.058000
-0.090872
-0.100306
-0.116259
-0.107092
-0.049352
-0.003255
0.056633
0.081485
0.090150
0.149802
0.156988
0.198472
0.194564
0.174835
0.140706
0.093361
0.071930
0.040468
-0.034723
-0.068433
-0.097860
-0.100901
-0.068633
-0.060677
-0.050067
0.000408
0.061016
0.104673
0.168355
0.207705
0.224244
0.214525
0.188737
0.177334
0.147427
0.113773
0.071849
0.017926
-0.009988
-0.048144
-0.087110
-0.092630
-0.081704
-0.063475
0.001955
0.049534
0.085608
0.109078
0.160611
0.214672
0.249452
0.235254
0.207363
0.187603
0.180091
0.143088
0.105273
0.044151
0.005549
-0.023715
-0.028641
-0.038474
-0.042117
-0.056442
0.011016
0.071580
0.104777
0.152438
0.188127
0.219071
0.251205
0.275367
0.258895
0.242125
0.198740
0.156414
0.122487
0.108475
0.074536
0.042847
0.005521
0.000307
0.026239
0.024788
0.062019
0.120619
0.160975
0.203309
0.242594
0.280365
0.320144
0.329939
0.327052
0.299857
0.258292
0.214404
0.152603
0.110504
0.071324
0.035173
-0.005253
0.014871
0.051382
0.062938
0.071314
0.120393
0.188126
0.222169
0.255234
0.282303
0.335779
0.343821
0.317509
0.300839
0.262647
0.209802
0.161051
0.047984
0.042446
0.020551
0.003267
0.014636
0.007690
0.051021
0.060072
0.104564
0.151209
0.202594
0.264660
0.287297
0.318530
0.319980
0.299549
0.269676
0.231651
0.204726
0.146917
0.090345
0.051683
0.003544
-0.016213
-0.012862
0.000594
0.014611
0.027247
0.057458
0.105646
0.125204
0.191204
0.255159
0.250010
0.270870
0.244351
0.183449
0.131565
0.063473
0.067982
0.031893
-0.010187
-0.046079
-0.065970
-0.085573
-0.082989
-0.044746
-0.000604
0.049189
0.094002
0.142573
0.169739
0.198827
0.209618
0.219054
0.205666
0.184783
0.140587
0.070393
0.035908
-0.020246
-0.061068
-0.064852
-0.092754
-0.096352
-0.107109
-0.101933
-0.055089
0.018391
0.037231
0.094828
0.134705
0.149482
0.170660
0.186595
0.170909
0.147677
0.122343
0.064828
0.039062
-0.022394
-0.074933
-0.087953
-0.130541
-0.131363
-0.109246
-0.087062
-0.071270
-0.020293
0.032976
0.077267
0.134634
0.142144
0.133369
0.161888
0.154388
0.103726
0.072968
0.085606
0.032976
-0.046678
-0.058573
-0.077961
-0.098660
-0.097140
-0.078460
-0.054889
-0.027160
-0.015690
0.002832
0.005278
0.025771
0.127584
0.189361
0.171487
0.140447
0.120867
0.091034
0.061882
0.023352
-0.032635
-0.069053
-0.087262
-0.089918
-0.108026
-0.120714
-0.118717
-0.088038
-0.017293
0.013519
0.074161
0.123259
0.130903
0.155168
0.150948
0.151234
0.133542
0.096918
0.056759
0.008357
-0.041286
-0.081064
-0.107962
-0.130453
-0.127442
-0.129348
-0.103177
-0.062167
0.005164
0.048153
0.098169
0.130269
0.167256
0.191102
0.201342
0.167023
0.144848
0.110061
0.055723
-0.003832
-0.040164
-0.041697
-0.088822
-0.102692
-0.105645
-0.107174
-0.066280
-0.031849
-0.011937
-0.015960
0.069942
0.122638
0.145479
0.172805
0.182600
0.152879
0.117488
0.096063
0.075841
0.053213
-0.011079
-0.056124
-0.092502
-0.101618
-0.140738
-0.138995
-0.110184
-0.036905
0.005730
0.035289
0.049892
0.073989
0.106884
0.124154
0.135641
0.121696
0.086298
0.068904
0.063559
0.036460
-0.006061
-0.068814
-0.104599
-0.130357
-0.153597
-0.130752
-0.093933
-0.057308
-0.026156
0.018800
0.064804
0.091143
0.123115
0.155227
0.129494
0.116927
0.136825
0.108432
0.046481
0.007383
-0.031626
-0.069213
-0.092388
-0.131341
-0.153731
-0.163146
-0.117799
-0.066158
-0.011470
0.027660
0.070785
0.092596
0.127130
0.142864
0.145981
0.174617
0.144046
0.101325
0.089302
0.017772
-0.035189
-0.068956
-0.118397
-0.134210
-0.150361
-0.121895
-0.107007
-0.090849
-0.026938
0.003488
0.049086
0.086602
0.105899
0.119698
0.140223
0.131459
0.111700
0.102175
0.059780
-0.002159
-0.040131
-0.082031
-0.113045
-0.165600
-0.153579
-0.134358
-0.127781
-0.099502
-0.046245
-0.010234
0.024528
0.068623
0.122164
0.148994
0.154633
0.137994
0.119194
0.101817
0.054514
0.001390
-0.067710
-0.101566
-0.123979
-0.165048
-0.166819
-0.144946
-0.141114
-0.116596
-0.058044
0.006337
0.021544
0.093878
0.110509
0.113325
0.138177
0.138788
0.099320
0.081998
0.041589
-0.024208
-0.067248
-0.120247
-0.139664
-0.152818
-0.186563
-0.163979
-0.122453
-0.110708
-0.061071
-0.015102
0.031073
0.057551
0.069714
0.103653
0.116240
0.159260
0.168588
0.116438
0.055661
0.025639
-0.042148
-0.076425
-0.111940
-0.143988
-0.153652
-0.148915
-0.149797
-0.102667
-0.035175
0.013545
0.035830
0.080148
0.090917
0.109246
0.145475
0.168604
0.154276
0.063754
0.012782
-0.003536
-0.081326
-0.121255
-0.100358
-0.143629
-0.146639
-0.158577
-0.152054
-0.122652
-0.048622
-0.003664
0.045216
0.104725
0.127945
0.142684
0.168787
0.150098
0.115243
0.077046
0.031614
-0.016409
-0.047843
-0.077270
-0.104841
-0.112252
-0.120776
-0.111683
-0.064934
-0.034084
0.006656
0.026538
0.086087
0.126740
0.176763
0.181380
0.197219
0.183765
0.152268
0.090645
0.037733
-0.014267
-0.065791
-0.065182
-0.071057
-0.119668
-0.131451
-0.110664
-0.094232
-0.055062
-0.000701
0.051011
0.087277
0.126002
0.166731
0.176591
0.180238
0.145668
0.130476
0.110045
0.088735
0.045017
0.000050
-0.031500
-0.068820
-0.117393
-0.095324
-0.084237
-0.048408
-0.023442
-0.000277
0.049656
0.092885
0.119414
0.132643
0.139835
0.148596
0.157282
0.145332
0.134667
0.076597
0.006103
-0.069524
-0.100852
-0.124872
-0.106729
-0.106989
-0.120638
-0.101153
-0.069964
-0.015225
0.029831
0.080342
0.114447
0.107777
0.138885
0.141199
0.144742
0.118964
0.063700
0.020301
-0.025446
-0.065646
-0.096442
-0.106455
-0.153757
-0.157080
-0.139756
-0.097174
-0.070268
-0.020920
-0.006826
0.034805
0.076234
0.066775
0.076009
0.095553
0.104314
0.098639
0.062151
0.005291
-0.059917
-0.093187
-0.113768
-0.128447
-0.129491
-0.152922
-0.157916
-0.116639
-0.079061
-0.037165
-0.016500
-0.004649
0.037448
0.074632
0.120214
0.122025
0.093038
0.054640
0.030947
0.027994
-0.032468
-0.068468
-0.107278
-0.131479
-0.159451
-0.156899
-0.153842
-0.129814
-0.098240
-0.063923
-0.029952
-0.002922
0.046379
0.088040
0.103075
0.087027
0.063097
0.059544
0.066952
0.027439
-0.027575
-0.088799
-0.136856
-0.174912
-0.203722
-0.184246
-0.182552
-0.173670
-0.145965
-0.104594
-0.047278
0.011856
0.101026
0.103496
0.111195
0.146008
0.123391
0.065500
0.066116
0.041962
-0.019428
-0.085490
-0.092455
-0.113501
-0.169136
-0.180074
-0.175846
-0.147289
-0.081490
-0.026717
0.030577
0.095858
0.132237
0.199901
0.245911
0.266604
0.281689
0.281518
0.241507
0.225132
0.216685
0.192029
0.177373
0.187969
0.168300
0.182434
0.207291
0.277921
0.353600
0.443974
0.516010
0.621215
0.703592
0.797587
0.860436
0.904956
0.910418
0.892464
0.839745
0.814152
0.766178
0.691191
0.615004
0.570515
0.551759
0.493966
0.481331
0.439707
0.416355
0.392563
0.408416
0.443040
0.440602
0.435466
0.346304
0.321608
0.301944
0.269676
0.209411
0.140986
0.103986
0.040351
-0.020530
-0.065221
-0.082880
-0.091159
-0.059370
-0.038586
-0.037143
0.053383
0.109191
0.167790
0.204553
0.199927
0.205600
0.189998
0.181086
0.187595
0.100194
0.062625
0.039427
-0.036013
-0.087571
-0.117389
-0.120140
-0.080607
-0.067308
-0.075915
-0.053345
-0.013654
0.030138
0.059179
0.102474
0.131214
0.169223
0.167495
0.151286
0.098727
0.070857
0.048689
0.007344
-0.029404
-0.071399
-0.108252
-0.141198
-0.130614
-0.105277
-0.103111
-0.058511
-0.011361
0.010504
0.065687
0.088186
0.147619
0.160892
0.185414
0.156503
0.134735
0.100470
0.073040
0.041539
-0.036187
-0.084709
-0.103700
-0.118354
-0.117873
-0.113766
-0.095972
-0.024446
0.010539
0.027779
0.069633
0.141038
0.186986
0.186048
0.166484
0.162489
0.145377
0.102551
0.066168
0.030878
0.008348
-0.047491
-0.062979
-0.072971
-0.087334
-0.074309
-0.043829
-0.019374
0.013550
0.062513
0.122381
0.138178
0.156673
0.167465
0.161427
0.209027
0.193126
0.157853
0.134827
0.126440
0.040949
0.008402
-0.003162
-0.048679
-0.031175
-0.040088
-0.025828
0.011172
0.071002
0.114296
0.140880
0.162717
0.206743
0.248021
0.280028
0.274133
0.227223
0.208466
0.168823
0.111922
0.057270
0.028172
0.023976
0.012253
-0.025078
0.016348
0.009857
0.031357
0.069572
0.101932
0.149467
0.214850
0.275180
0.316625
0.304229
0.280974
0.255455
0.224264
0.149705
0.132841
0.110428
0.085059
0.042648
0.020769
0.017835
0.003894
0.008322
0.045186
0.081482
0.132549
0.178720
0.211792
0.253003
0.281875
0.265423
0.253825
0.263331
0.236229
0.204421
0.141464
0.095156
0.081423
0.051305
-0.000328
-0.006962
-0.000300
0.009689
0.052685
0.098167
0.123590
0.183317
0.194347
0.215487
0.248350
0.265823
0.247419
0.230342
0.189287
0.152001
0.101845
0.048608
0.018250
0.007774
0.018195
-0.021848
-0.040309
-0.032279
-0.008682
0.035960
0.108389
0.159603
0.209846
0.223614
0.248417
0.254195
0.229201
0.244247
0.234753
0.176838
0.106020
0.032084
0.007805
-0.046805
-0.077786
-0.091860
-0.097885
-0.075030
-0.051448
0.005602
0.065209
0.095174
0.130215
0.173463
0.216350
0.227946
0.190535
0.153606
0.095948
0.044705
0.034956
-0.007786
-0.042907
-0.087438
-0.104564
-0.144526
-0.128652
-0.106027
-0.070925
-0.042388
-0.012899
0.073725
0.145989
0.155298
0.147068
0.158430
0.173221
0.158877
0.123864
0.068637
0.024566
-0.030278
-0.090168
-0.133168
-0.148196
-0.179017
-0.179848
-0.161430
-0.134501
-0.080624
-0.000359
0.073177
0.098992
0.118945
0.107228
0.122212
0.115148
0.083416
0.063798
0.062020
0.013529
-0.040061
-0.064906
-0.113641
-0.163037
-0.159126
-0.145702
-0.118188
-0.066789
-0.024113
0.035803
0.079259
0.138032
0.114238
0.117286
0.128664
0.161406
0.145219
0.102902
0.051349
0.003343
-0.039521
-0.091822
-0.132566
-0.133600
-0.148024
-0.145556
-0.109885
-0.066377
-0.022056
0.032093
0.074412
0.102037
0.139552
0.151955
0.168475
0.133490
0.106960
0.074206
0.037035
-0.008102
-0.049244
-0.081543
-0.114084
-0.133426
-0.132654
-0.135695
-0.100217
-0.061348
-0.019265
0.028004
0.062193
0.092603
0.130415
0.146094
0.135939
0.109541
0.096753
0.051939
0.037573
-0.008717
-0.082218
-0.094061
-0.084439
-0.101475
-0.125126
-0.107424
-0.102834
-0.075256
-0.035647
0.028195
0.079022
0.094036
0.126878
0.142044
0.140252
0.114385
0.090564
0.059186
0.047993
0.006360
-0.050598
-0.104015
-0.110096
-0.124233
-0.157773
-0.150923
-0.092099
-0.050052
-0.002817
0.032584
0.078955
0.104625
0.134551
0.157377
0.149640
0.130973
0.127297
0.092594
0.032106
-0.031687
-0.031415
-0.062022
-0.128931
-0.157109
-0.153234
-0.109343
-0.086252
-0.057512
-0.024779
0.031235
0.080921
0.125311
0.133445
0.143021
0.143039
0.152123
0.108877
0.058321
0.036905
0.032887
0.002057
-0.043606
-0.094994
-0.119438
-0.157185
-0.147253
-0.109495
-0.088194
-0.048283
-0.014153
0.027995
0.061240
0.090483
0.096910
0.134201
0.137300
0.115889
0.066642
0.033689
-0.024985
-0.063117
-0.073825
-0.088279
-0.128789
-0.155207
-0.151368
-0.132573
-0.101329
-0.062770
0.005447
0.062845
0.073707
0.114174
0.124226
0.123377
0.099902
0.090776
0.045187
0.000714
-0.035094
-0.069896
-0.089293
-0.130317
-0.151472
-0.152282
-0.145165
-0.148539
-0.112740
-0.073122
-0.017050
0.059226
0.085417
0.107331
0.127316
0.154717
0.138760
0.104220
0.080864
0.033989
-0.002477
-0.041414
-0.094360
-0.135852
-0.146814
-0.165117
-0.165377
-0.142612
-0.117623
-0.069207
-0.009250
0.027233
0.053833
0.113160
0.130749
0.124089
0.117098
0.108496
0.073976
0.050611
0.015213
-0.064652
-0.102022
-0.139559
-0.147472
-0.150595
-0.152010
-0.160581
-0.136551
-0.075541
-0.013629
0.033700
0.077166
0.118673
0.129500
0.152738
0.135660
0.128126
0.098044
0.036896
0.002062
-0.066861
-0.140983
-0.162431
-0.177783
-0.188347
-0.174524
-0.163191
-0.133463
-0.089965
-0.025310
0.042727
0.079011
0.108438
0.142745
0.147928
0.116625
0.076158
0.012413
0.004922
-0.039022
-0.072908
-0.079137
-0.129205
-0.169803
-0.172086
-0.165152
-0.155605
-0.123784
-0.074242
-0.009821
0.057460
0.074447
0.099132
0.108098
0.125594
0.116313
0.105884
0.075036
0.031634
-0.034945
-0.083181
-0.131646
-0.178353
-0.168895
-0.175836
-0.157086
-0.117454
-0.072910
-0.046826
0.005140
0.058537
0.100475
0.144383
0.138552
0.128832
0.136427
0.090071
0.050202
0.002882
-0.047127
-0.081898
-0.134652
-0.146921
-0.148335
-0.159907
-0.109735
-0.095895
-0.058665
-0.035336
0.006689
0.051703
0.103299
0.136977
0.179849
0.178914
0.160689
0.124439
0.087067
0.038116
-0.020866
-0.071925
-0.075954
-0.119070
-0.151883
-0.155704
-0.136088
-0.124850
-0.060115
0.030339
0.032817
0.057264
0.089848
0.118911
0.126568
0.134772
0.131160
0.128466
0.095065
0.040477
-0.014743
-0.042009
-0.085053
-0.063160
-0.071378
-0.080544
-0.056344
-0.036620
-0.021820
-0.013374
0.042008
0.101923
0.133827
0.161042
0.179199
0.183731
0.151797
0.126123
0.091949
0.038180
-0.033094
-0.069610
-0.093824
-0.123780
-0.164934
-0.163669
-0.142245
-0.095464
-0.076591
-0.068408
0.001773
0.045092
0.099880
0.127882
0.134027
0.136741
0.108364
0.090613
0.056196
0.017833
-0.021637
-0.063909
-0.088333
-0.131348
-0.144059
-0.164104
-0.165439
-0.117786
-0.087246
-0.055982
-0.016788
0.019983
0.052705
0.083557
0.111527
0.096098
0.065589
0.053437
0.020939
-0.018002
-0.055900
-0.125629
-0.169040
-0.189950
-0.192356
-0.169813
-0.190759
-0.148712
-0.099773
-0.070980
-0.029412
0.005652
0.025761
0.048309
0.078096
0.106125
0.068926
0.045997
0.036810
-0.030929
-0.099214
-0.105010
-0.140381
-0.150864
-0.185861
-0.187957
-0.154958
-0.133698
-0.112382
-0.062512
-0.030085
0.013518
0.062574
0.075897
0.095546
0.079369
0.083374
0.076919
0.034001
0.005642
-0.033863
-0.081053
-0.113857
-0.142240
-0.165842
-0.170020
-0.166268
-0.150368
-0.144952
-0.090066
-0.041060
0.023067
0.064005
0.080018
0.067434
0.079852
0.080573
0.075008
0.023311
-0.017467
-0.060550
-0.114038
-0.144469
-0.195029
-0.195123
-0.184608
-0.168336
-0.147600
-0.128898
-0.077572
-0.014460
0.055694
0.092653
0.135985
0.171576
0.153562
0.163958
0.180097
0.178840
0.158114
0.120712
0.097098
0.077222
0.065768
0.077014
0.087763
0.129010
0.174804
0.245878
0.314481
0.393536
0.484457
0.554712
0.617253
0.654175
0.703752
0.743646
0.769861
0.792893
0.793361
0.790168
0.776808
0.706732
0.640507
0.644535
0.599636
0.562745
0.551462
0.567104
0.571548
0.586713
0.540582
0.501934
0.477927
0.470699
0.422590
0.361622
0.304801
0.246960
0.184587
0.125429
0.077013
0.040087
-0.026645
-0.063104
-0.093195
-0.106441
-0.066482
-0.040426
0.018323
0.070141
0.096382
0.136888
0.165969
0.178919
0.211681
0.207199
0.169991
0.128873
0.098327
0.027162
-0.021817
-0.039806
-0.101857
-0.144772
-0.166134
-0.169206
-0.155708
-0.118820
-0.055199
0.004284
0.032347
0.094070
0.123893
0.130030
0.149643
0.150932
0.105542
0.088053
0.032607
-0.000701
-0.047000
-0.100955
-0.156076
-0.170565
-0.162965
-0.150893
-0.119224
-0.095883
-0.069123
-0.014289
0.042644
0.081536
0.118988
0.157314
0.177605
0.160927
0.152510
0.075655
0.027176
0.006117
-0.043138
-0.116341
-0.170217
-0.164498
-0.142110
-0.138292
-0.119059
-0.080932
-0.019416
0.024909
0.076172
0.118311
0.156878
0.163974
0.156131
0.163896
0.169833
0.148170
0.081581
0.014618
-0.006433
-0.065490
-0.102348
-0.146376
-0.146835
-0.114940
-0.094029
-0.047914
-0.017754
0.021343
0.082342
0.109062
0.130429
0.173477
0.178159
0.167720
0.172674
0.135921
0.068257
0.009444
-0.039443
-0.087288
-0.119930
-0.132971
-0.125235
-0.091138
-0.033093
0.013698
0.052342
0.093702
0.140375
0.148425
0.198047
0.223573
0.228098
0.202656
0.185283
0.170271
0.122599
0.050061
0.012590
-0.017560
-0.078440
-0.080903
-0.058096
-0.045475
-0.008875
0.032576
0.056105
0.107186
0.154593
0.207656
0.266492
0.266686
0.254645
0.234092
0.219351
0.181543
0.157853
0.119842
0.068938
0.026185
-0.013185
-0.018147
-0.039543
-0.012381
0.006023
0.047009
0.098407
0.139695
0.168885
0.198478
0.218611
0.254189
0.253832
0.240036
0.213523
0.188980
0.159772
0.115837
0.084616
0.039257
0.001560
-0.005631
-0.014424
-0.027686
-0.000177
0.032631
0.082413
0.116786
0.156206
0.210069
0.249900
0.254666
0.251978
0.224553
0.196482
0.173426
0.140442
0.087165
0.034300
-0.003072
-0.039884
-0.072215
-0.065124
-0.051224
-0.018354
0.045242
0.074494
0.092799
0.139399
0.166092
0.206769
0.201165
0.181588
0.194988
0.158140
0.113015
0.075096
0.033562
-0.003899
-0.008366
-0.056366
-0.095648
-0.113416
-0.094681
-0.060782
-0.016625
-0.005623
0.047936
0.083662
0.103728
0.152181
0.167758
0.167647
0.127639
0.118284
0.112180
0.078864
0.045895
-0.016775
-0.093097
-0.123675
-0.129421
-0.145429
-0.147923
-0.121751
-0.085674
-0.041064
0.012146
0.049444
0.089175
0.130002
0.137209
0.124252
0.108825
0.084490
0.052683
0.026458
0.007596
-0.045591
-0.098181
-0.137847
-0.151706
-0.183196
-0.160952
-0.128801
-0.094819
-0.050016
-0.025408
-0.004870
0.037544
0.063388
0.076580
0.099521
0.104284
0.084018
0.068113
0.032447
-0.012881
-0.071433
-0.117721
-0.140530
-0.167116
-0.193576
-0.190779
-0.178750
-0.137400
-0.089214
-0.029164
0.022099
0.060987
0.082678
0.063558
0.096378
0.120207
0.116110
0.070409
0.018778
-0.031482
-0.047919
-0.076817
-0.111017
-0.147785
-0.169069
-0.179137
-0.144113
-0.114197
-0.087441
-0.027443
0.020069
0.052339
0.102425
0.118975
0.137858
0.145120
0.121698
0.077094
0.016141
-0.035075
-0.077121
-0.113007
-0.124360
-0.172169
-0.187886
-0.159920
-0.127839
-0.099216
-0.052120
-0.000363
0.036358
0.063557
0.103887
0.116186
0.128879
0.133449
0.115113
0.082780
0.036003
-0.020099
-0.064367
-0.096342
-0.132524
-0.162911
-0.179528
-0.160599
-0.133427
-0.111560
-0.070022
-0.013040
0.041522
0.087613
0.116554
0.120231
0.120128
0.103964
0.092324
0.069216
0.023176
-0.034467
-0.070086
-0.091319
-0.132515
-0.162910
-0.189305
-0.178271
-0.143180
-0.108313
-0.058944
-0.012624
0.030125
0.075283
0.116042
0.136065
0.140894
0.124627
0.118799
0.087059
0.042846
-0.012319
-0.081966
-0.131666
-0.138194
-0.168055
-0.181379
-0.157032
-0.121650
-0.094140
-0.053954
-0.010712
0.024177
0.068426
0.115844
0.121200
0.106504
0.100892
0.098168
0.068205
0.021941
-0.040463
-0.094912
-0.129583
-0.189858
-0.186824
-0.166719
-0.159881
-0.098004
-0.085135
-0.045115
0.005772
0.047622
0.067864
0.118168
0.148263
0.137301
0.114719
0.090889
0.055290
-0.014721
-0.088732
-0.111693
-0.144553
-0.153180
-0.175713
-0.170431
-0.153562
-0.148614
-0.126050
-0.073885
0.000751
0.054730
0.060264
0.085088
0.118250
0.122039
0.122014
0.092978
0.052910
-0.003955
-0.051211
-0.094502
-0.123634
-0.190948
-0.188302
-0.185761
-0.170900
-0.139258
-0.116784
-0.069392
-0.015189
0.033816
0.049824
0.077330
0.089417
0.066719
0.088453
0.068726
0.017249
-0.030976
-0.063742
-0.103751
-0.146425
-0.179081
-0.188503
-0.196683
-0.186467
-0.150138
-0.114865
-0.086397
-0.020675
0.032171
0.070376
0.101462
0.102724
0.094782
0.100327
0.077658
0.027977
-0.018316
-0.062376
-0.104756
-0.148733
-0.168969
-0.190587
-0.184003
-0.173343
-0.154151
-0.127314
-0.090477
-0.063743
-0.027814
0.007164
0.064897
0.097499
0.106174
0.097548
0.087133
0.068652
0.019437
-0.039284
-0.075928
-0.126894
-0.169440
-0.163082
-0.169201
-0.166009
-0.156418
-0.118814
-0.079227
-0.029217
0.020873
0.042866
0.073288
0.064235
0.065352
0.075593
0.071443
0.038116
0.009238
-0.033389
-0.110007
-0.135016
-0.163386
-0.190854
-0.196407
-0.169605
-0.147313
-0.126828
-0.101918
-0.064699
-0.014419
0.043252
0.084634
0.111863
0.127319
0.111257
0.085861
0.050295
0.029595
-0.022346
-0.074338
-0.102710
-0.155053
-0.162168
-0.191499
-0.177099
-0.129757
-0.084328
-0.061470
-0.005477
0.022578
0.069200
0.117062
0.127844
0.123499
0.139778
0.116862
0.072189
0.026302
-0.005909
-0.051925
-0.083619
-0.120872
-0.143648
-0.162399
-0.155298
-0.129283
-0.095732
-0.033022
-0.010403
0.033920
0.082258
0.090408
0.114953
0.141465
0.119736
0.109772
0.098284
0.067581
0.020414
-0.024332
-0.064863
-0.111310
-0.143158
-0.144908
-0.124299
-0.111928
-0.078727
-0.036997
0.014690
0.046229
0.064949
0.106988
0.135769
0.138743
0.131993
0.097317
0.052349
0.012744
-0.012714
-0.047428
-0.097272
-0.147555
-0.149783
-0.131569
-0.167164
-0.156775
-0.097186
-0.060635
-0.020152
0.032593
0.071935
0.100636
0.126162
0.108459
0.092248
0.075229
0.056758
0.000029
-0.073406
-0.133796
-0.182681
-0.251016
-0.248096
-0.244077
-0.212693
-0.176820
-0.138397
-0.111868
-0.069024
-0.014286
0.020264
0.059078
0.083661
0.089089
0.092490
0.067046
0.028441
0.001767
-0.061935
-0.126599
-0.172248
-0.205270
-0.220261
-0.212131
-0.212527
-0.208986
-0.159596
-0.131127
-0.087984
-0.015879
0.046857
0.058364
0.067106
0.070625
0.071164
0.062418
0.028891
-0.019121
-0.058125
-0.118695
-0.176907
-0.190861
-0.191487
-0.182734
-0.165270
-0.153499
-0.128873
-0.081725
-0.038234
-0.008683
0.042126
0.087762
0.082275
0.088469
0.033505
0.001644
0.001069
-0.045604
-0.110754
-0.149518
-0.156466
-0.203360
-0.216228
-0.222276
-0.222034
-0.196440
-0.126006
-0.076852
-0.026383
0.011538
0.028765
0.062566
0.062429
0.070036
0.060847
0.024418
-0.007385
-0.058848
-0.091373
-0.130222
-0.157164
-0.195499
-0.189410
-0.178229
-0.140063
-0.113561
-0.055429
0.016208
0.056760
0.121228
0.186679
0.226348
0.239276
0.260982
0.283213
0.274000
0.279823
0.294361
0.278254
0.244356
0.247352
0.247760
0.272645
0.293601
0.337251
0.379415
0.447346
0.529952
0.629186
0.688300
0.763615
0.824478
0.887515
0.906449
0.896884
0.859635
0.826020
0.754325
0.679253
0.637125
0.572009
0.492539
0.394915
0.309766
0.250787
0.245615
0.219933
0.211663
0.232553
0.251183
0.235503
0.233905
0.208565
0.232650
0.221319
0.210017
0.160853
0.112077
0.062824
0.035657
-0.034938
-0.066482
-0.096794
-0.118197
-0.117539
-0.066910
-0.034637
-0.011378
0.040010
0.076746
0.102531
0.121955
0.138447
0.141781
0.137049
0.111527
0.082423
0.032982
-0.024536
-0.038696
-0.092597
-0.137004
-0.143228
-0.165894
-0.158035
-0.128492
-0.094195
-0.069218
-0.015195
0.029959
0.070407
0.084348
0.097477
0.107185
0.128246
0.146712
0.092846
0.022515
-0.016632
-0.065162
-0.115555
-0.146320
-0.149887
-0.174599
-0.170909
-0.177051
-0.120709
-0.073960
-0.015348
0.030301
0.046562
0.072752
0.093503
0.124950
0.130780
0.107953
0.083100
0.058709
-0.005356
-0.079622
-0.104436
-0.115075
-0.123363
-0.166688
-0.144264
-0.103923
-0.088750
-0.056347
-0.005503
0.041499
0.076689
0.123298
0.166379
0.153583
0.158736
0.149198
0.105887
0.055221
0.019549
-0.020689
-0.056694
-0.093981
-0.114831
-0.134943
-0.161018
-0.135101
-0.067486
-0.039940
-0.008833
0.055903
0.100942
0.157675
0.184841
0.172777
0.157899
0.154704
0.129340
0.096123
0.059484
0.006354
-0.046041
-0.089457
-0.119902
-0.127256
-0.099922
-0.071548
-0.018835
0.025119
0.082089
0.104621
0.141895
0.203276
0.234406
0.246564
0.234427
0.193721
0.174262
0.120924
0.052696
0.026084
0.009870
-0.023227
-0.081340
-0.105009
-0.112331
-0.068410
-0.008489
0.047319
0.101354
0.157798
0.196596
0.252854
0.265315
0.288985
0.262430
0.228381
0.190238
0.157126
0.107565
0.050823
-0.006690
-0.029601
-0.040907
-0.022582
-0.044476
-0.002830
0.016868
0.056502
0.116615
0.153601
0.207902
0.236812
0.261072
0.258038
0.238519
0.229650
0.203869
0.150738
0.097115
0.044350
-0.007208
-0.056371
-0.058557
-0.054319
-0.057785
-0.019078
0.028534
0.084689
0.124440
0.166774
0.202985
0.209601
0.198858
0.214950
0.226724
0.202719
0.151676
0.092437
0.056233
0.033122
-0.023107
-0.059597
-0.076493
-0.082803
-0.064795
-0.046360
-0.038550
-0.006747
0.062619
0.104471
0.156196
0.200179
0.215897
0.194143
0.161079
0.133750
0.099111
0.056355
0.017608
-0.029776
-0.066717
-0.109802
-0.164219
-0.176130
-0.156586
-0.111987
-0.068554
-0.030664
-0.007629
0.060666
0.119052
0.123658
0.130564
0.145270
0.140927
0.111989
0.086675
0.037752
-0.017627
-0.067935
-0.108830
-0.142120
-0.147704
-0.162222
-0.157553
-0.117611
-0.075786
-0.033528
-0.032176
-0.009394
0.057249
0.101560
0.124750
0.123310
0.102398
0.089046
0.034482
-0.019400
-0.070727
-0.107801
-0.114404
-0.138444
-0.173192
-0.183081
-0.157997
-0.129803
-0.111031
-0.083665
-0.029730
0.024571
0.062337
0.103601
0.101325
0.108657
0.105077
0.088157
0.074503
0.027061
-0.023026
-0.063591
-0.095386
-0.123758
-0.131716
-0.138968
-0.118372
-0.103329
-0.078566
-0.030971
0.039179
0.073968
0.113796
0.128618
0.095842
0.105497
0.141234
0.123709
0.095716
0.056479
0.000516
-0.051869
-0.087687
-0.106805
-0.141489
-0.145764
-0.151731
-0.111945
-0.059900
-0.015630
0.015208
0.025913
0.092789
0.143008
0.149186
0.157503
0.162315
0.141883
0.110743
0.081517
0.045451
-0.007834
-0.034963
-0.075039
-0.107220
-0.099403
-0.093307
-0.077970
-0.074180
-0.014945
0.023237
0.035828
0.087713
0.128982
0.131284
0.154019
0.163668
0.121106
0.093878
0.070386
0.016595
-0.030243
-0.070652
-0.102816
-0.121202
-0.142423
-0.139431
-0.102090
-0.073257
0.002441
0.044508
0.075605
0.113052
0.145040
0.129240
0.156397
0.174599
0.159197
0.106878
0.053620
0.031563
-0.011437
-0.064350
-0.113082
-0.134554
-0.119621
-0.113361
-0.107046
-0.073579
-0.040701
-0.004750
0.058169
0.128083
0.167148
0.199076
0.216961
0.203554
0.160016
0.121570
0.100856
0.053249
0.017670
-0.016728
-0.068214
-0.118995
-0.136620
-0.118546
-0.094982
-0.053197
-0.018231
0.037667
0.100815
0.128687
0.154298
0.155892
0.180416
0.167621
0.131196
0.104278
0.066111
0.005407
-0.035626
-0.079052
-0.113140
-0.124151
-0.133321
-0.122917
-0.097848
-0.070053
-0.008881
0.022154
0.071810
0.109336
0.141555
0.177115
0.175768
0.155305
0.126342
0.077150
0.058307
0.009882
-0.042080
-0.096494
-0.147350
-0.152332
-0.164867
-0.152874
-0.129905
-0.075978
-0.021627
0.013966
0.060634
0.100545
0.146347
0.140580
0.130019
0.122993
0.126798
0.085812
0.042090
-0.010079
-0.029564
-0.078496
-0.121069
-0.130691
-0.140309
-0.133431
-0.102475
-0.074401
-0.026477
0.052235
0.085734
0.109243
0.144641
0.187881
0.178466
0.145599
0.129035
0.098963
0.012307
0.009187
-0.078119
-0.123934
-0.156538
-0.163655
-0.148662
-0.146082
-0.124070
-0.090639
-0.041498
0.038978
0.086618
0.160200
0.187378
0.167380
0.126845
0.107886
0.092862
0.055238
0.022484
-0.007041
-0.041881
-0.087760
-0.123121
-0.136547
-0.147820
-0.146039
-0.122473
-0.060848
-0.029402
0.022545
0.094855
0.115880
0.161527
0.158555
0.174170
0.181929
0.150363
0.097804
0.042725
-0.038969
-0.091626
-0.118203
-0.136840
-0.145987
-0.135086
-0.134946
-0.133765
-0.138198
-0.122818
-0.056042
0.010070
0.059558
0.106845
0.147489
0.166103
0.204000
0.176503
0.160047
0.128977
0.054353
-0.020242
-0.048058
-0.079757
-0.079918
-0.074360
-0.066231
-0.042539
-0.014582
0.037510
0.056160
0.108370
0.163264
0.177072
0.195169
0.191446
0.159442
0.143143
0.113690
0.084731
0.020589
-0.017330
-0.055991
-0.079026
-0.070681
-0.095383
-0.118178
-0.093126
-0.042804
0.010173
0.050425
0.088285
0.114725
0.162217
0.153749
0.164940
0.167672
0.136984
0.123071
0.090479
0.017207
-0.020590
-0.077493
-0.102419
-0.111539
-0.126639
-0.086861
-0.080703
-0.046349
-0.024056
0.027103
0.075835
0.112759
0.144052
0.164895
0.162549
0.177634
0.171403
0.112465
0.061560
0.007309
-0.044285
-0.079446
-0.104513
-0.114795
-0.118909
-0.124696
-0.113340
-0.113535
-0.056352
-0.005645
0.025550
0.074411
0.123987
0.135500
0.148984
0.125482
0.106650
0.098128
0.041266
-0.015541
-0.043890
-0.091735
-0.140585
-0.160475
-0.178285
-0.164275
-0.139932
-0.103112
-0.089812
-0.047479
-0.019106
0.019033
0.096423
0.115843
0.117448
0.108886
0.066257
0.051362
0.009045
-0.015982
-0.080533
-0.126800
-0.161462
-0.184688
-0.187191
-0.181621
-0.141663
-0.100724
-0.077327
-0.034038
0.006566
0.083316
0.122093
0.149858
0.153134
0.126642
0.089683
0.057105
0.021228
-0.020527
-0.086578
-0.123086
-0.144439
-0.184129
-0.183043
-0.157603
-0.137687
-0.118508
-0.079524
-0.029569
0.035905
0.077388
0.114835
0.145920
0.146950
0.116703
0.099874
0.051379
0.020437
-0.019155
-0.053692
-0.101321
-0.178451
-0.180876
-0.169783
-0.156994
-0.177194
-0.174406
-0.098623
-0.033272
0.036485
0.080310
0.105516
0.111623
0.095848
0.132022
0.139155
0.109754
0.058523
0.025146
0.010813
-0.013676
-0.038834
-0.051843
-0.053989
-0.053734
-0.032082
0.052266
0.126745
0.210236
0.276054
0.338923
0.372526
0.430182
0.481232
0.515473
0.524820
0.518400
0.531344
0.534656
0.522804
0.514281
0.498554
0.535127
0.550853
0.584329
0.622944
0.684931
0.739162
0.773429
0.829767
0.885637
0.889780
0.902034
0.873322
0.793458
0.744852
0.636318
0.517175
0.386222
0.312543
0.230616
0.164762
0.078502
0.019594
0.021797
0.032874
0.042026
0.088378
0.137482
0.176527
0.217497
0.241997
0.277279
0.262602
0.239392
0.194419
0.126125
0.098105
0.053840
-0.004302
-0.026003
-0.069137
-0.109718
-0.126198
-0.103751
-0.072872
-0.024042
0.016121
0.062981
0.107552
0.125566
0.157983
0.198233
0.193652
0.164630
0.158494
0.111454
0.043045
0.008489
-0.032817
-0.074249
-0.103197
-0.103669
-0.135110
-0.135143
-0.100093
-0.041818
0.003347
-0.021494
0.045033
0.155055
0.187338
0.175554
0.159366
0.140358
0.112504
0.077551
0.031377
-0.007159
-0.054440
-0.097245
-0.126716
-0.110130
-0.122389
-0.125502
-0.095314
-0.053385
0.009634
0.047186
0.075037
0.137103
0.160177
0.177516
0.183218
0.186504
0.173794
0.113075
0.049242
0.003047
-0.033346
-0.062488
-0.085148
-0.112617
-0.128653
-0.107513
-0.057276
-0.018102
0.026099
0.081994
0.097640
0.146900
0.168120
0.184349
0.197492
0.188540
0.171980
0.141570
0.122390
0.083382
0.017784
-0.064153
-0.078982
-0.101531
-0.104671
-0.038200
-0.031330
0.020478
0.039606
0.086630
0.150745
0.203625
0.251765
0.262095
0.231352
0.234894
0.181090
0.145060
0.124453
0.093675
0.057160
-0.003628
-0.041648
-0.047174
-0.067367
-0.080929
-0.052276
0.022879
0.094302
0.130019
0.160803
0.214447
0.242467
0.253990
0.264640
0.262362
0.264774
0.224208
0.160228
0.129687
0.101302
0.037674
0.023393
0.010371
-0.012015
0.039559
0.031208
0.070881
0.136220
0.182733
0.203957
0.227691
0.291002
0.246318
0.272643
0.315721
0.289870
0.233094
0.195898
0.144275
0.116952
0.085942
0.051345
0.010475
-0.003855
0.028674
0.055914
0.091329
0.123875
0.175044
0.197262
0.235641
0.272125
0.293690
0.283358
0.264902
0.241871
0.219387
0.181072
0.122586
0.077800
0.011012
-0.000632
0.023627
0.025053
0.024982
0.045137
0.078369
0.104334
0.146689
0.194228
0.249990
0.280200
0.290012
0.272077
0.252532
0.210501
0.166627
0.123365
0.090018
0.045580
0.004672
-0.032885
-0.048823
-0.054132
-0.048031
-0.022835
0.007137
0.046777
0.089287
0.136768
0.174859
0.204228
0.214991
0.211937
0.187857
0.179915
0.145396
0.101415
0.042409
0.007986
-0.030861
-0.062855
-0.080618
-0.089161
-0.080674
-0.066567
-0.041458
0.003971
0.066790
0.081544
0.112949
0.152691
0.169100
0.162307
0.171128
0.143215
0.115611
0.071912
0.007232
-0.023974
-0.050065
-0.085934
-0.114983
-0.124745
-0.120659
-0.111763
-0.084572
-0.046818
0.006608
0.060627
0.085930
0.108346
0.116093
0.119711
0.126552
0.110326
0.084342
0.059237
0.001804
-0.035655
-0.064723
-0.094693
-0.106478
-0.141189
-0.120412
-0.089657
-0.087693
-0.051578
-0.003332
0.068524
0.111919
0.120455
0.136713
0.147353
0.136101
0.129517
0.073540
0.023356
-0.015583
-0.057247
-0.079648
-0.112366
-0.133733
-0.148801
-0.153708
-0.118239
-0.079052
-0.038671
0.007795
0.063558
0.116755
0.152277
0.153996
0.130177
0.102483
0.116419
0.084506
0.047918
0.023029
-0.016390
-0.057330
-0.088158
-0.111779
-0.132784
-0.126829
-0.104350
-0.069220
-0.028959
0.021028
0.066578
0.110367
0.115668
0.134529
0.152238
0.167404
0.165494
0.131299
0.065316
0.010755
-0.015730
-0.061439
-0.096496
-0.118818
-0.133108
-0.121082
-0.098000
-0.071778
-0.033210
0.015277
0.053557
0.091281
0.128336
0.155038
0.160219
0.178514
0.163930
0.126788
0.087404
0.035876
0.000567
-0.061603
-0.098419
-0.109482
-0.122762
-0.114288
-0.086108
-0.056977
-0.011261
0.045696
0.094435
0.121417
0.142346
0.156102
0.176301
0.164304
0.131226
0.108520
0.079419
0.036839
0.001850
-0.047746
-0.085722
-0.114097
-0.114177
-0.094248
-0.061484
-0.051383
-0.024699
0.039048
0.093089
0.137719
0.168100
0.171908
0.174060
0.164769
0.142650
0.111214
0.065663
0.040382
-0.024480
-0.092446
-0.120183
-0.129163
-0.124706
-0.115460
-0.111772
-0.063390
-0.026551
0.014909
0.072081
0.137987
0.157726
0.165835
0.191837
0.169234
0.153272
0.123861
0.080587
0.036639
-0.016841
-0.034158
-0.071001
-0.108640
-0.120600
-0.114467
-0.108669
-0.077777
-0.047626
0.040691
0.080918
0.108460
0.133774
0.141804
0.177269
0.172267
0.140451
0.103597
0.075946
0.018048
-0.047946
-0.088937
-0.113547
-0.124671
-0.131884
-0.133260
-0.085239
-0.078305
-0.044307
0.022897
0.079949
0.113091
0.146907
0.163454
0.169399
0.148648
0.141199
0.116730
0.089128
0.035673
-0.028204
-0.065454
-0.103596
-0.128292
-0.095834
-0.126136
-0.133569
-0.112745
-0.054981
-0.003620
0.052451
0.104100
0.145132
0.146632
0.169329
0.179654
0.151647
0.105947
0.040077
0.009294
-0.038282
-0.088249
-0.110148
-0.130523
-0.167266
-0.150413
-0.119182
-0.089640
-0.013198
0.041014
0.082598
0.134293
0.151496
0.162622
0.166425
0.157844
0.125650
0.103026
0.088516
0.047476
0.016162
-0.016618
-0.062241
-0.083604
-0.094591
-0.094426
-0.070334
-0.018086
0.032382
0.074369
0.100749
0.140171
0.175344
0.209067
0.230808
0.220696
0.183366
0.133920
0.114336
0.032336
0.000507
-0.023054
-0.096259
-0.133488
-0.138368
-0.117505
-0.068161
-0.037306
-0.037179
0.019884
0.101417
0.148396
0.209366
0.228526
0.226507
0.216706
0.196851
0.148592
0.102453
0.059713
0.024514
-0.030889
-0.058506
-0.074004
-0.096944
-0.091352
-0.088782
-0.024637
0.024180
0.085940
0.113153
0.138548
0.174124
0.197046
0.209561
0.213127
0.184063
0.147948
0.093374
0.001498
-0.045889
-0.086481
-0.119278
-0.117033
-0.137858
-0.127206
-0.105106
-0.086418
-0.052679
0.002176
0.073920
0.112660
0.139506
0.158386
0.161349
0.144294
0.139066
0.132690
0.062145
-0.042922
-0.067295
-0.118801
-0.157899
-0.163969
-0.179775
-0.161551
-0.142103
-0.105838
-0.065825
0.000807
0.050604
0.093916
0.110021
0.159686
0.173823
0.140303
0.113188
0.075901
0.027736
-0.027785
-0.074090
-0.113156
-0.142524
-0.167066
-0.171562
-0.167874
-0.140935
-0.101942
-0.072814
-0.030332
0.025762
0.073345
0.113338
0.128687
0.138666
0.146693
0.119924
0.076830
0.046991
-0.008136
-0.061829
-0.112061
-0.143454
-0.191925
-0.186554
-0.144347
-0.136016
-0.112232
-0.043979
0.032141
0.070504
0.089155
0.130828
0.139129
0.156674
0.144169
0.114955
0.080090
0.036186
-0.025277
-0.075291
-0.121521
-0.154510
-0.157811
-0.139368
-0.164765
-0.164814
-0.108027
-0.070893
-0.031686
0.030732
0.077941
0.110916
0.122534
0.113677
0.126528
0.110709
0.087533
0.063414
0.019973
-0.018057
-0.062900
-0.061670
-0.050463
-0.032934
-0.014960
0.020175
0.068422
0.133784
0.197988
0.262854
0.345685
0.407937
0.448820
0.466475
0.477604
0.486712
0.479545
0.467181
0.429721
0.401023
0.394650
0.405053
0.407012
0.465920
0.532342
0.570997
0.623072
0.694534
0.755756
0.786066
0.818117
0.844207
0.880269
0.860354
0.842776
0.791210
0.708683
0.580400
0.468177
0.350694
0.268433
0.226587
0.178450
0.096032
0.052258
0.039920
0.036538
0.066368
0.106659
0.139777
0.194932
0.225110
0.234062
0.202400
0.210474
0.183290
0.128034
0.094676
0.048558
0.006973
-0.056461
-0.068791
-0.068545
-0.078652
-0.076994
-0.059625
-0.029006
0.002608
0.061059
0.121846
0.143383
0.162997
0.177615
0.163395
0.147762
0.129254
0.090766
0.060202
0.019123
-0.004695
-0.038543
-0.064866
-0.096253
-0.105214
-0.089386
-0.098588
-0.053617
-0.005248
0.046990
0.087224
0.124435
0.142301
0.150502
0.151783
0.136583
0.126222
0.093960
0.068079
0.025864
-0.041416
-0.078341
-0.087778
-0.106195
-0.104711
-0.103923
-0.083104
-0.057891
-0.008757
0.027958
0.064148
0.130997
0.172560
0.178785
0.172638
0.159042
0.134528
0.103183
0.060274
0.028353
0.006518
-0.040325
-0.088535
-0.083060
-0.065685
-0.068088
-0.050978
-0.007009
0.028557
0.078340
0.116392
0.148301
0.156413
0.176537
0.192282
0.199303
0.192151
0.136598
0.110019
0.074957
0.018226
-0.005902
-0.030793
-0.063851
-0.076909
-0.068605
-0.023637
0.004730
0.042539
0.090261
0.134343
0.139723
0.182385
0.218813
0.233594
0.212103
0.199743
0.167148
0.158728
0.121648
0.073945
0.032756
-0.033417
-0.032514
0.000756
0.001144
-0.024955
0.024184
0.079655
0.175184
0.185657
0.175174
0.193461
0.259099
0.284732
0.300154
0.278885
0.245801
0.180438
0.157182
0.130357
0.059343
0.022625
-0.004520
-0.006090
0.014764
0.015863
0.062630
0.083862
0.134455
0.199694
0.244781
0.287999
0.321553
0.312635
0.322792
0.289085
0.220652
0.212392
0.172592
0.129614
0.073916
0.023005
0.010244
-0.007057
0.000767
0.017611
0.053033
0.097701
0.123774
0.169502
0.221036
0.260840
0.304045
0.299183
0.295426
0.277304
0.256035
0.228477
0.165789
0.108834
0.086682
0.048581
0.016725
0.011020
0.013262
0.050998
0.064508
0.100555
0.147780
0.183713
0.211303
0.246305
0.271167
0.268501
0.272976
0.242796
0.201224
0.180181
0.125019
0.070214
0.014343
-0.020027
-0.041570
-0.055347
-0.045989
-0.022847
-0.005399
0.008614
0.072712
0.147653
0.177808
0.216010
0.217736
0.231412
0.235193
0.214262
0.170867
0.122159
0.078791
0.010596
-0.041624
-0.058700
-0.096099
-0.113607
-0.127358
-0.117215
-0.077309
-0.011643
0.031312
0.079478
0.141303
0.154928
0.130533
0.154682
0.170072
0.136604
0.060498
0.032879
-0.038947
-0.041004
-0.059628
-0.115064
-0.153836
-0.142378
-0.113554
-0.086399
-0.046286
-0.006555
0.050361
0.083790
0.115758
0.162617
0.177619
0.180538
0.173937
0.156921
0.119694
0.074777
0.004414
-0.056296
-0.095441
-0.132393
-0.151610
-0.150453
-0.150463
-0.140123
-0.088254
-0.049484
-0.003158
0.037516
0.074644
0.126214
0.163503
0.167876
0.131586
0.110198
0.087419
0.058846
0.001917
-0.043977
-0.104086
-0.160024
-0.158681
-0.148845
-0.143525
-0.114439
-0.094553
-0.049709
0.006012
0.053337
0.074382
0.106567
0.147510
0.155077
0.134527
0.110448
0.070349
0.032071
-0.005562
-0.038610
-0.090430
-0.128711
-0.168371
-0.171554
-0.160119
-0.131665
-0.071456
-0.044018
0.002953
0.042764
0.081847
0.117033
0.149422
0.150804
0.151828
0.098195
0.074384
0.036078
0.008367
-0.056219
-0.088229
-0.135975
-0.174232
-0.169454
-0.144510
-0.114758
-0.094293
-0.046155
0.010867
0.068077
0.113931
0.141076
0.150444
0.160776
0.137534
0.125232
0.078616
0.037655
-0.026541
-0.096183
-0.118150
-0.158547
-0.181569
-0.177337
-0.163378
-0.139687
-0.093799
-0.040032
0.015640
0.078435
0.104596
0.131257
0.168091
0.180460
0.163891
0.118527
0.066698
0.031981
-0.023792
-0.073379
-0.102383
-0.173159
-0.174821
-0.193664
-0.175338
-0.157837
-0.124892
-0.046474
0.031217
0.084360
0.104775
0.155287
0.150437
0.161306
0.152396
0.123947
0.098424
0.045068
-0.005107
-0.057156
-0.105776
-0.134219
-0.146040
-0.171103
-0.151179
-0.125801
-0.094872
-0.079117
-0.008230
0.038156
0.091831
0.128465
0.152460
0.146009
0.131916
0.120854
0.077669
0.028467
-0.024759
-0.070196
-0.108908
-0.142938
-0.171272
-0.180305
-0.176842
-0.142500
-0.104166
-0.066113
-0.028093
0.033313
0.077606
0.130615
0.140968
0.139606
0.129031
0.111532
0.059666
0.010298
-0.051900
-0.092818
-0.137196
-0.172677
-0.183801
-0.187288
-0.177508
-0.136772
-0.085677
-0.054476
0.000290
0.041101
0.072887
0.114735
0.134180
0.128246
0.105218
0.083408
0.047207
0.014719
-0.046323
-0.087247
-0.133039
-0.171144
-0.204477
-0.194157
-0.187332
-0.162563
-0.128570
-0.082033
-0.030580
0.019512
0.078316
0.099810
0.095777
0.085258
0.066244
0.054332
0.052434
0.012073
-0.054620
-0.084952
-0.110870
-0.145298
-0.170334
-0.175811
-0.175196
-0.135808
-0.086097
-0.020042
0.050100
0.039906
0.080857
0.149644
0.171104
0.157179
0.152272
0.115924
0.076224
0.025980
-0.033487
-0.059016
-0.083472
-0.109911
-0.126375
-0.139786
-0.134748
-0.114979
-0.058290
-0.013205
0.030985
0.098937
0.130828
0.130435
0.152998
0.189738
0.170968
0.119735
0.089357
0.042852
0.014165
-0.035962
-0.080261
-0.099728
-0.130729
-0.124782
-0.119395
-0.102645
-0.062770
-0.010271
0.047975
0.088801
0.119867
0.149775
0.159889
0.172248
0.161040
0.130212
0.091531
0.039161
-0.005342
-0.034322
-0.078605
-0.134704
-0.178081
-0.150950
-0.134659
-0.120763
-0.101640
-0.065061
-0.030544
0.028219
0.082784
0.123349
0.120478
0.116491
0.118161
0.116560
0.050113
-0.012827
-0.045292
-0.104305
-0.144878
-0.177551
-0.196418
-0.189594
-0.178708
-0.168465
-0.161382
-0.093177
-0.024813
0.026649
0.069658
0.098701
0.103096
0.104843
0.091099
0.055045
-0.010236
-0.049661
-0.092221
-0.115559
-0.141306
-0.171484
-0.220800
-0.210333
-0.193231
-0.165405
-0.133887
-0.096223
-0.047961
-0.019018
0.021485
0.049110
0.068848
0.083591
0.056948
0.023528
-0.000597
-0.025217
-0.120004
-0.169824
-0.183422
-0.192413
-0.189554
-0.190883
-0.195690
-0.160638
-0.121481
-0.090533
-0.030674
0.020577
0.046182
0.060103
0.089355
0.090652
0.060661
0.039988
0.010467
-0.024654
-0.084690
-0.132069
-0.169514
-0.178098
-0.196144
-0.197014
-0.197761
-0.191205
-0.158948
-0.125866
-0.069835
-0.026099
0.030712
0.067438
0.076211
0.065855
0.055273
0.033402
0.006450
-0.027415
-0.093165
-0.124502
-0.156878
-0.197063
-0.219561
-0.198767
-0.180477
-0.160533
-0.125594
-0.052597
0.017187
0.080619
0.130611
0.177230
0.199771
0.190823
0.219060
0.214190
0.211359
0.194174
0.147987
0.108763
0.097213
0.096926
0.117734
0.124021
0.178414
0.219700
0.289971
0.384305
0.445587
0.503865
0.586447
0.646685
0.699175
0.720654
0.757060
0.768580
0.754899
0.727971
0.676287
0.628029
0.608827
0.578634
0.537096
0.514109
0.507834
0.525776
0.455152
0.438928
0.432489
0.418075
0.392754
0.380466
0.336986
0.283097
0.234425
0.205343
0.138554
0.073110
0.006635
-0.012240
-0.020048
-0.027278
-0.078401
-0.116872
-0.116697
-0.066834
-0.057593
-0.057530
0.000933
0.081557
0.129708
0.164049
0.169417
0.152592
0.154165
0.138698
0.082163
0.048340
-0.012025
-0.063227
-0.075394
-0.118936
-0.154927
-0.183733
-0.157578
-0.142666
-0.080488
-0.074037
-0.030437
0.024966
0.054846
0.101109
0.116999
0.100252
0.094308
0.080765
0.044247
-0.021058
-0.055746
-0.076169
-0.094895
-0.121045
-0.152484
-0.158581
-0.158448
-0.158231
-0.124234
-0.060160
-0.004735
0.054447
0.059969
0.081368
0.120534
0.116699
0.098730
0.071675
0.024165
-0.012143
-0.045548
-0.076260
-0.118570
-0.147571
-0.163348
-0.172580
-0.138933
-0.097766
-0.064458
-0.022743
0.022355
0.035019
0.073075
0.105754
0.142018
0.152300
0.144410
0.130414
0.098809
0.043802
-0.039829
-0.077445
-0.088492
-0.100544
-0.115470
-0.108221
-0.116521
-0.111472
-0.071536
-0.007517
0.024083
0.070218
0.098984
0.131475
0.164025
0.161296
0.187828
0.156933
0.125873
0.075459
0.020549
-0.014310
-0.069149
-0.106935
-0.121273
-0.101326
-0.093868
-0.059931
-0.022300
0.019295
0.052299
0.085026
0.129924
0.167593
0.190993
0.197755
0.223632
0.196827
0.144367
0.080495
0.034869
-0.012118
-0.006837
-0.020391
-0.036074
-0.057116
-0.077278
-0.048511
-0.013395
0.031359
0.101704
0.160315
0.183954
0.199709
0.210745
0.225006
0.226666
0.210213
0.178333
0.143315
0.076732
0.037341
-0.005369
-0.022011
-0.048457
-0.058467
-0.041478
0.010254
0.042041
0.088683
0.117977
0.155106
0.199261
0.220382
0.236064
0.228778
0.242500
0.232134
0.193177
0.149862
0.094385
0.043732
0.008441
-0.003291
-0.040233
-0.044492
-0.031115
0.006129
0.031415
0.061302
0.105011
0.143425
0.170768
0.200627
0.206040
0.230826
0.234794
0.223104
0.194703
0.156119
0.085737
0.024785
-0.022156
-0.047120
-0.071407
-0.092526
-0.077514
-0.046074
-0.002437
0.033071
0.063030
0.108061
0.139851
0.166323
0.184199
0.171064
0.159692
0.160167
0.155157
0.089698
0.032413
-0.017349
-0.049443
-0.079857
-0.106213
-0.124611
-0.104511
-0.083767
-0.067808
-0.030105
0.030740
0.048197
0.078007
0.098138
0.112873
0.122502
0.119468
0.111793
0.056588
0.028151
-0.025465
-0.086204
-0.111394
-0.146843
-0.166266
-0.163011
-0.137327
-0.115020
-0.106682
-0.060536
-0.003136
0.046056
0.068950
0.113257
0.129094
0.116299
0.098353
0.087960
0.058486
0.012196
-0.055416
-0.091220
-0.107407
-0.131605
-0.148601
-0.155986
-0.144338
-0.143501
-0.129536
-0.086873
-0.038675
0.003752
0.033034
0.068220
0.107550
0.117211
0.100132
0.062494
0.035794
0.002921
-0.042764
-0.070372
-0.104951
-0.129063
-0.154193
-0.171539
-0.161955
-0.149124
-0.114388
-0.084872
-0.028220
0.006716
0.057806
0.080083
0.096221
0.090366
0.077235
0.075645
0.054073
0.025738
-0.027605
-0.086684
-0.109057
-0.144721
-0.141540
-0.180946
-0.173063
-0.140086
-0.108525
-0.078209
-0.038964
0.004784
0.047795
0.077694
0.097789
0.115154
0.118098
0.096354
0.052967
0.037258
-0.007470
-0.053944
-0.094289
-0.138724
-0.159612
-0.163628
-0.172910
-0.177198
-0.155878
-0.104293
-0.047590
0.027063
0.085825
0.100686
0.123516
0.126026
0.136015
0.086411
0.061883
0.002238
-0.025545
-0.061259
-0.101763
-0.144003
-0.162939
-0.161901
-0.153439
-0.133228
-0.096178
-0.056171
-0.013599
0.027440
0.074004
0.089038
0.110432
0.120287
0.134439
0.121742
0.069306
0.023106
-0.006797
-0.046440
-0.098431
-0.127003
-0.161345
-0.172490
-0.166337
-0.146748
-0.126281
-0.089347
-0.028308
0.006788
0.064533
0.104563
0.121171
0.120056
0.122840
0.106695
0.060254
0.025185
-0.024218
-0.076933
-0.124960
-0.143880
-0.165706
-0.167016
-0.177485
-0.139536
-0.105515
-0.080214
-0.034909
0.010128
0.036960
0.070921
0.093576
0.115672
0.111653
0.098342
0.074009
0.031070
-0.029184
-0.079599
-0.128578
-0.171380
-0.204662
-0.185506
-0.148141
-0.138191
-0.139704
-0.076016
0.002509
0.035603
0.055486
0.091354
0.123389
0.125829
0.120944
0.106417
0.075051
0.014885
-0.035649
-0.073727
-0.119976
-0.163959
-0.202736
-0.191877
-0.170909
-0.148033
-0.140483
-0.104446
-0.047979
-0.009316
0.054401
0.107069
0.122956
0.122725
0.111276
0.091501
0.054818
0.002368
-0.048734
-0.081669
-0.131381
-0.171612
-0.195902
-0.182765
-0.188630
-0.185312
-0.140422
-0.096081
-0.041091
0.019640
0.063887
0.096280
0.096824
0.107886
0.116335
0.094012
0.064316
0.014746
-0.049901
-0.074178
-0.123693
-0.153966
-0.200933
-0.205082
-0.174675
-0.156971
-0.109957
-0.060515
-0.007466
0.021425
0.079073
0.121313
0.143817
0.159127
0.138690
0.110893
0.059085
0.017555
-0.028454
-0.074802
-0.108792
-0.166760
-0.187130
-0.172889
-0.168437
-0.149128
-0.100365
-0.043706
0.006023
0.049408
0.089473
0.132434
0.122334
0.154916
0.155446
0.133808
0.088862
0.018215
-0.025564
-0.085699
-0.098422
-0.097952
-0.122759
-0.154063
-0.154946
-0.112644
-0.061728
-0.003920
0.041920
0.066199
0.096427
0.123769
0.152833
0.166093
0.166073
0.114100
0.074258
0.043137
-0.009240
-0.071171
-0.122799
-0.141342
-0.157183
-0.172170
-0.158664
-0.135774
-0.107742
-0.061204
-0.003079
0.050015
0.085763
0.134804
0.155605
0.147253
0.124041
0.083689
0.046094
-0.017615
-0.060433
-0.083321
-0.121664
-0.172993
-0.187838
-0.193074
-0.171198
-0.135401
-0.104105
-0.068583
-0.032335
0.001883
0.017258
0.058980
0.110499
0.109107
0.086091
0.046582
-0.009281
-0.036813
-0.081850
-0.117761
-0.164256
-0.221482
-0.218842
-0.206412
-0.203402
-0.167244
-0.137714
-0.106036
-0.058811
-0.017252
0.034465
0.059747
0.071220
0.068182
0.031347
0.046848
0.021327
-0.032792
-0.078982
-0.120468
-0.163672
-0.218056
-0.209221
-0.201974
-0.192753
-0.185638
-0.160667
-0.124099
-0.060548
-0.015746
0.027587
0.056392
0.071211
0.077941
0.052390
0.035000
0.021450
-0.007243
-0.073045
-0.135447
-0.171007
-0.187695
-0.211351
-0.210809
-0.213110
-0.189528
-0.149414
-0.110656
-0.070839
-0.034398
-0.012528
0.039000
0.068545
0.060716
0.058278
0.055733
0.013537
-0.025118
-0.098813
-0.132055
-0.177999
-0.197609
-0.213746
-0.210335
-0.193821
-0.166317
-0.131153
-0.086600
-0.050184
0.007062
0.057712
0.118303
0.168901
0.180871
0.201645
0.184512
0.147475
0.106184
0.050551
0.046244
0.050488
0.043227
0.054855
0.077821
0.099672
0.163114
0.235176
0.306382
0.357602
0.422988
0.523901
0.583683
0.617192
0.651706
0.692484
0.703813
0.704951
0.704008
0.710807
0.686985
0.657621
0.639066
0.569164
0.564646
0.575192
0.570758
0.584538
0.581335
0.581962
0.528370
0.511273
0.483000
0.435290
0.406337
0.356411
0.292425
0.226537
0.152970
0.085537
0.036483
-0.007180
-0.048110
-0.071150
-0.076976
-0.067909
-0.078723
-0.065565
-0.014898
0.037518
0.073460
0.115435
0.161764
0.157129
0.148843
0.149914
0.136781
0.098599
0.036032
-0.005130
-0.017288
-0.072144
-0.110261
-0.136008
-0.148712
-0.137812
-0.138868
-0.129115
-0.083335
-0.040341
0.023367
0.075412
0.109660
0.116043
0.105625
0.089408
0.078326
0.063461
0.046115
-0.008963
-0.065021
-0.099977
-0.137043
-0.150300
-0.137358
-0.143643
-0.128754
-0.092815
-0.049127
-0.000269
0.036794
0.061092
0.098553
0.122211
0.121910
0.118796
0.113624
0.080202
0.034424
-0.005903
-0.044508
-0.087980
-0.111104
-0.166634
-0.166281
-0.158210
-0.138434
-0.103479
-0.055414
0.006775
0.038598
0.094214
0.116980
0.128340
0.149180
0.135443
0.104616
0.088562
0.043477
-0.001562
-0.051170
-0.087717
-0.125844
-0.142988
-0.150986
-0.150309
-0.115589
-0.082264
-0.042568
0.010816
0.052512
0.105182
0.139313
0.143374
0.152183
0.164597
0.142437
0.091034
0.068586
0.034483
-0.006067
-0.039242
-0.081030
-0.106143
-0.126681
-0.121266
-0.081386
-0.041162
-0.000995
0.040652
0.089455
0.127520
0.169649
0.214620
0.212849
0.207753
0.172608
0.145722
0.110521
0.016035
-0.021937
-0.023916
-0.059143
-0.061122
-0.075562
-0.080080
-0.058851
0.002525
0.046428
0.092245
0.135267
0.185064
0.236999
0.245881
0.239782
0.247878
0.240661
0.191310
0.157975
0.101514
0.056068
-0.006105
-0.033888
-0.048871
-0.055740
-0.048261
-0.021972
0.014622
0.058475
0.112599
0.160342
0.195186
0.237118
0.249358
0.261895
0.247728
0.212143
0.190417
0.128519
0.092425
0.066378
0.017843
-0.007627
-0.036597
-0.080343
-0.072990
-0.030764
0.014384
0.056898
0.079110
0.123577
0.190200
0.203548
0.209551
0.232528
0.235226
0.219496
0.177751
0.129375
0.082188
-0.002345
-0.017338
-0.078728
-0.093904
-0.083765
-0.078461
-0.080543
-0.037391
0.008947
0.054759
0.101967
0.163215
0.201575
0.218971
0.195344
0.181145
0.181040
0.136658
0.091670
0.035964
-0.017935
-0.059871
-0.096679
-0.131719
-0.129490
-0.136251
-0.118797
-0.090414
-0.047123
0.003804
0.054186
0.103973
0.141482
0.161307
0.159693
0.138325
0.107784
0.084019
0.040702
-0.018492
-0.048978
-0.098889
-0.158160
-0.181290
-0.185485
-0.180384
-0.140708
-0.106748
-0.074108
-0.004653
0.043387
0.081821
0.115364
0.128778
0.151464
0.125206
0.094612
0.046251
0.023750
-0.041537
-0.093116
-0.136416
-0.155804
-0.175865
-0.189709
-0.172841
-0.138866
-0.133130
-0.097072
-0.043197
0.028924
0.084781
0.112065
0.120269
0.119246
0.106259
0.075133
0.034436
0.000310
-0.054647
-0.121786
-0.155484
-0.161560
-0.185359
-0.227699
-0.193287
-0.172486
-0.124024
-0.063973
-0.015417
0.021176
0.063238
0.090150
0.118288
0.136583
0.138528
0.089986
0.056137
0.026750
-0.020747
-0.076553
-0.131912
-0.165816
-0.200818
-0.174783
-0.168418
-0.122486
-0.102030
-0.060945
-0.025528
0.011199
0.061581
0.095920
0.101723
0.120666
0.126701
0.098867
0.059750
0.014434
-0.046203
-0.084596
-0.133470
-0.141459
-0.157570
-0.165870
-0.169560
-0.150675
-0.108831
-0.065551
-0.011133
0.039659
0.077594
0.095634
0.114857
0.104465
0.094810
0.068200
0.028816
-0.007041
-0.043779
-0.082555
-0.108746
-0.127353
-0.144309
-0.149015
-0.138429
-0.105922
-0.074771
-0.043524
0.008383
0.037704
0.100192
0.116335
0.138191
0.127765
0.108477
0.086823
0.049564
-0.004325
-0.041862
-0.071528
-0.129837
-0.140715
-0.148110
-0.170583
-0.170376
-0.142107
-0.125984
-0.091892
-0.025097
0.028058
0.064416
0.096605
0.110263
0.128262
0.119713
0.096096
0.050056
-0.002912
-0.059056
-0.092419
-0.106474
-0.128531
-0.162351
-0.188544
-0.191741
-0.159999
-0.096842
-0.040687
0.013935
0.044827
0.071188
0.104254
0.118603
0.115372
0.099243
0.071008
0.010580
-0.001158
-0.032261
-0.044027
-0.086948
-0.127090
-0.165985
-0.173747
-0.158521
-0.129306
-0.106388
-0.067867
-0.021575
0.029715
0.063378
0.084213
0.106991
0.096752
0.086241
0.066216
0.053177
0.028911
-0.026712
-0.061647
-0.101362
-0.136234
-0.167221
-0.182892
-0.164466
-0.160711
-0.139905
-0.097786
-0.047890
-0.009427
0.036950
0.039647
0.064530
0.096844
0.104524
0.074016
0.038391
0.007416
-0.016432
-0.052828
-0.108738
-0.140750
-0.143157
-0.176461
-0.196589
-0.164082
-0.115189
-0.083383
-0.055626
-0.021148
0.016040
0.056442
0.063537
0.092338
0.098527
0.070755
0.031586
0.006629
-0.046298
-0.090910
-0.150584
-0.157542
-0.168004
-0.185332
-0.189060
-0.172265
-0.131193
-0.086809
-0.060592
-0.024722
0.021720
0.065388
0.105947
0.114799
0.107846
0.070745
0.038585
0.006242
-0.028188
-0.061597
-0.118403
-0.155102
-0.197926
-0.196674
-0.191121
-0.179877
-0.149854
-0.097213
-0.044195
-0.000490
0.053737
0.087223
0.102339
0.130265
0.132984
0.115127
0.071412
0.020318
-0.002678
-0.035572
-0.092639
-0.115559
-0.135945
-0.180091
-0.190569
-0.160008
-0.116661
-0.077082
0.004205
0.037544
0.057376
0.103768
0.142176
0.146326
0.151700
0.132883
0.098321
0.050946
0.002111
-0.055818
-0.117138
-0.140421
-0.167607
-0.175322
-0.171345
-0.135992
-0.126766
-0.082683
-0.021321
0.028825
0.077548
0.109766
0.136342
0.148255
0.162160
0.149179
0.089504
0.052274
-0.017029
-0.070154
-0.111789
-0.146696
-0.148646
-0.140923
-0.109317
-0.123001
-0.099056
-0.045668
-0.007539
0.056973
0.095484
0.112644
0.138002
0.155010
0.134227
0.082879
0.053057
0.024723
-0.025722
-0.070700
-0.094045
-0.145774
-0.180007
-0.190530
-0.181228
-0.162190
-0.127528
-0.074275
-0.011949
0.023525
0.063126
0.089780
0.109932
0.107458
0.092000
0.078228
0.045783
-0.005815
-0.061832
-0.120448
-0.171343
-0.209970
-0.203726
-0.189053
-0.180643
-0.173678
-0.132306
-0.097398
-0.046726
0.004875
0.022896
0.056840
0.105950
0.121191
0.097343
0.056591
0.012319
-0.033467
-0.078871
-0.120972
-0.177271
-0.237545
-0.250272
-0.228137
-0.198326
-0.180769
-0.152083
-0.090516
-0.053179
-0.000068
0.029960
0.052865
0.063598
0.046319
0.042900
0.050098
0.009474
-0.045664
-0.070720
-0.129496
-0.173414
-0.210325
-0.233164
-0.235541
-0.194688
-0.188056
-0.148398
-0.093379
-0.047417
0.004627
0.047144
0.071638
0.077216
0.063668
0.055302
0.056087
-0.006058
-0.055243
-0.087798
-0.120221
-0.152381
-0.173552
-0.191255
-0.213098
-0.202195
-0.182671
-0.139918
-0.093774
-0.072915
-0.047987
0.008936
0.058964
0.076873
0.080788
0.069962
0.037350
0.011696
-0.029558
-0.104674
-0.093556
-0.127039
-0.157498
-0.152385
-0.121185
-0.092628
-0.071283
-0.011484
0.055979
0.102006
0.139910
0.197105
0.248649
0.301081
0.330169
0.320596
0.335098
0.359847
0.339636
0.337995
0.326145
0.309227
0.316987
0.330987
0.350420
0.397083
0.459210
0.523830
0.605798
0.694334
0.776194
0.863832
0.902439
0.912523
0.891253
0.892269
0.852892
0.793845
0.732649
0.662707
0.566679
0.434633
0.347822
0.274810
0.216937
0.200917
0.145656
0.133990
0.133015
0.151022
0.169926
0.192098
0.227377
0.239370
0.230968
0.206624
0.181230
0.138974
0.106095
0.050010
0.012559
-0.039298
-0.073565
-0.101524
-0.099145
-0.070185
-0.056980
-0.016322
-0.003203
0.028852
0.050426
0.071039
0.142910
0.172760
0.154149
0.129472
0.120619
0.084672
0.031423
-0.013106
-0.054408
-0.094797
-0.124122
-0.134927
-0.138836
-0.134763
-0.116207
-0.093573
-0.050739
0.009529
0.050104
0.072948
0.116732
0.135199
0.108380
0.092084
0.082481
0.055854
0.015636
-0.026716
-0.052315
-0.082301
-0.130922
-0.141912
-0.128187
-0.148598
-0.120700
-0.081336
-0.025386
0.002428
0.036645
0.090071
0.126159
0.150728
0.137869
0.114454
0.106280
0.086571
0.072771
-0.007510
-0.060138
-0.078278
-0.087301
-0.117354
-0.134244
-0.120025
-0.096350
-0.065749
-0.036224
0.006191
0.066209
0.114866
0.152124
0.174173
0.172504
0.152300
0.134318
0.113253
0.061549
0.017568
-0.024395
-0.052091
-0.072311
-0.095836
-0.100309
-0.102111
-0.086132
-0.066786
-0.018876
0.029203
0.073984
0.130946
0.177383
0.204055
0.205250
0.184326
0.164203
0.143403
0.111995
0.047877
0.007842
-0.018808
-0.059682
-0.065187
-0.082803
-0.052186
-0.017876
0.001596
0.034718
0.076907
0.130434
0.168266
0.205860
0.233076
0.239055
0.252071
0.227418
0.185060
0.156257
0.107353
0.062668
0.017377
0.005597
-0.028379
-0.036362
-0.004983
0.025633
0.031715
0.062917
0.110397
0.149654
0.184649
0.224081
0.245371
0.255024
0.261690
0.248018
0.213802
0.146942
0.107430
0.074742
0.041160
0.007537
-0.033781
-0.019193
-0.020630
-0.005634
0.030185
0.076813
0.115072
0.169167
0.221929
0.244173
0.255085
0.266250
0.275841
0.270549
0.243438
0.206095
0.143475
0.085205
0.041326
-0.009301
-0.052265
-0.046100
-0.041977
-0.018036
0.007381
0.047000
0.102348
0.133793
0.179264
0.193685
0.237268
0.251196
0.238531
0.228512
0.182653
0.134683
0.095810
0.046196
0.010364
-0.032277
-0.054960
-0.066436
-0.070402
-0.055610
-0.029191
0.003189
0.053490
0.099407
0.147697
0.175279
0.164347
0.199510
0.199464
0.167055
0.147511
0.095328
0.055184
0.014964
-0.042738
-0.079769
-0.074753
-0.082851
-0.094726
-0.084843
-0.063385
-0.005798
0.007267
0.060442
0.100828
0.136077
0.167429
0.166373
0.152434
0.114737
0.079346
0.046768
0.021817
-0.044287
-0.090916
-0.109905
-0.138596
-0.164235
-0.156554
-0.131171
-0.087814
-0.057741
-0.008208
0.046084
0.090931
0.135222
0.149153
0.144377
0.132856
0.122737
0.089308
0.044320
-0.005620
-0.053793
-0.096365
-0.147788
-0.183871
-0.187827
-0.175605
-0.135775
-0.093622
-0.038609
0.005399
0.029168
0.065566
0.099451
0.126248
0.145009
0.149929
0.132492
0.090597
0.041012
-0.007822
-0.053595
-0.100559
-0.136917
-0.150663
-0.173142
-0.162946
-0.125838
-0.106736
-0.085113
-0.047595
0.010406
0.088274
0.130783
0.153198
0.154903
0.152897
0.131496
0.096484
0.034228
-0.021902
-0.075457
-0.140708
-0.161096
-0.185102
-0.177038
-0.161113
-0.128685
-0.073159
-0.033638
0.013443
0.050597
0.097253
0.148593
0.160699
0.164504
0.143462
0.133718
0.107783
0.054895
-0.009375
-0.067343
-0.122513
-0.165805
-0.165632
-0.174232
-0.170495
-0.146855
-0.098647
-0.043258
0.018846
0.055989
0.094550
0.123108
0.164779
0.181506
0.168393
0.135645
0.081148
0.047593
-0.004671
-0.042096
-0.098907
-0.131959
-0.150662
-0.153708
-0.151342
-0.110807
-0.053570
-0.007519
0.029757
0.059674
0.108183
0.150455
0.171532
0.164203
0.148232
0.123548
0.075221
0.027028
-0.023252
-0.055205
-0.099454
-0.144819
-0.157950
-0.175321
-0.156689
-0.117567
-0.077174
-0.049917
0.017512
0.076642
0.136295
0.144518
0.160707
0.159965
0.146020
0.122703
0.068976
0.012774
-0.030933
-0.058740
-0.096595
-0.127442
-0.136515
-0.153389
-0.163528
-0.111080
-0.082821
-0.057205
0.002238
0.046558
0.071560
0.101065
0.124417
0.124339
0.126798
0.106002
0.058429
0.025271
-0.015567
-0.042589
-0.092994
-0.123066
-0.125928
-0.135208
-0.154625
-0.125495
-0.083648
-0.064455
-0.030026
0.009656
0.038183
0.078636
0.120764
0.136303
0.113309
0.092792
0.064424
0.028127
-0.027422
-0.061623
-0.086921
-0.098431
-0.115664
-0.117828
-0.111226
-0.094978
-0.077946
-0.041558
0.003851
0.058555
0.099054
0.087990
0.115983
0.110018
0.098970
0.073914
0.043158
0.034108
-0.004757
-0.046676
-0.080560
-0.107166
-0.135441
-0.145439
-0.133628
-0.137503
-0.114889
-0.075230
-0.020120
0.022342
0.057952
0.089432
0.108867
0.112005
0.098995
0.075304
0.052493
0.020694
-0.013849
-0.047356
-0.108066
-0.130032
-0.161959
-0.162762
-0.166652
-0.162153
-0.116494
-0.056629
-0.025742
0.000363
0.033012
0.075102
0.112234
0.126892
0.123699
0.094542
0.056485
0.027553
-0.014609
-0.054691
-0.102922
-0.128427
-0.166095
-0.174786
-0.144186
-0.133759
-0.103403
-0.061429
-0.033572
-0.007629
0.030390
0.082410
0.105835
0.105086
0.111251
0.087432
0.039390
0.012880
-0.018297
-0.064259
-0.111976
-0.148252
-0.129195
-0.126564
-0.145903
-0.107797
-0.073003
-0.038056
0.015442
0.063954
0.098976
0.143583
0.173988
0.184153
0.184690
0.155118
0.128282
0.085932
0.021128
-0.033277
-0.080984
-0.098406
-0.124241
-0.121234
-0.110979
-0.103458
-0.078621
-0.038682
0.023244
0.091518
0.131411
0.114441
0.166262
0.168772
0.162192
0.145816
0.106631
0.062241
0.025205
-0.041549
-0.088225
-0.105172
-0.109344
-0.103122
-0.096666
-0.068117
-0.060819
-0.029074
0.049232
0.093538
0.137952
0.171768
0.176034
0.175127
0.158711
0.133670
0.111448
0.063509
0.004397
-0.041947
-0.103077
-0.125040
-0.146298
-0.154713
-0.164742
-0.152429
-0.103151
-0.075964
-0.019155
0.058258
0.107186
0.111109
0.119793
0.124917
0.106003
0.077369
0.043285
0.035223
-0.009541
-0.049684
-0.090479
-0.136278
-0.143884
-0.145116
-0.145958
-0.122949
-0.086800
-0.063920
-0.019610
0.022069
0.072555
0.109798
0.136386
0.130299
0.119331
0.083785
0.030295
-0.011267
-0.052120
-0.101675
-0.164035
-0.191989
-0.184480
-0.196822
-0.186418
-0.154087
-0.117041
-0.055125
-0.029296
0.024940
0.068561
0.092672
0.092296
0.083052
0.083214
0.073783
0.022731
-0.019864
-0.074292
-0.117433
-0.143967
-0.171772
-0.173133
-0.181613
-0.180130
-0.150312
-0.114698
-0.084352
-0.021993
0.026373
0.052462
0.080244
0.093889
0.088598
0.074265
0.059751
0.018353
-0.018352
-0.067429
-0.111247
-0.141731
-0.160716
-0.189080
-0.198617
-0.179899
-0.138973
-0.107192
-0.056190
-0.008569
0.034435
0.089798
0.102959
0.099490
0.092131
0.091846
0.047410
0.004942
-0.042494
-0.086358
-0.085559
-0.124221
-0.159179
-0.181144
-0.195664
-0.161839
-0.140569
-0.080491
-0.025747
0.041611
0.086467
0.131920
0.179933
0.225182
0.241441
0.246960
0.231670
0.215141
0.194703
0.171752
0.157546
0.135158
0.134665
0.153245
0.164197
0.220349
0.278865
0.342262
0.441100
0.528288
0.617986
0.670433
0.739335
0.799651
0.833509
0.870949
0.878941
0.875799
0.851603
0.762767
0.715604
0.690569
0.648030
0.603532
0.577109
0.557182
0.544054
0.501656
0.474837
0.435411
0.411763
0.407787
0.395388
0.373283
0.342306
0.305261
0.244281
0.210102
0.180737
0.140432
0.075337
0.016712
-0.012836
-0.039365
-0.046584
-0.044732
-0.041887
-0.018522
0.037906
0.085130
0.123193
0.157435
0.169438
0.187685
0.198277
0.198590
0.180160
0.111817
0.049037
-0.000946
-0.029965
-0.058344
-0.105020
-0.118404
-0.128755
-0.124576
-0.081173
-0.053689
-0.029155
0.005807
0.051861
0.099571
0.134026
0.147247
0.155540
0.148218
0.134101
0.086729
0.040690
0.002833
-0.060419
-0.092062
-0.121740
-0.124540
-0.132980
-0.126183
-0.112923
-0.096378
-0.017488
0.013863
0.069410
0.084360
0.125712
0.135397
0.124847
0.120988
0.110308
0.089361
0.045455
-0.004110
-0.034440
-0.081728
-0.116159
-0.129251
-0.135909
-0.119790
-0.102394
-0.063862
-0.022689
0.020830
0.068783
0.112538
0.146797
0.170042
0.188197
0.173504
0.152783
0.125261
0.076545
0.015699
-0.019130
-0.051095
-0.085755
-0.113947
-0.114849
-0.101806
-0.064867
-0.032258
-0.008892
0.038741
0.109534
0.164021
0.178484
0.201744
0.213850
0.191343
0.176791
0.146423
0.098152
0.034804
0.011464
-0.000124
-0.049857
-0.103871
-0.117095
-0.078980
-0.030442
-0.021484
0.030296
0.083925
0.131036
0.162900
0.207110
0.228751
0.242767
0.246589
0.212585
0.176502
0.138329
0.100610
0.062440
-0.000344
-0.008099
-0.051268
-0.063032
-0.053167
-0.033030
0.039198
0.079710
0.090217
0.165174
0.234096
0.258169
0.276311
0.272913
0.279479
0.253081
0.211863
0.166365
0.120038
0.080251
0.042436
0.005457
-0.007648
-0.023836
-0.022329
-0.010947
0.030965
0.079834
0.139665
0.161720
0.199076
0.230712
0.254134
0.264322
0.260911
0.243287
0.220163
0.185294
0.124847
0.090323
0.023434
0.010454
0.015302
-0.001109
-0.026954
0.017311
0.053736
0.088847
0.129763
0.164375
0.200645
0.227788
0.241048
0.238851
0.234191
0.212170
0.180898
0.129149
0.116683
0.069178
0.014170
-0.019734
-0.041758
-0.042003
-0.035985
0.001542
0.020044
0.043897
0.086413
0.141141
0.196295
0.228589
0.249917
0.243927
0.232420
0.208561
0.166498
0.122213
0.085587
0.013252
-0.049625
-0.063377
-0.066512
-0.068560
-0.072977
-0.051484
-0.022383
0.005977
0.052984
0.104295
0.154119
0.135691
0.158048
0.180605
0.178906
0.169962
0.140909
0.093463
0.008736
-0.065995
-0.083006
-0.083963
-0.114851
-0.128357
-0.140774
-0.101188
-0.074563
-0.022127
0.020994
0.079438
0.112685
0.129137
0.142518
0.156046
0.131882
0.099583
0.059330
0.015678
-0.022236
-0.060639
-0.110780
-0.155001
-0.156653
-0.153483
-0.150248
-0.133577
-0.100992
-0.066936
-0.005372
0.056315
0.112856
0.145816
0.182353
0.177283
0.160436
0.140029
0.093216
0.037389
-0.013289
-0.050128
-0.084208
-0.113576
-0.134858
-0.132264
-0.121432
-0.109614
-0.078315
-0.040605
-0.002139
0.036722
0.106866
0.124693
0.143968
0.133266
0.134561
0.114678
0.064924
0.023472
0.000094
-0.043565
-0.084063
-0.099924
-0.126444
-0.131091
-0.115171
-0.111473
-0.087605
-0.052504
0.012384
0.061783
0.103007
0.146289
0.140390
0.146446
0.132058
0.108327
0.092609
0.053476
-0.010956
-0.060693
-0.099135
-0.126366
-0.148626
-0.148417
-0.137452
-0.131080
-0.093902
-0.043359
0.006891
0.052778
0.089295
0.098836
0.108318
0.127555
0.145464
0.101148
0.078204
0.046455
0.013808
-0.030648
-0.080468
-0.097645
-0.120036
-0.130108
-0.109098
-0.095220
-0.066043
-0.022383
0.034191
0.086123
0.100522
0.119732
0.146861
0.161529
0.152277
0.143907
0.111168
0.067715
0.017535
-0.041802
-0.068288
-0.095077
-0.122566
-0.138752
-0.137793
-0.110894
-0.056018
-0.007126
0.032385
0.079113
0.120378
0.119982
0.143468
0.148260
0.122635
0.107705
0.079977
0.037777
-0.004689
-0.049432
-0.089020
-0.111853
-0.133370
-0.139302
-0.135893
-0.113642
-0.093191
-0.054744
0.005464
0.046719
0.071931
0.108652
0.116557
0.140471
0.153495
0.127674
0.094486
0.049343
0.001925
-0.040127
-0.084289
-0.105756
-0.123055
-0.130525
-0.162798
-0.152266
-0.095707
-0.047513
-0.004701
0.041325
0.090821
0.107743
0.125183
0.111759
0.112685
0.105006
0.076050
0.019868
-0.020143
-0.067421
-0.109562
-0.148025
-0.161119
-0.169009
-0.154964
-0.131603
-0.097348
-0.058714
-0.011159
0.021121
0.077369
0.122644
0.148321
0.143737
0.139146
0.103913
0.066268
0.031470
-0.014866
-0.061192
-0.093420
-0.135563
-0.168704
-0.186387
-0.161762
-0.139688
-0.089864
-0.046741
0.004592
0.044894
0.098262
0.117923
0.126598
0.126753
0.138236
0.127992
0.078118
0.030184
-0.038894
-0.078891
-0.111935
-0.153350
-0.182423
-0.174698
-0.161648
-0.132698
-0.099665
-0.052459
-0.004962
0.031046
0.066748
0.092875
0.124149
0.132231
0.120533
0.111255
0.065690
0.018208
-0.037726
-0.088802
-0.125362
-0.155956
-0.179482
-0.147254
-0.144699
-0.147352
-0.112573
-0.068344
-0.025589
0.007365
0.043044
0.075157
0.105083
0.098095
0.103852
0.111347
0.064693
0.008191
-0.019471
-0.066615
-0.107403
-0.145143
-0.164489
-0.172021
-0.169706
-0.143447
-0.093039
-0.072808
-0.024339
0.035030
0.083486
0.095245
0.127933
0.128728
0.137851
0.119653
0.065532
0.016311
-0.024275
-0.047057
-0.096510
-0.146217
-0.165970
-0.168011
-0.152584
-0.115634
-0.069821
-0.025250
0.029357
0.068762
0.115769
0.135541
0.152442
0.154232
0.155146
0.129567
0.090536
0.060524
0.024303
-0.019613
-0.060524
-0.086661
-0.113192
-0.123629
-0.134311
-0.110816
-0.076908
-0.037864
0.000607
0.039860
0.104573
0.139498
0.164924
0.163839
0.145971
0.143848
0.091022
0.030310
-0.004388
-0.033042
-0.067627
-0.086954
-0.120583
-0.111809
-0.096498
-0.087513
-0.058066
-0.025396
0.022069
0.085799
0.115028
0.127370
0.158435
0.164608
0.147548
0.106099
0.068333
0.026985
-0.018929
-0.054844
-0.096152
-0.117785
-0.127815
-0.152906
-0.157060
-0.135850
-0.099900
-0.074394
-0.036387
0.022048
0.091876
0.127769
0.143476
0.151416
0.132075
0.094792
0.060720
0.028344
-0.020243
-0.073185
-0.130609
-0.151735
-0.153725
-0.149323
-0.167149
-0.157499
-0.121074
-0.074499
-0.029981
0.014699
0.046326
0.084140
0.092538
0.105803
0.088943
0.068317
0.027980
-0.007236
-0.055768
-0.098292
-0.139847
-0.162008
-0.185949
-0.200809
-0.198931
-0.165919
-0.132695
-0.086925
-0.047456
0.000127
0.030586
0.055030
0.049885
0.061444
0.095594
0.073881
0.025819
-0.005855
-0.074521
-0.117410
-0.143994
-0.165082
-0.179667
-0.188173
-0.186342
-0.165908
-0.133210
-0.091185
-0.048303
-0.014139
0.013067
0.025901
0.048139
0.070452
0.076590
0.054826
0.034783
-0.009367
-0.074340
-0.125597
-0.151739
-0.172707
-0.176333
-0.173744
-0.179989
-0.158415
-0.117184
-0.085392
-0.037088
0.020075
0.054148
0.066278
0.087726
0.100191
0.072332
0.044171
0.007069
-0.026138
-0.087339
-0.147556
-0.154090
-0.170854
-0.202480
-0.198564
-0.164952
-0.115662
-0.082190
-0.046799
0.009554
0.084258
0.138839
0.199085
0.246448
0.218585
0.230159
0.232662
0.218167
0.177845
0.161465
0.140185
0.140493
0.148495
0.162596
0.202966
0.266957
0.321544
0.377659
0.453605
0.538005
0.588101
0.662103
0.711990
0.790503
0.851294
0.865938
0.875695
0.854339
0.813427
0.765508
0.708916
0.641329
0.570814
0.537229
0.513263
0.486032
0.466056
0.428913
0.412222
0.417959
0.412653
0.405949
0.376007
0.333410
0.299712
0.295118
0.258594
0.211958
0.176140
0.116932
0.059367
0.006497
-0.027075
-0.046602
-0.074014
-0.094237
-0.055919
-0.026482
0.004129
0.039476
0.065349
0.105527
0.134080
0.184339
0.196578
0.200766
0.166245
0.105146
0.039586
-0.013867
-0.030036
-0.032090
-0.082719
-0.126128
-0.146558
-0.131889
-0.094538
-0.074266
-0.012418
0.032814
0.064355
0.090377
0.127083
0.155816
0.147812
0.136347
0.105153
0.062985
0.028975
-0.019120
-0.074100
-0.109577
-0.135136
-0.156981
-0.175012
-0.175328
-0.136914
-0.117910
-0.057699
-0.007551
0.035531
0.086563
0.101422
0.119089
0.136135
0.138228
0.114281
0.082738
0.026993
-0.011383
-0.048399
-0.097460
-0.121143
-0.142363
-0.143454
-0.131849
-0.107418
-0.086058
-0.042932
0.010062
0.056076
0.101728
0.135389
0.148065
0.180458
0.174535
0.131311
0.117570
0.094560
0.041919
-0.019202
-0.063479
-0.108009
-0.143133
-0.140719
-0.111861
-0.091935
-0.063683
-0.021860
0.017625
0.063767
0.112558
0.146519
0.171468
0.177320
0.174292
0.150046
0.114209
0.084055
0.045897
0.003592
-0.024350
-0.054575
-0.074614
-0.088243
-0.088820
-0.057331
-0.030202
0.016217
0.084554
0.126996
0.155507
0.193979
0.209280
0.215674
0.214323
0.184776
0.139425
0.105019
0.057894
0.027619
-0.013106
-0.047090
-0.064773
-0.080684
-0.067727
-0.034816
0.002481
0.048875
0.082612
0.110100
0.164015
0.216354
0.236750
0.228266
0.242615
0.248902
0.206596
0.153096
0.110878
0.056563
0.012393
-0.016529
-0.046932
-0.058980
-0.045079
0.000755
0.043406
0.080234
0.130659
0.171239
0.217041
0.256543
0.292347
0.293568
0.282974
0.239825
0.208577
0.183291
0.085403
0.035357
0.005687
-0.036743
-0.046478
-0.032681
-0.030901
-0.008178
0.020904
0.072805
0.115769
0.155360
0.202437
0.229221
0.240665
0.240164
0.244207
0.212458
0.180392
0.134830
0.081295
0.034002
-0.011577
-0.040686
-0.061025
-0.063241
-0.058520
-0.037581
0.017583
0.048789
0.083514
0.131066
0.164393
0.181161
0.200760
0.194559
0.179186
0.159419
0.125773
0.059258
0.016249
0.003178
-0.048496
-0.072345
-0.103283
-0.099886
-0.094238
-0.072931
-0.056165
-0.005790
0.043819
0.070527
0.122277
0.160223
0.172484
0.167420
0.142132
0.117263
0.087255
0.030694
-0.034569
-0.059903
-0.093812
-0.105472
-0.146762
-0.165173
-0.142828
-0.108061
-0.089607
-0.057966
-0.011266
0.039490
0.086741
0.119979
0.136228
0.131889
0.116108
0.091119
0.069897
0.031241
-0.015397
-0.058445
-0.098557
-0.122067
-0.157037
-0.177171
-0.157047
-0.144109
-0.131450
-0.054356
-0.009458
0.015952
0.068081
0.093844
0.104925
0.122790
0.110336
0.087363
0.036183
0.020878
-0.012606
-0.062024
-0.094371
-0.152638
-0.175416
-0.169778
-0.152311
-0.147410
-0.108200
-0.058174
0.002473
0.038302
0.084435
0.109524
0.125967
0.116454
0.109292
0.097015
0.068067
0.021978
-0.030723
-0.074727
-0.127839
-0.142831
-0.151729
-0.149989
-0.147461
-0.152512
-0.116130
-0.063824
-0.015806
0.029294
0.073741
0.120111
0.132994
0.133391
0.109752
0.091873
0.071076
0.022447
-0.035688
-0.066466
-0.099306
-0.112672
-0.126265
-0.152182
-0.166289
-0.140198
-0.102701
-0.047914
-0.012429
0.028526
0.074814
0.109374
0.142050
0.155688
0.140186
0.102116
0.060758
0.031472
-0.008906
-0.026936
-0.077662
-0.108647
-0.151174
-0.155379
-0.158147
-0.113849
-0.067529
-0.028878
0.013121
0.052837
0.067971
0.092671
0.141226
0.141986
0.126415
0.108902
0.073972
0.026589
-0.023229
-0.064602
-0.094567
-0.109166
-0.147385
-0.159533
-0.147320
-0.142125
-0.139450
-0.072678
-0.001308
0.043841
0.068139
0.093655
0.130886
0.146170
0.143450
0.115711
0.067629
0.022829
-0.019618
-0.085184
-0.142373
-0.176288
-0.200806
-0.194979
-0.183478
-0.151776
-0.108104
-0.042287
0.006044
0.048069
0.091820
0.120296
0.140681
0.144543
0.130865
0.103320
0.069681
0.019460
-0.035231
-0.082465
-0.130138
-0.146350
-0.162957
-0.172692
-0.186847
-0.167825
-0.128351
-0.060583
0.007140
0.028179
0.088985
0.117240
0.092808
0.077684
0.079936
0.090280
0.046891
0.013221
-0.042598
-0.087567
-0.118850
-0.140788
-0.180281
-0.184229
-0.150092
-0.120558
-0.099713
-0.052654
-0.033210
0.010778
0.066445
0.105940
0.116918
0.099559
0.090355
0.077459
0.048787
-0.002971
-0.059860
-0.097734
-0.155132
-0.193497
-0.198012
-0.192424
-0.189486
-0.184663
-0.131287
-0.062090
-0.005775
0.006315
0.042476
0.087111
0.112605
0.109489
0.100787
0.074526
0.045183
-0.001066
-0.043944
-0.084456
-0.127167
-0.135964
-0.160503
-0.174612
-0.161239
-0.152814
-0.113147
-0.080323
-0.040103
0.006543
0.056076
0.093732
0.077350
0.098945
0.104174
0.072119
0.036354
-0.006956
-0.061959
-0.108444
-0.136910
-0.148143
-0.171463
-0.169818
-0.170945
-0.154778
-0.130260
-0.103445
-0.062412
-0.009358
0.039742
0.071795
0.089145
0.086396
0.094085
0.070439
0.029488
-0.018599
-0.063607
-0.098549
-0.120679
-0.150784
-0.173573
-0.174243
-0.172738
-0.157815
-0.113453
-0.067902
-0.035099
0.010299
0.053397
0.085410
0.092920
0.103961
0.104879
0.083569
0.031189
-0.002583
-0.020625
-0.033853
-0.087239
-0.108366
-0.131337
-0.136677
-0.127256
-0.146516
-0.107104
-0.054304
-0.022207
0.046046
0.094348
0.125990
0.122321
0.117043
0.129718
0.146034
0.104114
0.040140
0.003495
-0.059277
-0.093181
-0.110545
-0.123606
-0.134864
-0.124374
-0.105797
-0.069406
-0.030505
0.035265
0.088762
0.108986
0.122683
0.147802
0.164105
0.150318
0.143987
0.115581
0.065596
0.002942
-0.049769
-0.099041
-0.125000
-0.147532
-0.163446
-0.155416
-0.120303
-0.107644
-0.074826
-0.032125
-0.006980
0.038789
0.076653
0.105645
0.112915
0.088178
0.071416
0.048436
-0.005316
-0.052293
-0.101474
-0.141432
-0.181693
-0.206323
-0.221243
-0.204260
-0.172036
-0.135299
-0.088158
-0.031757
-0.007679
0.029693
0.032641
0.108550
0.124123
0.115080
0.089765
0.066786
0.012185
-0.051293
-0.104024
-0.139130
-0.168208
-0.193796
-0.203533
-0.181862
-0.163669
-0.152199
-0.129613
-0.082498
-0.018035
0.027326
0.048530
0.084781
0.078003
0.068663
0.046771
0.003113
-0.028413
-0.088622
-0.117974
-0.141238
-0.183559
-0.226170
-0.226519
-0.217767
-0.197251
-0.156709
-0.119710
-0.061512
-0.023061
0.001295
0.030005
0.064833
0.102086
0.092784
0.071573
0.033839
-0.017185
-0.066478
-0.101845
-0.199752
-0.214104
-0.224363
-0.227081
-0.210276
-0.197272
-0.179526
-0.125784
-0.071736
-0.032597
0.022584
0.049444
0.057318
0.062159
0.070690
0.065537
0.026061
-0.028201
-0.081557
-0.131101
-0.168517
-0.209725
-0.234313
-0.239102
-0.237365
-0.213580
-0.193388
-0.145646
-0.090027
-0.038512
0.022047
0.046320
0.073080
0.086456
0.089027
0.071220
0.044773
-0.007409
-0.022005
-0.055777
-0.066051
-0.090984
-0.096967
-0.089485
-0.053630
-0.026538
0.010737
0.093267
0.176078
0.262185
0.323506
0.395869
0.467341
0.502236
0.516930
0.520640
0.520961
0.507119
0.502991
0.489613
0.459349
0.490976
0.516551
0.537817
0.571114
0.614147
0.645065
0.688602
0.755101
0.797152
0.806615
0.818848
0.823845
0.805253
0.741242
0.641812
0.532733
0.428243
0.342703
0.248162
0.150006
0.094254
0.038399
-0.013121
-0.051541
-0.039300
0.008117
0.066715
0.107940
0.145870
0.163703
0.183339
0.189001
0.198817
0.184893
0.148744
0.111898
0.070745
0.011940
-0.028183
-0.076940
-0.112186
-0.127982
-0.147189
-0.140005
-0.106262
-0.094606
-0.054609
-0.010183
0.044170
0.094595
0.113996
0.117395
0.123556
0.116332
0.090531
0.048414
0.010512
-0.037338
-0.086851
-0.128508
-0.158842
-0.183473
-0.201841
-0.210467
-0.172026
-0.129187
-0.056285
0.004145
0.054012
0.105219
0.134310
0.144211
0.145490
0.142714
0.106589
0.079363
0.035815
-0.018317
-0.068755
-0.126059
-0.158494
-0.172513
-0.160594
-0.153835
-0.148262
-0.127136
-0.078995
-0.007550
0.023237
0.061670
0.082311
0.108877
0.145035
0.145466
0.109768
0.080107
0.041139
-0.030540
-0.055572
-0.095312
-0.128413
-0.152502
-0.156241
-0.130657
-0.111651
-0.068717
-0.025382
0.018984
0.065051
0.103283
0.142826
0.145683
0.155809
0.163854
0.126764
0.096257
0.053144
-0.001845
-0.053210
-0.090229
-0.128165
-0.134942
-0.131016
-0.128920
-0.097686
-0.058444
-0.017469
0.030124
0.084830
0.115961
0.191079
0.231284
0.205464
0.189455
0.174114
0.133503
0.083308
0.047852
0.009015
-0.046098
-0.068261
-0.085849
-0.098589
-0.099998
-0.061956
-0.035292
0.024520
0.067250
0.103342
0.165005
0.188826
0.220490
0.216135
0.198470
0.178168
0.173200
0.113133
0.072219
0.040782
0.006611
-0.011928
-0.014591
-0.029901
-0.050341
-0.023381
0.003321
0.045736
0.093787
0.135515
0.190384
0.219576
0.246062
0.245001
0.221780
0.189174
0.170558
0.121626
0.092808
0.056671
0.016411
-0.040904
-0.047685
-0.041101
-0.032544
-0.013962
0.024752
0.069579
0.123588
0.172695
0.220678
0.232323
0.230352
0.219879
0.222872
0.218384
0.194232
0.133155
0.077226
0.041161
-0.017765
-0.064571
-0.069096
-0.055874
-0.046740
-0.030406
-0.009482
0.032971
0.071941
0.108572
0.152983
0.182588
0.191195
0.186646
0.183740
0.182904
0.146592
0.088451
0.040105
0.016202
-0.015905
-0.055815
-0.076766
-0.071560
-0.067931
-0.054795
-0.020998
0.002799
0.054754
0.105996
0.113306
0.123209
0.141065
0.160280
0.146956
0.138451
0.091989
0.032388
-0.006177
-0.083611
-0.120172
-0.107965
-0.107980
-0.130631
-0.146007
-0.101264
-0.064911
-0.038254
0.011533
0.052480
0.105343
0.142457
0.167663
0.182993
0.166077
0.103257
0.063377
0.028645
-0.018083
-0.051179
-0.092746
-0.128755
-0.182633
-0.206892
-0.216016
-0.133819
-0.107242
-0.089019
-0.030428
0.009632
0.058478
