-0.058015
-0.005363
0.028638
0.076753
0.098301
0.105838
0.093880
0.079445
0.044656
0.000098
-0.045668
-0.094886
-0.142001
-0.172212
-0.186131
-0.193298
-0.185014
-0.168429
-0.127852
-0.102797
-0.061069
-0.004184
0.032123
0.073185
0.119182
0.123495
0.109440
0.099719
0.052518
0.017648
-0.025625
-0.081551
-0.121624
-0.168060
-0.197260
-0.210793
-0.208352
-0.193811
-0.166229
-0.131252
-0.083459
-0.041314
-0.005715
0.029640
0.068019
0.076464
0.069446
0.052345
0.011033
-0.028648
-0.058783
-0.111451
-0.176222
-0.200962
-0.233712
-0.246592
-0.240231
-0.232445
-0.215105
-0.172150
-0.117609
-0.078770
-0.023317
0.013379
0.041550
0.050310
0.033366
0.027711
-0.013097
-0.063287
-0.112425
-0.152144
-0.202167
-0.239140
-0.267948
-0.277355
-0.262612
-0.247588
-0.202538
-0.154144
-0.119762
-0.075157
-0.043384
0.010243
0.026817
0.035527
0.022683
0.004577
-0.033376
-0.077462
-0.125681
-0.154259
-0.194603
-0.220110
-0.241776
-0.256474
-0.265814
-0.253174
-0.222601
-0.190821
-0.135801
-0.084244
-0.037600
0.003360
0.036590
0.026939
0.024194
0.000661
-0.032086
-0.061269
-0.111707
-0.154136
-0.209749
-0.245646
-0.270925
-0.261821
-0.259924
-0.252614
-0.230473
-0.178069
-0.116250
-0.083433
-0.039745
0.009408
0.035376
0.039629
0.021564
-0.000440
-0.036805
-0.088092
-0.143208
-0.176363
-0.211127
-0.251579
-0.279219
-0.286642
-0.279719
-0.237423
-0.198143
-0.152767
-0.095665
-0.028466
0.042053
0.071984
0.109176
0.150344
0.160254
0.152402
0.123999
0.096822
0.065501
0.043227
0.022421
0.024846
0.037253
0.056220
0.070171
0.115257
0.186298
0.266598
0.349772
0.414555
0.481306
0.555778
0.621287
0.660908
0.698458
0.709461
0.714932
0.705536
0.679440
0.626082
0.604260
0.557871
0.503089
0.496717
0.484892
0.493115
0.490095
0.488407
0.465420
0.440991
0.415970
0.407187
0.365682
0.322950
0.280440
0.216108
0.154498
0.098605
0.039099
-0.024055
-0.078202
-0.112335
-0.153891
-0.173828
-0.173875
-0.147121
-0.115353
-0.074192
-0.024788
0.027456
0.072625
0.091192
0.107834
0.116744
0.105730
0.084577
0.045636
-0.004644
-0.057884
-0.105609
-0.145470
-0.174580
-0.197384
-0.204948
-0.207500
-0.189311
-0.150554
-0.119052
-0.083476
-0.035467
0.003674
0.033575
0.053262
0.056619
0.056954
0.043954
0.021929
-0.018979
-0.073209
-0.113885
-0.174556
-0.212727
-0.238637
-0.252160
-0.252867
-0.231054
-0.175917
-0.128379
-0.078045
-0.039219
0.004735
0.036908
0.041106
0.058870
0.055791
0.036174
-0.002675
-0.017414
-0.066143
-0.130208
-0.175200
-0.183901
-0.219062
-0.221694
-0.203942
-0.196314
-0.177390
-0.133954
-0.078827
-0.030383
0.016946
0.039555
0.065254
0.078238
0.067276
0.060454
0.025496
-0.002358
-0.044218
-0.086709
-0.142452
-0.170466
-0.191424
-0.204906
-0.194267
-0.182482
-0.142930
-0.102182
-0.059669
-0.006345
0.022375
0.053803
0.078395
0.093567
0.095285
0.080510
0.046353
0.008755
-0.040309
-0.101484
-0.158471
-0.175671
-0.185763
-0.190980
-0.161736
-0.139010
-0.120128
-0.073486
-0.007748
0.032638
0.064811
0.078175
0.088715
0.118253
0.119809
0.109111
0.069554
0.026440
-0.015431
-0.067148
-0.107745
-0.138112
-0.154920
-0.149182
-0.142654
-0.121534
-0.095397
-0.067735
-0.026081
0.024948
0.084649
0.126220
0.139892
0.155054
0.155516
0.133217
0.090664
0.059358
0.026784
-0.003776
-0.080134
-0.118267
-0.134036
-0.164854
-0.152827
-0.125072
-0.097910
-0.049116
-0.000507
0.047142
0.090627
0.134352
0.169040
0.163228
0.151443
0.130600
0.093634
0.061014
0.004058
-0.051832
-0.087750
-0.115286
-0.136313
-0.146375
-0.139574
-0.132216
-0.098332
-0.050361
0.002736
0.062600
0.087238
0.123082
0.136575
0.145497
0.131967
0.124873
0.080149
0.027979
-0.039586
-0.067995
-0.094266
-0.130347
-0.172564
-0.183768
-0.172825
-0.158959
-0.132245
-0.090880
-0.040059
0.007455
0.064181
0.103465
0.114710
0.124202
0.114775
0.089628
0.051221
0.009905
-0.035335
-0.078332
-0.121985
-0.163033
-0.190085
-0.203325
-0.200011
-0.183364
-0.147065
-0.108269
-0.059422
-0.014984
0.028775
0.027455
0.061680
0.097816
0.083360
0.044557
0.010987
-0.021718
-0.070338
-0.118826
-0.162327
-0.205253
-0.231624
-0.241222
-0.234776
-0.194908
-0.155381
-0.112026
-0.084848
-0.034978
0.006558
0.046331
0.059752
0.071334
0.067793
0.051501
0.024434
-0.023644
-0.077914
-0.156074
-0.197763
-0.203062
-0.207979
-0.223374
-0.233768
-0.237483
-0.203981
-0.134835
-0.096790
-0.040341
-0.019011
0.018898
0.044313
0.070745
0.049081
0.043297
-0.014438
-0.066471
-0.097651
-0.127417
-0.163123
-0.194358
-0.216612
-0.242715
-0.240749
-0.223132
-0.179980
-0.128614
-0.075194
-0.038718
-0.009841
0.016553
0.052798
0.054752
0.048925
0.042983
0.006766
-0.022066
-0.069038
-0.126028
-0.172552
-0.190423
-0.208047
-0.218743
-0.211141
-0.200567
-0.186634
-0.136655
-0.076405
-0.029389
0.004765
0.033528
0.039770
0.056405
0.059950
0.044515
-0.001920
-0.042374
-0.082185
-0.124273
-0.170119
-0.203777
-0.223467
-0.241326
-0.251338
-0.231473
-0.175215
-0.118255
-0.085137
-0.025028
0.023088
0.058213
0.081582
0.106631
0.094506
0.066605
0.035779
-0.006845
-0.072810
-0.127123
-0.170384
-0.207223
-0.229348
-0.240161
-0.234495
-0.214627
-0.176413
-0.127922
-0.062954
-0.012352
0.025299
0.038184
0.056870
0.076432
0.074436
0.045920
0.001441
-0.043323
-0.073810
-0.122601
-0.183886
-0.213344
-0.224301
-0.232027
-0.221961
-0.209456
-0.155752
-0.129616
-0.085986
-0.030709
0.019701
0.062383
0.105859
0.097155
0.059885
0.021524
-0.003161
-0.048074
-0.087683
-0.131881
-0.179216
-0.216611
-0.230616
-0.241028
-0.246269
-0.222617
-0.172503
-0.138498
-0.084572
-0.043874
0.011119
0.031512
0.050777
0.072727
0.073349
0.047976
0.000742
-0.040657
-0.086318
-0.135234
-0.184211
-0.215376
-0.247281
-0.253132
-0.245058
-0.225898
-0.197882
-0.144360
-0.091483
-0.025158
0.013054
0.021307
0.041300
0.023254
0.032047
0.011683
-0.028524
-0.060826
-0.079998
-0.129174
-0.174881
-0.207075
-0.240799
-0.258599
-0.246358
-0.215249
-0.186891
-0.158652
-0.099519
-0.031730
-0.016799
0.025882
0.054243
0.067598
0.065553
0.050310
0.016945
-0.028243
-0.080227
-0.128778
-0.165732
-0.227052
-0.242853
-0.240571
-0.222649
-0.186977
-0.166306
-0.132347
-0.070096
-0.022042
0.023213
0.075367
0.078378
0.081014
0.089259
0.078975
0.040249
0.002926
-0.051743
-0.105296
-0.161483
-0.185026
-0.199209
-0.217588
-0.216887
-0.209712
-0.179545
-0.125928
-0.077807
-0.029187
0.028638
0.062576
0.090531
0.110063
0.107993
0.075333
0.044556
0.005463
-0.030976
-0.098394
-0.130759
-0.171066
-0.195839
-0.200221
-0.189275
-0.167774
-0.140435
-0.104035
-0.058259
-0.014933
0.029495
0.051086
0.065301
0.089936
0.087460
0.072429
0.028078
-0.016561
-0.072919
-0.108549
-0.160827
-0.197833
-0.228710
-0.255833
-0.230038
-0.211287
-0.177641
-0.133391
-0.097860
-0.059478
-0.033881
-0.002744
0.015955
0.041448
0.040622
0.017213
-0.021418
-0.060986
-0.120631
-0.176214
-0.218900
-0.249272
-0.267191
-0.256485
-0.260988
-0.256191
-0.217857
-0.167471
-0.127962
-0.086526
-0.041038
-0.004130
0.022569
0.029712
0.024910
0.011798
-0.024852
-0.077430
-0.127376
-0.177297
-0.227748
-0.278945
-0.281683
-0.278071
-0.269803
-0.255157
-0.235466
-0.186193
-0.133549
-0.085989
-0.040953
-0.017453
0.016404
0.020127
0.003632
-0.024919
-0.041596
-0.075254
-0.123417
-0.167879
-0.212261
-0.252358
-0.280474
-0.272889
-0.274106
-0.268818
-0.236579
-0.201481
-0.143892
-0.078652
-0.034026
-0.004196
0.004694
0.031254
0.018358
0.001899
-0.043434
-0.079006
-0.123788
-0.186932
-0.233015
-0.262180
-0.286876
-0.299310
-0.291118
-0.274079
-0.231845
-0.185763
-0.146959
-0.096879
-0.063075
-0.045298
-0.012969
0.022444
0.016076
-0.004214
-0.022750
-0.071517
-0.111685
-0.149979
-0.183679
-0.196652
-0.211034
-0.191453
-0.171389
-0.131283
-0.085302
-0.035972
0.016969
0.072571
0.143757
0.200004
0.235864
0.269195
0.302997
0.300775
0.300664
0.290883
0.264086
0.242484
0.234534
0.237699
0.260092
0.289436
0.325327
0.390658
0.464740
0.536966
0.647981
0.711390
0.758177
0.809376
0.826626
0.821622
0.803281
0.759808
0.720478
0.662439
0.596147
0.504827
0.413968
0.307769
0.205362
0.136840
0.087676
0.043143
0.033695
0.026934
0.077428
0.096140
0.114945
0.155731
0.180126
0.181626
0.159926
0.109035
0.063837
0.014231
-0.026085
-0.080261
-0.120216
-0.151426
-0.173565
-0.178877
-0.168376
-0.164411
-0.135118
-0.098090
-0.051985
-0.029607
0.007407
0.040790
0.061372
0.067317
0.066199
0.040472
0.021341
-0.033662
-0.097869
-0.140451
-0.176001
-0.201611
-0.237379
-0.251416
-0.261081
-0.240575
-0.199020
-0.176058
-0.108645
-0.042129
0.020994
0.055827
0.059870
0.064881
0.061256
0.020593
-0.015529
-0.075038
-0.117743
-0.143832
-0.183855
-0.211206
-0.239215
-0.241870
-0.249819
-0.221531
-0.183169
-0.148535
-0.094644
-0.047415
-0.011396
0.011505
0.047973
0.057557
0.064803
0.041456
0.019815
-0.036961
-0.083787
-0.116202
-0.167967
-0.212100
-0.235076
-0.247908
-0.240589
-0.215052
-0.175097
-0.146694
-0.084639
-0.049728
-0.003359
0.029022
0.047874
0.059277
0.059025
0.036399
0.010627
-0.020196
-0.063935
-0.101317
-0.152360
-0.186900
-0.212047
-0.222897
-0.219380
-0.194478
-0.157393
-0.123850
-0.069452
-0.013392
0.017051
0.044101
0.066776
0.080640
0.097317
0.074315
0.045066
0.011945
-0.044286
-0.090624
-0.140233
-0.165964
-0.183352
-0.202676
-0.199541
-0.158579
-0.146885
-0.097871
-0.039503
0.009989
0.042614
0.090634
0.115290
0.117729
0.121685
0.103086
0.057320
0.019743
-0.021343
-0.061069
-0.102808
-0.147265
-0.171657
-0.160558
-0.168249
-0.159264
-0.119990
-0.075768
-0.029904
0.017182
0.072764
0.106883
0.119358
0.123369
0.131230
0.125500
0.083108
0.043499
-0.001333
-0.049939
-0.116624
-0.148204
-0.180477
-0.197879
-0.180744
-0.160048
-0.122823
-0.082845
-0.036125
0.010674
0.051108
0.079710
0.100197
0.111619
0.118296
0.097725
0.059612
0.019655
-0.028474
-0.079293
-0.127199
-0.161859
-0.179360
-0.178883
-0.188711
-0.180608
-0.143374
-0.102654
-0.045989
0.002846
0.045328
0.079083
0.106885
0.109427
0.106379
0.089860
0.050898
0.011645
-0.053072
-0.107005
-0.153921
-0.202731
-0.218606
-0.204036
-0.215240
-0.194494
-0.165365
-0.127400
-0.067914
-0.011479
0.025562
0.047954
0.056311
0.090373
0.083860
0.054953
0.016691
-0.020698
-0.089848
-0.150323
-0.159441
-0.192969
-0.205073
-0.219006
-0.219235
-0.198570
-0.169576
-0.139648
-0.098197
-0.043695
0.005556
0.014340
0.051943
0.059648
0.061568
0.037524
0.003039
-0.040614
-0.093785
-0.155134
-0.200288
-0.211900
-0.254609
-0.253104
-0.240246
-0.219094
-0.178802
-0.150561
-0.089270
-0.061712
-0.000648
0.038272
0.056566
0.072542
0.051806
0.042095
0.006583
-0.035320
-0.085533
-0.143429
-0.200910
-0.228415
-0.252288
-0.246837
-0.242614
-0.224287
-0.201784
-0.159157
-0.084922
-0.039625
0.002665
0.028530
0.062543
0.071393
0.062845
0.037777
-0.006106
-0.040312
-0.087473
-0.157956
-0.199371
-0.238015
-0.260570
-0.263819
-0.246915
-0.213222
-0.177777
-0.136620
-0.066930
-0.035408
0.013277
0.030093
0.026608
0.054878
0.058918
0.032936
-0.001710
-0.019442
-0.076544
-0.138303
-0.166390
-0.202782
-0.233489
-0.247033
-0.242886
-0.228967
-0.205048
-0.156152
-0.089472
-0.043419
0.010186
0.055363
0.074537
0.083202
0.086810
0.055825
0.021854
-0.017779
-0.076108
-0.120238
-0.156526
-0.189340
-0.218755
-0.223572
-0.229403
-0.205164
-0.176135
-0.140840
-0.098545
-0.021371
0.050725
0.057609
0.071279
0.071798
0.077893
0.059700
0.012906
-0.016986
-0.084211
-0.154037
-0.171090
-0.206215
-0.222292
-0.225339
-0.208351
-0.200118
-0.178806
-0.135106
-0.103718
-0.058413
-0.002411
0.056931
0.091278
0.079891
0.071910
0.046408
0.001711
-0.050220
-0.096741
-0.148650
-0.191374
-0.207164
-0.221353
-0.226931
-0.236531
-0.208067
-0.170575
-0.125718
-0.116343
-0.052396
-0.025158
-0.000753
0.048340
0.080777
0.076098
0.049732
0.016849
-0.029012
-0.078920
-0.130525
-0.166324
-0.203173
-0.234704
-0.249375
-0.259996
-0.235217
-0.196109
-0.165615
-0.097136
-0.059015
-0.025325
0.028044
0.067167
0.072162
0.067580
0.035398
0.001158
-0.045377
-0.086924
-0.129420
-0.165899
-0.207772
-0.228543
-0.234680
-0.234077
-0.228986
-0.205033
-0.143264
-0.104455
-0.054478
-0.025875
0.021918
0.047453
0.054291
0.051931
0.038354
0.001561
-0.060479
-0.107641
-0.146210
-0.179401
-0.229624
-0.255404
-0.269496
-0.257708
-0.234946
-0.200711
-0.150320
-0.087763
-0.034288
0.008202
0.044300
0.070552
0.066588
0.051037
0.038078
0.014695
-0.024150
-0.088208
-0.129712
-0.168112
-0.197226
-0.225193
-0.212769
-0.229469
-0.211442
-0.173557
-0.126156
-0.087885
-0.028946
0.027454
0.053890
0.073241
0.085781
0.081111
0.060206
0.038607
-0.013850
-0.061134
-0.087458
-0.136429
-0.173933
-0.224969
-0.241098
-0.227102
-0.180997
-0.155839
-0.127108
-0.070390
-0.000055
0.053967
0.057078
0.093136
0.110610
0.111588
0.067966
0.037577
0.007897
-0.056215
-0.106995
-0.124322
-0.158904
-0.187084
-0.201056
-0.189374
-0.162769
-0.138992
-0.124483
-0.088338
-0.028647
0.010587
0.036555
0.067960
0.073704
0.080517
0.064091
0.021554
-0.014081
-0.073534
-0.138031
-0.200773
-0.215475
-0.234748
-0.256189
-0.245079
-0.232711
-0.203123
-0.166750
-0.105100
-0.044652
-0.008482
0.025307
0.052787
0.046353
0.039698
0.010906
-0.023395
-0.073103
-0.135091
-0.176783
-0.227533
-0.240971
-0.272899
-0.287421
-0.292218
-0.250302
-0.233101
-0.195900
-0.145626
-0.076308
-0.015748
0.002123
0.005813
0.031947
0.018395
-0.008353
-0.045020
-0.100847
-0.129633
-0.189762
-0.224647
-0.253199
-0.257291
-0.265694
-0.278367
-0.268495
-0.242772
-0.195442
-0.148589
-0.103611
-0.059476
-0.021966
0.017896
0.030225
0.021775
-0.004214
-0.030272
-0.064263
-0.117839
-0.164609
-0.214690
-0.258576
-0.274051
-0.305666
-0.299313
-0.260999
-0.213899
-0.167540
-0.117172
-0.068560
-0.031277
0.014334
0.036859
0.023002
0.015869
-0.010249
-0.052556
-0.089762
-0.147067
-0.190343
-0.225151
-0.263769
-0.284350
-0.296487
-0.306400
-0.274077
-0.238925
-0.188108
-0.145898
-0.099372
-0.050197
-0.022206
0.004557
0.026115
0.026933
0.017012
0.005428
-0.024162
-0.069063
-0.109656
-0.127148
-0.161193
-0.170089
-0.179538
-0.162605
-0.104429
-0.045803
0.016669
0.083168
0.141078
0.200588
0.257712
0.317295
0.354114
0.370790
0.365723
0.362167
0.346096
0.320425
0.328498
0.335052
0.347808
0.363910
0.400200
0.443639
0.489999
0.546246
0.631628
0.709349
0.726573
0.741787
0.762690
0.781463
0.776324
0.779715
0.734932
0.657528
0.572785
0.456248
0.318898
0.218978
0.142643
0.065015
0.003961
-0.055567
-0.048316
-0.038064
-0.015458
0.023526
0.059516
0.080506
0.126070
0.154444
0.156600
0.162997
0.136248
0.102862
0.050980
-0.015369
-0.063664
-0.092925
-0.139408
-0.157917
-0.165526
-0.202794
-0.182637
-0.159805
-0.146428
-0.088546
-0.034689
0.012464
0.044944
0.036471
0.058731
0.070427
0.056772
0.032242
-0.000718
-0.065639
-0.134052
-0.158369
-0.187785
-0.224519
-0.261051
-0.252892
-0.224477
-0.187968
-0.153095
-0.088498
-0.056720
-0.017446
0.038368
0.075764
0.069812
0.051260
0.010326
0.002552
-0.032035
-0.088879
-0.125018
-0.179375
-0.209652
-0.238935
-0.233262
-0.248894
-0.222613
-0.206935
-0.158922
-0.111555
-0.039551
-0.007967
0.034845
0.054613
0.063930
0.070905
0.039229
0.007315
-0.034812
-0.085151
-0.127430
-0.160877
-0.222820
-0.241807
-0.237368
-0.237684
-0.215633
-0.189164
-0.150264
-0.087879
-0.028620
-0.012724
0.027129
0.047866
0.070964
0.051825
0.025005
0.019095
-0.022842
-0.080030
-0.127436
-0.166473
-0.179324
-0.202728
-0.217954
-0.200501
-0.176852
-0.143938
-0.100113
-0.044680
0.008693
0.052277
0.060990
0.081187
0.073617
0.071096
0.054152
0.015120
-0.022608
-0.059567
-0.109279
-0.131907
-0.159395
-0.187557
-0.193380
-0.166173
-0.145174
-0.117168
-0.075418
-0.050965
-0.003716
0.020190
0.040640
0.077929
0.100337
0.119901
0.089337
0.038422
0.003675
-0.044333
-0.086892
-0.132364
-0.151543
-0.186634
-0.182725
-0.200637
-0.161168
-0.119401
-0.084660
-0.041728
0.007490
0.066669
0.111896
0.120444
0.127610
0.112024
0.110307
0.057518
0.019221
-0.032467
-0.086955
-0.137738
-0.167145
-0.188761
-0.195639
-0.204041
-0.181475
-0.135560
-0.103301
-0.062805
0.003587
0.043344
0.076147
0.094845
0.091767
0.109722
0.101879
0.058641
0.011025
-0.033373
-0.102548
-0.145296
-0.188078
-0.214083
-0.217835
-0.220211
-0.186180
-0.142725
-0.119949
-0.070466
-0.020466
0.021587
0.047735
0.063288
0.054595
0.058155
0.058327
0.036100
0.007919
-0.053715
-0.101285
-0.140430
-0.189268
-0.206906
-0.214270
-0.219576
-0.208424
-0.189262
-0.146258
-0.088699
-0.044055
0.008079
0.040532
0.059051
0.071265
0.079124
0.046109
0.019418
-0.029147
-0.085226
-0.121322
-0.161927
-0.192735
-0.218773
-0.240951
-0.249669
-0.240692
-0.186956
-0.135555
-0.090864
-0.034280
-0.002844
0.027166
0.057461
0.062462
0.059276
0.036769
0.004912
-0.027277
-0.086458
-0.118240
-0.168065
-0.210136
-0.234224
-0.240959
-0.241223
-0.223449
-0.204854
-0.153895
-0.105002
-0.079410
-0.028502
0.022205
0.044303
0.051735
0.045134
0.037022
0.027370
-0.016882
-0.062091
-0.116056
-0.158877
-0.197020
-0.238515
-0.252332
-0.257904
-0.244165
-0.199663
-0.155219
-0.096776
-0.045655
-0.001673
0.039363
0.062703
0.053088
0.048105
0.032169
-0.008307
-0.048963
-0.083767
-0.121888
-0.157040
-0.197404
-0.221374
-0.221138
-0.235243
-0.205477
-0.183395
-0.139635
-0.088794
-0.045515
-0.012076
0.015459
0.048144
0.048503
0.055381
0.044613
0.017421
-0.031138
-0.064179
-0.120882
-0.155316
-0.189906
-0.192781
-0.220886
-0.225625
-0.202822
-0.180916
-0.142071
-0.077340
-0.022209
0.019429
0.041485
0.066874
0.072794
0.080324
0.066349
0.017079
-0.015124
-0.052949
-0.108526
-0.150049
-0.190371
-0.200973
-0.218178
-0.223140
-0.214165
-0.193185
-0.129430
-0.071738
-0.034212
-0.001056
0.042342
0.079994
0.079276
0.068105
0.051481
0.024177
-0.022461
-0.071413
-0.120198
-0.150064
-0.185806
-0.215875
-0.208093
-0.207464
-0.192001
-0.173140
-0.131531
-0.070369
-0.024744
0.005785
0.039412
0.054732
0.071551
0.067523
0.043724
0.019745
-0.012752
-0.064695
-0.126709
-0.169205
-0.197399
-0.221802
-0.228932
-0.239635
-0.198956
-0.165278
-0.122834
-0.089249
-0.036611
0.019369
0.042824
0.062000
0.081814
0.078252
0.056182
0.025003
-0.018712
-0.073519
-0.116057
-0.170062
-0.189912
-0.243764
-0.251310
-0.215618
-0.181119
-0.179760
-0.143340
-0.081870
-0.036971
0.012164
0.037012
0.065509
0.082011
0.073683
0.039833
0.021115
-0.038658
-0.076129
-0.111812
-0.155817
-0.177784
-0.216215
-0.226642
-0.228891
-0.206339
-0.164652
-0.115233
-0.100637
-0.044189
-0.005395
0.020577
0.040639
0.062690
0.049658
0.035247
-0.002574
-0.048312
-0.089900
-0.134744
-0.163871
-0.190734
-0.214766
-0.223893
-0.217353
-0.197579
-0.173724
-0.136513
-0.094404
-0.052934
-0.001745
0.043919
0.053981
0.066505
0.083991
0.042142
0.000855
-0.037287
-0.096447
-0.126827
-0.187148
-0.226322
-0.243522
-0.239034
-0.227115
-0.211880
-0.180921
-0.140011
-0.089731
-0.045027
-0.007965
0.038329
0.057333
0.066881
0.061132
0.036032
-0.012299
-0.035785
-0.083327
-0.132967
-0.164236
-0.193666
-0.222273
-0.255125
-0.251302
-0.219047
-0.175374
-0.140745
-0.091104
-0.052833
-0.005373
0.053060
0.067996
0.064758
0.059191
0.046471
0.013206
-0.033453
-0.082535
-0.122067
-0.162822
-0.208139
-0.233660
-0.241085
-0.232481
-0.204233
-0.160267
-0.122046
-0.065028
-0.009249
0.028761
0.052854
0.078602
0.098657
0.091206
0.058419
0.026559
-0.014962
-0.045231
-0.078509
-0.128220
-0.167937
-0.200788
-0.198486
-0.187559
-0.169917
-0.143214
-0.087361
-0.053178
-0.007245
0.035074
0.071530
0.103999
0.116916
0.101980
0.075856
0.050855
0.013163
-0.035651
-0.082419
-0.135476
-0.170429
-0.175393
-0.181998
-0.173703
-0.152928
-0.119602
-0.072812
-0.033500
-0.003252
0.047538
0.074795
0.111464
0.135502
0.145428
0.123127
0.072935
0.018893
-0.050791
-0.099953
-0.131607
-0.179768
-0.208494
-0.216751
-0.214794
-0.199285
-0.169579
-0.129266
-0.073656
-0.019715
0.021193
0.051879
0.080453
0.097843
0.065593
0.053181
0.025154
-0.027269
-0.070970
-0.133606
-0.168456
-0.200513
-0.227845
-0.241553
-0.236671
-0.233524
-0.211886
-0.150038
-0.095530
-0.050398
-0.006285
0.033182
0.069796
0.078447
0.067036
0.027951
-0.012659
-0.062992
-0.108217
-0.163383
-0.201827
-0.203089
-0.259805
-0.286394
-0.268267
-0.236451
-0.202842
-0.144882
-0.107798
-0.053923
-0.014250
0.023275
0.036867
0.055297
0.052276
0.028349
-0.014220
-0.059451
-0.111385
-0.146999
-0.188643
-0.234020
-0.248613
-0.261624
-0.255981
-0.257169
-0.218861
-0.155209
-0.097452
-0.059459
-0.038472
0.008020
0.024362
0.058704
0.066956
0.036684
-0.007340
-0.055465
-0.095105
-0.152967
-0.188830
-0.220496
-0.246586
-0.256748
-0.252597
-0.227218
-0.205867
-0.161496
-0.098622
-0.053696
-0.019066
0.009785
0.042143
0.061678
0.054090
0.034178
-0.007678
-0.057938
-0.104201
-0.156386
-0.187426
-0.221800
-0.258585
-0.272255
-0.267201
-0.234541
-0.180707
-0.119599
-0.062715
-0.011395
0.041757
0.086834
0.115718
0.157914
0.191024
0.184593
0.147451
0.098517
0.060274
0.009313
-0.002140
-0.001577
0.008013
0.027398
0.051808
0.099683
0.168334
0.239515
0.312976
0.381690
0.434158
0.505668
0.582433
0.614570
0.652571
0.670033
0.665680
0.682868
0.678608
0.660197
0.626481
0.576007
0.545347
0.530400
0.521581
0.538549
0.547154
0.561273
0.549325
0.545177
0.510874
0.475712
0.450576
0.443969
0.378439
0.308537
0.234596
0.160722
0.088410
0.022366
-0.008751
-0.037445
-0.069778
-0.098994
-0.106806
-0.082345
-0.052469
-0.017219
0.036944
0.094180
0.116193
0.135153
0.165660
0.183845
0.168985
0.141215
0.092680
0.032812
-0.015198
-0.065964
-0.128184
-0.167794
-0.187838
-0.192701
-0.183736
-0.170712
-0.131246
-0.085695
-0.039882
-0.002023
0.046672
0.069444
0.098503
0.110457
0.095096
0.070606
0.038834
-0.017186
-0.073259
-0.114149
-0.155912
-0.180474
-0.194845
-0.201714
-0.223596
-0.222417
-0.151083
-0.099899
-0.053826
-0.003445
0.043290
0.073679
0.085477
0.107846
0.106272
0.084931
0.048450
0.003892
-0.039249
-0.079507
-0.131488
-0.180264
-0.187503
-0.202536
-0.200857
-0.172417
-0.130097
-0.101513
-0.043843
0.005442
0.056231
0.082373
0.084475
0.100492
0.114340
0.100552
0.067916
0.008153
-0.016098
-0.073737
-0.115509
-0.150769
-0.174779
-0.192357
-0.188729
-0.156914
-0.124152
-0.082609
-0.033455
0.026044
0.059656
0.099840
0.123779
0.131187
0.130024
0.103860
0.066476
0.030880
-0.025593
-0.066057
-0.098012
-0.131664
-0.144622
-0.165410
-0.147468
-0.126901
-0.099776
-0.059006
-0.016085
0.040311
0.087299
0.114855
0.143725
0.154863
0.153934
0.130832
0.073779
0.051373
0.015083
-0.030394
-0.068249
-0.115126
-0.143658
-0.142402
-0.139672
-0.124302
-0.093827
-0.031269
0.024365
0.062754
0.097144
0.117093
0.156757
0.163359
0.169529
0.161159
0.135500
0.085474
0.026061
-0.022992
-0.051640
-0.084716
-0.117988
-0.135361
-0.118729
-0.100992
-0.073035
-0.021564
0.028340
0.070452
0.105048
0.122784
0.147582
0.184709
0.162554
0.145493
0.115225
0.060100
0.015843
-0.028736
-0.064153
-0.119928
-0.141769
-0.132883
-0.128093
-0.093658
-0.070314
-0.022561
0.025083
0.052754
0.101342
0.131581
0.164637
0.179398
0.162608
0.136184
0.119393
0.070613
0.015372
-0.047025
-0.092442
-0.125913
-0.163657
-0.148942
-0.124790
-0.107343
-0.093897
-0.061978
-0.010208
0.049148
0.079563
0.114301
0.140557
0.141963
0.111407
0.103746
0.109923
0.057641
0.004716
-0.053452
-0.093623
-0.126461
-0.143847
-0.162427
-0.149781
-0.129663
-0.108199
-0.065539
-0.017770
0.027880
0.072060
0.099644
0.115096
0.119482
0.122459
0.096106
0.060039
0.036607
-0.020036
-0.058487
-0.111022
-0.145387
-0.163102
-0.173114
-0.180905
-0.157611
-0.121309
-0.080193
-0.034247
0.023785
0.059565
0.087556
0.109141
0.125035
0.111708
0.092473
0.061986
0.018899
-0.020443
-0.078194
-0.112563
-0.155492
-0.185138
-0.197199
-0.186074
-0.171409
-0.132756
-0.081074
-0.033220
0.007980
0.042335
0.086357
0.102082
0.097811
0.074381
0.081279
0.067105
0.001267
-0.017683
-0.071157
-0.104870
-0.163006
-0.190236
-0.188200
-0.180546
-0.164817
-0.136609
-0.098573
-0.029546
0.023819
0.059744
0.102756
0.123090
0.141627
0.128131
0.101842
0.049622
0.004253
-0.032351
-0.073201
-0.124392
-0.150639
-0.169466
-0.178193
-0.168221
-0.143165
-0.122994
-0.089045
-0.041067
0.017928
0.079502
0.110597
0.132619
0.142707
0.138764
0.104926
0.072780
0.029888
-0.020608
-0.077871
-0.115198
-0.153085
-0.148978
-0.159985
-0.163747
-0.142994
-0.119791
-0.054742
-0.016273
0.032936
0.064267
0.104842
0.120005
0.142073
0.121146
0.091979
0.069021
0.031858
-0.006553
-0.066219
-0.106749
-0.141325
-0.180827
-0.193584
-0.182071
-0.141595
-0.122282
-0.053720
-0.004832
0.043182
0.080764
0.110050
0.131671
0.119401
0.122485
0.127416
0.090895
0.022952
-0.022494
-0.065844
-0.100854
-0.131933
-0.155389
-0.167520
-0.151324
-0.125573
-0.097052
-0.075362
-0.034375
0.017504
0.066831
0.101654
0.125556
0.144900
0.140177
0.110465
0.068450
0.019322
-0.022024
-0.077871
-0.127419
-0.157311
-0.182511
-0.199574
-0.170445
-0.148599
-0.116179
-0.071640
-0.034230
0.014457
0.064963
0.089455
0.133413
0.141287
0.135025
0.098257
0.066600
0.024761
-0.025669
-0.076839
-0.115821
-0.154052
-0.173612
-0.178683
-0.174406
-0.151239
-0.127869
-0.080698
-0.045974
-0.010109
0.041028
0.084718
0.126078
0.139995
0.110253
0.094412
0.068032
0.013773
-0.038596
-0.100572
-0.140720
-0.151212
-0.170132
-0.187403
-0.177732
-0.177085
-0.143432
-0.089105
-0.038650
-0.000179
0.041312
0.080418
0.104550
0.112128
0.110264
0.107884
0.066941
0.022406
-0.030157
-0.083302
-0.125425
-0.155510
-0.175311
-0.175931
-0.174701
-0.154422
-0.124189
-0.098333
-0.053566
-0.006601
0.045732
0.081449
0.104393
0.108870
0.108127
0.088324
0.053923
0.012481
-0.037831
-0.091398
-0.134632
-0.171627
-0.199407
-0.192151
-0.181660
-0.167375
-0.133418
-0.095817
-0.042166
0.004242
0.031221
0.065874
0.108105
0.128409
0.121498
0.093207
0.070500
0.005032
-0.044048
-0.081723
-0.127963
-0.166148
-0.184799
-0.203855
-0.213364
-0.171527
-0.129414
-0.091915
-0.038877
0.006891
0.045950
0.062775
0.090677
0.111750
0.100443
0.065936
0.032153
-0.020434
-0.047795
-0.071570
-0.124570
-0.160994
-0.187114
-0.202728
-0.188643
-0.164184
-0.136773
-0.087018
-0.029901
0.006971
0.055013
0.073449
0.113383
0.114048
0.087936
0.065737
0.043024
0.004619
-0.042120
-0.080250
-0.119636
-0.164215
-0.197643
-0.205963
-0.200791
-0.166375
-0.135032
-0.094685
-0.043506
0.004875
0.046182
0.081526
0.102782
0.108533
0.110757
0.081301
0.042924
0.006241
-0.033577
-0.080271
-0.114426
-0.165243
-0.191029
-0.197983
-0.189915
-0.175266
-0.138261
-0.096704
-0.069871
-0.020637
0.045206
0.091011
0.112487
0.113775
0.100272
0.080678
0.046543
0.001335
-0.050734
-0.099469
-0.133344
-0.167794
-0.194465
-0.198593
-0.188946
-0.169255
-0.136013
-0.081524
-0.042099
-0.006457
0.031079
0.063468
0.111647
0.126888
0.109332
0.068791
0.049166
0.013103
-0.038206
-0.092045
-0.119044
-0.153706
-0.175617
-0.197232
-0.191963
-0.176332
-0.134217
-0.083505
-0.034646
0.006180
0.046516
0.087491
0.107174
0.120323
0.090024
0.074796
0.044861
0.004193
-0.040772
-0.088044
-0.133769
-0.167468
-0.177837
-0.193340
-0.195159
-0.176747
-0.134849
-0.087157
-0.042059
0.005195
0.031945
0.065053
0.097422
0.111458
0.099531
0.078381
0.049848
0.009502
-0.046571
-0.089782
-0.119051
-0.147440
-0.166493
-0.175691
-0.165728
-0.138152
-0.106063
-0.053171
-0.014140
0.031346
0.083379
0.112220
0.133448
0.147784
0.138109
0.118263
0.081841
0.042278
-0.010024
-0.058304
-0.086537
-0.111037
-0.124583
-0.146747
-0.138733
-0.120712
-0.085890
-0.049071
0.001336
0.051700
0.099393
0.118443
0.135640
0.149038
0.141201
0.131413
0.090242
0.044037
-0.021620
-0.031587
-0.062073
-0.083421
-0.112840
-0.141620
-0.144066
-0.128724
-0.087943
-0.029541
0.037183
0.081895
0.111118
0.142658
0.166616
0.183266
0.161838
0.136596
0.099451
0.035048
-0.013598
-0.070132
-0.115204
-0.167382
-0.160146
-0.168959
-0.148398
-0.134674
-0.114408
-0.071276
-0.025576
0.021175
0.060483
0.104927
0.122484
0.130870
0.119280
0.099017
0.062332
0.006206
-0.021399
-0.081430
-0.123775
-0.150412
-0.174293
-0.199539
-0.188079
-0.175793
-0.139066
-0.098513
-0.042705
0.000380
0.041252
0.072072
0.086012
0.100890
0.090629
0.062468
0.044814
-0.008234
-0.060230
-0.107469
-0.156680
-0.194578
-0.212165
-0.229483
-0.222219
-0.210724
-0.167565
-0.104309
-0.061119
-0.017576
0.033614
0.046849
0.063029
0.081899
0.090121
0.088573
0.055901
0.016784
-0.046682
-0.096949
-0.132000
-0.165375
-0.188172
-0.198280
-0.211343
-0.220942
-0.174997
-0.105747
-0.065589
-0.017954
0.031408
0.061009
0.056827
0.079952
0.079703
0.068122
0.029212
-0.015321
-0.057868
-0.093693
-0.143775
-0.170482
-0.188674
-0.200380
-0.192676
-0.185307
-0.166285
-0.124773
-0.064584
-0.023552
0.027940
0.057027
0.073209
0.083218
0.076201
0.051132
0.007759
-0.043926
-0.084370
-0.130185
-0.187956
-0.221384
-0.230302
-0.234027
-0.205407
-0.173499
-0.130524
-0.093164
-0.032779
0.026728
0.091865
0.149122
0.189364
0.218146
0.224900
0.210924
0.182971
0.172764
0.137621
0.123842
0.094029
0.077027
0.110663
0.153843
0.204921
0.263054
0.344580
0.425702
0.504141
0.576706
0.663067
0.734924
0.799269
0.851551
0.887891
0.902049
0.919613
0.896740
0.860696
0.806775
0.745127
0.699360
0.663599
0.639231
0.624974
0.621857
0.608304
0.581603
0.558845
0.528399
0.482157
0.447541
0.401291
0.367651
0.345687
0.319707
0.275347
0.207647
0.154123
0.093811
0.034706
-0.006360
-0.040225
-0.066942
-0.059797
-0.041120
-0.020674
0.005076
0.039600
0.089716
0.148344
0.166920
0.168637
0.181650
0.164323
0.140710
0.119333
0.057291
-0.010968
-0.060010
-0.080511
-0.119123
-0.148318
-0.153706
-0.148423
-0.122893
-0.091218
-0.060968
-0.012426
0.034822
0.072608
0.108032
0.119085
0.143001
0.136337
0.115398
0.058330
0.023839
-0.025336
-0.068266
-0.109523
-0.152396
-0.176352
-0.196820
-0.210263
-0.161560
-0.107820
-0.065683
-0.026078
0.018363
0.067900
0.114450
0.134536
0.152677
0.136111
0.114450
0.082386
0.020612
-0.028202
-0.066421
-0.105047
-0.129023
-0.155611
-0.166493
-0.161850
-0.149093
-0.108067
-0.062743
-0.006219
0.035338
0.074340
0.095239
0.114826
0.157064
0.155746
0.113237
0.067211
0.037851
-0.004483
-0.062932
-0.095520
-0.125164
-0.143624
-0.158955
-0.140317
-0.126747
-0.101630
-0.067536
-0.012677
0.048437
0.090655
0.128795
0.149264
0.166854
0.155592
0.137604
0.107569
0.055906
0.017613
-0.025595
-0.067719
-0.097650
-0.121706
-0.144977
-0.125046
-0.096944
-0.061489
-0.015751
0.022439
0.062590
0.113250
0.152888
0.173955
0.177923
0.173188
0.155779
0.134719
0.093861
0.050951
-0.010654
-0.054557
-0.089218
-0.114860
-0.121167
-0.086721
-0.082775
-0.046042
-0.001288
0.065744
0.102452
0.133933
0.179308
0.211793
0.211849
0.199727
0.187494
0.166372
0.115481
0.068417
0.018487
-0.025109
-0.053802
-0.071345
-0.099027
-0.091701
-0.061121
-0.020753
0.021965
0.073451
0.112799
0.164706
0.190144
0.204394
0.226219
0.218610
0.201109
0.143998
0.106019
0.060339
0.017772
-0.030521
-0.070663
-0.090546
-0.112150
-0.097365
-0.064828
-0.035225
0.010695
0.068232
0.104827
0.145407
0.175728
0.204451
0.218709
0.216729
0.185018
0.147297
0.107951
0.049552
-0.003168
-0.054447
-0.088217
-0.110682
-0.137981
-0.125019
-0.100930
-0.089911
-0.024609
0.037812
0.075690
0.115508
0.154013
0.170983
0.176833
0.164806
0.149090
0.114889
0.063264
0.018598
-0.035531
-0.075710
-0.105997
-0.130647
-0.152002
-0.146626
-0.127853
-0.096130
-0.050392
0.000859
0.048088
0.083258
0.103565
0.133019
0.142843
0.111962
0.111263
0.082795
0.045885
0.002027
-0.047754
-0.107754
-0.145558
-0.162888
-0.175717
-0.162124
-0.150339
-0.127071
-0.077932
-0.021220
0.018446
0.062376
0.085982
0.122839
0.149664
0.139071
0.109114
0.055941
0.001194
-0.042850
-0.077627
-0.124927
-0.159523
-0.191115
-0.195334
-0.185570
-0.159712
-0.127567
-0.090869
-0.035668
0.014312
0.054190
0.091220
0.107101
0.108256
0.093745
0.074679
0.042247
0.008928
-0.029425
-0.085134
-0.128954
-0.160654
-0.178355
-0.213714
-0.198573
-0.161532
-0.131289
-0.086626
-0.041455
0.002532
0.044074
0.082773
0.106202
0.126188
0.112992
0.091984
0.051779
0.011721
-0.037426
-0.086561
-0.115279
-0.150757
-0.189984
-0.195055
-0.194477
-0.162003
-0.139359
-0.110184
-0.056861
0.002678
0.047608
0.104713
0.130263
0.126978
0.126581
0.098339
0.065346
0.016119
-0.032279
-0.076401
-0.129676
-0.148336
-0.166603
-0.181813
-0.162675
-0.156600
-0.114049
-0.072477
-0.034180
0.011508
0.032927
0.085122
0.127916
0.132639
0.125474
0.111393
0.069904
0.026736
-0.022146
-0.068469
-0.107932
-0.146648
-0.167248
-0.183629
-0.176116
-0.170190
-0.131990
-0.079746
-0.040345
0.000528
0.047552
0.085873
0.114955
0.120443
0.113416
0.092342
0.060974
0.015946
-0.031277
-0.080687
-0.119644
-0.143159
-0.179943
-0.188162
-0.181367
-0.148905
-0.119643
-0.081226
-0.031925
0.013234
0.032711
0.062823
0.113976
0.119160
0.111686
0.097852
0.059920
0.030550
-0.024414
-0.086032
-0.129206
-0.158273
-0.183323
-0.190652
-0.181437
-0.147854
-0.129471
-0.084726
-0.031753
0.010916
0.042253
0.070472
0.102122
0.114975
0.108515
0.084205
0.042463
0.003625
-0.036211
-0.086532
-0.139746
-0.164853
-0.185736
-0.189174
-0.182979
-0.168630
-0.132193
-0.090797
-0.046078
-0.013241
0.022757
0.057239
0.088178
0.090160
0.087167
0.072056
0.029332
-0.007876
-0.031360
-0.075100
-0.125541
-0.177497
-0.200410
-0.194298
-0.178500
-0.156254
-0.145205
-0.095568
-0.040231
0.004028
0.034216
0.066957
0.090507
0.092555
0.088112
0.070263
0.034535
-0.012764
-0.064518
-0.100983
-0.138872
-0.153616
-0.197070
-0.218638
-0.208369
-0.181199
-0.145380
-0.104098
-0.056006
-0.008784
0.041693
0.079839
0.106138
0.119793
0.100918
0.088358
0.050055
0.009964
-0.046051
-0.091379
-0.142261
-0.175372
-0.201761
-0.223264
-0.205798
-0.187317
-0.154647
-0.104813
-0.057602
-0.013989
0.025974
0.065406
0.082128
0.084699
0.087748
0.057027
0.015306
-0.012895
-0.072689
-0.117919
-0.149170
-0.189941
-0.210116
-0.209335
-0.199575
-0.175286
-0.139840
-0.100118
-0.057353
-0.005337
0.038385
0.075345
0.094085
0.099290
0.094426
0.076889
0.028473
-0.033720
-0.084501
-0.122179
-0.151423
-0.181773
-0.224966
-0.253360
-0.224427
-0.185478
-0.150926
-0.095948
-0.051399
0.000586
0.040971
0.074539
0.081033
0.088806
0.083921
0.068847
0.028257
-0.009861
-0.061647
-0.105040
-0.148413
-0.206361
-0.212024
-0.225148
-0.211359
-0.186057
-0.157772
-0.119016
-0.063670
-0.015582
0.015871
0.054400
0.085160
0.097323
0.092445
0.058383
0.026276
-0.015197
-0.066706
-0.104465
-0.146675
-0.175360
-0.195527
-0.209225
-0.216861
-0.188789
-0.157102
-0.116924
-0.061853
-0.013860
0.038684
0.072428
0.094995
0.105010
0.107937
0.085500
0.040276
-0.007693
-0.054794
-0.099083
-0.143924
-0.199401
-0.222549
-0.215375
-0.193870
-0.182429
-0.143961
-0.078397
-0.026820
0.018807
0.059683
0.105431
0.133802
0.130281
0.130536
0.104080
0.079267
0.037153
-0.010389
-0.065819
-0.104167
-0.145280
-0.171892
-0.201884
-0.177941
-0.141146
-0.107825
-0.062942
-0.007276
0.036762
0.068760
0.105942
0.123255
0.135565
0.133284
0.120205
0.096965
0.050997
-0.000652
-0.059638
-0.093479
-0.128208
-0.145760
-0.156692
-0.156416
-0.131227
-0.097972
-0.053753
-0.010198
0.033948
0.073684
0.097159
0.104375
0.106280
0.104821
0.080744
0.044594
-0.006253
-0.049598
-0.085365
-0.128046
-0.162873
-0.187815
-0.190254
-0.185611
-0.168752
-0.139061
-0.118513
-0.052781
0.012560
0.023379
0.062086
0.084406
0.088141
0.075079
0.059546
0.034197
-0.015636
-0.073948
-0.128648
-0.168325
-0.199263
-0.234570
-0.234596
-0.204435
-0.196969
-0.170481
-0.124562
-0.068363
-0.027338
0.018708
0.045387
0.065867
0.071301
0.063969
0.039334
0.002839
-0.040478
-0.077290
-0.127516
-0.192617
-0.229607
-0.237326
-0.249599
-0.227106
-0.209340
-0.179425
-0.137374
-0.085202
-0.020754
0.011621
0.031529
0.072361
0.085316
0.060586
0.026799
-0.003645
-0.040696
-0.082905
-0.121332
-0.172050
-0.205422
-0.224209
-0.221224
-0.219745
-0.206839
-0.168859
-0.122334
-0.061706
-0.021156
-0.008367
0.033233
0.055975
0.076018
0.074613
0.038469
-0.004902
-0.048714
-0.108974
-0.166344
-0.200039
-0.211799
-0.224618
-0.234281
-0.230225
-0.219241
-0.188046
-0.132501
-0.069590
-0.032383
-0.000185
0.023208
0.046074
0.052623
0.046612
0.022834
-0.003536
-0.045964
-0.089808
-0.124070
-0.155140
-0.186926
-0.217253
-0.229066
-0.210242
-0.150291
-0.091424
-0.044544
0.028805
0.091408
0.160818
0.199262
0.246971
0.273082
0.289948
0.297703
0.294809
0.285660
0.280319
0.257106
0.262717
0.276861
0.288391
0.302504
0.335119
0.396760
0.507080
0.607915
0.694760
0.782208
0.849211
0.915009
0.971193
0.994816
0.980965
0.955557
0.902327
0.833409
0.768656
0.707834
0.642842
0.560725
0.462813
0.381446
0.322207
0.276099
0.233101
0.219422
0.214789
0.228088
0.240826
0.285399
0.319200
0.313503
0.296275
0.252906
0.200075
0.141663
0.083985
0.018898
-0.036033
-0.075809
-0.102792
-0.120588
-0.116819
-0.098919
-0.076102
-0.042689
0.005159
0.046691
0.093960
0.123254
0.141132
0.147516
0.127111
0.113827
0.078080
0.025906
-0.041280
-0.078479
-0.097588
-0.134138
-0.170179
-0.181572
-0.188350
-0.164280
-0.125769
-0.076113
-0.024081
0.018866
0.061420
0.095969
0.115315
0.119000
0.114619
0.096039
0.049356
-0.006460
-0.045596
-0.087456
-0.151566
-0.180203
-0.201084
-0.198045
-0.184478
-0.157770
-0.122874
-0.086046
-0.035176
0.018674
0.049453
0.085519
0.108537
0.110677
0.110102
0.100233
0.064836
0.020321
-0.024064
-0.078075
-0.119970
-0.151989
-0.181936
-0.198136
-0.175567
-0.152786
-0.122330
-0.069060
-0.018584
0.024592
0.073199
0.105037
0.128645
0.131532
0.126463
0.113502
0.087531
0.029811
-0.023460
-0.062882
-0.104549
-0.142161
-0.158371
-0.166021
-0.162332
-0.131023
-0.089422
-0.055788
-0.003503
0.030077
0.062615
0.103186
0.149159
0.164346
0.152119
0.143683
0.104325
0.052500
0.007627
-0.034978
-0.079386
-0.110412
-0.131481
-0.136867
-0.136649
-0.115100
-0.066051
-0.013652
0.025801
0.073381
0.122167
0.151911
0.176239
0.182375
0.181374
0.165465
0.130753
0.091506
0.046025
-0.007283
-0.050914
-0.087803
-0.097368
-0.099016
-0.087022
-0.069127
-0.029287
0.009889
0.061263
0.093632
0.150253
0.193405
0.230273
0.238642
0.225270
0.216233
0.168302
0.109774
0.069857
0.018807
-0.028485
-0.058525
-0.071586
-0.080561
-0.077223
-0.072030
-0.040763
0.022386
0.075538
0.117577
0.163985
0.193542
0.209300
0.221789
0.217261
0.195946
0.137470
0.086563
0.051940
0.006696
-0.035191
-0.075151
-0.098301
-0.097709
-0.084676
-0.065134
-0.029054
0.020583
0.065750
0.104833
0.151852
0.180815
0.199989
0.207939
0.195076
0.176853
0.126675
0.074411
0.027859
-0.027404
-0.076051
-0.096978
-0.110935
-0.118292
-0.117623
-0.098013
-0.054808
-0.016466
0.022119
0.066315
0.108841
0.140246
0.160791
0.172572
0.170325
0.137612
0.097534
0.048007
0.001799
-0.069259
-0.087059
-0.118477
-0.145341
-0.158698
-0.151491
-0.125461
-0.093828
-0.054638
-0.008634
0.026968
0.066369
0.101350
0.127267
0.145325
0.135518
0.116095
0.071362
0.026211
-0.011133
-0.067242
-0.129261
-0.156249
-0.179657
-0.194024
-0.193935
-0.172665
-0.124507
-0.081457
-0.023182
0.022590
0.066640
0.098655
0.110241
0.118602
0.101835
0.098821
0.055147
0.001018
-0.041584
-0.089609
-0.129246
-0.169546
-0.194234
-0.201112
-0.209699
-0.172839
-0.135320
-0.104309
-0.048860
0.010010
0.045162
0.074591
0.097814
0.119363
0.120033
0.091661
0.052911
0.007754
-0.041687
-0.090356
-0.134778
-0.169341
-0.192129
-0.209318
-0.203790
-0.179357
-0.133074
-0.089451
-0.046828
0.005206
0.043920
0.064721
0.120802
0.113080
0.116157
0.099204
0.053753
0.015667
-0.025227
-0.071113
-0.113902
-0.155950
-0.183257
-0.187485
-0.185827
-0.168958
-0.118289
-0.076369
-0.034905
0.012143
0.052570
0.097156
0.130137
0.121569
0.120165
0.091212
0.059525
0.021894
-0.017378
-0.078853
-0.129078
-0.155949
-0.177633
-0.187884
-0.167073
-0.157466
-0.128318
-0.080772
-0.027175
0.018911
0.058934
0.099970
0.121233
0.125792
0.123069
0.107430
0.073313
0.023821
-0.022275
-0.072211
-0.111616
-0.142894
-0.177031
-0.181476
-0.170139
-0.144224
-0.123721
-0.091429
-0.037586
0.024577
0.056903
0.105683
0.110882
0.119156
0.113983
0.083354
0.060035
0.016761
-0.034780
-0.077270
-0.116842
-0.145010
-0.165978
-0.173688
-0.174008
-0.157077
-0.115557
-0.084259
-0.028151
0.023491
0.061212
0.103344
0.122732
0.123760
0.107712
0.093072
0.056290
0.006229
-0.031406
-0.085504
-0.120442
-0.160514
-0.181591
-0.196429
-0.202999
-0.167641
-0.114380
-0.066147
-0.019601
0.008831
0.054040
0.072261
0.090440
0.099360
0.090511
0.073284
0.044658
0.004571
-0.057595
-0.098118
-0.130807
-0.140637
-0.181776
-0.204371
-0.189865
-0.160860
-0.118687
-0.066867
-0.036725
0.012377
0.049854
0.072580
0.098706
0.093979
0.099351
0.079144
0.041496
0.001470
-0.031715
-0.080497
-0.137158
-0.167440
-0.202710
-0.213232
-0.198973
-0.169827
-0.145368
-0.094900
-0.044324
0.012277
0.059043
0.093372
0.116313
0.125504
0.108235
0.088603
0.045384
-0.004705
-0.052116
-0.101136
-0.157503
-0.173040
-0.189672
-0.193236
-0.194498
-0.177470
-0.138341
-0.098513
-0.044426
0.002576
0.037933
0.084836
0.101160
0.102089
0.099063
0.067618
0.035834
-0.002434
-0.052164
-0.099194
-0.140868
-0.174576
-0.211876
-0.213427
-0.194236
-0.179644
-0.138861
-0.097884
-0.062331
-0.010938
0.046138
0.085938
0.109901
0.095169
0.096379
0.085075
0.038815
-0.023539
-0.080700
-0.101497
-0.133999
-0.169564
-0.195355
-0.216522
-0.195967
-0.183576
-0.145844
-0.099425
-0.061097
-0.021981
0.032068
0.082619
0.106343
0.090943
0.078615
0.075679
0.040997
-0.007779
-0.059416
-0.110473
-0.154004
-0.178751
-0.214852
-0.217102
-0.206245
-0.173656
-0.139025
-0.105560
-0.055459
-0.014431
0.038112
0.084937
0.101302
0.104871
0.099430
0.069786
0.033026
-0.004839
-0.052752
-0.114803
-0.145324
-0.169344
-0.195374
-0.198260
-0.195901
-0.181542
-0.140330
-0.094597
-0.046482
0.004206
0.037502
0.072752
0.100656
0.100431
0.102194
0.074585
0.028363
-0.003498
-0.051385
-0.101646
-0.142269
-0.177219
-0.202683
-0.205324
-0.198585
-0.167101
-0.131126
-0.080153
-0.040000
0.006621
0.060215
0.094503
0.116140
0.114439
0.122347
0.095663
0.065597
0.018769
-0.032191
-0.079781
-0.110183
-0.128037
-0.154509
-0.163239
-0.162419
-0.143938
-0.105546
-0.058456
-0.004026
0.042126
0.095125
0.131633
0.137731
0.137974
0.132634
0.128251
0.086627
0.028747
-0.040243
-0.092379
-0.118986
-0.141952
-0.154487
-0.160145
-0.153597
-0.123625
-0.102352
-0.048206
0.002528
0.052187
0.101979
0.137516
0.165577
0.172175
0.160868
0.134607
0.091804
0.041481
-0.004145
-0.071194
-0.093352
-0.130453
-0.156576
-0.176158
-0.172109
-0.147272
-0.111707
-0.064554
-0.019686
0.022996
0.068779
0.105345
0.122609
0.129405
0.122479
0.099767
0.046391
-0.004127
-0.052116
-0.091555
-0.133659
-0.170077
-0.203839
-0.208334
-0.184090
-0.167188
-0.144703
-0.089499
-0.051173
-0.026212
0.032210
0.070977
0.105235
0.103075
0.093105
0.064131
0.037309
-0.010947
-0.071840
-0.121385
-0.148655
-0.198974
-0.223259
-0.213952
-0.213703
-0.194174
-0.181573
-0.153208
-0.092892
-0.029514
0.014338
0.053831
0.071554
0.081689
0.090934
0.058916
0.024398
-0.014579
-0.056542
-0.103255
-0.149840
-0.183249
-0.218871
-0.231260
-0.229409
-0.195786
-0.162946
-0.117460
-0.077179
-0.030818
0.015229
0.048579
0.084677
0.069654
0.056094
0.048186
0.024057
-0.029166
-0.095155
-0.107304
-0.160974
-0.219927
-0.218835
-0.199301
-0.203985
-0.176893
-0.156082
-0.119304
-0.076874
-0.029857
0.020338
0.064022
0.088480
0.092902
0.090071
0.071974
0.047627
-0.022647
-0.077737
-0.123545
-0.184066
-0.216551
-0.235102
-0.235928
-0.229691
-0.207137
-0.173812
-0.128430
-0.073926
-0.027606
0.037549
0.089318
0.117527
0.143371
0.150143
0.148366
0.125233
0.112721
0.075439
0.032010
0.007176
-0.000744
-0.015095
0.001620
0.043807
0.093709
0.146546
0.239135
0.340629
0.430382
0.514808
0.571023
0.628266
0.670133
0.704191
0.724956
0.742287
0.743638
0.730305
0.704063
0.706690
0.698359
0.651462
0.633632
0.656307
0.647882
0.671863
0.695787
0.727754
0.743075
0.727949
0.675794
0.645817
0.589889
0.505819
0.425204
0.319658
0.240482
0.167133
0.129418
0.079567
0.027193
-0.008245
-0.026853
-0.037124
-0.028629
-0.005963
0.035550
0.066207
0.105866
0.152283
0.182190
0.182939
0.191253
0.184717
0.164793
0.113863
0.068594
0.021340
-0.031374
-0.077798
-0.119282
-0.139847
-0.155033
-0.146262
-0.123214
-0.093769
-0.044241
0.000064
0.042302
0.088436
0.122368
0.134760
0.136213
0.147642
0.120679
0.081046
0.030322
-0.012484
-0.074939
-0.119053
-0.152917
-0.173377
-0.191959
-0.189658
-0.173117
-0.128618
-0.071543
-0.023976
0.009866
0.070566
0.107334
0.138907
0.146244
0.130158
0.109302
0.073217
0.021771
-0.024808
-0.063848
-0.112951
-0.149310
-0.179130
-0.174128
-0.150148
-0.129132
-0.098377
-0.049330
-0.005462
0.033472
0.086185
0.110724
0.124680
0.117228
0.145434
0.112627
0.080159
0.046900
-0.004514
-0.059100
-0.106042
-0.135133
-0.162113
-0.154448
-0.145114
-0.125097
-0.089095
-0.039295
0.008147
0.051386
0.106052
0.139324
0.169529
0.166214
0.157991
0.141657
0.109366
0.068652
0.018854
-0.031996
-0.073997
-0.111655
-0.136231
-0.135150
-0.118478
-0.097464
-0.064345
-0.019766
0.028851
0.072729
0.113725
0.155341
0.189147
0.206651
0.198511
0.182065
0.148009
0.103242
0.064295
0.004797
-0.062528
-0.085639
-0.089757
-0.086211
-0.082516
-0.067620
-0.028725
0.018587
0.072445
0.111361
0.159304
0.202202
0.223369
0.232643
0.221762
0.194775
0.159188
0.100044
0.051425
0.031201
-0.000412
-0.033371
-0.072022
-0.057781
-0.046417
-0.033780
0.001907
0.055204
0.101347
0.163736
0.185227
0.211413
0.249505
0.251050
0.244388
0.209766
0.181007
0.140476
0.098339
0.053235
0.010383
-0.034909
-0.065522
-0.063353
-0.061052
-0.039732
-0.010235
0.050853
0.087880
0.138204
0.193872
0.209080
0.222095
0.255561
0.244371
0.214999
0.169874
0.130115
0.083352
0.039209
-0.014809
-0.048245
-0.074199
-0.084186
-0.079330
-0.047335
-0.010014
0.025209
0.068442
0.119177
0.169849
0.201498
0.217694
0.209650
0.199127
0.161935
0.130212
0.097363
0.048418
0.008598
-0.045220
-0.087548
-0.113380
-0.112529
-0.119978
-0.100276
-0.048704
-0.016347
0.032181
0.075246
0.122044
0.154672
0.169446
0.175011
0.170494
0.152094
0.113773
0.072198
0.011271
-0.047648
-0.091932
-0.122164
-0.146886
-0.174956
-0.148594
-0.107318
-0.075360
-0.043642
-0.009631
0.051765
0.082240
0.122177
0.147292
0.154274
0.146996
0.124861
0.079821
0.041674
-0.008020
-0.059397
-0.116680
-0.153738
-0.166832
-0.173179
-0.154881
-0.133756
-0.100832
-0.060970
-0.020573
0.040827
0.087725
0.113642
0.119343
0.130155
0.117598
0.106213
0.074313
0.032979
-0.004701
-0.053497
-0.091174
-0.135237
-0.166757
-0.169564
-0.158344
-0.139440
-0.118743
-0.067838
-0.018428
0.029384
0.068724
0.094124
0.132715
0.152847
0.139962
0.118880
0.080996
0.040745
-0.006977
-0.054806
-0.090685
-0.129038
-0.158260
-0.174786
-0.164099
-0.131292
-0.118805
-0.062446
-0.010863
0.043242
0.077896
0.114322
0.132829
0.145785
0.130271
0.105201
0.080122
0.034607
-0.012693
-0.063616
-0.106565
-0.144136
-0.171253
-0.160984
-0.143622
-0.106997
-0.073054
-0.035629
0.007430
0.048516
0.081146
0.118339
0.161202
0.169247
0.147487
0.117510
0.089337
0.038377
-0.008544
-0.044463
-0.091702
-0.128602
-0.155221
-0.151534
-0.145470
-0.140939
-0.104704
-0.039082
0.005209
0.058161
0.099030
0.133875
0.149719
0.157744
0.155805
0.139966
0.103125
0.049557
-0.005982
-0.051437
-0.083427
-0.100321
-0.149565
-0.163486
-0.152209
-0.127307
-0.095161
-0.048212
-0.005627
0.039953
0.084000
0.114322
0.134590
0.148177
0.151823
0.127819
0.096771
0.049865
0.014741
-0.053760
-0.090550
-0.120131
-0.140681
-0.142084
-0.158566
-0.143975
-0.101003
-0.067287
-0.021355
0.040237
0.075506
0.108213
0.137701
0.157313
0.151305
0.124716
0.086278
0.040710
-0.018218
-0.054718
-0.090839
-0.124457
-0.157087
-0.166429
-0.158370
-0.134569
-0.109761
-0.074910
-0.014681
0.054393
0.088938
0.119547
0.141618
0.151849
0.135770
0.102442
0.081885
0.029323
-0.015015
-0.047240
-0.093203
-0.138568
-0.158224
-0.172644
-0.166649
-0.149563
-0.116518
-0.069617
-0.014225
0.023761
0.069370
0.096033
0.121834
0.124207
0.128312
0.106041
0.065552
0.030478
-0.016133
-0.051022
-0.091420
-0.130292
-0.160130
-0.175316
-0.166114
-0.147839
-0.107776
-0.064152
-0.034667
0.012580
0.064987
0.105784
0.124314
0.138104
0.136140
0.116772
0.079754
0.035812
-0.016200
-0.079663
-0.114051
-0.132645
-0.166907
-0.178408
-0.158972
-0.140835
-0.108623
-0.064625
-0.021620
0.023406
0.063889
0.098219
0.126608
0.129337
0.129753
0.092215
0.056784
0.007832
-0.028637
-0.085889
-0.114880
-0.138815
-0.162263
-0.167277
-0.170600
-0.148417
-0.103786
-0.068129
-0.018504
0.033174
0.061079
0.090239
0.131027
0.139655
0.135324
0.109900
0.071100
0.035398
-0.019202
-0.063237
-0.118903
-0.144571
-0.164123
-0.179144
-0.181306
-0.154242
-0.129777
-0.077081
-0.027839
0.015839
0.057630
0.093592
0.133296
0.138528
0.132747
0.099197
0.067026
0.023824
-0.028332
-0.078261
-0.130219
-0.156143
-0.167699
-0.171445
-0.172173
-0.155289
-0.111846
-0.059034
-0.027909
0.028588
0.081960
0.118405
0.141042
0.148138
0.126663
0.090792
0.071747
0.038298
-0.006684
-0.064485
-0.117598
-0.149074
-0.177162
-0.160721
-0.154952
-0.137796
-0.106439
-0.068992
-0.001505
0.042949
0.077317
0.114797
0.144552
0.179143
0.167043
0.140667
0.096436
0.042269
0.016233
-0.019597
-0.059718
-0.098595
-0.123168
-0.129878
-0.118577
-0.103391
-0.081465
-0.032581
0.015619
0.065334
0.114567
0.141212
0.158919
0.161312
0.147987
0.136548
0.121243
0.068119
0.024652
-0.013165
-0.054956
-0.081721
-0.097867
-0.098194
-0.097547
-0.089804
-0.058071
-0.012023
0.039074
0.083348
0.128643
0.160635
0.189886
0.191827
0.183821
0.155829
0.117958
0.064447
0.015036
-0.035014
-0.077319
-0.119020
-0.153162
-0.155953
-0.138731
-0.116742
-0.083711
-0.050700
0.012642
0.052500
0.085548
0.121864
0.137252
0.150266
0.135862
0.103802
0.075884
0.032069
-0.023657
-0.080310
-0.111703
-0.132191
-0.164574
-0.169281
-0.154844
-0.140233
-0.121674
-0.084412
-0.060584
-0.020236
0.040866
0.097025
0.114918
0.128579
0.129050
0.105030
0.079495
0.031459
-0.045858
-0.093682
-0.131977
-0.158539
-0.180900
-0.181388
-0.182767
-0.181823
-0.148228
-0.095239
-0.041296
0.002252
0.051984
0.084719
0.109813
0.100208
0.113548
0.087112
0.051309
0.015095
-0.031063
-0.089319
-0.128017
-0.165218
-0.197186
-0.201044
-0.196714
-0.154087
-0.127326
-0.086976
-0.033274
0.010428
0.056108
0.084501
0.102611
0.112344
0.106454
0.089183
0.056288
0.001458
-0.038387
-0.085639
-0.131596
-0.172997
-0.199102
-0.202169
-0.193111
-0.165750
-0.135330
-0.092307
-0.043595
0.000333
0.043818
0.071729
0.093038
0.109161
0.101591
0.077300
0.035825
-0.025126
-0.069881
-0.106210
-0.147558
-0.187931
-0.214935
-0.227456
-0.188841
-0.138674
-0.085702
-0.043356
-0.006612
0.060079
0.107897
0.170765
0.222510
0.246043
0.238851
0.212986
0.191116
0.186693
0.166254
0.129819
0.122310
0.132414
0.134195
0.156163
0.197751
0.251661
0.312844
0.404443
0.478103
0.537929
0.625494
0.702275
0.753638
0.822719
0.856440
0.851415
0.851341
0.841706
0.802057
0.744787
0.700426
0.658682
0.608441
0.585458
0.566744
0.549742
0.536179
0.497906
0.492792
0.470454
0.465304
0.443510
0.410011
0.373750
0.334228
0.295220
0.256968
0.205574
0.148915
0.078014
0.004964
-0.043535
-0.074248
-0.073506
-0.078375
-0.065818
-0.021252
0.030066
0.061465
0.101267
0.150230
0.182919
0.198809
0.199222
0.192310
0.157151
0.115687
0.071877
0.030869
-0.035617
-0.085844
-0.098599
-0.115533
-0.124067
-0.116374
-0.096987
-0.083573
-0.039295
0.007223
0.045979
0.102041
0.130916
0.144849
0.152569
0.138508
0.127647
0.088530
0.034854
-0.000821
-0.052385
-0.102604
-0.118763
-0.131429
-0.153930
-0.152682
-0.133517
-0.102219
-0.063354
-0.005515
0.045083
0.082337
0.107363
0.144887
0.142994
0.141408
0.122872
0.082302
0.048591
0.006612
-0.043307
-0.073643
-0.125298
-0.153268
-0.156915
-0.143425
-0.111171
-0.080011
-0.033262
0.010339
0.056775
0.111689
0.149879
0.162337
0.173305
0.164917
0.140618
0.101559
0.068286
0.015375
-0.035077
-0.071953
-0.105854
-0.128306
-0.133233
-0.126774
-0.113652
-0.070456
-0.028086
0.034870
0.076910
0.120731
0.159775
0.180483
0.192650
0.197661
0.166747
0.136173
0.079696
0.030732
-0.003232
-0.071203
-0.120212
-0.106252
-0.087014
-0.082650
-0.062511
-0.023823
0.014298
0.048967
0.101486
0.153939
0.197327
0.202885
0.211389
0.214654
0.191128
0.158062
0.113804
0.070454
0.035442
-0.004864
-0.036739
-0.067651
-0.068960
-0.063929
-0.026038
0.005340
0.040900
0.082868
0.132578
0.188325
0.226192
0.228669
0.240468
0.251847
0.241160
0.203606
0.149963
0.103153
0.062922
0.019850
-0.015840
-0.033805
-0.036766
-0.029958
-0.003179
0.025337
0.046826
0.088005
0.155557
0.197373
0.224923
0.250466
0.256743
0.269341
0.238741
0.203214
0.154880
0.111044
0.060832
0.019760
-0.015832
-0.046292
-0.051401
-0.029393
-0.004991
0.030741
0.060373
0.105704
0.147586
0.196607
0.237455
0.250773
0.261384
0.255576
0.226687
0.183833
0.125759
0.062073
0.024831
-0.012467
-0.059889
-0.084040
-0.076922
-0.063167
-0.041995
-0.014830
0.021997
0.070696
0.118710
0.158968
0.193342
0.202229
0.218520
0.217567
0.191800
0.151895
0.100102
0.048496
0.007228
-0.036010
-0.083287
-0.105202
-0.109167
-0.100754
-0.074504
-0.040848
-0.002312
0.039279
0.069356
0.106651
0.138069
0.164867
0.182138
0.180647
0.151915
0.107632
0.053669
-0.005596
-0.030833
-0.068691
-0.107305
-0.135976
-0.141014
-0.138984
-0.127377
-0.092431
-0.044893
0.005048
0.058195
0.086401
0.110322
0.131576
0.140721
0.131780
0.107208
0.078000
0.031795
-0.004191
-0.050073
-0.096422
-0.149886
-0.178432
-0.158555
-0.157534
-0.136300
-0.097532
-0.059523
-0.018164
0.033342
0.081599
0.120744
0.144835
0.149104
0.139352
0.114733
0.071612
0.009680
-0.030828
-0.068280
-0.103576
-0.143640
-0.169443
-0.173324
-0.171178
-0.138128
-0.110461
-0.058903
-0.023426
0.024906
0.071950
0.108127
0.116831
0.120989
0.124054
0.107721
0.065559
0.027039
0.004418
-0.039161
-0.079601
-0.135979
-0.157664
-0.179518
-0.160120
-0.141081
-0.107726
-0.073911
-0.013345
0.033823
0.068464
0.108449
0.133293
0.142460
0.136523
0.126019
0.095813
0.047892
-0.007066
-0.039751
-0.092487
-0.131464
-0.150311
-0.164597
-0.167202
-0.134747
-0.107178
-0.082022
-0.007743
0.050835
0.092130
0.122378
0.149174
0.148827
0.133698
0.117517
0.083522
0.036248
-0.008014
-0.053816
-0.099659
-0.135963
-0.156552
-0.154092
-0.147600
-0.132350
-0.094346
-0.058330
-0.002270
0.051998
0.089598
0.114550
0.117207
0.109342
0.131279
0.101039
0.081567
0.047078
-0.005233
-0.056380
-0.096555
-0.130766
-0.155759
-0.157483
-0.156618
-0.131121
-0.093247
-0.061719
-0.007478
0.039980
0.072245
0.108254
0.139431
0.153437
0.148368
0.113821
0.088276
0.047245
0.002583
-0.050414
-0.104878
-0.148234
-0.170664
-0.168285
-0.178726
-0.149494
-0.117952
-0.066612
-0.013944
0.036497
0.075628
0.105651
0.115995
0.120185
0.121831
0.101717
0.065709
0.026263
-0.015326
-0.065604
-0.104194
-0.145413
-0.168116
-0.174393
-0.176344
-0.152078
-0.117097
-0.077714
-0.031657
0.023287
0.070252
0.111457
0.124846
0.119876
0.127709
0.103828
0.069318
0.028233
-0.020818
-0.075867
-0.130137
-0.164327
-0.173255
-0.196672
-0.184456
-0.154932
-0.121781
-0.069916
-0.024482
0.015461
0.059838
0.080949
0.120101
0.125671
0.124663
0.119301
0.063892
0.017772
-0.032634
-0.070264
-0.124323
-0.169795
-0.197571
-0.188426
-0.173278
-0.149711
-0.127119
-0.092588
-0.029418
0.013533
0.054028
0.093589
0.108837
0.116776
0.113893
0.084640
0.059695
0.010995
-0.038280
-0.081193
-0.137890
-0.174735
-0.181996
-0.187966
-0.190441
-0.186942
-0.150328
-0.108593
-0.054101
-0.000516
0.051753
0.098051
0.097046
0.106213
0.110509
0.089489
0.057982
0.017197
-0.028743
-0.085491
-0.130660
-0.156029
-0.183921
-0.191583
-0.196275
-0.169318
-0.131163
-0.083841
-0.052338
-0.022620
0.030570
0.092171
0.123784
0.115876
0.097994
0.063614
0.037729
-0.003087
-0.045658
-0.092148
-0.135175
-0.171483
-0.184786
-0.182473
-0.169397
-0.156617
-0.125837
-0.085569
-0.030463
-0.015780
0.057991
0.120101
0.127855
0.135222
0.125475
0.091587
0.064439
0.024217
-0.015467
-0.069963
-0.112825
-0.159798
-0.173366
-0.173507
-0.164379
-0.138326
-0.109831
-0.065582
-0.014669
0.036101
0.085407
0.128647
0.134550
0.138930
0.139106
0.114519
0.079793
0.042056
-0.012546
-0.052065
-0.100056
-0.150921
-0.164828
-0.155659
-0.144960
-0.137858
-0.099997
-0.054632
-0.004004
0.054826
0.101054
0.140835
0.151099
0.140128
0.139642
0.123089
0.073576
0.040883
0.002436
-0.051270
-0.070602
-0.113834
-0.135442
-0.153339
-0.148641
-0.126449
-0.086673
-0.050073
0.004134
0.050492
0.095755
0.104743
0.132176
0.144982
0.130367
0.102596
0.053346
0.011819
-0.029302
-0.072670
-0.117938
-0.161452
-0.183282
-0.202766
-0.193083
-0.193286
-0.154480
-0.096532
-0.038957
0.004745
0.051131
0.079806
0.094527
0.108017
0.099942
0.084865
0.048959
-0.006568
-0.069458
-0.110170
-0.144363
-0.191637
-0.199730
-0.214258
-0.213329
-0.207046
-0.175980
-0.112864
-0.062583
-0.021698
0.013605
0.048809
0.077061
0.088670
0.096581
0.075454
0.022873
-0.031979
-0.068565
-0.105110
-0.144708
-0.185679
-0.209762
-0.228850
-0.209155
-0.179254
-0.138051
-0.096643
-0.068119
-0.018162
0.027632
0.055022
0.079382
0.088284
0.065095
0.026806
-0.000185
-0.025645
-0.048103
-0.102850
-0.169722
-0.197281
-0.221860
-0.226963
-0.225588
-0.203210
-0.159124
-0.116808
-0.076274
-0.030123
0.015415
0.050670
0.068055
0.078554
0.085361
0.033337
0.025296
0.000384
-0.055368
-0.113102
-0.162365
-0.201046
-0.206299
-0.226577
-0.228491
-0.197388
-0.166658
-0.132428
-0.087222
-0.038973
0.014272
0.067179
0.097516
0.115363
0.118503
0.114457
0.095567
0.067425
0.031771
-0.008323
-0.029995
-0.070190
-0.066272
-0.044731
-0.010716
0.016543
0.082962
0.149964
0.229270
0.287856
0.363363
0.443841
0.495027
0.539483
0.547023
0.531065
0.540666
0.542607
0.512590
0.497422
0.487087
0.498689
0.525440
0.565518
0.573261
0.593327
0.641375
0.685591
0.722321
0.761256
0.783311
0.800691
0.747481
0.693260
0.607982
0.514245
0.432645
0.349720
0.252728
0.166214
0.073672
0.036252
-0.003523
-0.033777
-0.058925
-0.046595
-0.010083
0.024088
0.050391
0.088191
0.139700
0.166274
0.180355
0.196114
0.198310
0.157324
0.106706
0.063644
-0.003909
-0.047673
-0.071296
-0.111860
-0.150200
-0.141622
-0.141698
-0.111314
-0.086673
-0.067024
-0.017091
0.032669
0.077221
0.114261
0.140354
0.158609
0.149695
0.104930
0.072213
0.027759
-0.021674
-0.071284
-0.112938
-0.161102
-0.184947
-0.190072
-0.181830
-0.161461
-0.115843
-0.080886
-0.027230
0.019693
0.060485
0.085829
0.108283
0.123603
0.112308
0.100644
0.071972
0.033537
-0.010440
-0.076610
-0.113712
-0.152352
-0.172985
-0.186312
-0.166978
-0.143443
-0.107525
-0.066515
-0.021107
0.019922
0.068964
0.117372
0.136006
0.153576
0.156129
0.111058
0.068999
0.026119
-0.016180
-0.053100
-0.097110
-0.137405
-0.151539
-0.148469
-0.142832
-0.123693
-0.088866
-0.043318
-0.016468
0.038748
0.080851
0.116630
0.139633
0.159559
0.154232
0.115424
0.092276
0.059158
0.015582
-0.029648
-0.071773
-0.134815
-0.136829
-0.111673
-0.116006
-0.111281
-0.086212
-0.035045
0.021900
0.073929
0.118313
0.152243
0.173926
0.175252
0.165520
0.153038
0.130752
0.091470
0.033211
-0.018181
-0.045746
-0.084070
-0.090893
-0.089103
-0.088682
-0.065178
-0.027568
0.012548
0.058486
0.096893
0.154476
0.189187
0.191826
0.203401
0.202187
0.180901
0.146454
0.121447
0.082627
0.037136
-0.016957
-0.058648
-0.088707
-0.100428
-0.083008
-0.055671
-0.014313
0.022627
0.089030
0.143033
0.180111
0.209440
0.232593
0.240490
0.230492
0.197205
0.163772
0.133209
0.076678
0.027481
-0.018291
-0.056921
-0.055908
-0.075219
-0.065468
-0.048788
-0.002947
0.026227
0.083687
0.125871
0.158663
0.195629
0.221283
0.246608
0.223307
0.197242
0.170401
0.132206
0.068780
0.011177
-0.026870
-0.056757
-0.093994
-0.100225
-0.083942
-0.068622
-0.050361
0.013642
0.071965
0.125767
0.146498
0.182949
0.195052
0.201805
0.180904
0.151026
0.139409
0.090392
0.045062
0.001940
-0.049664
-0.094777
-0.134413
-0.147530
-0.122284
-0.092261
-0.068677
-0.041206
0.017865
0.064616
0.105278
0.142668
0.165829
0.177161
0.175231
0.148675
0.101350
0.056658
0.018781
-0.027975
-0.091377
-0.125170
-0.141770
-0.165400
-0.142787
-0.135168
-0.119632
-0.081246
-0.029551
0.010001
0.057092
0.103038
0.116954
0.118500
0.126013
0.086080
0.060735
0.015062
-0.020058
-0.064883
-0.110750
-0.147380
-0.168967
-0.177193
-0.180547
-0.165692
-0.123105
-0.078459
-0.034064
0.028880
0.063469
0.097941
0.133659
0.153254
0.121744
0.096579
0.049788
-0.011618
-0.068557
-0.093368
-0.123243
-0.172683
-0.204448
-0.206039
-0.177088
-0.153527
-0.111917
-0.078241
-0.045535
0.009831
0.066076
0.100709
0.105225
0.111795
0.110742
0.082960
0.040542
0.009618
-0.033729
-0.071273
-0.112527
-0.148878
-0.164265
-0.181948
-0.173048
-0.150758
-0.115426
-0.078255
-0.021503
0.018556
0.058205
0.107549
0.128589
0.134627
0.122812
0.094324
0.060753
0.010411
-0.024664
-0.074477
-0.113052
-0.146690
-0.161180
-0.176073
-0.172076
-0.141966
-0.122907
-0.070966
-0.019198
0.021547
0.062739
0.104067
0.130453
0.133771
0.126287
0.098713
0.054023
0.010252
-0.039105
-0.074174
-0.110660
-0.155886
-0.169774
-0.179829
-0.163730
-0.148729
-0.101197
-0.055853
-0.011370
0.039322
0.085959
0.110573
0.119570
0.132145
0.125410
0.109682
0.070396
0.028132
-0.022385
-0.075103
-0.131467
-0.160115
-0.181885
-0.169202
-0.154878
-0.127254
-0.106842
-0.071268
-0.017793
0.023748
0.061202
0.090537
0.101307
0.139328
0.149552
0.122661
0.083442
0.037772
-0.027210
-0.068203
-0.104676
-0.139693
-0.170581
-0.185662
-0.165698
-0.150283
-0.115144
-0.083204
-0.022502
0.040762
0.063084
0.087606
0.117697
0.131933
0.130145
0.103731
0.064060
0.023893
-0.023794
-0.072088
-0.121882
-0.151335
-0.174425
-0.196311
-0.189294
-0.170175
-0.132942
-0.106780
-0.030185
0.014248
0.052247
0.085804
0.103541
0.130009
0.124334
0.094855
0.063330
0.033286
-0.025662
-0.065247
-0.116896
-0.152070
-0.157986
-0.169516
-0.172080
-0.169275
-0.144003
-0.100885
-0.034634
0.015091
0.044868
0.077430
0.094043
0.109317
0.107142
0.075218
0.054288
0.016625
-0.027356
-0.078162
-0.124541
-0.158234
-0.181657
-0.199403
-0.194558
-0.177513
-0.135071
-0.088592
-0.049364
-0.015781
0.048237
0.083732
0.107426
0.108870
0.099564
0.083468
0.048391
-0.003142
-0.045389
-0.100267
-0.140072
-0.167661
-0.193351
-0.189059
-0.177909
-0.167276
-0.142620
-0.092071
-0.040821
0.002635
0.057603
0.097485
0.113929
0.118459
0.114266
0.095568
0.061103
0.014324
-0.035124
-0.068313
-0.120687
-0.168055
-0.153267
-0.169919
-0.180682
-0.149460
-0.110594
-0.073896
-0.019036
0.034745
0.088856
0.120560
0.151597
0.168457
0.156753
0.125212
0.091860
0.041539
-0.015380
-0.056792
-0.100309
-0.123787
-0.151211
-0.172930
-0.170632
-0.148797
-0.111765
-0.064864
-0.016597
0.031721
0.070315
0.106134
0.142362
0.148120
0.146379
0.135676
0.099180
0.055104
0.027385
-0.030167
-0.074940
-0.118049
-0.145864
-0.144043
-0.125195
-0.117303
-0.084791
-0.045366
-0.006996
0.032895
0.093615
0.131071
0.147144
0.148652
0.148641
0.126178
0.080592
0.047638
-0.009072
-0.069750
-0.115850
-0.147120
-0.187797
-0.207526
-0.182962
-0.150372
-0.124521
-0.071579
-0.046438
0.016946
0.061368
0.094013
0.108817
0.119095
0.111717
0.078859
0.037301
0.003417
-0.062249
-0.115765
-0.159929
-0.171143
-0.199477
-0.214849
-0.203072
-0.196267
-0.166598
-0.118156
-0.071115
-0.016893
0.022049
0.057453
0.072568
0.083362
0.077583
0.055660
0.016880
-0.029335
-0.071010
-0.104233
-0.135239
-0.170662
-0.200029
-0.220923
-0.239226
-0.213521
-0.171633
-0.128109
-0.094752
-0.044654
0.039595
0.072132
0.083098
0.094858
0.074848
0.047327
0.013152
-0.024757
-0.071179
-0.128312
-0.179340
-0.210724
-0.225729
-0.227354
-0.224910
-0.179959
-0.151821
-0.114749
-0.080631
-0.031626
0.032542
0.074081
0.072233
0.088153
0.070072
0.051718
0.016030
-0.012466
-0.048856
-0.103141
-0.151066
-0.189369
-0.222724
-0.230021
-0.221965
-0.210451
-0.185449
-0.136606
-0.107962
-0.040997
0.038349
0.059867
0.062712
0.070436
0.056441
0.035815
0.009704
-0.035265
-0.062193
-0.096842
-0.127096
-0.145942
-0.136956
-0.134593
-0.112411
-0.078366
-0.036759
-0.000861
0.053168
0.126513
0.212656
0.276688
0.325911
0.361023
0.373029
0.387193
0.375810
0.362072
0.343613
0.325694
0.308199
0.290460
0.299690
0.337462
0.388879
0.447690
0.507868
0.587042
0.696542
0.766838
0.824108
0.865536
0.881870
0.877326
0.830384
0.801590
0.769426
0.713085
0.605795
0.500788
0.377414
0.291218
0.221736
0.168278
0.128485
0.103045
0.112032
0.130094
0.151681
0.178841
0.203274
0.215925
0.229748
0.228426
0.204913
0.176835
0.115202
0.077495
0.027603
-0.016345
-0.052908
-0.095865
-0.120682
-0.137547
-0.129973
-0.105117
-0.064074
-0.028124
-0.001755
0.050396
0.097823
0.135409
0.143917
0.141982
0.136976
0.111179
0.068922
0.021708
-0.031903
-0.071486
-0.121082
-0.148067
-0.170310
-0.188665
-0.165941
-0.150016
-0.144566
-0.088764
-0.007846
0.024910
0.083681
0.098519
0.138106
0.131854
0.111609
0.088633
0.084971
0.042325
-0.024936
-0.079346
-0.115136
-0.131806
-0.140656
-0.168374
-0.180613
-0.142917
-0.096037
-0.057792
-0.022857
0.028591
0.074195
0.104712
0.134911
0.131326
0.143212
0.135280
0.083703
0.027028
-0.031533
-0.047457
-0.081230
-0.117191
-0.151613
-0.158448
-0.154786
-0.150395
-0.112025
-0.050157
-0.006303
0.035741
0.080444
0.122480
0.138090
0.145231
0.134185
0.119353
0.078553
0.041535
0.013209
-0.049434
-0.087885
-0.120041
-0.114468
-0.129601
-0.134137
-0.118617
-0.083935
-0.011137
0.022277
0.054057
0.080003
0.129625
0.163290
0.192587
0.185913
0.149135
0.116914
0.082958
0.039021
-0.007600
-0.043881
-0.073372
-0.103927
-0.110215
-0.115802
-0.095835
-0.045807
0.002757
0.048190
0.098696
0.143188
0.191594
0.204627
0.172722
0.187081
0.182217
0.144778
0.099911
0.074814
0.028607
-0.026310
-0.063265
-0.075634
-0.084856
-0.065725
-0.054310
-0.019556
0.020935
0.078665
0.116919
0.163259
0.200687
0.224740
0.228580
0.232761
0.204057
0.161432
0.135198
0.085134
0.028212
-0.019831
-0.038211
-0.054025
-0.063044
-0.069758
-0.058856
-0.024656
0.043568
0.102741
0.140343
0.153511
0.198301
0.223602
0.243803
0.223810
0.179667
0.173777
0.122357
0.083902
0.032946
-0.028788
-0.073404
-0.104566
-0.093132
-0.077297
-0.063226
-0.026766
0.033086
0.064399
0.109723
0.153699
0.181845
0.213854
0.233423
0.194638
0.171400
0.141445
0.099742
0.047285
0.008033
-0.053290
-0.078806
-0.090135
-0.105084
-0.101654
-0.090823
-0.067172
-0.027439
0.033678
0.065717
0.112541
0.158694
0.171293
0.185815
0.169041
0.140099
0.086931
0.058979
0.027280
-0.009029
-0.070651
-0.109323
-0.134410
-0.162705
-0.168519
-0.143013
-0.096382
-0.041917
-0.002465
0.046714
0.102141
0.126041
0.154314
0.149523
0.139009
0.119830
0.078059
0.038336
-0.012169
-0.044080
-0.092418
-0.107535
-0.137459
-0.161864
-0.149936
-0.147704
-0.115139
-0.066419
-0.021723
0.029345
0.071623
0.098109
0.126336
0.152498
0.123254
0.100385
0.061997
0.020388
-0.017271
-0.070013
-0.132801
-0.163651
-0.169552
-0.185179
-0.173342
-0.147858
-0.112735
-0.071778
-0.045836
-0.000861
0.082345
0.129988
0.132439
0.137073
0.127253
0.097137
0.070161
0.033594
-0.009395
-0.066370
-0.116043
-0.146587
-0.169156
-0.176863
-0.156131
-0.131086
-0.102960
-0.092973
-0.048975
0.008102
0.070893
0.103395
0.118924
0.130131
0.108738
0.070535
0.058783
0.040277
-0.010497
-0.068581
-0.103342
-0.127831
-0.149181
-0.183116
-0.186148
-0.147454
-0.086758
-0.041320
0.000983
0.035708
0.075033
0.111305
0.132417
0.137722
0.144236
0.122670
0.091353
0.037604
-0.013127
-0.061550
-0.103898
-0.139852
-0.127022
-0.157416
-0.142896
-0.141999
-0.108415
-0.052974
0.012501
0.061579
0.092468
0.115722
0.133046
0.156515
0.145941
0.104694
0.056337
0.016150
-0.019178
-0.051982
-0.089434
-0.140815
-0.153101
-0.160081
-0.150628
-0.122964
-0.085152
-0.034051
-0.006699
0.042872
0.102251
0.125759
0.141522
0.146428
0.122241
0.108176
0.092513
0.032384
-0.008620
-0.048971
-0.103942
-0.136744
-0.164334
-0.170303
-0.165031
-0.145851
-0.116438
-0.051029
0.018121
0.061758
0.089919
0.114910
0.118156
0.139862
0.125944
0.113982
0.082945
0.031624
-0.003663
-0.068503
-0.123143
-0.149486
-0.164116
-0.180966
-0.143031
-0.147712
-0.117737
-0.053905
-0.009003
0.024425
0.085037
0.116741
0.151526
0.147305
0.126346
0.117752
0.075466
0.041995
-0.007588
-0.064002
-0.135315
-0.148991
-0.157144
-0.179312
-0.168962
-0.146785
-0.113550
-0.070400
0.003360
0.044607
0.085625
0.111406
0.125383
0.138509
0.122557
0.090332
0.062360
0.017990
-0.018293
-0.070702
-0.112560
-0.139396
-0.143180
-0.149400
-0.162656
-0.136737
-0.106615
-0.057398
-0.002865
0.053467
0.092839
0.112369
0.141004
0.145096
0.148140
0.115764
0.082627
0.037093
-0.011901
-0.050714
-0.096282
-0.123521
-0.149913
-0.150083
-0.124278
-0.091399
-0.062014
-0.019046
0.024710
0.080209
0.120118
0.153775
0.158752
0.183485
0.183322
0.132742
0.100482
0.056906
0.009181
-0.045626
-0.086688
-0.121978
-0.146229
-0.141128
-0.124059
-0.117028
-0.070694
-0.008872
0.040290
0.075909
0.115750
0.154704
0.185227
0.207109
0.194718
0.170332
0.123495
0.083491
0.034294
-0.005575
-0.052870
-0.088683
-0.116427
-0.125768
-0.113515
-0.096724
-0.053928
-0.015447
0.031708
0.072656
0.115505
0.142171
0.164807
0.166950
0.164727
0.135696
0.092612
0.043819
-0.001948
-0.037171
-0.088074
-0.127138
-0.152900
-0.174207
-0.172052
-0.157266
-0.107680
-0.064749
-0.008861
0.036832
0.066628
0.077612
0.085299
0.115237
0.123254
0.101509
0.057536
0.002672
-0.033040
-0.092637
-0.148656
-0.175369
-0.199106
-0.214649
-0.200559
-0.167717
-0.131737
-0.084988
-0.021242
0.037100
0.055705
0.095479
0.108886
0.121568
0.103732
0.072221
0.049091
0.004733
-0.040440
-0.102957
-0.142640
-0.165219
-0.188427
-0.199534
-0.187197
-0.177343
-0.141808
-0.102812
-0.063722
0.001894
0.049510
0.099465
0.127043
0.112964
0.116129
0.095772
0.043702
0.002125
-0.054603
-0.079895
-0.124440
-0.142721
-0.179398
-0.206322
-0.200987
-0.167552
-0.139864
-0.098814
-0.052398
-0.011998
0.048026
0.078120
0.090584
0.107960
0.097957
0.068592
0.037164
-0.005934
-0.062145
-0.099103
-0.132691
-0.158583
-0.183589
-0.198326
-0.201782
-0.179656
-0.138320
-0.089594
-0.048419
-0.014100
0.049182
0.081690
0.110177
0.124816
0.111709
0.106895
0.120432
0.075140
0.033712
-0.004472
-0.015842
-0.045723
-0.056450
-0.047463
-0.019050
0.030295
0.092907
0.170422
0.240636
0.325971
0.392722
0.427475
0.464033
0.499854
0.522665
0.516449
0.510488
0.505385
0.499586
0.482350
0.492441
0.488416
0.492337
0.543743
0.578895
0.635870
0.672165
0.691057
0.724844
0.781555
0.827929
0.829882
0.847466
0.783703
0.772499
0.681634
0.592955
0.482788
0.380108
0.279753
0.201121
0.127108
0.062793
0.027888
-0.002084
-0.000648
0.013307
0.048324
0.096987
0.139824
0.185862
0.215687
0.236990
0.245392
0.224329
0.194384
0.171435
0.118499
0.066793
0.006850
-0.040881
-0.096505
-0.126101
-0.124294
-0.122153
-0.109805
-0.078154
-0.047308
0.008260
0.064708
0.109186
0.133122
0.156473
0.173841
0.174025
0.140714
0.103019
0.049937
0.012041
-0.034627
-0.078859
-0.123934
-0.181346
-0.175188
-0.157428
-0.122708
-0.091476
-0.043910
-0.001533
0.033504
0.080827
0.108277
0.140844
0.134655
0.114140
0.117554
0.092913
0.062935
0.022107
-0.043149
-0.088535
-0.131441
-0.175951
-0.176869
-0.167014
-0.142570
-0.112776
-0.075045
-0.009108
0.059381
0.094827
0.136037
0.156712
0.172285
0.156156
0.151187
0.102222
0.049170
0.003830
-0.044732
-0.096779
-0.128479
-0.137747
-0.150937
-0.136846
-0.097992
-0.073684
-0.018072
0.052905
0.089671
0.106716
0.127305
0.151930
0.169168
0.178564
0.158766
0.119972
0.059883
0.012660
-0.030647
-0.070101
-0.102721
-0.129542
-0.137489
-0.123025
-0.092841
-0.056413
-0.011287
0.043316
0.084937
0.137398
0.170212
0.193803
0.185175
0.183135
0.169578
0.148800
0.110776
0.054313
0.002836
-0.022009
-0.063557
-0.091899
-0.084725
-0.075626
-0.062658
-0.043269
0.004540
0.042728
0.087947
0.141107
0.189217
0.214449
0.229678
0.210703
0.181559
0.162262
0.115581
0.070468
0.027091
-0.019969
-0.056750
-0.063104
-0.065412
-0.065838
-0.060588
-0.011729
0.020324
0.078318
0.127478
0.173538
0.196113
0.207049
0.236779
0.245551
0.203745
0.163931
0.114468
0.054720
0.015902
-0.020358
-0.049396
-0.064032
-0.060139
-0.060659
-0.050358
-0.018152
0.026388
0.071549
0.104644
0.142926
0.191879
0.228218
0.229828
0.206287
0.180666
0.146069
0.106054
0.053607
0.000121
-0.043717
-0.067676
-0.088423
-0.087494
-0.079391
-0.063342
-0.050617
-0.018861
0.014673
0.074490
0.141800
0.163795
0.193464
0.197387
0.200137
0.171711
0.140912
0.096218
0.054575
0.008284
-0.055292
-0.084632
-0.113082
-0.123617
-0.115628
-0.095028
-0.065999
-0.015615
0.033821
0.074019
0.109892
0.152782
0.159859
0.178428
0.170247
0.154055
0.116128
0.076795
0.026489
-0.023603
-0.080368
-0.127820
-0.167047
-0.152144
-0.133878
-0.109130
-0.093839
-0.046311
0.009176
0.053087
0.093290
0.127295
0.147225
0.157165
0.145289
0.129823
0.109606
0.045196
0.003600
-0.039021
-0.115841
-0.164684
-0.181168
-0.172490
-0.145423
-0.137231
-0.097230
-0.050588
-0.000210
0.031154
0.091301
0.129748
0.150043
0.147371
0.132661
0.123492
0.100532
0.056193
-0.011829
-0.071876
-0.113186
-0.146398
-0.157739
-0.142232
-0.157743
-0.138893
-0.101026
-0.053027
-0.008763
0.038715
0.095958
0.127405
0.136996
0.137307
0.152567
0.129923
0.091099
0.045942
-0.008679
-0.051922
-0.100294
-0.130511
-0.154882
-0.149364
-0.154396
-0.117979
-0.080726
-0.046158
-0.000551
0.045716
0.076860
0.121121
0.146514
0.144329
0.129448
0.111665
0.075144
0.020911
0.003024
-0.049459
-0.079086
-0.116422
-0.140317
-0.153646
-0.142370
-0.108692
-0.065754
-0.042968
0.004172
0.067084
0.114512
0.137791
0.167244
0.161529
0.136606
0.119159
0.087161
0.054651
-0.001415
-0.035117
-0.092357
-0.097712
-0.111261
-0.130177
-0.156578
-0.134544
-0.074749
-0.024395
0.016406
0.062591
0.110717
0.135854
0.151645
0.162835
0.158067
0.134152
0.095140
0.067031
0.044931
-0.026903
-0.082172
-0.123195
-0.168030
-0.165127
-0.139274
-0.118245
-0.081016
-0.036580
0.008945
0.056774
0.126654
0.133964
0.153870
0.165864
0.140757
0.140562
0.105229
0.043790
0.012634
-0.037429
-0.097208
-0.112088
-0.136411
-0.148492
-0.137288
-0.110337
-0.076591
-0.041770
-0.007396
0.032389
0.093852
0.133119
0.155094
0.158148
0.130593
0.120687
0.085790
0.014601
-0.003117
-0.034000
-0.071609
-0.115580
-0.140803
-0.142665
-0.139948
-0.130972
-0.092089
-0.037966
0.015479
0.059645
0.081544
0.100306
0.139212
0.148424
0.137390
0.111584
0.068500
0.045168
-0.010648
-0.053854
-0.090551
-0.146338
-0.161395
-0.146101
-0.145050
-0.121726
-0.106198
-0.057504
0.008815
0.052596
0.091421
0.122279
0.141616
0.133190
0.137438
0.125489
0.092841
0.033826
-0.005117
-0.051854
-0.097085
-0.122381
-0.143874
-0.152978
-0.132291
-0.113818
-0.085113
-0.040101
0.034389
0.074442
0.119711
0.136773
0.176891
0.176126
0.152216
0.135461
0.122218
0.093318
0.033464
-0.020929
-0.080768
-0.127775
-0.145519
-0.127494
-0.109383
-0.082352
-0.045329
-0.018291
0.023241
0.080243
0.103624
0.148266
0.193781
0.191853
0.168826
0.135750
0.139699
0.076854
0.003079
-0.040033
-0.072364
-0.090868
-0.092933
-0.098321
-0.091507
-0.080438
-0.046821
-0.005179
0.048458
0.089140
0.136647
0.187325
0.203881
0.184015
0.182729
0.157828
0.121906
0.058171
0.016015
-0.050247
-0.085720
-0.109987
-0.121648
-0.114822
-0.123955
-0.109453
-0.083240
-0.053105
-0.012477
0.042840
0.094344
0.100091
0.112717
0.128067
0.130761
0.104897
0.071467
0.026673
-0.014805
-0.071032
-0.111945
-0.137395
-0.165903
-0.185529
-0.186732
-0.158006
-0.140818
-0.081437
-0.028204
-0.001161
0.036852
0.104030
0.112211
0.110475
0.099705
0.076549
0.070945
0.017319
-0.037281
-0.072116
-0.111730
-0.139428
-0.185455
-0.218488
-0.211666
-0.174410
-0.128824
-0.095236
-0.044646
-0.010608
0.046026
0.050487
0.092958
0.117625
0.125229
0.073968
0.050795
0.001769
-0.058638
-0.112409
-0.151973
-0.168103
-0.184381
-0.184359
-0.202749
-0.184379
-0.142385
-0.090431
-0.034678
0.005186
0.047991
0.097811
0.121387
0.116596
0.111937
0.084518
0.038002
0.002421
-0.053566
-0.106321
-0.144106
-0.174012
-0.182881
-0.194145
-0.188769
-0.167945
-0.138392
-0.089423
-0.043455
-0.008781
0.033225
0.070365
0.092976
0.093846
0.074272
0.051975
0.041953
-0.014779
-0.076147
-0.095734
-0.129016
-0.153985
-0.173563
-0.160596
-0.124439
-0.088949
-0.026302
0.007557
0.049466
0.138976
0.189837
0.215012
0.254112
0.281480
0.305677
0.291315
0.298950
0.290025
0.252544
0.242237
0.223652
0.192927
0.191750
0.218311
0.262480
0.329357
0.400080
0.467833
0.545830
0.659752
0.729741
0.777420
0.849365
0.897876
0.898410
0.884860
0.820337
0.777163
0.698656
0.637828
0.612800
0.567390
0.489938
0.444722
0.402298
0.361881
0.332960
0.317714
0.302333
0.313754
0.302705
0.307540
0.302770
0.301473
0.271059
0.243659
0.210505
0.158536
0.108315
0.030060
-0.011787
-0.043577
-0.064055
-0.075248
-0.063002
-0.044831
-0.036819
0.008129
0.058923
0.088975
0.147105
0.160409
0.184109
0.176867
0.169914
0.132112
0.096420
0.052422
-0.001661
-0.052060
-0.084943
-0.114995
-0.143344
-0.129628
-0.136590
-0.120681
-0.077026
-0.045617
-0.007123
0.049931
0.085067
0.105974
0.143934
0.146937
0.119455
0.097997
0.062655
0.012793
-0.012706
-0.052640
-0.099000
-0.118855
-0.148972
-0.155884
-0.140396
-0.128039
-0.108519
-0.043736
0.016263
0.049178
0.101949
0.116693
0.139996
0.149664
0.129917
0.097666
0.048667
0.043753
-0.010242
-0.059475
-0.093074
-0.130411
-0.127820
-0.149504
-0.158691
-0.116674
-0.091867
-0.054488
0.018199
0.055437
0.093325
0.134756
0.156440
0.156631
0.149003
0.125124
0.103755
0.061940
0.029087
-0.041413
-0.084560
-0.119669
-0.140630
-0.137673
-0.121302
-0.111600
-0.074341
-0.027099
0.030818
0.074727
0.102501
0.151443
0.168903
0.193600
0.188167
0.148733
0.119277
0.086889
0.029007
-0.020639
-0.052265
-0.082642
-0.122578
-0.141071
-0.127142
-0.086051
-0.034761
-0.015326
0.041237
0.101955
0.123510
0.161595
0.205184
0.223294
0.231237
0.181281
0.141533
0.106093
0.037053
-0.028611
-0.044554
-0.102858
-0.089702
-0.087201
-0.093304
-0.047397
-0.032325
0.004729
0.062418
0.110093
0.154070
0.191196
0.218616
0.214021
0.216348
0.188220
0.169600
0.113557
0.057619
0.018763
-0.022970
-0.056725
-0.088882
-0.082604
-0.070937
-0.054221
-0.018584
0.024103
0.081144
0.118967
0.159144
0.202759
0.214096
0.232059
0.223086
0.184774
0.129062
0.099985
0.062677
0.013309
-0.036572
-0.059971
-0.075113
-0.108949
-0.098570
-0.066390
-0.050884
-0.009789
0.068367
0.103587
0.149589
0.172589
0.195132
0.196032
0.180267
0.155719
0.118792
0.083126
0.041995
-0.018049
-0.059560
-0.084993
-0.090303
-0.099784
-0.116769
-0.087605
-0.070673
-0.038393
0.035130
0.091294
0.132050
0.167490
0.192673
0.187342
0.173043
0.147058
0.106306
0.063918
0.015703
-0.055484
-0.080014
-0.117403
-0.141323
-0.141117
-0.131406
-0.124384
-0.086103
-0.039939
-0.018025
0.054711
0.109979
0.149172
0.173011
0.172733
0.171563
0.136973
0.108230
0.054683
0.003466
-0.040615
-0.097090
-0.117350
-0.146181
-0.158905
-0.136873
-0.115679
-0.077258
-0.027778
-0.001365
0.053422
0.108414
0.147743
0.151940
0.156506
0.145833
0.105196
0.083811
0.040265
-0.023801
-0.068971
-0.108178
-0.114290
-0.144453
-0.140730
-0.123637
-0.122157
-0.097404
-0.052342
-0.008591
0.057806
0.085813
0.114573
0.127804
0.121550
0.119170
0.121666
0.097501
0.047029
-0.003165
-0.049977
-0.077384
-0.114039
-0.131451
-0.130812
-0.144355
-0.139960
-0.097762
-0.052074
-0.007772
0.044900
0.094012
0.121801
0.142590
0.153602
0.148610
0.131851
0.095604
0.050187
0.007106
-0.047428
-0.086610
-0.110261
-0.170461
-0.160872
-0.128716
-0.103342
-0.089708
-0.044452
0.017409
0.071085
0.105505
0.134807
0.160815
0.155509
0.141535
0.119388
0.098406
0.071642
0.023029
-0.037898
-0.067017
-0.106164
-0.129053
-0.139767
-0.116754
-0.095217
-0.072601
-0.026257
0.002816
0.029751
0.084638
0.148247
0.148171
0.133655
0.165303
0.135876
0.093630
0.064787
0.027848
-0.032133
-0.071321
-0.105709
-0.115070
-0.130096
-0.122493
-0.100625
-0.055159
-0.024301
0.014911
0.064222
0.100164
0.134524
0.160112
0.172093
0.154878
0.130689
0.096355
0.063137
0.002917
-0.055173
-0.079686
-0.109245
-0.121168
-0.124000
-0.129895
-0.117986
-0.069439
-0.015247
0.030281
0.069074
0.117185
0.142339
0.161752
0.162404
0.162573
0.130977
0.080338
0.065610
0.028392
-0.030149
-0.066949
-0.114709
-0.163908
-0.174826
-0.133180
-0.108076
-0.074262
-0.032836
0.008562
0.060989
0.108911
0.136570
0.151289
0.142445
0.154603
0.121445
0.095614
0.038297
0.001947
-0.044032
-0.077202
-0.122828
-0.170303
-0.149858
-0.146096
-0.118958
-0.082699
-0.041818
0.022865
0.072021
0.096768
0.120717
0.140006
0.161837
0.155574
0.142252
0.105542
0.047517
-0.015516
-0.057859
-0.096360
-0.129338
-0.125998
-0.151637
-0.149091
-0.121759
-0.079438
-0.044503
0.010213
0.045152
0.058941
0.117931
0.143407
0.148099
0.144481
0.124699
0.093452
0.045123
0.001614
-0.038311
-0.079167
-0.139298
-0.160870
-0.165593
-0.160024
-0.131749
-0.106466
-0.051846
0.011618
0.050075
0.096776
0.140093
0.146240
0.153224
0.150572
0.107524
0.054312
0.042850
0.017200
-0.042861
-0.060475
-0.095514
-0.154904
-0.140221
-0.128913
-0.114916
-0.077247
-0.026977
0.004049
0.057392
0.100699
0.161498
0.201528
0.181288
0.179438
0.159817
0.126414
0.090521
0.052328
-0.007338
-0.045773
-0.104648
-0.129985
-0.127193
-0.110873
-0.075252
-0.029494
0.001395
0.038500
0.088247
0.145287
0.184595
0.177828
0.184646
0.166410
0.151018
0.121828
0.080712
0.044868
-0.005356
-0.051629
-0.085717
-0.104309
-0.106298
-0.082854
-0.055370
-0.044078
0.011806
0.044808
0.103846
0.152478
0.201227
0.218390
0.194104
0.164263
0.160491
0.119894
0.077565
0.030013
-0.014318
-0.066476
-0.106535
-0.140070
-0.136082
-0.118300
-0.113879
-0.080061
-0.035373
0.009643
0.062649
0.089466
0.114471
0.170932
0.180424
0.163845
0.131117
0.102104
0.047008
-0.001237
-0.056909
-0.108683
-0.132952
-0.160211
-0.165062
-0.154287
-0.136520
-0.101652
-0.062744
-0.008596
0.043442
0.074392
0.114771
0.136165
0.154599
0.155591
0.122802
0.076313
0.035416
-0.029977
-0.101845
-0.145687
-0.163641
-0.177849
-0.171294
-0.148695
-0.167403
-0.129582
-0.079935
-0.030534
0.029302
0.069516
0.091495
0.120266
0.129976
0.125587
0.103047
0.062498
0.033609
-0.023595
-0.089875
-0.121220
-0.156762
-0.173962
-0.178270
-0.170673
-0.151578
-0.132788
-0.086549
-0.031327
0.016289
0.063954
0.107859
0.134840
0.126269
0.134068
0.114602
0.069423
0.017029
-0.021182
-0.073480
-0.117350
-0.157099
-0.171080
-0.170788
-0.172037
-0.153208
-0.109893
-0.071610
-0.049688
0.015378
0.074467
0.101036
0.126101
0.125861
0.097734
0.083057
0.043801
0.001759
-0.027803
-0.089188
-0.142720
-0.173373
-0.173141
-0.169230
-0.140560
-0.129018
-0.084190
-0.017800
0.041774
0.117027
0.171442
0.218170
0.261118
0.263077
0.263783
0.270997
0.250033
0.207852
0.183522
0.157758
0.152648
0.155770
0.163610
0.181503
0.227533
0.261939
0.337354
0.397814
0.475154
0.557189
0.634487
0.694643
0.772281
0.812769
0.837529
0.859745
0.855091
0.813383
0.770635
0.702496
0.662572
0.611769
0.568350
0.561125
0.569084
0.539867
0.515532
0.490666
0.491692
0.483186
0.479542
0.456416
0.433850
0.408115
0.360278
0.311584
0.255515
0.203730
0.148237
0.088120
0.038169
-0.023865
-0.040665
-0.031435
-0.017587
0.006098
0.019676
0.056540
0.094474
0.136788
0.177108
0.215849
0.226247
0.217462
0.201373
0.191537
0.119859
0.080004
0.029306
-0.016485
-0.056868
-0.096807
-0.114379
-0.124092
-0.120004
-0.097154
-0.058788
-0.011024
0.036410
0.086732
0.120528
0.144476
0.174221
0.186395
0.162228
0.141101
0.087733
0.044285
0.004188
-0.049264
-0.088753
-0.107889
-0.140576
-0.139748
-0.138019
-0.119262
-0.070627
-0.022112
0.032973
0.085735
0.119662
0.143241
0.173882
0.174586
0.156222
0.131875
0.107351
0.068824
0.017552
-0.036960
-0.069945
-0.114036
-0.140930
-0.134586
-0.131845
-0.099210
-0.055065
-0.024034
0.017346
0.088696
0.137417
0.172309
0.175729
0.192630
0.210117
0.146971
0.124065
0.092225
0.022326
-0.018059
-0.057565
-0.092134
-0.124660
-0.138830
-0.120472
-0.090583
-0.047618
0.009213
0.051139
0.096691
0.132609
0.181310
0.188096
0.195812
0.188145
0.174143
0.145519
0.101444
0.056557
0.002763
-0.031164
-0.057352
-0.068684
-0.075500
-0.074951
-0.067740
-0.029319
0.038850
0.082899
0.122439
0.160121
0.189137
0.211134
0.222594
0.201834
0.185196
0.163191
0.127728
0.077502
0.031889
-0.021102
-0.046244
-0.050021
-0.060191
-0.060508
-0.035244
0.000358
0.048487
0.090473
0.169961
0.203155
0.228195
0.256709
0.260039
0.241787
0.240504
0.218019
0.159024
0.100919
0.043254
-0.006287
-0.029429
-0.043712
-0.057381
-0.046732
-0.037012
0.012086
0.069373
0.112846
0.171539
0.213122
0.247702
0.263674
0.263783
0.246844
0.210064
0.191731
0.160641
0.103337
0.058244
0.008960
-0.016764
-0.041851
-0.047778
-0.036684
-0.030853
-0.005274
0.056131
0.101336
0.151495
0.197393
0.222102
0.240110
0.239352
0.232544
0.208054
0.165382
0.129103
0.078584
0.019966
-0.017646
-0.044383
-0.065532
-0.081976
-0.068321
-0.040190
-0.005553
0.037752
0.087587
0.132843
0.180059
0.205121
0.218148
0.215722
0.221286
0.187792
0.171138
0.105504
0.063893
-0.003789
-0.032971
-0.058927
-0.090759
-0.083096
-0.071126
-0.087260
-0.052631
0.001093
0.060607
0.096621
0.125693
0.177796
0.184157
0.194176
0.200910
0.175926
0.144445
0.091851
0.040099
-0.015008
-0.053451
-0.087504
-0.100721
-0.114485
-0.111688
-0.105808
-0.058482
0.011004
0.057488
0.082280
0.110222
0.147964
0.170952
0.187219
0.168739
0.146531
0.129567
0.080652
0.035669
-0.018702
-0.069486
-0.096954
-0.111896
-0.123777
-0.112365
-0.088900
-0.061707
-0.030498
0.023953
0.075369
0.111419
0.162031
0.184474
0.181983
0.158712
0.139147
0.109393
0.063351
0.025675
-0.026219
-0.065821
-0.096284
-0.118561
-0.129333
-0.110039
-0.091220
-0.054093
-0.005061
0.047103
0.087389
0.126462
0.176601
0.198462
0.189203
0.164364
0.151086
0.116249
0.044539
0.027856
-0.012624
-0.050812
-0.087703
-0.101518
-0.137654
-0.113977
-0.075287
-0.060711
0.002038
0.054229
0.094816
0.136104
0.161134
0.178659
0.197168
0.190981
0.168867
0.134181
0.092938
0.042852
-0.002553
-0.046030
-0.078090
-0.111094
-0.122636
-0.119367
-0.092162
-0.041302
0.012759
0.054607
0.095082
0.122522
0.165352
0.193041
0.202892
0.187181
0.181593
0.132732
0.079274
0.030686
0.000030
-0.035892
-0.079430
-0.100761
-0.111329
-0.108077
-0.072521
-0.035026
0.013210
0.058770
0.109463
0.145963
0.182600
0.205611
0.214806
0.198775
0.174646
0.138300
0.105826
0.049866
-0.021609
-0.069837
-0.090604
-0.102108
-0.109189
-0.115907
-0.076618
-0.041329
0.000375
0.049925
0.103214
0.141014
0.167182
0.184776
0.203748
0.189578
0.157571
0.124846
0.083451
0.040361
-0.024147
-0.057637
-0.086941
-0.104571
-0.121544
-0.109211
-0.072511
-0.033056
0.007648
0.038271
0.088587
0.134921
0.163582
0.181176
0.188819
0.188563
0.173265
0.139248
0.083177
0.029920
-0.012478
-0.044776
-0.079017
-0.092981
-0.126534
-0.116230
-0.090688
-0.057332
0.000215
0.047052
0.082369
0.135856
0.180044
0.186732
0.193445
0.187245
0.146990
0.121705
0.087038
0.036357
-0.020925
-0.072551
-0.093693
-0.100989
-0.110251
-0.113740
-0.098869
-0.071536
-0.030190
0.014506
0.076130
0.101546
0.144045
0.173040
0.193752
0.160435
0.142047
0.120036
0.090835
0.035810
-0.013228
-0.068502
-0.100396
-0.135281
-0.120110
-0.104382
-0.084497
-0.059366
-0.014063
0.043379
0.085480
0.115591
0.155009
0.166174
0.173440
0.173789
0.146778
0.101946
0.065510
0.027374
-0.022943
-0.066712
-0.101069
-0.119542
-0.126021
-0.114387
-0.102386
-0.059711
-0.007375
0.027015
0.069414
0.117821
0.145427
0.177750
0.181954
0.160131
0.146474
0.115506
0.079764
0.011921
-0.036675
-0.067698
-0.101791
-0.121127
-0.130383
-0.114728
-0.095681
-0.069992
-0.034060
0.018483
0.073559
0.113613
0.144483
0.164656
0.179839
0.173459
0.137053
0.114052
0.073153
0.013930
-0.035870
-0.073136
-0.103140
-0.095953
-0.122413
-0.144139
-0.108388
-0.059532
-0.021075
0.015723
0.065585
0.122799
0.149288
0.165353
0.172893
0.169865
0.146021
0.107559
0.081724
0.047835
-0.012440
-0.049671
-0.075336
-0.104106
-0.123862
-0.092463
-0.061529
-0.027259
0.018147
0.064279
0.121063
0.168331
0.204507
0.228861
0.241376
0.227552
0.193973
0.171676
0.131774
0.056512
0.017208
-0.029080
-0.056776
-0.084698
-0.099023
-0.084362
-0.065098
-0.015010
0.025100
0.065098
0.109360
0.168056
0.205046
0.228651
0.220578
0.218117
0.206704
0.170177
0.126589
0.076506
0.016702
-0.026227
-0.069820
-0.080906
-0.062819
-0.054429
-0.037809
-0.010584
0.022860
0.070448
0.119383
0.171038
0.194306
0.207728
0.214256
0.188244
0.172371
0.138736
0.097089
0.049446
-0.003572
-0.042514
-0.078017
-0.114695
-0.116002
-0.106547
-0.088569
-0.049007
-0.002844
0.040866
0.100827
0.131679
0.164995
0.179217
0.178471
0.155255
0.139491
0.083318
0.067033
0.028527
-0.024634
-0.081394
-0.123540
-0.137597
-0.140415
-0.129857
-0.102362
-0.068243
-0.024737
0.011925
0.057413
0.094252
0.131559
0.152185
0.171678
0.144723
0.125010
0.106230
0.022447
-0.025011
-0.046491
-0.090387
-0.118603
-0.121903
-0.136704
-0.148481
-0.125532
-0.086452
-0.036739
0.013226
0.046259
0.101345
0.125735
0.134347
0.145722
0.150406
0.115911
0.099872
0.052678
0.001571
-0.050919
-0.087495
-0.125498
-0.146239
-0.149919
-0.120038
-0.108174
-0.077666
-0.030787
0.015403
0.076479
0.097695
0.112451
0.152500
0.166944
0.172450
0.133522
0.085939
0.032746
-0.014013
-0.072703
-0.101031
-0.137102
-0.149490
-0.158937
-0.134928
-0.113327
-0.090311
-0.039091
-0.003645
0.054297
0.088100
0.130558
0.134100
0.134611
0.121231
0.105284
0.078410
0.036801
-0.005279
-0.039545
-0.065973
-0.089509
-0.093421
-0.083682
-0.068570
-0.032926
0.024540
0.085404
0.144336
0.204526
0.258109
0.307701
0.343961
0.382439
0.400938
0.427372
0.428223
0.433169
0.424934
0.396094
0.402428
0.395711
0.420969
0.455911
0.488334
0.551364
0.633595
0.709431
0.805036
0.885772
0.955034
1.034540
1.068106
1.074556
1.062516
0.999563
0.960578
0.910730
0.859080
0.775557
0.683673
0.575756
0.473867
0.370524
0.319623
0.272456
0.259450
0.254606
0.281245
0.322563
0.347491
0.364404
0.372870
0.375180
0.345722
0.306522
0.262482
0.210154
0.146643
0.077891
0.017483
-0.034799
-0.036600
-0.029378
-0.037026
-0.014035
0.023026
0.058685
0.100366
0.129277
0.169543
0.204681
0.217825
0.207420
0.192340
0.165925
0.141410
0.112222
0.069014
0.020978
-0.034175
-0.080448
-0.099873
-0.101690
-0.090874
-0.065744
-0.033245
0.013619
0.064206
0.118424
0.160081
0.162388
0.166325
0.186749
0.185281
0.162099
0.125187
0.083891
0.039597
-0.005948
-0.040634
-0.087831
-0.099139
-0.112426
-0.098640
-0.081034
-0.042263
0.008930
0.059850
0.105494
0.138502
0.182183
0.190536
0.197944
0.206268
0.179639
0.134778
0.106021
0.063643
-0.003166
-0.029731
-0.068117
-0.090247
-0.095569
-0.084785
-0.054563
-0.014971
0.022013
0.070492
0.115736
0.166118
0.176831
0.202109
0.211567
0.195478
0.168372
0.156381
0.104009
0.056798
0.002810
-0.033441
-0.080670
-0.098170
-0.080692
-0.058161
-0.029152
-0.001597
0.032273
0.082927
0.152461
0.190533
0.224102
0.238727
0.236214
0.235358
0.228603
0.191001
0.145828
0.093523
0.038369
-0.009937
-0.026897
-0.042729
-0.051771
-0.043441
-0.012447
0.027706
0.075975
0.112977
0.161474
0.206735
0.243584
0.256078
0.274283
0.266073
0.244474
0.214328
0.178141
0.121477
0.081439
0.036593
-0.007410
-0.031239
-0.024459
-0.010438
0.017019
0.053629
0.089994
0.139190
0.192481
0.228169
0.261339
0.284384
0.306158
0.307525
0.271208
0.234248
0.186847
0.124800
0.092653
0.066240
0.024836
-0.003884
0.004490
0.008431
0.029227
0.064431
0.090278
0.137703
0.198374
0.237597
0.272055
0.295417
0.294587
0.282967
0.252236
0.205834
0.177712
0.141509
0.094538
0.052189
-0.001142
-0.033022
-0.029974
-0.010352
0.025696
0.070592
0.106114
0.152785
0.195154
0.224817
0.268606
0.276682
0.278474
0.274638
0.260557
0.224990
0.171540
0.106649
0.070881
0.031286
-0.004247
-0.037501
-0.054291
-0.030645
-0.001680
0.034327
0.054746
0.102687
0.152908
0.192451
0.236645
0.253241
0.236092
0.231895
0.214330
0.163593
0.123857
0.078745
0.035440
-0.015833
-0.033823
-0.051110
-0.065412
-0.058404
-0.048212
-0.016602
0.036195
0.071379
0.122947
0.170685
0.198639
0.212001
0.213527
0.213194
0.175859
0.144014
0.109567
0.069619
0.009412
-0.028239
-0.070502
-0.098786
-0.102388
-0.092507
-0.066300
-0.036760
-0.007682
0.049742
0.104647
0.162326
0.192805
0.195083
0.208556
0.193585
0.171173
0.136684
0.082294
0.027412
-0.017780
-0.059684
-0.082875
-0.105411
-0.113375
-0.095839
-0.088923
-0.060498
-0.010036
0.047394
0.088066
0.121143
0.144316
0.194636
0.193502
0.189909
0.174150
0.146165
0.098516
0.053302
-0.002369
-0.047237
-0.082999
-0.089678
-0.098721
-0.082512
-0.061007
-0.026654
-0.004791
0.050003
0.097285
0.140902
0.172119
0.191986
0.203563
0.196435
0.173440
0.141402
0.089956
0.045951
-0.000355
-0.042968
-0.062531
-0.080676
-0.092248
-0.077806
-0.040352
-0.025265
0.016011
0.058631
0.090748
0.134994
0.176417
0.213868
0.227015
0.201835
0.167496
0.141300
0.099713
0.058969
-0.005809
-0.036296
-0.065915
-0.076234
-0.079627
-0.081984
-0.062933
-0.028674
0.016317
0.075050
0.121534
0.168533
0.213757
0.226448
0.209378
0.171996
0.176392
0.138692
0.102390
0.056112
0.008802
-0.029105
-0.067366
-0.087354
-0.095349
-0.087581
-0.061611
-0.022057
0.018894
0.077982
0.124336
0.146137
0.173156
0.191843
0.196416
0.205886
0.178581
0.145076
0.097516
0.062540
0.026769
-0.007673
-0.072716
-0.089039
-0.090084
-0.092978
-0.067334
-0.034754
0.002971
0.056173
0.102222
0.158216
0.201059
0.211037
0.209513
0.202627
0.186227
0.143282
0.111890
0.052938
0.006034
-0.029324
-0.070797
-0.082738
-0.091216
-0.082925
-0.055669
-0.026312
0.021198
0.056440
0.094671
0.146780
0.166868
0.175960
0.202243
0.196071
0.163165
0.132279
0.077209
0.027953
-0.008392
-0.043318
-0.068993
-0.089640
-0.108842
-0.087827
-0.072862
-0.039111
0.004169
0.047474
0.087682
0.134417
0.171778
0.176152
0.186356
0.183106
0.149981
0.128356
0.089026
0.050849
0.004125
-0.045870
-0.076677
-0.098749
-0.109393
-0.106024
-0.088440
-0.052737
-0.016043
0.043663
0.087692
0.129488
0.160480
0.181052
0.189404
0.185678
0.155196
0.117297
0.070753
0.027224
-0.017862
-0.081151
-0.118413
-0.130741
-0.121530
-0.133749
-0.073207
-0.035691
0.016548
0.046900
0.093804
0.121396
0.165020
0.180394
0.188877
0.179850
0.144178
0.125322
0.095304
0.046044
-0.008455
-0.061488
-0.090525
-0.113091
-0.124453
-0.111960
-0.097137
-0.065086
-0.023346
0.038946
0.101800
0.117372
0.152319
0.156462
0.171519
0.181636
0.152368
0.101130
0.073656
0.019264
-0.021743
-0.075884
-0.103836
-0.121658
-0.123493
-0.120857
-0.099170
-0.053427
-0.017361
0.036246
0.091581
0.135767
0.183515
0.180680
0.174970
0.167670
0.152522
0.117395
0.079034
0.020927
-0.020229
-0.058713
-0.107425
-0.136254
-0.129391
-0.119790
-0.107271
-0.065627
-0.014602
0.032402
0.064476
0.110066
0.172555
0.192168
0.196006
0.186144
0.160419
0.117107
0.073866
0.037077
0.006480
-0.047874
-0.094891
-0.112448
-0.121472
-0.123319
-0.104037
-0.037555
0.039898
0.094169
0.146724
0.180293
0.215241
0.214705
0.218500
0.197075
0.185419
0.150429
0.115930
0.053153
0.009508
-0.024117
-0.059569
-0.074976
-0.072550
-0.068646
-0.047851
-0.020496
0.027210
0.079740
0.132901
0.156761
0.200061
0.226609
0.233893
0.206504
0.196882
0.172803
0.122761
0.068246
0.021279
-0.011457
-0.053183
-0.053656
-0.055540
-0.056294
-0.043794
-0.009805
0.028269
0.069353
0.108218
0.141278
0.177670
0.175474
0.183682
0.175834
0.161984
0.127935
0.081455
0.014323
-0.042994
-0.076792
-0.099422
-0.110337
-0.113693
-0.108905
-0.083214
-0.047369
-0.009126
0.041685
0.067224
0.115598
0.169738
0.212367
0.169501
0.126703
0.115894
0.083493
0.024580
-0.009233
-0.032112
-0.082046
-0.107425
-0.125026
-0.142357
-0.134719
-0.108821
-0.076174
-0.054240
0.001573
0.053774
0.088081
0.124863
0.158837
0.154721
0.152347
0.123350
0.068210
0.027482
-0.021392
-0.056314
-0.098889
-0.116779
-0.148619
-0.155209
-0.149079
-0.131256
-0.100682
-0.050823
-0.002836
0.040145
0.074896
0.112175
0.139408
0.153733
0.136867
0.101787
0.079109
0.050701
-0.008139
-0.060491
-0.099379
-0.135390
-0.156265
-0.148989
-0.142877
-0.116041
-0.076612
-0.037142
0.002018
0.048329
0.100276
0.132306
0.155312
0.157023
0.152144
0.128897
0.086265
0.040401
-0.032635
-0.061283
-0.096674
-0.142156
-0.165750
-0.168826
-0.155279
-0.125346
-0.087065
-0.049126
0.002295
0.042145
0.075297
0.105669
0.132653
0.127062
0.129515
0.102511
0.088313
0.053010
-0.010318
-0.023828
-0.047730
-0.070850
-0.063832
-0.049474
-0.027861
-0.000109
0.059781
0.133803
0.202971
0.261813
0.335576
0.388176
0.447597
0.490963
0.523879
0.548410
0.544390
0.534485
0.534019
0.511737
0.492885
0.489636
0.539626
0.585846
0.637399
0.686560
0.753189
0.834971
0.919478
0.952950
0.987964
1.032407
1.025173
1.007323
0.981438
0.950243
0.873684
0.775129
0.652011
0.527124
0.400267
0.292508
0.219844
0.172537
0.145385
0.128311
0.163277
0.204764
0.234943
0.269452
0.293165
0.305568
0.323627
0.306266
0.301930
0.258149
0.204058
0.149606
0.085628
0.023766
-0.018560
-0.066883
-0.069809
-0.059154
-0.059217
-0.058969
-0.023830
0.027508
0.085890
0.127621
0.173879
0.197802
0.205460
0.204372
0.195213
0.177205
0.144557
0.098564
0.044199
-0.009491
-0.063756
-0.090898
-0.105495
-0.110892
-0.107739
-0.082499
-0.051794
-0.009304
0.043086
0.093576
0.126843
0.153318
0.168857
0.170797
0.176856
0.153982
0.114506
0.073509
0.026276
-0.017866
-0.054593
-0.081700
-0.103203
-0.103345
-0.102430
-0.079461
-0.051758
-0.011325
0.039956
0.084118
0.125135
0.154064
0.182110
0.188937
0.184617
0.164599
0.120953
0.072048
0.029369
-0.001315
-0.043754
-0.086360
-0.099441
-0.105101
-0.092776
-0.069001
-0.033078
0.005640
0.068072
0.125803
0.156299
0.186129
0.198021
0.204374
0.194224
0.163224
0.127655
0.112211
0.065263
0.028507
-0.010666
-0.037537
-0.067140
-0.086051
-0.090499
-0.054944
0.005684
0.049038
0.075758
0.122587
0.163294
0.210619
0.230097
0.225855
0.226906
0.196817
0.172441
0.137236
0.092485
0.038664
-0.005522
-0.046426
-0.052983
-0.047614
-0.045446
-0.017820
0.014515
0.060810
0.116156
0.154271
0.207634
0.245110
0.271915
0.263914
0.260900
0.233738
0.201750
0.159725
0.110577
0.063286
0.014052
-0.009502
-0.029378
-0.032443
-0.012580
0.014621
0.057767
0.102921
0.148504
0.195641
0.241033
0.269024
0.293162
0.297433
0.289307
0.272067
0.253063
0.193311
0.132234
0.090917
0.048636
0.013272
-0.011573
-0.017238
-0.007162
0.021169
0.050668
0.106959
0.180114
0.218221
0.236706
0.275038
0.302263
0.281048
0.285402
0.264768
0.216614
0.190064
0.141604
0.087155
0.042496
0.000174
-0.008993
-0.017830
-0.004875
0.020597
0.033165
0.066548
0.135896
0.187384
0.209000
0.234103
0.258342
0.267462
0.261294
0.240797
0.210530
0.158671
0.106655
0.061548
0.019046
-0.008771
-0.037655
-0.057639
-0.049173
-0.015839
0.004052
0.042959
0.109153
0.154413
0.196594
0.221952
0.236811
0.237746
0.217839
0.201207
0.163694
0.106290
0.063228
0.014069
-0.023993
-0.065170
-0.085613
-0.077126
-0.072906
-0.068496
-0.030581
0.012499
0.037979
0.107700
0.155749
0.190461
0.210012
0.208905
0.198202
0.163919
0.120192
0.091258
0.056272
0.013226
-0.033118
-0.086494
-0.113325
-0.121029
-0.102678
-0.071182
-0.047438
-0.025799
0.029749
0.080030
0.109952
0.151938
0.189271
0.194834
0.183853
0.175196
0.135048
0.076966
0.027415
-0.021635
-0.062231
-0.093231
-0.111807
-0.124420
-0.119406
-0.091367
-0.057711
-0.026605
0.014343
0.076761
0.118548
0.163535
0.187694
0.175211
0.172133
0.159309
0.125228
0.072667
0.027264
-0.029845
-0.078983
-0.084527
-0.107119
-0.116111
-0.102131
-0.089842
-0.057867
-0.008452
0.027660
0.075990
0.122303
0.150144
0.184303
0.183748
0.189486
0.177502
0.144705
0.088671
0.025050
-0.021257
-0.064058
-0.085320
-0.100926
-0.116576
-0.110926
-0.095910
-0.069439
-0.011114
0.036809
0.089103
0.132608
0.163221
0.175491
0.178519
0.176084
0.156857
0.135824
0.101852
0.029838
-0.008150
-0.063776
-0.080390
-0.109101
-0.101309
-0.088361
-0.067648
-0.041600
-0.008641
0.035152
0.084962
0.135436
0.165519
0.185314
0.194045
0.176000
0.162295
0.126698
0.085473
0.036377
-0.014043
-0.049457
-0.075969
-0.098874
-0.105045
-0.085774
-0.074975
-0.041882
-0.018985
0.040403
0.100505
0.137992
0.172671
0.175233
0.183284
0.192772
0.155933
0.114078
0.072656
0.014214
-0.023211
-0.069263
-0.101155
-0.125748
-0.122060
-0.101915
-0.084510
-0.053793
-0.016600
0.037245
0.081856
0.130418
0.160866
0.184520
0.192499
0.186493
0.155084
0.108701
0.076613
0.024680
-0.025763
-0.066481
-0.094315
-0.119329
-0.121884
-0.109940
-0.097153
-0.054622
0.001161
0.047606
0.087081
0.128838
0.159029
0.176384
0.189786
0.175708
0.153853
0.115111
0.066915
0.022070
-0.025197
-0.076167
-0.100832
-0.135881
-0.137114
-0.128361
-0.102226
-0.067179
-0.026773
0.022242
0.064809
0.108865
0.152144
0.167735
0.170448
0.163367
0.135890
0.104266
0.061571
0.017714
-0.028975
-0.084448
-0.128792
-0.126513
-0.124884
-0.113159
-0.093131
-0.061870
-0.015496
0.028825
0.053807
0.102005
0.145587
0.170383
0.158686
0.155104
0.121118
0.105382
0.072055
0.027285
-0.031637
-0.072587
-0.112817
-0.135759
-0.119970
-0.126242
-0.107474
-0.068472
-0.025017
0.028844
0.076206
0.110266
0.134026
0.157655
0.159715
0.150562
0.131909
0.104892
0.052049
0.010651
-0.038685
-0.076751
-0.109898
-0.128330
-0.124692
-0.104990
-0.103985
-0.078901
-0.039047
0.001443
0.060396
0.108935
0.148410
0.173493
0.161775
0.152981
0.136881
0.099380
0.055026
0.002551
-0.028719
-0.080153
-0.132511
-0.150846
-0.142210
-0.139502
-0.109918
-0.060595
-0.022895
0.010829
0.066082
0.112816
0.152371
0.159661
0.150948
0.148020
0.134118
0.092656
0.051446
0.006847
-0.038813
-0.072140
-0.107409
-0.131863
-0.133307
-0.122823
-0.103778
-0.091538
-0.037494
0.019346
0.061749
0.108337
0.136940
0.164982
0.166501
0.162963
0.137511
0.117137
0.061681
0.010982
-0.025527
-0.053687
-0.101074
-0.106528
-0.111614
-0.104444
-0.082424
-0.047592
-0.006641
0.055688
0.102691
0.165457
0.172458
0.194552
0.200753
0.193590
0.170606
0.142895
0.103335
0.046712
0.002265
-0.041333
-0.075158
-0.104835
-0.128013
-0.120538
-0.087211
-0.041049
0.013215
0.076490
0.115024
0.158383
0.199435
0.215575
0.215271
0.215943
0.195061
0.166429
0.103518
0.058223
0.017751
-0.019969
-0.053712
-0.071467
-0.076621
-0.070773
-0.060440
-0.025813
0.023913
0.064841
0.103696
0.137527
0.165868
0.184150
0.190992
0.186094
0.145729
0.116721
0.072570
0.020290
-0.009612
-0.048121
-0.090904
-0.117372
-0.128658
-0.108158
-0.088528
-0.061631
-0.000391
0.023868
0.054168
0.105140
0.131140
0.146237
0.145525
0.136407
0.113421
0.073151
0.039640
0.018615
-0.024157
-0.064846
-0.106287
-0.143546
-0.156270
-0.142079
-0.130653
-0.090959
-0.049787
0.015085
0.051542
0.086237
0.112404
0.137104
0.132678
0.134779
0.111675
0.082818
0.037847
-0.006021
-0.057863
-0.095939
-0.130319
-0.172037
-0.158163
-0.147701
-0.123428
-0.089408
-0.036297
0.009060
0.039289
0.081721
0.106255
0.128324
0.151465
0.144777
0.114707
0.062929
0.010288
-0.025147
-0.063440
-0.097892
-0.132667
-0.166428
-0.158313
-0.148000
-0.123816
-0.083341
-0.038326
0.002827
0.042264
0.088866
0.118720
0.136984
0.148912
0.128204
0.090395
0.060475
0.034749
-0.012712
-0.063091
-0.101869
-0.139849
-0.161207
-0.161038
-0.149561
-0.131417
-0.105648
-0.066299
-0.014817
0.026459
0.072359
0.112482
0.134852
0.136503
0.129245
0.108406
0.083528
0.044552
0.009867
-0.024369
-0.055860
-0.099129
-0.105840
-0.073746
-0.032176
-0.015961
0.039836
0.112468
0.179286
0.244856
0.305706
0.366165
0.423769
0.449936
0.479764
0.490516
0.471159
0.468734
0.454232
0.420218
0.408018
0.422205
0.454833
0.500771
0.552831
0.606701
0.673521
0.759490
0.829299
0.866695
0.904815
0.948527
0.950155
0.939469
0.910923
0.862927
0.789868
0.693918
0.570440
0.461460
0.358229
0.284056
0.212089
0.151529
0.108531
0.104975
0.120792
0.166032
0.197249
0.231399
0.263696
0.291252
0.299517
0.301089
0.277953
0.235464
0.194004
0.143063
0.085356
0.046868
0.000793
-0.030586
-0.056622
-0.073831
-0.076130
-0.060185
-0.014348
0.021887
0.061431
0.102910
0.167409
0.185744
0.190617
0.190736
0.189509
0.171937
0.125165
0.081427
0.032395
-0.017061
-0.040327
-0.071920
-0.106623
-0.120026
-0.107143
-0.088214
-0.055858
-0.008529
0.042249
0.074941
0.124008
0.152565
0.184068
0.180731
0.159985
0.137069
0.095770
0.040685
0.001660
-0.032817
-0.058647
-0.072456
-0.090977
-0.109329
-0.124882
-0.077219
-0.038211
-0.004368
0.054924
0.090374
0.132757
0.160981
0.180102
0.196445
0.198002
0.169486
0.138358
0.099681
0.043767
-0.011031
-0.035987
-0.066119
-0.095563
-0.110289
-0.110675
-0.087692
-0.058869
0.002582
0.052167
0.105950
0.172770
0.190295
0.208977
0.217895
0.199009
0.181319
0.142836
0.092626
0.056279
0.016090
-0.031488
-0.054217
-0.077280
-0.085625
-0.073365
-0.041901
-0.010341
0.029832
0.073925
0.123886
0.166554
0.208524
0.235575
0.235770
0.229343
0.207659
0.174599
0.122732
0.088881
0.049615
0.003029
-0.023395
-0.034366
-0.044181
-0.038847
-0.022744
0.032011
0.077751
0.124288
0.172152
0.218817
0.250829
0.259519
0.256587
0.251203
0.223265
0.187307
0.164640
0.115372
0.076138
0.025712
0.024924
0.008593
0.009138
0.010160
0.014023
0.047931
0.090424
0.141468
0.190449
0.232331
0.270243
0.290469
0.294424
0.291144
0.270078
0.235378
0.196418
0.133406
0.079061
0.042845
0.038635
0.006989
-0.019514
-0.011016
0.002341
0.053440
0.117249
0.157581
0.212494
0.249371
0.266730
0.301147
0.301323
0.288175
0.280333
0.237945
0.179610
0.139210
0.087469
0.042371
0.008555
0.007083
0.002479
0.001453
0.016931
0.057152
0.109639
0.142699
0.194065
0.225539
0.261697
0.272710
0.277821
0.279571
0.240417
0.203036
0.165248
0.120332
0.050310
0.020609
0.006119
-0.026577
-0.031843
-0.020069
-0.005458
0.016248
0.061458
0.100048
0.141714
0.176323
0.203970
0.220728
0.224086
0.226974
0.207103
0.165044
0.124240
0.078695
0.031672
-0.003177
-0.043947
-0.079528
-0.083005
-0.079659
-0.039223
-0.016411
0.026732
0.066915
0.101982
0.155461
0.183061
0.200682
0.200175
0.190979
0.160746
0.121986
0.070845
0.028465
-0.012370
-0.054229
-0.075984
-0.084818
-0.109746
-0.127638
-0.107110
-0.062370
-0.005639
0.039840
0.091517
0.126805
0.153831
0.181162
0.186986
0.171871
0.151823
0.121982
0.068589
0.005725
-0.031797
-0.070503
-0.097242
-0.123870
-0.136990
-0.122148
-0.087832
-0.060749
-0.023979
0.019376
0.079689
0.124404
0.172953
0.178807
0.175742
0.165928
0.142978
0.111622
0.069124
0.031911
-0.012681
-0.056793
-0.094466
-0.121947
-0.129864
-0.115357
-0.093955
-0.064318
-0.009081
0.035897
0.088432
0.129276
0.155870
0.171633
0.176592
0.167895
0.146871
0.104563
0.050646
0.033526
-0.003034
-0.045844
-0.072437
-0.108443
-0.132771
-0.114492
-0.066219
-0.039004
0.009587
0.057823
0.110103
0.134753
0.142179
0.174957
0.175508
0.175819
0.168704
0.122211
0.066737
0.052116
-0.004864
-0.065764
-0.098111
-0.116420
-0.122496
-0.096747
-0.077179
-0.029729
0.014209
0.050153
0.090365
0.139375
0.170732
0.182148
0.176454
0.176950
0.163730
0.126180
0.076538
0.021717
-0.016085
-0.045000
-0.085387
-0.107315
-0.105515
-0.086003
-0.067611
-0.028396
0.020212
0.064364
0.106814
0.152073
0.172897
0.188613
0.197220
0.193586
0.167277
0.121402
0.077872
0.025512
-0.027144
-0.065606
-0.075661
-0.098699
-0.109309
-0.115867
-0.086601
-0.044630
0.004062
0.030940
0.066895
0.119587
0.166737
0.186455
0.188911
0.170301
0.150414
0.120481
0.070525
0.024272
-0.021895
-0.073963
-0.106227
-0.115312
-0.109360
-0.105625
-0.093180
-0.049464
-0.005652
0.038091
0.076058
0.145772
0.154979
0.162937
0.185921
0.175801
0.157528
0.118727
0.064869
0.028810
-0.017531
-0.059526
-0.096641
-0.121675
-0.123691
-0.117346
-0.093646
-0.066960
-0.011453
0.030116
0.078855
0.122086
0.157243
0.174408
0.176629
0.156542
0.133305
0.102339
0.060980
0.033658
-0.009976
-0.061272
-0.097192
-0.114049
-0.114507
-0.114512
-0.105181
-0.078769
-0.021545
0.027665
0.096022
0.142761
0.142396
0.168981
0.184882
0.176808
0.139853
0.095476
0.061809
0.015833
-0.024144
-0.073748
-0.096004
-0.119968
-0.134329
-0.118374
-0.101456
-0.077659
-0.022300
0.025288
0.074540
0.124072
0.156918
0.174604
0.175894
0.172464
0.144018
0.110692
0.063506
0.015169
-0.033558
-0.079083
-0.106240
-0.125831
-0.135509
-0.114694
-0.100429
-0.079349
-0.035490
0.010840
0.069558
0.109642
0.133197
0.157124
0.175967
0.159565
0.132114
0.093694
0.049124
0.017228
-0.036838
-0.074528
-0.103086
-0.130473
-0.129328
-0.117169
-0.103545
-0.089710
-0.049914
0.013583
0.056620
0.097315
0.144398
0.184772
0.191345
0.187733
0.140035
0.097262
0.038736
0.001250
-0.019292
-0.072865
-0.099790
-0.125574
-0.142186
-0.128437
-0.101866
-0.060371
-0.019176
0.019874
0.082051
0.124629
0.147481
0.165557
0.159897
0.148805
0.138369
0.118547
0.074050
0.038366
-0.013242
-0.057167
-0.094669
-0.113273
-0.113886
-0.099433
-0.073197
-0.055190
0.010646
0.054853
0.095438
0.132374
0.168655
0.192387
0.201055
0.197905
0.184393
0.139018
0.099495
0.041471
-0.017614
-0.051452
-0.085802
-0.107245
-0.114087
-0.100116
-0.073515
-0.040973
-0.001187
0.062003
0.110549
0.146686
0.182846
0.223784
0.239558
0.216891
0.189467
0.141283
0.077933
0.039840
0.019731
-0.001037
-0.038285
-0.070614
-0.085387
-0.076303
-0.061166
-0.027120
0.013579
0.069275
0.118092
0.147417
0.164954
0.186378
0.193698
0.173653
0.145993
0.123480
0.071714
0.020296
-0.020624
-0.065904
-0.102327
-0.136961
-0.124240
-0.107116
-0.090232
-0.051928
-0.016186
0.033183
0.085197
0.105409
0.140322
0.170871
0.177220
0.162964
0.130587
0.092581
0.052592
-0.003970
-0.038862
-0.085691
-0.112799
-0.152423
-0.157982
-0.148729
-0.122192
-0.095549
-0.047792
-0.011877
0.030488
0.085753
0.124208
0.141271
0.149276
0.142168
0.112156
0.081735
0.030102
-0.016862
-0.075175
-0.110638
-0.130166
-0.157074
-0.151409
-0.151353
-0.142972
-0.115601
-0.053138
0.004089
0.025366
0.062712
0.128702
0.147871
0.118835
0.125214
0.107145
0.074605
0.015176
-0.029186
-0.055210
-0.099531
-0.132165
-0.140604
-0.161328
-0.157354
-0.133649
-0.104373
-0.051125
-0.013083
0.009584
0.080821
0.133993
0.144426
0.149903
0.142891
0.110674
0.065345
0.025157
-0.022528
-0.058441
-0.099172
-0.129767
-0.133594
-0.141055
-0.147530
-0.136189
-0.095214
-0.053484
-0.012687
0.028565
0.066183
0.107927
0.127281
0.122843
0.126659
0.105108
0.078276
0.039239
0.019607
-0.018956
-0.046631
-0.067383
-0.067104
-0.055113
-0.036741
-0.026099
0.022164
0.104598
0.158380
0.233326
0.291081
0.351163
0.387618
0.418278
0.433589
0.474496
0.474894
0.445690
0.426145
0.408670
0.394093
0.408203
0.416437
0.467080
0.521162
0.575499
0.639187
0.720415
0.783462
0.837801
0.876730
0.909367
0.921188
0.914008
0.875365
0.832323
0.746349
0.636848
0.529547
0.422891
0.302136
0.250117
0.203782
0.141110
0.109493
0.105865
0.114871
0.156610
0.184673
0.232049
0.262564
0.267881
0.275725
0.277770
0.255457
0.222941
0.183311
0.128459
0.080865
0.045976
0.000365
-0.041053
-0.063046
-0.077918
-0.074977
-0.057896
-0.028360
0.014450
0.050622
0.114032
0.163174
0.182325
0.186411
0.194116
0.178871
0.156162
0.137107
0.083252
0.022060
-0.028551
-0.058652
-0.090709
-0.105736
-0.123700
-0.107001
-0.106242
-0.085590
-0.021243
0.025961
0.080309
0.128826
0.157127
0.173962
0.178493
0.174046
0.144864
0.112725
0.051507
0.006448
-0.032223
-0.059916
-0.107143
-0.112976
-0.112078
-0.098647
-0.082980
-0.050812
-0.009989
0.040529
0.090081
0.135711
0.169499
0.176290
0.181546
0.154665
0.139133
0.120812
0.078134
0.035676
-0.027078
-0.062573
-0.080695
-0.098005
-0.101444
-0.106651
-0.089288
-0.040914
0.001668
0.064032
0.110007
0.146508
0.178870
0.208353
0.218377
0.186938
0.156872
0.123641
0.108268
0.057235
0.009482
-0.021643
-0.053590
-0.079870
-0.086416
-0.071669
-0.063218
-0.015528
0.031846
0.078356
0.122891
0.162691
0.214140
0.230319
0.231379
0.211648
0.198179
0.165973
0.125153
0.085556
0.051662
0.007546
-0.023529
-0.043241
-0.048755
-0.042818
-0.019933
0.013748
0.064931
0.099353
0.155874
0.199551
0.217973
0.250874
0.251007
0.246632
0.229410
0.197355
0.159459
0.126592
0.079907
0.039667
0.000919
-0.001087
-0.008527
0.008507
0.020668
0.034285
0.084100
0.144222
0.190772
0.223618
0.265072
0.300512
0.290845
0.278038
0.240394
0.224715
0.166297
0.123237
0.090904
0.054364
0.014037
-0.016721
-0.018695
-0.001157
0.012869
0.048847
0.111028
0.150129
0.201990
0.256134
0.280726
0.290492
0.290714
0.289916
0.283981
0.236824
0.179466
0.131567
0.090608
0.043728
0.006417
-0.006232
-0.026601
-0.013917
0.001737
0.042450
0.099336
0.140811
0.182526
0.219728
0.257179
0.279153
0.270916
0.260594
0.244292
0.196389
0.150078
0.114682
0.054735
0.012450
-0.015883
-0.047486
-0.054403
-0.047660
-0.026972
0.011109
0.064684
0.104150
0.149664
0.196206
0.219858
0.235189
0.235263
0.206249
0.177317
0.146591
0.106380
0.062401
0.016426
-0.036265
-0.060403
-0.060436
-0.075986
-0.095199
-0.075717
-0.039100
-0.003408
0.045343
0.097997
0.111135
0.151157
0.179354
0.194998
0.192551
0.166872
0.139309
0.069919
0.026372
-0.014417
-0.047999
-0.088550
-0.108765
-0.123963
-0.107529
-0.078491
-0.051797
0.001280
0.031826
0.065455
0.118954
0.148931
0.167553
0.154509
0.154006
0.134343
0.105191
0.056709
0.009395
-0.024648
-0.061632
-0.097392
-0.130936
-0.132489
-0.135090
-0.118823
-0.085862
-0.027725
0.004438
0.040537
0.100143
0.121135
0.140969
0.158213
0.156675
0.129073
0.098390
0.053311
0.015012
-0.036182
-0.072864
-0.106727
-0.134805
-0.142327
-0.127214
-0.079015
-0.057132
-0.021603
0.027292
0.079914
0.116854
0.145359
0.161263
0.163918
0.158231
0.136848
0.099146
0.045507
0.006642
-0.023917
-0.067023
-0.099141
-0.127481
-0.130352
-0.118037
-0.090726
-0.074560
-0.022920
0.052425
0.102154
0.126558
0.156339
0.160590
0.165912
0.179880
0.144982
0.118355
0.076601
0.033892
-0.026990
-0.066480
-0.109233
-0.133210
-0.140517
-0.121524
-0.092795
-0.047525
-0.010434
0.027593
0.091510
0.118889
0.144232
0.170485
0.183560
0.172466
0.132148
0.093253
0.058042
0.022089
-0.023697
-0.052303
-0.098179
-0.119674
-0.131587
-0.120267
-0.096146
-0.058501
-0.005700
0.026976
0.059249
0.118074
0.155039
0.170992
0.177058
0.174419
0.139347
0.110437
0.062613
0.027150
-0.020888
-0.072223
-0.097601
-0.117492
-0.132319
-0.121230
-0.090541
-0.065413
-0.020890
0.035167
0.077258
0.106859
0.139414
0.157202
0.167550
0.160347
0.132781
0.103040
0.054511
0.013841
-0.028866
-0.071296
-0.116682
-0.149693
-0.162509
-0.172321
-0.140281
-0.067601
-0.026841
0.021758
0.062985
0.112623
0.152133
0.149614
0.149257
0.138319
0.120807
0.091790
0.050105
-0.003003
-0.051482
-0.084447
-0.121694
-0.144469
-0.145267
-0.140372
-0.117710
-0.078200
-0.046298
0.005730
0.046120
0.102305
0.147103
0.153512
0.155054
0.145190
0.118750
0.082171
0.039867
-0.004751
-0.052861
-0.071587
-0.120999
-0.151445
-0.143826
-0.127594
-0.106746
-0.072943
-0.045441
0.008596
0.048640
0.081465
0.078353
0.115527
0.134372
0.134360
0.118843
0.075943
0.024281
-0.028106
-0.059920
-0.097402
-0.127872
-0.136358
-0.150990
-0.150002
-0.117044
-0.094516
-0.050005
-0.001821
0.038570
0.083600
0.128447
0.145087
0.145674
0.123253
0.120230
0.081191
0.016995
-0.019310
-0.053018
-0.103644
-0.152623
-0.179197
-0.161196
-0.149033
-0.119090
-0.089323
-0.046763
0.000154
0.047053
0.084749
0.103105
0.131791
0.144223
0.141581
0.123289
0.081019
0.023050
-0.017634
-0.055274
-0.114645
-0.145032
-0.146479
-0.146383
-0.142840
-0.131151
-0.082477
-0.026080
0.003537
0.055284
0.097358
0.131614
0.153650
0.162734
0.143579
0.125605
0.099700
0.058331
0.007119
-0.044359
-0.085895
-0.112805
-0.119229
-0.123894
-0.114223
-0.100157
-0.075524
-0.023068
0.012241
0.060322
0.118718
0.151229
0.160513
0.170967
0.153982
0.126675
0.074371
0.039358
0.007052
-0.027548
-0.058086
-0.089442
-0.104644
-0.110598
-0.096220
-0.066686
-0.052789
-0.023532
0.039466
0.113912
0.161236
0.184716
0.177659
0.183494
0.184489
0.145449
0.103666
0.067629
0.007668
-0.050765
-0.084807
-0.123168
-0.141576
-0.142365
-0.139511
-0.119011
-0.077758
-0.036556
-0.005582
0.045561
0.085449
0.121117
0.134327
0.137496
0.129690
0.093555
0.069689
0.037347
-0.025228
-0.080670
-0.136524
-0.155188
-0.159126
-0.169677
-0.172255
-0.156249
-0.118359
-0.076143
-0.032627
0.019516
0.064888
0.088599
0.103545
0.102381
0.100533
0.073694
0.054460
0.004906
-0.042835
-0.104294
-0.151947
-0.171172
-0.175957
-0.191498
-0.189410
-0.172801
-0.140094
-0.086126
-0.032899
0.011929
0.045809
0.068731
0.094000
0.096711
0.093884
0.070439
0.025313
-0.017866
-0.052762
-0.097660
-0.138673
-0.154379
-0.179584
-0.189895
-0.192644
-0.167623
-0.132854
-0.083877
-0.037805
0.001995
0.035520
0.076387
0.096132
0.102877
0.091519
0.069714
0.041433
-0.008505
-0.059179
-0.105645
-0.147681
-0.176049
-0.204144
-0.210333
-0.199577
-0.166876
-0.124724
-0.089023
-0.051187
-0.004115
0.031976
0.067249
0.095484
0.103521
0.089045
0.060011
0.017635
-0.026442
-0.074691
-0.104923
-0.146374
-0.181583
-0.193415
-0.202039
-0.180243
-0.155710
-0.113144
-0.060259
-0.006662
0.064360
0.120681
0.163247
0.201320
0.218815
0.224931
0.205139
0.188293
0.161902
0.131356
0.112303
0.111648
0.105188
0.110408
0.117502
0.176043
0.227420
0.277365
0.357338
0.440366
0.518984
0.576908
0.675358
0.716721
0.742224
0.772653
0.787165
0.793737
0.774975
0.734948
0.669789
0.644033
0.597448
0.538852
0.507094
0.506506
0.501370
0.477052
0.440055
0.419724
0.415827
0.411487
0.402295
0.367698
0.340138
0.295849
0.254947
0.201460
0.145618
0.101386
0.050053
-0.004685
-0.039061
-0.064790
-0.091800
-0.085347
-0.078465
-0.019883
-0.003053
0.025361
0.088124
0.114571
0.160817
0.172406
0.164603
0.157308
0.132208
0.090338
0.054031
0.016561
-0.030638
-0.078092
-0.108964
-0.127657
-0.157079
-0.161486
-0.124906
-0.090501
-0.058507
-0.017045
0.034492
0.075816
0.098136
0.126714
0.136364
0.128645
0.097964
0.070317
0.026262
-0.022378
-0.067179
-0.113132
-0.155775
-0.168122
-0.190910
-0.168915
-0.138921
-0.086659
-0.044337
-0.003358
0.063307
0.079585
0.104188
0.136012
0.133170
0.126401
0.113038
0.066492
0.011579
-0.014963
-0.043070
-0.087712
-0.123462
-0.160755
-0.165176
-0.155006
-0.134694
-0.089437
-0.043516
-0.001096
0.052306
0.090664
0.106973
0.135815
0.142687
0.131310
0.107846
0.059942
0.033225
0.011470
-0.033728
-0.069413
-0.116928
-0.127173
-0.121636
-0.120548
-0.101709
-0.068909
-0.028956
0.003104
0.064788
0.111835
0.142795
0.170792
0.170133
0.170761
0.153341
0.122257
0.082056
0.046311
-0.010801
-0.043824
-0.079643
-0.094768
-0.106346
-0.088456
-0.064662
-0.031256
0.002140
0.057084
0.103018
0.141432
0.179746
0.203233
0.199549
0.194214
0.164151
0.118991
0.099574
0.068500
0.023074
-0.022925
-0.055997
-0.071863
-0.059912
-0.059448
-0.041733
0.019498
0.069461
0.099923
0.134586
0.155218
0.201170
0.225579
0.230108
0.224295
0.206774
0.174178
0.124864
0.083953
0.048660
0.004439
-0.027573
-0.071700
-0.061157
-0.038541
-0.003114
0.036961
0.071531
0.108498
0.154924
0.195933
0.219143
0.232436
0.254209
0.255096
0.220430
0.179463
0.152446
0.098579
0.050724
0.023895
-0.020847
-0.040541
-0.055671
-0.034763
-0.010378
0.014305
0.072630
0.111664
0.151881
0.173216
0.198281
0.224304
0.219909
0.222611
0.211843
0.166896
0.127638
0.076013
0.034058
-0.002719
-0.048478
-0.071343
-0.075045
-0.061194
-0.039516
-0.004954
0.035239
0.074261
0.126149
0.158893
0.180768
0.175011
0.187111
0.202569
0.180097
0.133183
0.081312
0.051454
0.006685
-0.037626
-0.077916
-0.111132
-0.113924
-0.105233
-0.082986
-0.047642
-0.020747
0.020198
0.071575
0.097976
0.132696
0.147429
0.158045
0.146903
0.112097
0.077614
0.050567
0.004281
-0.053466
-0.090493
-0.119829
-0.142612
-0.159850
-0.149074
-0.120952
-0.092667
-0.063980
-0.011190
0.042492
0.058450
0.087481
0.130438
0.146463
0.140833
0.130213
0.080939
0.024318
-0.028521
-0.088657
-0.132597
-0.151918
-0.166746
-0.158656
-0.166547
-0.149144
-0.106681
-0.058665
-0.012343
0.028719
0.056692
0.089346
0.114900
0.120697
0.106860
0.083743
0.055775
0.013440
-0.044252
-0.096361
-0.115575
-0.143065
-0.152643
-0.162040
-0.157328
-0.144062
-0.087287
-0.052093
-0.001662
0.022644
0.061303
0.086757
0.107689
0.126770
0.108798
0.086511
0.043076
0.005709
-0.035863
-0.084653
-0.107915
-0.128909
-0.145074
-0.161652
-0.155605
-0.134320
-0.085936
-0.063825
-0.004818
0.057648
0.074824
0.098177
0.126839
0.147368
0.128385
0.106628
0.060873
0.024020
-0.021794
-0.067890
-0.115739
-0.136696
-0.155465
-0.171200
-0.162111
-0.129398
-0.086517
-0.049048
-0.003095
0.037696
0.067023
0.111759
0.152165
0.152042
0.136966
0.113210
0.067505
0.025925
-0.019229
-0.061864
-0.102618
-0.139386
-0.146225
-0.156407
-0.157022
-0.125317
-0.086437
-0.065833
-0.002210
0.054049
0.083397
0.104832
0.134230
0.156969
0.126089
0.092523
0.057509
0.024409
-0.021594
-0.068935
-0.120897
-0.149119
-0.176462
-0.185259
-0.172688
-0.141227
-0.102649
-0.047191
-0.001026
0.052473
0.083026
0.108908
0.135113
0.149739
0.127535
0.107360
0.075171
0.041991
-0.004181
-0.073618
-0.111948
-0.152296
-0.166275
-0.175887
-0.160401
-0.129084
-0.102491
-0.055110
-0.013943
0.035336
0.075657
0.094454
0.119756
0.119668
0.115691
0.101405
0.052606
0.003855
-0.028111
-0.068120
-0.107418
-0.144540
-0.166508
-0.175035
-0.164607
-0.131153
-0.079736
-0.044837
-0.008023
0.039301
0.054652
0.101210
0.118670
0.107236
0.105243
0.091337
0.050359
0.000624
-0.053202
-0.089279
-0.121910
-0.152609
-0.169020
-0.173776
-0.169570
-0.152738
-0.113360
-0.064936
-0.020278
0.021872
0.068950
0.088916
0.107268
0.126194
0.111325
0.086716
0.044943
-0.003327
-0.042760
-0.098387
-0.139232
-0.154441
-0.173021
-0.177215
-0.188263
-0.145018
-0.098611
-0.087611
-0.026106
0.027478
0.074686
0.104620
0.126507
0.131592
0.127863
0.092901
0.060716
0.027549
-0.011080
-0.061975
-0.102789
-0.107413
-0.151986
-0.160842
-0.155443
-0.120421
-0.069644
-0.033411
0.007774
0.052036
0.084088
0.129075
0.143078
0.142802
0.144483
0.138480
0.096519
0.030566
-0.034504
-0.084301
-0.092102
-0.126284
-0.155234
-0.135252
-0.107048
-0.120718
-0.099172
-0.055834
0.008696
0.066175
0.111855
0.121512
0.150866
0.162644
0.162550
0.147606
0.097871
0.043501
0.010289
-0.024826
-0.066059
-0.111958
-0.130370
-0.138200
-0.132812
-0.108629
-0.076584
-0.037033
0.012733
0.053798
0.080798
0.113658
0.145779
0.129800
0.127656
0.111084
0.058064
0.019321
-0.027824
-0.084067
-0.127318
-0.157061
-0.179281
-0.175896
-0.169846
-0.149328
-0.111140
-0.064743
-0.019511
0.017969
0.053610
0.073575
0.098830
0.106495
0.094438
0.065001
0.027979
-0.007224
-0.050781
-0.105416
-0.143186
-0.178243
-0.204022
-0.197419
-0.197110
-0.175825
-0.136403
-0.099400
-0.063067
-0.020556
0.035910
0.063558
0.079363
0.085686
0.085243
0.062853
0.020910
-0.026882
-0.087146
-0.104970
-0.132846
-0.183133
-0.184176
-0.196545
-0.191121
-0.189375
-0.163187
-0.113555
-0.073992
-0.023620
0.021047
0.060234
0.077933
0.068784
0.077594
0.066119
0.026553
-0.024100
-0.089006
-0.126720
-0.162588
-0.185147
-0.200727
-0.218332
-0.204027
-0.179839
-0.151109
-0.130108
-0.072054
-0.008499
0.022004
0.047788
0.087652
0.081791
0.076958
0.043150
0.011962
-0.032369
-0.076983
-0.123125
-0.167527
-0.200699
-0.214802
-0.220304
-0.221392
-0.194808
