0.089057
0.147929
0.186451
0.205846
0.203121
0.218560
0.229108
0.212249
0.162421
0.120244
0.072100
0.043132
0.013493
-0.030141
-0.071540
-0.065957
-0.059733
-0.024053
0.005405
0.039975
0.097659
0.142869
0.179278
0.212162
0.256072
0.255939
0.229120
0.226559
0.213375
0.172756
0.118981
0.068550
0.022926
-0.055262
-0.023363
-0.037884
-0.066591
-0.072640
-0.010923
0.045082
0.066185
0.108389
0.145312
0.191610
0.220436
0.220630
0.195871
0.166986
0.145434
0.118081
0.072664
0.021776
-0.037446
-0.070442
-0.075792
-0.100058
-0.106699
-0.099108
-0.086353
-0.005798
0.079096
0.115514
0.157406
0.170056
0.195343
0.200464
0.180058
0.176487
0.155454
0.088270
0.011588
-0.039859
-0.099773
-0.145213
-0.174987
-0.146848
-0.105351
-0.092419
-0.055480
-0.021769
0.010856
0.083839
0.111993
0.146055
0.181982
0.173996
0.160402
0.136666
0.107147
0.079403
0.040466
-0.011135
-0.069247
-0.112570
-0.128375
-0.140158
-0.129557
-0.108577
-0.081181
-0.026405
0.021279
0.061796
0.102431
0.148567
0.160853
0.179585
0.168322
0.148501
0.099985
0.057842
0.023755
-0.027432
-0.080254
-0.099853
-0.122463
-0.144099
-0.139192
-0.129617
-0.104877
-0.068322
0.025032
0.080759
0.123206
0.152549
0.174988
0.167764
0.175644
0.165247
0.117283
0.057203
0.016025
-0.030355
-0.052138
-0.096605
-0.119059
-0.135734
-0.141610
-0.131637
-0.094134
-0.040208
0.009728
0.059716
0.119103
0.172667
0.190520
0.195722
0.198943
0.185001
0.172821
0.156856
0.129836
0.090835
0.049195
0.009125
-0.023964
0.012973
0.046187
0.079244
0.137368
0.213504
0.278623
0.348040
0.431576
0.512466
0.575073
0.584185
0.580919
0.616742
0.607146
0.593824
0.564393
0.552835
0.549095
0.569014
0.606864
0.628754
0.638784
0.655665
0.687496
0.734767
0.774878
0.804942
0.847322
0.853152
0.822287
0.788195
0.718512
0.629464
0.537163
0.453937
0.361366
0.256585
0.168147
0.089905
0.049606
0.020783
-0.000039
0.012680
0.038788
0.093193
0.112823
0.164780
0.195544
0.204695
0.223872
0.230916
0.231496
0.216712
0.176896
0.144460
0.120261
0.040536
0.018238
-0.019971
-0.049592
-0.059766
-0.052014
-0.032404
-0.003224
0.024296
0.095328
0.126093
0.145348
0.173262
0.203950
0.212362
0.202516
0.175498
0.161118
0.102051
0.055760
0.006157
-0.040302
-0.083129
-0.095348
-0.102507
-0.094294
-0.067932
-0.026468
0.021711
0.068051
0.097009
0.133950
0.171839
0.194548
0.198300
0.190227
0.170505
0.137072
0.099382
0.063136
0.011942
-0.047642
-0.089281
-0.089894
-0.092714
-0.094021
-0.066857
-0.040794
-0.017383
0.034324
0.106282
0.140605
0.187910
0.202528
0.212789
0.208432
0.187937
0.167537
0.118891
0.060228
0.022863
-0.025003
-0.055418
-0.068880
-0.077591
-0.066637
-0.053958
-0.031387
0.027857
0.081460
0.128242
0.162513
0.199300
0.230114
0.230321
0.201907
0.185034
0.185205
0.121291
0.060009
0.054034
0.018705
-0.022066
-0.055982
-0.052011
-0.050260
-0.009332
0.016996
0.071386
0.104075
0.146247
0.196768
0.243409
0.273436
0.281694
0.260166
0.240891
0.213322
0.169127
0.103733
0.067424
0.048256
0.019733
-0.011687
-0.032176
-0.015395
0.003375
0.057385
0.097466
0.130752
0.178207
0.238652
0.273436
0.295778
0.304036
0.297338
0.279047
0.250343
0.204990
0.156126
0.105379
0.078386
0.042320
0.017466
0.014213
0.023158
0.037925
0.066180
0.115372
0.163746
0.219090
0.262694
0.309690
0.334929
0.340516
0.323673
0.295105
0.285576
0.231653
0.183821
0.122888
0.082195
0.052353
0.038783
0.031840
0.040678
0.046773
0.055755
0.116166
0.175676
0.222976
0.269719
0.311940
0.327129
0.325915
0.306938
0.290471
0.251040
0.204008
0.170013
0.122378
0.065324
0.062656
0.034710
0.004558
-0.003081
0.025070
0.055993
0.104340
0.154995
0.198683
0.244914
0.294955
0.285985
0.284797
0.288633
0.280242
0.245693
0.204718
0.115768
0.069960
0.036446
-0.009690
-0.042884
-0.038457
-0.037092
-0.018292
0.010232
0.042636
0.083008
0.131023
0.176077
0.220878
0.248181
0.258025
0.232841
0.209028
0.166532
0.133782
0.089472
0.047318
-0.004965
-0.057222
-0.088935
-0.103753
-0.090295
-0.059618
-0.049836
-0.010628
0.054290
0.102143
0.140264
0.154222
0.189463
0.191678
0.185915
0.178055
0.143315
0.091654
0.033384
0.002984
-0.049443
-0.091456
-0.117740
-0.123290
-0.116831
-0.091156
-0.077790
-0.028349
-0.000533
0.057761
0.102529
0.136281
0.149423
0.136171
0.142387
0.152568
0.128924
0.063620
0.013024
-0.035444
-0.076818
-0.113041
-0.144957
-0.147751
-0.106954
-0.098246
-0.098046
-0.033150
0.021514
0.066157
0.106443
0.134688
0.142580
0.160732
0.162275
0.125881
0.094621
0.060521
0.025298
-0.016500
-0.058412
-0.081616
-0.104376
-0.131463
-0.146606
-0.117301
-0.085363
-0.035425
0.019243
0.063304
0.106469
0.133087
0.147415
0.153879
0.142272
0.126373
0.115532
0.080908
0.026761
-0.030424
-0.085499
-0.113997
-0.130784
-0.139629
-0.127503
-0.088223
-0.069814
-0.030715
0.022474
0.091929
0.116898
0.145677
0.161454
0.172244
0.160699
0.134823
0.103369
0.060700
-0.014151
-0.053756
-0.086332
-0.113385
-0.128917
-0.145401
-0.134177
-0.102295
-0.059942
-0.021528
0.015200
0.046492
0.110130
0.158718
0.172543
0.178618
0.158257
0.146583
0.109738
0.074328
0.023677
-0.033462
-0.109462
-0.094680
-0.100666
-0.118167
-0.116666
-0.098801
-0.068684
-0.053333
-0.014541
0.068811
0.102031
0.123231
0.140271
0.161831
0.157053
0.124544
0.093782
0.082850
0.041157
-0.033345
-0.086991
-0.102955
-0.130864
-0.134885
-0.135727
-0.131493
-0.115957
-0.052778
0.013640
0.037326
0.095160
0.140289
0.162569
0.165045
0.164688
0.141535
0.126728
0.085167
0.030633
-0.007946
-0.060332
-0.112948
-0.153525
-0.162001
-0.145110
-0.118216
-0.118883
-0.055440
0.007571
0.057795
0.104515
0.124650
0.132834
0.134823
0.138473
0.121371
0.096047
0.065446
0.011544
-0.036079
-0.079335
-0.121871
-0.148533
-0.167234
-0.145505
-0.124799
-0.094613
-0.055419
0.004745
0.049405
0.077795
0.118788
0.150307
0.138913
0.126882
0.102678
0.080237
0.023998
-0.014096
-0.060697
-0.107595
-0.162694
-0.149495
-0.162684
-0.149213
-0.118269
-0.088522
-0.063989
-0.018318
0.034336
0.083362
0.102016
0.133041
0.139311
0.131992
0.118394
0.079864
0.046265
-0.021378
-0.066982
-0.102992
-0.131407
-0.155550
-0.180637
-0.180454
-0.157636
-0.117594
-0.073571
-0.016664
0.023696
0.076940
0.105537
0.140898
0.147115
0.130120
0.107832
0.076409
0.033960
0.005545
-0.050458
-0.113849
-0.146702
-0.167193
-0.173581
-0.168535
-0.144452
-0.119793
-0.083785
-0.032783
0.013659
0.049013
0.089419
0.118366
0.114108
0.112560
0.110452
0.071087
0.008681
-0.036230
-0.068095
-0.076330
-0.103165
-0.122152
-0.160081
-0.170258
-0.149840
-0.116214
-0.071707
-0.024989
0.017237
0.061545
0.077382
0.087339
0.128249
0.122965
0.084478
0.048129
-0.019974
-0.039722
-0.051366
-0.088563
-0.148934
-0.183339
-0.182021
-0.178696
-0.126645
-0.109610
-0.090095
-0.042238
-0.008414
0.046707
0.077459
0.114422
0.127384
0.126769
0.107459
0.073047
0.014035
-0.030321
-0.071603
-0.123175
-0.168226
-0.172960
-0.174765
-0.174481
-0.147542
-0.119196
-0.066886
0.000494
0.022508
0.067594
0.098528
0.107879
0.112136
0.111425
0.108360
0.077600
0.046438
-0.001229
-0.038796
-0.085138
-0.117982
-0.143479
-0.151854
-0.147511
-0.120756
-0.089107
-0.052116
-0.013265
0.024882
0.078966
0.122259
0.149941
0.148828
0.140392
0.096342
0.090439
0.077466
0.020744
-0.032635
-0.094861
-0.150206
-0.157428
-0.154188
-0.131662
-0.122855
-0.086358
-0.013699
0.019940
0.057290
0.099922
0.136911
0.164639
0.163705
0.167161
0.151381
0.111136
0.067883
-0.007423
-0.046200
-0.071203
-0.096919
-0.116163
-0.122861
-0.134304
-0.128499
-0.077186
-0.042682
-0.010796
0.021149
0.069901
0.110194
0.128297
0.141983
0.161055
0.131741
0.081404
0.033630
-0.015958
-0.064232
-0.104061
-0.132363
-0.153572
-0.165435
-0.181053
-0.150989
-0.116258
-0.078785
-0.040364
0.016477
0.055335
0.080330
0.100822
0.113106
0.107096
0.085385
0.065343
0.006615
-0.052780
-0.114927
-0.162553
-0.171647
-0.194250
-0.223982
-0.214891
-0.185291
-0.163529
-0.114615
-0.067718
-0.025710
0.024558
0.063444
0.073081
0.079709
0.078549
0.058884
0.029377
0.002750
-0.043851
-0.078771
-0.138780
-0.183816
-0.191107
-0.201997
-0.202379
-0.206323
-0.175877
-0.123151
-0.057927
-0.010697
0.020944
0.047467
0.077782
0.076227
0.067513
0.055501
0.027736
-0.017117
-0.063741
-0.103275
-0.150755
-0.185667
-0.207902
-0.193968
-0.193902
-0.181619
-0.165150
-0.124046
-0.081648
-0.022706
0.036102
0.068407
0.070839
0.036259
0.062244
0.079033
0.034174
-0.028486
-0.062433
-0.104972
-0.153408
-0.192293
-0.225186
-0.218634
-0.207006
-0.194363
-0.158109
-0.112305
-0.078593
-0.047542
0.000659
0.045108
0.079524
0.082430
0.094717
0.102098
0.066466
0.013952
-0.027646
-0.029689
-0.056312
-0.079311
-0.108950
-0.097718
-0.056238
-0.008579
0.028741
0.079010
0.141014
0.225914
0.293628
0.342064
0.400882
0.463411
0.504875
0.532502
0.519563
0.497116
0.469788
0.460061
0.453666
0.460958
0.481041
0.508439
0.536312
0.597081
0.648942
0.675714
0.722688
0.780842
0.822202
0.831376
0.822845
0.815266
0.772250
0.691350
0.584481
0.489753
0.381757
0.296170
0.209727
0.109289
0.019493
-0.012987
-0.005809
-0.001560
0.004413
0.039855
0.097574
0.135874
0.157419
0.171367
0.200661
0.185590
0.155868
0.115401
0.117862
0.081709
0.020273
-0.022271
-0.063106
-0.093860
-0.124767
-0.145782
-0.159179
-0.132705
-0.082066
-0.042562
0.005519
0.036354
0.053322
0.100420
0.123545
0.133299
0.131830
0.108962
0.069621
0.029278
-0.023850
-0.068265
-0.109953
-0.145475
-0.176219
-0.177202
-0.175013
-0.159378
-0.114911
-0.078331
-0.046103
0.013727
0.051694
0.080392
0.100788
0.115014
0.114727
0.100564
0.041834
0.005895
-0.045469
-0.078458
-0.113651
-0.146659
-0.172630
-0.181923
-0.170890
-0.140777
-0.123171
-0.091644
-0.031329
0.038049
0.076971
0.118004
0.129528
0.123146
0.115054
0.116121
0.092366
0.043947
-0.022378
-0.068635
-0.104729
-0.145351
-0.165584
-0.170413
-0.156068
-0.136423
-0.106632
-0.071672
-0.019650
0.021756
0.071565
0.103877
0.114476
0.119825
0.149043
0.127241
0.100759
0.061477
0.015033
-0.046590
-0.100246
-0.139598
-0.161965
-0.154837
-0.133736
-0.118475
-0.079346
-0.041424
0.032198
0.069603
0.097588
0.140379
0.174393
0.185512
0.188049
0.163553
0.142026
0.109381
0.028654
-0.023893
-0.048379
-0.079851
-0.088121
-0.095420
-0.111383
-0.091142
-0.052613
-0.024211
0.031708
0.105737
0.162311
0.196181
0.215362
0.216855
0.209057
0.174967
0.140162
0.127405
0.093076
0.057901
0.019529
-0.030323
-0.056147
-0.057965
-0.061212
-0.054473
-0.012835
0.051791
0.094686
0.124843
0.161903
0.212964
0.245503
0.234580
0.221671
0.202260
0.188310
0.156333
0.100044
0.061837
0.017837
-0.029331
-0.038141
-0.058123
-0.035641
-0.018103
0.039852
0.070472
0.110120
0.134870
0.174191
0.200264
0.209033
0.240673
0.236787
0.224695
0.184825
0.158243
0.110427
0.071308
0.025806
-0.014412
-0.049165
-0.074491
-0.082093
-0.050298
-0.003574
0.017590
0.075909
0.133336
0.161220
0.193560
0.210442
0.224251
0.220812
0.193748
0.153038
0.118490
0.058706
0.017195
-0.027329
-0.049690
-0.077681
-0.101345
-0.123619
-0.121409
-0.051231
-0.037760
0.000946
0.065897
0.114192
0.143719
0.172618
0.180232
0.171571
0.137274
0.120549
0.080730
0.013538
-0.053545
-0.116886
-0.132397
-0.132549
-0.146183
-0.146256
-0.124866
-0.094409
-0.074692
-0.027606
0.019743
0.051960
0.070027
0.107483
0.127345
0.119109
0.098278
0.078861
0.026350
-0.019991
-0.084235
-0.139951
-0.176068
-0.190538
-0.204421
-0.187771
-0.185859
-0.153302
-0.087030
-0.038508
-0.015252
0.030060
0.068238
0.098521
0.086750
0.059822
0.071214
0.072255
0.019104
-0.076626
-0.087910
-0.124203
-0.166263
-0.186010
-0.185694
-0.199672
-0.188283
-0.149686
-0.104871
-0.064810
-0.019132
0.017806
0.059637
0.092502
0.083084
0.078404
0.080182
0.035267
-0.000177
-0.032160
-0.073238
-0.128112
-0.165995
-0.188627
-0.206436
-0.201822
-0.189733
-0.150519
-0.099352
-0.060365
-0.023151
0.018853
0.061746
0.085297
0.076440
0.049833
0.053731
0.050306
0.013728
-0.036842
-0.095630
-0.121259
-0.167538
-0.190236
-0.193030
-0.197907
-0.174263
-0.142333
-0.119187
-0.068077
-0.016751
0.032260
0.069180
0.086902
0.089201
0.078556
0.056578
0.035035
-0.007263
-0.049443
-0.095832
-0.131318
-0.155899
-0.178455
-0.189413
-0.184145
-0.166181
-0.149049
-0.117171
-0.072837
-0.015030
0.043096
0.090226
0.087136
0.095217
0.081529
0.061350
0.020454
0.018192
-0.014235
-0.052823
-0.100870
-0.157448
-0.183242
-0.213007
-0.214024
-0.189322
-0.123365
-0.068659
-0.010706
0.019140
0.051770
0.075830
0.102326
0.109692
0.087173
0.063878
0.012681
-0.014372
-0.058656
-0.106597
-0.139803
-0.169197
-0.194950
-0.182107
-0.161151
-0.148887
-0.129915
-0.115268
-0.049489
0.004792
0.029387
0.052697
0.080946
0.079640
0.106352
0.121574
0.076685
0.021575
-0.048620
-0.095536
-0.126153
-0.168585
-0.202115
-0.225692
-0.203752
-0.161310
-0.139748
-0.115632
-0.066966
-0.009736
0.022433
0.062176
0.084614
0.094993
0.092583
0.070318
0.023624
-0.007645
-0.057468
-0.094636
-0.140817
-0.189461
-0.209954
-0.227641
-0.221225
-0.196889
-0.159705
-0.125470
-0.064688
-0.017722
0.021711
0.061150
0.078789
0.082723
0.083025
0.078342
0.042129
-0.019172
-0.070269
-0.111939
-0.169005
-0.220683
-0.193680
-0.194594
-0.202815
-0.164597
-0.132554
-0.103496
-0.069616
-0.025460
0.013627
0.051660
0.076592
0.094231
0.076270
0.051841
0.032137
0.008634
-0.041171
-0.099026
-0.150691
-0.197229
-0.216820
-0.228044
-0.228150
-0.190236
-0.155773
-0.124822
-0.077802
-0.061973
0.016850
0.069741
0.082636
0.083885
0.073526
0.061881
0.013962
-0.017457
-0.083290
-0.139891
-0.155038
-0.189883
-0.197921
-0.217462
-0.232242
-0.183459
-0.153136
-0.131959
-0.070650
-0.017990
0.007493
0.023177
0.035060
0.055815
0.067281
0.076707
0.030029
-0.022024
-0.079073
-0.117256
-0.170920
-0.186644
-0.212518
-0.222375
-0.206867
-0.193167
-0.168820
-0.128915
-0.079475
-0.032403
0.000486
0.033309
0.049219
0.061019
0.045169
0.031395
0.027593
-0.013209
-0.063552
-0.106358
-0.171420
-0.223778
-0.222888
-0.228526
-0.217184
-0.207064
-0.170043
-0.126024
-0.073450
-0.027807
0.010138
0.056288
0.075784
0.070519
0.056622
0.026855
0.003576
-0.005493
-0.056147
-0.128139
-0.183628
-0.199385
-0.235495
-0.248559
-0.226955
-0.189660
-0.167680
-0.138622
-0.089929
-0.028644
0.022435
0.047960
0.057407
0.069427
0.073148
0.056315
-0.001500
-0.059367
-0.088214
-0.130458
-0.180319
-0.227773
-0.241978
-0.223287
-0.183093
-0.174344
-0.174623
-0.144527
-0.088093
-0.026808
0.009513
0.043036
0.053480
0.064745
0.066023
0.048356
0.013411
-0.037156
-0.079399
-0.114548
-0.169363
-0.212420
-0.233434
-0.231876
-0.219763
-0.207445
-0.187042
-0.151936
-0.099547
-0.030859
-0.005923
0.028729
0.046154
0.076697
0.087959
0.061472
0.023302
-0.012125
-0.055383
-0.110235
-0.161088
-0.193167
-0.211520
-0.223248
-0.228110
-0.208244
-0.161107
-0.105472
-0.049465
0.004474
0.031186
0.050216
0.080896
0.097508
0.106092
0.084406
0.045119
0.012577
-0.030752
-0.091411
-0.142080
-0.167058
-0.189679
-0.185703
-0.183718
-0.168898
-0.144811
-0.106147
-0.066148
-0.018386
0.024667
0.063741
0.083621
0.091719
0.089748
0.065941
0.036678
0.000539
-0.045618
-0.080086
-0.101186
-0.145380
-0.163175
-0.183947
-0.183367
-0.155292
-0.124183
-0.076447
-0.034511
-0.000463
0.032396
0.070610
0.105555
0.111688
0.081846
0.059336
0.040116
-0.006518
-0.056199
-0.104877
-0.148602
-0.184059
-0.201037
-0.212774
-0.207812
-0.192242
-0.165070
-0.130838
-0.074847
-0.028530
0.005393
0.044940
0.068793
0.076696
0.080391
0.054012
0.018582
-0.026433
-0.078526
-0.127867
-0.176445
-0.202167
-0.224601
-0.225741
-0.215451
-0.211557
-0.189043
-0.144530
-0.115334
-0.066458
-0.014912
0.020248
0.046511
0.057917
0.046489
0.013178
-0.020718
-0.047517
-0.089985
-0.138178
-0.183409
-0.219478
-0.238003
-0.251429
-0.251851
-0.222288
-0.179287
-0.154347
-0.119827
-0.070560
-0.012491
0.014840
0.033212
0.029416
0.016423
-0.013036
-0.037142
-0.097075
-0.103418
-0.105544
-0.150515
-0.186355
-0.210668
-0.235476
-0.245134
-0.240670
-0.199330
-0.163301
-0.116118
-0.074495
-0.016489
0.016509
0.040287
0.042679
0.030761
0.004634
-0.001327
-0.043624
-0.093420
-0.133218
-0.183319
-0.224293
-0.248156
-0.265548
-0.247762
-0.228807
-0.201365
-0.170693
-0.122354
-0.066624
-0.027277
0.010456
0.028040
0.041275
0.025332
-0.013868
-0.043497
-0.077554
-0.121088
-0.168552
-0.201919
-0.230424
-0.256266
-0.248613
-0.225129
-0.171911
-0.127296
-0.091254
-0.049781
0.017689
0.091105
0.142463
0.171460
0.181032
0.179102
0.186594
0.190911
0.189431
0.167019
0.147279
0.133470
0.129944
0.150023
0.170628
0.201964
0.221421
0.311693
0.374544
0.469032
0.574174
0.646833
0.707210
0.770657
0.840176
0.868318
0.836594
0.796281
0.738194
0.700685
0.626094
0.590363
0.534963
0.478101
0.425300
0.335081
0.308505
0.284752
0.297981
0.305421
0.305725
0.275805
0.258945
0.262905
0.243899
0.226966
0.202523
0.164610
0.102094
0.053732
0.001162
-0.052504
-0.097457
-0.136994
-0.153420
-0.150029
-0.140250
-0.100615
-0.069002
-0.032748
0.008336
0.057959
0.092392
0.104689
0.110550
0.104690
0.079424
0.043784
-0.005377
-0.037856
-0.090396
-0.140738
-0.174007
-0.199841
-0.210928
-0.209089
-0.189594
-0.155937
-0.098924
-0.057643
-0.006346
0.047621
0.064195
0.065756
0.067027
0.060232
0.041607
0.026560
-0.001666
-0.029510
-0.101603
-0.152745
-0.177153
-0.169852
-0.197002
-0.200616
-0.194136
-0.159160
-0.122127
-0.079390
-0.017670
0.019243
0.043689
0.066667
0.088244
0.087505
0.074562
0.012492
-0.010655
-0.054152
-0.087705
-0.124311
-0.169436
-0.193206
-0.203569
-0.210325
-0.163758
-0.135888
-0.104899
-0.066057
-0.006988
0.031856
0.064643
0.097563
0.102463
0.109274
0.087409
0.057986
0.006031
-0.054792
-0.078238
-0.117776
-0.164283
-0.192871
-0.185616
-0.155011
-0.150728
-0.139804
-0.094209
-0.032329
0.007647
0.027209
0.085829
0.106626
0.091121
0.113858
0.110689
0.100394
0.060511
0.004332
-0.038476
-0.061839
-0.129462
-0.157467
-0.162408
-0.149106
-0.124682
-0.083507
-0.044043
-0.005573
0.042325
0.085889
0.123177
0.155216
0.162025
0.155987
0.137078
0.120846
0.069074
0.030856
-0.019135
-0.064233
-0.070559
-0.075731
-0.076324
-0.092311
-0.082259
-0.033825
0.012590
0.035305
0.089786
0.131179
0.178344
0.207873
0.212484
0.188173
0.174155
0.139064
0.104078
0.108985
0.049309
-0.012579
-0.056050
-0.070784
-0.057246
-0.037783
-0.034598
-0.020333
0.023293
0.065327
0.119909
0.158816
0.195319
0.241470
0.236945
0.201548
0.167492
0.168011
0.131407
0.084388
0.037939
-0.012996
-0.061049
-0.052730
-0.080721
-0.071258
-0.076602
-0.044800
0.001623
0.065078
0.117203
0.155078
0.181621
0.188970
0.231918
0.172901
0.162696
0.186425
0.143363
0.050153
-0.018532
-0.025124
-0.057899
-0.088933
-0.113614
-0.117488
-0.052231
-0.001053
0.004054
0.042153
0.088734
0.114008
0.150258
0.182114
0.175966
0.166502
0.163348
0.123578
0.082447
0.028021
-0.015859
-0.034931
-0.108296
-0.144565
-0.124046
-0.124217
-0.127724
-0.105908
-0.070197
-0.045332
0.010128
0.052130
0.094484
0.108024
0.098347
0.103760
0.124761
0.097658
0.035218
-0.014623
-0.057133
-0.101483
-0.158186
-0.181582
-0.187644
-0.175348
-0.150197
-0.125365
-0.128666
-0.083184
-0.007475
0.027252
0.071237
0.083239
0.101431
0.094409
0.048792
0.016530
-0.020567
-0.055223
-0.104527
-0.125844
-0.167262
-0.219463
-0.220725
-0.205195
-0.175114
-0.134603
-0.114273
-0.089870
-0.034531
0.017642
0.043739
0.059904
0.059499
0.055427
0.026146
-0.003742
-0.046207
-0.075764
-0.125417
-0.160258
-0.174322
-0.196152
-0.227196
-0.233193
-0.188757
-0.161588
-0.146293
-0.077209
-0.014570
0.018385
0.050022
0.068654
0.099488
0.087035
0.056900
0.027539
-0.019630
-0.091014
-0.122566
-0.151298
-0.179915
-0.210536
-0.223058
-0.218777
-0.204196
-0.181640
-0.133457
-0.076980
-0.025548
0.017210
0.030439
0.061670
0.074372
0.094329
0.094402
0.063287
-0.010589
-0.075875
-0.119275
-0.132660
-0.157212
-0.212317
-0.218939
-0.208529
-0.195732
-0.151226
-0.121251
-0.083765
-0.033277
0.008018
0.050822
0.073596
0.079147
0.063325
0.050394
0.023474
-0.011169
-0.045262
-0.089094
-0.150966
-0.195758
-0.236906
-0.218572
-0.204835
-0.202848
-0.173858
-0.122305
-0.102867
-0.039138
0.024521
0.068467
0.099621
0.103234
0.091307
0.051102
0.027547
-0.013037
-0.048066
-0.096932
-0.145577
-0.164172
-0.195778
-0.219686
-0.215028
-0.216678
-0.180861
-0.123800
-0.059037
-0.037395
0.023698
0.065786
0.094097
0.082247
0.069489
0.046577
0.025770
-0.021128
-0.059111
-0.125536
-0.129371
-0.143617
-0.183376
-0.205169
-0.212105
-0.178000
-0.137624
-0.104621
-0.068079
-0.023279
0.020813
0.044778
0.059065
0.060671
0.074645
0.068202
0.005068
-0.040204
-0.063015
-0.116877
-0.160215
-0.212670
-0.228368
-0.214748
-0.216823
-0.199079
-0.164333
-0.104020
-0.076354
-0.043532
0.002711
0.050722
0.100769
0.102150
0.083898
0.039740
0.019442
-0.029407
-0.089813
-0.130320
-0.174993
-0.202232
-0.196449
-0.197748
-0.197329
-0.179581
-0.150104
-0.094111
-0.058605
-0.026277
-0.015029
0.014166
0.055227
0.065303
0.057193
0.044033
0.009505
-0.027098
-0.070703
-0.125838
-0.176151
-0.212372
-0.238041
-0.238860
-0.254560
-0.226201
-0.162890
-0.104994
-0.078794
-0.029383
0.019209
0.041432
0.056452
0.062556
0.068738
0.048250
0.015111
-0.044175
-0.081878
-0.147254
-0.184642
-0.202246
-0.228564
-0.211804
-0.212003
-0.173169
-0.156511
-0.139039
-0.120549
-0.064711
-0.002810
0.016250
0.033979
0.041951
0.048650
0.032772
0.012696
-0.030149
-0.057886
-0.123151
-0.170771
-0.214705
-0.247818
-0.239614
-0.238603
-0.208722
-0.184406
-0.147990
-0.114805
-0.057909
-0.031994
0.041414
0.092941
0.101384
0.064445
0.039912
-0.007028
-0.058014
-0.109168
-0.129395
-0.173576
-0.217480
-0.236207
-0.251249
-0.250039
-0.187411
-0.145944
-0.139920
-0.101076
-0.069214
-0.035200
0.004534
0.066488
0.106011
0.083866
0.040700
0.029183
-0.008818
-0.067545
-0.128051
-0.168882
-0.241256
-0.213034
-0.214741
-0.211837
-0.203757
-0.157021
-0.120943
-0.090227
-0.050437
-0.002051
0.033011
0.046927
0.070722
0.058713
0.044489
0.003576
-0.061748
-0.092425
-0.117896
-0.169408
-0.202078
-0.224414
-0.281387
-0.237610
-0.177314
-0.146134
-0.146820
-0.101465
-0.060027
-0.018441
0.014161
0.040415
0.037538
0.030695
0.025882
0.029022
-0.021797
-0.089910
-0.142160
-0.187005
-0.202265
-0.224865
-0.232043
-0.227705
-0.227716
-0.177134
-0.116255
-0.079139
-0.033159
0.005546
0.036448
0.064087
0.053865
0.031758
0.006302
0.013139
-0.018034
-0.055908
-0.100204
-0.181420
-0.179647
-0.216074
-0.244426
-0.240127
-0.198147
-0.150716
-0.123194
-0.063102
-0.011042
0.012644
0.043848
0.070408
0.102895
0.102339
0.054081
0.027829
-0.007809
-0.063397
-0.108101
-0.126014
-0.158483
-0.186519
-0.211542
-0.184570
-0.163251
-0.110382
-0.083599
-0.054495
-0.016994
0.023301
0.062965
0.081840
0.095123
0.085100
0.037657
-0.003048
-0.021439
-0.060322
-0.080889
-0.124994
-0.110108
-0.149320
-0.178138
-0.174961
-0.159018
-0.135897
-0.088724
-0.049363
0.010544
0.074519
0.117369
0.122749
0.106694
0.086769
0.064467
0.066821
0.019675
-0.045713
-0.060635
-0.117336
-0.179705
-0.191140
-0.164090
-0.162056
-0.134988
-0.146439
-0.093770
-0.053571
-0.016033
0.035152
0.056695
0.078593
0.083419
0.033411
0.020843
0.025962
-0.014214
-0.046358
-0.087857
-0.158363
-0.212266
-0.244124
-0.231217
-0.205900
-0.193585
-0.157682
-0.122752
-0.095805
-0.049113
-0.013921
0.015377
0.043897
0.054976
0.051432
0.024961
0.008321
-0.032278
-0.085527
-0.097012
-0.166034
-0.214301
-0.233325
-0.240540
-0.248343
-0.237579
-0.201410
-0.162973
-0.118880
-0.055406
0.008765
0.026308
-0.010323
-0.035913
0.015591
-0.014852
-0.059484
-0.107659
-0.144280
-0.153624
-0.167110
-0.177680
-0.221904
-0.238904
-0.229632
-0.179829
-0.147628
-0.131061
-0.106411
-0.061698
-0.016806
0.030300
0.037986
0.033653
0.030724
0.026967
-0.014363
-0.065499
-0.129126
-0.109010
-0.191268
-0.248076
-0.244605
-0.245514
-0.270550
-0.242244
-0.207485
-0.166063
-0.093303
-0.051759
-0.005041
0.007499
0.025256
0.017561
0.045756
0.031650
-0.011111
-0.057909
-0.100746
-0.138285
-0.185158
-0.237450
-0.242652
-0.254115
-0.258327
-0.231698
-0.190060
-0.134592
-0.075830
-0.045300
-0.004480
0.048488
0.107919
0.111054
0.134156
0.140156
0.120308
0.108091
0.070737
0.045487
0.013157
-0.013385
-0.005951
0.020028
0.077645
0.115146
0.180996
0.256130
0.318403
0.394470
0.471988
0.513780
0.561864
0.622130
0.675553
0.676149
0.682702
0.707798
0.681160
0.673236
0.623060
0.599244
0.584658
0.514433
0.488142
0.507987
0.495789
0.487432
0.477077
0.494188
0.511145
0.465215
0.398311
0.357905
0.323418
0.270379
0.213556
0.143015
0.067350
0.001628
-0.012626
-0.030889
-0.067735
-0.104433
-0.109373
-0.104052
-0.078875
-0.046940
-0.016276
0.022739
0.068511
0.097228
0.113060
0.123262
0.110760
0.077120
0.073527
0.031406
-0.018249
-0.062288
-0.129603
-0.146248
-0.169324
-0.199362
-0.187751
-0.150968
-0.147314
-0.129522
-0.096937
-0.055703
0.026162
0.080131
0.104068
0.099908
0.084246
0.063133
0.032903
-0.008135
-0.074107
-0.092120
-0.133727
-0.184385
-0.201867
-0.185938
-0.187901
-0.189732
-0.137479
-0.092772
-0.056395
-0.038275
-0.007318
0.060731
0.093277
0.088301
0.076584
0.061486
0.017960
-0.016143
-0.058585
-0.098457
-0.126853
-0.128688
-0.145083
-0.186626
-0.205221
-0.199409
-0.181735
-0.135552
-0.057592
0.018068
0.082152
0.092743
0.084999
0.104459
0.109262
0.083314
0.040749
-0.001558
-0.044278
-0.072270
-0.103895
-0.132778
-0.165780
-0.180323
-0.190657
-0.172158
-0.138620
-0.092548
-0.052327
-0.000239
0.064818
0.103992
0.116433
0.144949
0.122963
0.110658
0.055379
0.026999
-0.028690
-0.041195
-0.061151
-0.118846
-0.141209
-0.147366
-0.137314
-0.125296
-0.065869
-0.030426
-0.014614
-0.010339
0.086993
0.166185
0.182917
0.168262
0.145945
0.118779
0.130240
0.092995
0.032206
-0.024687
-0.072784
-0.097017
-0.115430
-0.076881
-0.083536
-0.076500
-0.028471
0.032927
0.065365
0.070902
0.128405
0.179138
0.181274
0.190931
0.185516
0.173231
0.158204
0.106619
0.079360
0.033829
-0.008061
-0.051352
-0.084295
-0.083850
-0.063821
-0.052481
-0.045062
0.001734
0.069485
0.133736
0.172951
0.189839
0.208104
0.232964
0.230611
0.208413
0.178616
0.123170
0.064214
0.031168
0.005366
-0.036618
-0.047672
-0.067189
-0.070701
-0.045090
-0.019755
0.025532
0.082987
0.119061
0.149733
0.181325
0.199265
0.219180
0.214817
0.199410
0.191981
0.125488
0.047614
0.033353
-0.001964
-0.048858
-0.077474
-0.106679
-0.082711
-0.083967
-0.030834
0.020250
0.062758
0.088251
0.138107
0.170086
0.177655
0.189200
0.181421
0.171057
0.120893
0.100342
0.031284
-0.057585
-0.079203
-0.126582
-0.138758
-0.134909
-0.130562
-0.106872
-0.052461
-0.039914
0.018832
0.052778
0.103303
0.123043
0.151393
0.159969
0.138420
0.105214
0.068503
0.006400
-0.019893
-0.057756
-0.091470
-0.123213
-0.174760
-0.202788
-0.171053
-0.143877
-0.149258
-0.112349
-0.059364
-0.011992
0.014878
0.053906
0.068333
0.090749
0.106900
0.098807
0.049869
-0.002428
-0.068046
-0.095466
-0.139411
-0.165693
-0.166804
-0.192318
-0.209132
-0.202052
-0.178993
-0.125470
-0.061194
0.002617
0.023464
0.021622
0.073829
0.084968
0.069501
0.070537
0.040347
-0.015447
-0.067334
-0.113523
-0.137552
-0.198797
-0.226562
-0.220031
-0.191382
-0.155777
-0.140859
-0.124130
-0.087862
-0.025947
0.007490
0.048419
0.086379
0.098255
0.109289
0.040798
0.000759
-0.027355
-0.052078
-0.093608
-0.133329
-0.208793
-0.224717
-0.245927
-0.205149
-0.180503
-0.130993
-0.094256
-0.065238
-0.036508
0.009283
0.059103
0.074160
0.067908
0.081841
0.088693
0.028631
-0.028909
-0.064204
-0.093892
-0.144049
-0.184507
-0.206497
-0.217255
-0.186886
-0.158006
-0.140373
-0.114536
-0.073311
-0.017238
0.016733
0.036787
0.063660
0.094503
0.093923
0.052455
0.035382
0.011092
-0.033808
-0.091050
-0.141232
-0.160422
-0.184952
-0.193786
-0.203577
-0.182937
-0.177777
-0.109958
-0.047371
-0.009585
0.030741
0.062166
0.073480
0.071981
0.085806
0.098125
0.067095
0.020734
-0.040489
-0.081151
-0.130881
-0.181720
-0.198832
-0.223573
-0.221151
-0.191022
-0.153109
-0.098222
-0.063588
-0.036332
0.029947
0.080908
0.089029
0.092952
0.081665
0.061379
0.033205
-0.009976
-0.071951
-0.086774
-0.128581
-0.160606
-0.190896
-0.194530
-0.188653
-0.198232
-0.155533
-0.105809
-0.081319
-0.018751
0.019513
0.062873
0.079491
0.104055
0.085125
0.040711
0.004077
0.004280
-0.039828
-0.072736
-0.107164
-0.177042
-0.214954
-0.231687
-0.200387
-0.173683
-0.146494
-0.125863
-0.087397
-0.033292
0.023059
0.058853
0.078053
0.103883
0.082333
0.050514
0.011979
-0.005218
-0.085977
-0.124682
-0.132067
-0.183589
-0.238998
-0.223568
-0.204847
-0.202071
-0.162923
-0.077719
-0.034249
0.017541
0.030564
0.054316
0.069171
0.043995
0.042390
0.044467
0.049048
0.020088
-0.000618
-0.035394
-0.104470
-0.195688
-0.242225
-0.241047
-0.224414
-0.229052
-0.196211
-0.139897
-0.072251
-0.009546
0.043236
0.074397
0.078883
0.051786
0.055227
0.045079
0.014826
-0.022803
-0.081643
-0.138171
-0.160152
-0.194097
-0.221757
-0.208088
-0.214201
-0.207130
-0.179632
-0.140930
-0.096435
-0.038040
0.010896
0.060145
0.088437
0.098820
0.097023
0.065940
0.031464
-0.020674
-0.079026
-0.153331
-0.180414
-0.224585
-0.225020
-0.215952
-0.245704
-0.218900
-0.162248
-0.120864
-0.088021
-0.039861
0.007152
0.042045
0.075778
0.098874
0.079675
0.036157
0.008236
-0.030041
-0.103685
-0.157438
-0.159246
-0.184445
-0.211464
-0.207963
-0.208051
-0.225139
-0.185814
-0.144628
-0.065606
0.019714
0.025522
0.019266
0.044693
0.073662
0.063221
0.046251
-0.006604
-0.045424
-0.063596
-0.102314
-0.146746
-0.182974
-0.203987
-0.205708
-0.210869
-0.197203
-0.191012
-0.157705
-0.089426
-0.017104
0.018093
0.036755
0.055647
0.082525
0.070019
0.018730
-0.006261
-0.036561
-0.051649
-0.104675
-0.153043
-0.194092
-0.227602
-0.220858
-0.199411
-0.167934
-0.149930
-0.141638
-0.109859
-0.038913
0.005873
0.019289
0.049720
0.068637
0.063887
0.066083
0.064025
0.025736
-0.051423
-0.101565
-0.134743
-0.184833
-0.204742
-0.197265
-0.170992
-0.127130
-0.113086
-0.082455
-0.049825
0.004233
0.064117
0.104474
0.116024
0.127553
0.112839
0.093822
0.053097
0.012571
-0.049862
-0.091432
-0.129065
-0.186702
-0.189362
-0.182879
-0.180589
-0.158588
-0.130549
-0.086735
-0.030574
0.010030
0.042444
0.088107
0.103279
0.110080
0.096944
0.080134
0.078438
0.040249
-0.030271
-0.083960
-0.106617
-0.120040
-0.142215
-0.142919
-0.167195
-0.144724
-0.120242
-0.083664
-0.016041
0.039070
0.062087
0.092732
0.091603
0.099529
0.105945
0.091381
0.083561
0.034991
-0.024928
-0.100216
-0.151776
-0.170553
-0.198783
-0.193613
-0.185268
-0.146173
-0.128601
-0.106736
-0.069089
-0.020177
0.033867
0.057041
0.075234
0.086271
0.082854
0.063334
0.033620
0.007482
-0.041411
-0.117413
-0.163399
-0.235176
-0.214307
-0.175945
-0.169993
-0.168239
-0.163681
-0.114120
-0.069461
-0.033584
-0.018813
0.025625
0.054622
0.059110
0.031475
0.003249
-0.025250
-0.058096
-0.095919
-0.122795
-0.168261
-0.217404
-0.243358
-0.249511
-0.220234
-0.201834
-0.186560
-0.133924
-0.076990
-0.042847
-0.031807
-0.020754
0.045526
0.076378
0.041239
0.037572
0.027336
-0.029594
-0.078080
-0.141246
-0.198783
-0.202345
-0.217858
-0.257839
-0.245954
-0.204604
-0.138791
-0.159687
-0.128111
-0.036397
-0.012430
0.027286
0.047729
0.062203
0.050979
0.020515
-0.024139
-0.043588
-0.079368
-0.123725
-0.146333
-0.188664
-0.218497
-0.229421
-0.220844
-0.196823
-0.169558
-0.128608
-0.094088
-0.057543
-0.013878
0.032873
0.034397
0.081297
0.066771
0.034478
0.011545
-0.026983
-0.057239
-0.142044
-0.146115
-0.144428
-0.175283
-0.159841
-0.129715
-0.086899
-0.043543
-0.018849
0.025725
0.102624
0.155409
0.213868
0.293501
0.310711
0.311134
0.296069
0.299108
0.303116
0.288875
0.274550
0.267013
0.271410
0.280793
0.280319
0.308179
0.366507
0.448135
0.533516
0.617157
0.691721
0.751026
0.794407
0.805844
0.815688
0.828721
0.791664
0.738669
0.663138
0.595422
0.525230
0.412484
0.314617
0.218446
0.145134
0.110966
0.093553
0.095051
0.082941
0.066076
0.101932
0.138048
0.123212
0.180681
0.210973
0.214581
0.163275
0.104682
0.055453
-0.025774
-0.079225
-0.102571
-0.116137
-0.121198
-0.136931
-0.107219
-0.106122
-0.082814
-0.041312
-0.015070
0.020451
0.061374
0.115510
0.128019
0.126798
0.114222
0.090971
0.041332
0.062603
-0.018951
-0.079558
-0.124657
-0.152407
-0.171213
-0.176929
-0.173237
-0.154680
-0.125305
-0.101054
-0.064778
-0.019121
0.027680
0.066635
0.080497
0.083320
0.061456
0.051761
0.049980
0.016759
-0.035563
-0.073740
-0.115904
-0.159985
-0.185693
-0.178400
-0.191585
-0.153330
-0.116703
-0.079945
-0.042819
-0.004713
0.019246
0.069394
0.099901
0.108149
0.110926
0.091992
0.051261
-0.007339
-0.040103
-0.084071
-0.117793
-0.149281
-0.184511
-0.178816
-0.170088
-0.160534
-0.110581
-0.107131
-0.045464
0.008148
0.064701
0.086924
0.102703
0.116432
0.152601
0.133302
0.092686
0.052816
-0.002875
-0.060139
-0.092549
-0.122448
-0.142759
-0.146480
-0.146089
-0.135186
-0.083677
-0.030993
0.015665
0.053415
0.065803
0.104964
0.139078
0.174967
0.175689
0.134486
0.082136
0.066117
0.052357
-0.011235
-0.054810
-0.093738
-0.113139
-0.109825
-0.116733
-0.077606
-0.044678
-0.013890
0.043222
0.082154
0.132059
0.156332
0.141054
0.169158
0.182324
0.160782
0.132737
0.094461
0.065512
0.033536
-0.020111
-0.046523
-0.064331
-0.075126
-0.062504
-0.038635
-0.014707
0.023266
0.066838
0.101742
0.151625
0.176030
0.221589
0.228401
0.236194
0.234327
0.198753
0.138056
0.098997
0.053876
0.013443
-0.006021
-0.032318
-0.058564
-0.055526
-0.017193
0.014900
0.041316
0.117370
0.147382
0.184698
0.234929
0.245593
0.243021
0.243679
0.231978
0.205829
0.158963
0.102360
0.041793
-0.038505
-0.073776
-0.056158
-0.025469
-0.028127
-0.036920
-0.020001
0.009159
0.103585
0.164171
0.168087
0.195654
0.236514
0.215098
0.224724
0.228294
0.192091
0.126408
0.077388
0.028124
-0.020900
-0.050502
-0.078590
-0.094911
-0.105195
-0.065778
-0.031955
0.012756
0.065775
0.090924
0.125470
0.158106
0.156976
0.135798
0.173081
0.179487
0.163093
0.098433
0.049731
0.000766
-0.070594
-0.153938
-0.128692
-0.127100
-0.146374
-0.121173
-0.077696
-0.028976
-0.025770
0.031294
0.070744
0.096277
0.146324
0.156603
0.146987
0.105546
0.076945
0.021042
-0.039614
-0.089304
-0.139619
-0.132158
-0.148792
-0.171906
-0.166436
-0.139133
-0.084555
-0.032734
0.002822
0.011397
0.023278
0.040895
0.074678
0.101327
0.081545
0.072593
0.027915
-0.009114
-0.033150
-0.065534
-0.121891
-0.147719
-0.208467
-0.218558
-0.182761
-0.130710
-0.127372
-0.098418
-0.068982
-0.020186
0.021816
0.045511
0.060364
0.084854
0.081954
0.067968
0.023208
-0.024590
-0.068740
-0.103130
-0.127932
-0.152499
-0.160379
-0.185305
-0.200912
-0.166254
-0.115114
-0.094103
-0.088826
-0.046387
0.057245
0.088237
0.094267
0.092509
0.074385
0.076416
0.036464
-0.052759
-0.060449
-0.065645
-0.089902
-0.134856
-0.163452
-0.178501
-0.177272
-0.169345
-0.137558
-0.094140
-0.047738
0.030366
0.079586
0.092112
0.089403
0.100823
0.115573
0.084128
0.037469
-0.022094
-0.073383
-0.107101
-0.150679
-0.139347
-0.133522
-0.167808
-0.215343
-0.186081
-0.146042
-0.073322
-0.033320
-0.009367
0.027983
0.071501
0.097484
0.082849
0.086290
0.087162
0.065401
0.024454
-0.029292
-0.093503
-0.146252
-0.168750
-0.181226
-0.175125
-0.205741
-0.214993
-0.178189
-0.105178
-0.006513
0.015879
0.093991
0.139664
0.161780
0.140437
0.121152
0.081217
-0.014107
-0.041233
-0.049014
-0.093295
-0.142730
-0.189969
-0.174040
-0.169835
-0.164819
-0.140490
-0.121629
-0.091983
-0.036192
0.021319
0.045325
0.070069
0.107245
0.106819
0.117635
0.098718
0.065765
0.010059
-0.058060
-0.113342
-0.132436
-0.145067
-0.181125
-0.202292
-0.200318
-0.172579
-0.136426
-0.103732
-0.056003
-0.006360
0.083129
0.100872
0.124829
0.081016
0.051249
0.054169
0.062099
0.023326
-0.033998
-0.078689
-0.124116
-0.154974
-0.189007
-0.184405
-0.167158
-0.156141
-0.137036
-0.124437
-0.050389
0.011577
0.058358
0.085126
0.095445
0.086005
0.091895
0.060467
0.041235
-0.003164
-0.019427
-0.069024
-0.116881
-0.172398
-0.217629
-0.213780
-0.199921
-0.169728
-0.141383
-0.117702
-0.081743
-0.062130
-0.003843
0.047316
0.074611
0.081207
0.088391
0.077491
0.044261
-0.006025
-0.071634
-0.094514
-0.133235
-0.177664
-0.211582
-0.197834
-0.172339
-0.142150
-0.121756
-0.099592
-0.069056
-0.019059
0.014418
0.017467
0.062516
0.065541
0.050472
0.068918
0.074718
0.031015
-0.051261
-0.112480
-0.123629
-0.135505
-0.167721
-0.167629
-0.181727
-0.189965
-0.151792
-0.097604
-0.050678
-0.026121
0.001955
0.043157
0.097032
0.086322
0.053118
0.050525
0.029449
-0.015812
-0.069123
-0.107337
-0.153845
-0.178934
-0.178580
-0.182878
-0.189959
-0.178396
-0.136512
-0.091545
-0.090790
-0.059396
0.021560
0.064345
0.089227
0.099110
0.076926
0.043383
0.022676
-0.004986
-0.061919
-0.136227
-0.136673
-0.150155
-0.187796
-0.207666
-0.203712
-0.199181
-0.185156
-0.138064
-0.030201
0.033917
0.054903
0.072231
0.078866
0.074576
0.109030
0.112856
0.062873
-0.021822
-0.087825
-0.093221
-0.130738
-0.172196
-0.188439
-0.180839
-0.167742
-0.153015
-0.109771
-0.070087
-0.001330
0.050877
0.091559
0.084291
0.065268
0.119878
0.116880
0.103104
0.066899
0.008601
-0.021807
-0.058889
-0.112611
-0.130190
-0.149709
-0.156021
-0.154518
-0.151164
-0.115083
-0.064336
-0.036031
-0.011621
0.015453
0.079647
0.166668
0.196884
0.146931
0.086151
0.057415
0.022731
-0.022286
-0.045853
-0.068912
-0.099101
-0.123559
-0.166462
-0.165809
-0.120730
-0.103636
-0.049669
-0.012315
0.025719
0.067172
0.096888
0.122281
0.126223
0.118788
0.106557
0.065648
0.026567
-0.008464
-0.062868
-0.086594
-0.120387
-0.159319
-0.172467
-0.165392
-0.175454
-0.153051
-0.113742
-0.045704
-0.014804
0.015753
0.065471
0.075378
0.056079
0.058576
0.038244
0.024413
-0.012522
-0.086694
-0.132950
-0.148385
-0.181358
-0.218297
-0.217553
-0.196612
-0.184820
-0.166596
-0.135454
-0.063099
-0.014741
-0.001617
0.026070
0.060159
0.069930
0.062306
0.039089
0.013196
-0.036409
-0.088853
-0.135843
-0.174447
-0.199512
-0.218408
-0.226793
-0.225516
-0.206296
-0.172857
-0.134548
-0.071331
-0.024861
0.007990
0.033865
0.047386
0.039610
0.054137
0.029948
-0.002916
-0.062298
-0.117132
-0.139114
-0.170726
-0.201798
-0.217807
-0.248120
-0.219956
-0.191887
-0.148031
-0.095710
-0.053494
-0.013918
0.019979
0.053701
0.081799
0.087187
0.041486
-0.035447
-0.028446
-0.044459
-0.091753
-0.117372
-0.171922
-0.206001
-0.243586
-0.226959
-0.224361
-0.198185
-0.171908
-0.129431
-0.099451
-0.065446
-0.017668
0.020844
0.050208
0.087114
0.052306
0.050849
0.022303
-0.019177
-0.059598
-0.087222
-0.106467
-0.126887
-0.163988
-0.151738
-0.110766
-0.062653
-0.033854
-0.011308
0.070723
0.144538
0.223246
0.273620
0.331342
0.359966
0.384766
0.385819
0.370559
0.365251
0.350533
0.334459
0.319289
0.320560
0.361083
0.375968
0.404224
0.407080
0.518978
0.599158
0.657112
0.716400
0.755055
0.786160
0.850179
0.855311
0.783180
0.755083
0.706369
0.609538
0.481425
0.397984
0.306221
0.218044
0.146163
0.061589
0.037871
0.012278
0.006792
0.019956
0.041654
0.065389
0.114130
0.141502
0.154607
0.163477
0.161113
0.132555
0.077470
0.045364
0.014936
-0.029412
-0.090044
-0.116710
-0.147234
-0.171942
-0.174023
-0.163241
-0.125272
-0.093492
-0.040640
0.005081
0.049907
0.072640
0.097060
0.111205
0.098493
0.088282
0.054556
0.023120
-0.041382
-0.095668
-0.083760
-0.138128
-0.199361
-0.191907
-0.186183
-0.141735
-0.119807
-0.079046
-0.043453
-0.021014
0.036615
0.074787
0.098245
0.114463
0.086383
0.044851
0.004188
-0.045777
-0.067489
-0.096600
-0.134550
-0.135203
-0.147030
-0.148361
-0.143534
-0.159408
-0.141238
-0.102870
-0.050664
0.007384
0.050344
0.080231
0.117231
0.089782
0.070885
0.081788
0.052942
0.004144
-0.039418
-0.078037
-0.131353
-0.140355
-0.161290
-0.169931
-0.161546
-0.134758
-0.101584
-0.059629
0.002276
0.052009
0.089040
0.132829
0.152112
0.150619
0.103498
0.070306
0.038357
0.018120
-0.014745
-0.039846
-0.088328
-0.112643
-0.148046
-0.181750
-0.148632
-0.103764
-0.064897
-0.012301
0.013346
0.062923
0.123482
0.143008
0.165596
0.176119
0.159975
0.118383
0.078595
0.068012
0.019144
-0.032562
-0.047424
-0.103066
-0.120467
-0.105236
-0.062102
-0.055406
-0.053387
-0.020466
0.025431
0.079316
0.125340
0.165486
0.194788
0.201656
0.200710
0.184431
0.143653
0.114922
0.090100
0.049165
-0.026439
-0.050724
-0.006975
-0.016594
-0.039883
-0.040010
-0.028350
0.027665
0.085070
0.124688
0.150637
0.173735
0.190571
0.232140
0.229675
0.173774
0.165865
0.177150
0.124013
0.037626
0.020789
0.009023
-0.005318
-0.013331
-0.008890
-0.019037
0.000018
0.049774
0.091219
0.132541
0.184534
0.232055
0.275429
0.301827
0.281022
0.234113
0.188047
0.148260
0.113243
0.040513
-0.014497
-0.038386
-0.055730
-0.076192
-0.049226
-0.003351
0.019319
0.039391
0.072232
0.124220
0.163711
0.178623
0.206954
0.233720
0.223650
0.168153
0.147091
0.112322
0.071614
0.033580
-0.021979
-0.070159
-0.086123
-0.116444
-0.094509
-0.054507
-0.017049
0.029905
0.060066
0.089318
0.125048
0.161414
0.169604
0.153042
0.145957
0.126097
0.079761
0.020613
0.013283
0.001050
-0.059712
-0.120154
-0.103911
-0.085326
-0.110413
-0.129215
-0.088389
-0.037183
0.001858
0.060299
0.094295
0.113787
0.158670
0.152764
0.125022
0.086051
0.057072
0.031041
-0.035496
-0.082600
-0.117638
-0.171148
-0.183635
-0.177474
-0.159716
-0.150179
-0.113793
-0.075196
-0.031438
0.004692
0.033148
0.056317
0.074597
0.081478
0.097609
0.076098
0.040756
-0.003021
-0.049584
-0.091655
-0.128768
-0.185636
-0.205698
-0.193538
-0.183281
-0.158033
-0.123652
-0.084188
-0.042186
0.007869
0.052746
0.082981
0.062953
0.078314
0.095906
0.071190
0.019741
-0.051706
-0.051240
-0.057700
-0.089156
-0.162833
-0.174589
-0.175466
-0.203256
-0.160473
-0.115175
-0.103065
-0.074599
-0.011448
0.039765
0.056727
0.060017
0.096708
0.116732
0.088877
0.036401
-0.008086
-0.059759
-0.103083
-0.122000
-0.157539
-0.193241
-0.201194
-0.182231
-0.156505
-0.118710
-0.084912
-0.033850
-0.003593
0.032257
0.077060
0.082868
0.103622
0.112259
0.076215
0.043087
-0.003028
-0.024885
-0.065769
-0.108001
-0.155498
-0.156340
-0.174737
-0.190533
-0.160349
-0.110182
-0.088875
-0.042081
0.010510
0.077534
0.109776
0.103530
0.087282
0.086847
0.069519
0.026395
-0.007155
-0.079280
-0.116716
-0.116626
-0.123129
-0.160008
-0.174099
-0.163859
-0.170881
-0.159868
-0.104940
-0.025987
0.029058
0.070939
0.097620
0.101543
0.120625
0.110439
0.079237
0.042712
0.020015
-0.031248
-0.075007
-0.129834
-0.163864
-0.150573
-0.145351
-0.161040
-0.144791
-0.115567
-0.080625
-0.030521
0.025078
0.060356
0.073056
0.092529
0.110105
0.083179
0.074219
0.056302
-0.000555
-0.060730
-0.099923
-0.131084
-0.162215
-0.179985
-0.183229
-0.196185
-0.176343
-0.136266
-0.120208
-0.068434
0.004559
0.076393
0.083860
0.068584
0.112805
0.110631
0.073777
0.015832
-0.016706
-0.048523
-0.067095
-0.109673
-0.167861
-0.176893
-0.213337
-0.174046
-0.110289
-0.088902
-0.069115
-0.023762
-0.006175
0.039589
0.033380
0.056706
0.100272
0.122697
0.081788
0.016246
-0.008244
-0.050375
-0.090563
-0.157732
-0.180428
-0.150265
-0.148628
-0.163473
-0.148523
-0.129645
-0.104635
-0.064795
0.000512
0.061264
0.070689
0.082319
0.102047
0.080452
0.045947
-0.016483
-0.019899
-0.048971
-0.065952
-0.095236
-0.148175
-0.176167
-0.193296
-0.227592
-0.190121
-0.152299
-0.090975
-0.048130
-0.017898
0.026069
0.070669
0.083060
0.088545
0.093836
0.078479
0.027662
-0.018515
-0.045796
-0.111101
-0.148927
-0.174899
-0.162348
-0.180575
-0.191699
-0.180483
-0.128955
-0.087279
-0.035326
0.067446
0.089246
0.063696
0.086113
0.107243
0.054184
0.051548
0.038433
0.019272
-0.020008
-0.052453
-0.102139
-0.148412
-0.165732
-0.185223
-0.179983
-0.149674
-0.091014
-0.060084
-0.022363
0.010963
0.060578
0.093847
0.098488
0.144388
0.144465
0.119656
0.062607
0.013199
-0.006969
-0.048040
-0.101345
-0.140473
-0.154833
-0.168065
-0.152817
-0.150824
-0.117426
-0.057619
-0.010425
0.007973
0.046754
0.109891
0.158018
0.155379
0.143293
0.094062
0.063971
0.045179
0.012195
-0.044454
-0.083085
-0.077678
-0.071127
-0.076616
-0.080474
-0.119056
-0.150552
-0.089638
-0.014993
0.048758
0.098575
0.127020
0.113515
0.102548
0.127063
0.126823
0.092645
0.033800
-0.028902
-0.067220
-0.132636
-0.114392
-0.104144
-0.149075
-0.179657
-0.144215
-0.092461
-0.060886
-0.039071
0.007619
0.072671
0.123977
0.136884
0.128089
0.090077
0.067509
0.033912
-0.024923
-0.081266
-0.116021
-0.146809
-0.193763
-0.205127
-0.211620
-0.196543
-0.172442
-0.147358
-0.098856
-0.075105
-0.018976
0.020752
0.057301
0.076872
0.069538
0.077264
0.064268
0.044967
-0.005836
-0.051378
-0.132411
-0.179615
-0.207019
-0.211578
-0.195953
-0.195973
-0.183102
-0.169814
-0.131836
-0.098872
-0.042353
0.008583
0.029993
0.049113
0.056842
0.058570
0.050518
0.017603
-0.028816
-0.085901
-0.125720
-0.133886
-0.169587
-0.199703
-0.229897
-0.221365
-0.208794
-0.183608
-0.101565
-0.053091
-0.029260
-0.008222
0.032878
0.079025
0.097792
0.072523
0.063519
0.014743
-0.061892
-0.103294
-0.132565
-0.181542
-0.183702
-0.180015
-0.163956
-0.175678
-0.160815
-0.145756
-0.106141
-0.056082
-0.019953
0.008344
0.047061
0.055942
0.030241
0.016849
0.012606
0.012046
-0.009742
-0.045040
-0.079718
-0.127141
-0.151334
-0.134219
-0.123190
-0.090690
-0.044075
0.007495
0.009615
0.045016
0.114914
0.180339
0.243361
0.296113
0.348534
0.368668
0.375682
0.362112
0.346682
0.353363
0.341669
0.333855
0.330108
0.344042
0.358714
0.397011
0.477677
0.530537
0.609700
0.692209
0.740164
0.783751
0.840299
0.848516
0.859083
0.843337
0.801324
0.727607
0.664141
0.585379
0.480404
0.380240
0.289557
0.213329
0.174194
0.114383
0.065690
0.048689
0.068028
0.094515
0.135376
0.144619
0.136046
0.172266
0.193462
0.190760
0.185128
0.150915
0.101484
0.056754
0.007010
-0.047681
-0.098650
-0.129265
-0.142094
-0.153511
-0.110324
-0.072435
-0.033704
0.010570
0.051740
0.074750
0.106068
0.127543
0.143882
0.141387
0.098284
0.090564
0.055657
-0.024725
-0.084680
-0.129083
-0.137142
-0.155879
-0.176651
-0.172989
-0.139137
-0.124910
-0.072102
-0.031315
0.006337
0.061036
0.107890
0.132182
0.128070
0.115275
0.105926
0.078162
0.028566
-0.006931
-0.071891
-0.113569
-0.153759
-0.170633
-0.179634
-0.198740
-0.150568
-0.110093
-0.059416
-0.016312
0.025449
0.058256
0.098991
0.130528
0.133078
0.109563
0.079551
0.044569
0.010381
-0.027996
-0.021290
-0.061336
-0.107321
-0.177901
-0.175837
-0.162560
-0.140405
-0.100044
-0.065829
-0.036268
0.045409
0.086216
0.116525
0.152854
0.153549
0.136584
0.106152
0.092953
0.061552
0.051872
0.013319
-0.058922
-0.093282
-0.117882
-0.113377
-0.096077
-0.087737
-0.069166
-0.013304
0.035408
0.077612
0.117194
0.141894
0.157629
0.168526
0.169220
0.148379
0.125888
0.072002
0.017328
-0.033067
-0.006801
-0.036313
-0.065859
-0.068588
-0.071591
-0.039989
-0.004430
0.000982
0.039729
0.111415
0.139436
0.182654
0.213705
0.226849
0.207562
0.180005
0.150549
0.100722
0.066204
0.042225
-0.003153
-0.027212
-0.040260
-0.035764
-0.027918
0.003027
0.029326
0.057664
0.088318
0.164980
0.200073
0.234000
0.232284
0.232917
0.245222
0.234552
0.227876
0.170057
0.094806
0.063391
0.024780
-0.033721
-0.049626
-0.066418
-0.030280
0.021534
0.051259
0.059575
0.119030
0.204296
0.243668
0.236293
0.249475
0.243696
0.225853
0.228252
0.188997
0.140638
0.137108
0.103433
0.032913
-0.025106
-0.038080
-0.026006
0.004510
0.005032
0.017697
0.050787
0.073309
0.160460
0.208057
0.229239
0.255912
0.266079
0.246629
0.219075
0.188625
0.120752
0.073925
0.055894
0.017742
-0.013897
-0.046751
-0.085672
-0.068767
-0.055321
-0.019363
0.017243
0.056854
0.083775
0.135010
0.191634
0.193356
0.121820
0.153491
0.179170
0.155929
0.102995
0.034154
-0.004556
-0.071880
-0.101969
-0.135039
-0.136662
-0.136626
-0.085300
-0.009469
0.010890
-0.029019
0.009811
0.076010
0.126866
0.150675
0.150987
0.156072
0.143729
0.101482
0.054174
-0.012044
-0.071871
-0.106831
-0.121287
-0.130780
-0.141960
-0.143447
-0.111186
-0.091766
-0.079553
-0.018819
0.008369
0.073043
0.105919
0.080543
0.114697
0.129734
0.073842
0.042286
0.021117
-0.039654
-0.047755
-0.088880
-0.134602
-0.162307
-0.163804
-0.154796
-0.130557
-0.133922
-0.090535
-0.044885
0.016862
0.069006
0.093490
0.130134
0.121759
0.118499
0.092874
0.040740
0.002672
-0.017144
-0.060164
-0.135614
-0.154660
-0.165482
-0.163634
-0.167003
-0.142382
-0.104127
-0.070221
-0.056333
-0.005380
0.046921
0.112734
0.118878
0.134963
0.120367
0.098392
0.080604
0.026280
-0.037623
-0.073989
-0.113033
-0.139342
-0.149904
-0.172862
-0.154248
-0.154904
-0.128821
-0.057692
-0.023445
-0.016120
0.050886
0.116241
0.105995
0.122636
0.143695
0.125770
0.049156
-0.005678
-0.021577
-0.043160
-0.107338
-0.130142
-0.159371
-0.177102
-0.172063
-0.115669
-0.082927
-0.071295
-0.004099
0.041587
0.084065
0.074452
0.099986
0.118573
0.101840
0.101988
0.086210
0.037362
-0.014621
-0.049875
-0.106489
-0.167495
-0.158686
-0.164484
-0.207472
-0.081345
-0.056180
-0.075045
-0.040211
0.026334
0.071861
0.106465
0.110481
0.105469
0.104588
0.102954
0.088388
0.059780
-0.013438
-0.066872
-0.094632
-0.134284
-0.168731
-0.158819
-0.163355
-0.151327
-0.112429
-0.056329
-0.011422
0.028293
0.061317
0.095896
0.120895
0.132419
0.133121
0.097013
0.060021
0.033534
-0.000842
-0.052308
-0.104474
-0.133912
-0.147916
-0.149854
-0.159686
-0.101975
-0.082405
-0.108030
-0.061499
0.013233
0.060100
0.105117
0.142741
0.122680
0.061748
0.046392
0.064502
0.020588
-0.020619
-0.071521
-0.093713
-0.095964
-0.126003
-0.175035
-0.153558
-0.125125
-0.102813
-0.063291
-0.037715
0.007912
0.058855
0.097808
0.115437
0.102175
0.101848
0.075450
0.047109
0.008147
-0.056239
-0.071195
-0.097662
-0.138773
-0.170805
-0.178393
-0.173573
-0.158642
-0.117471
-0.062479
-0.053001
-0.009513
0.040020
0.096535
0.106667
0.098974
0.109791
0.075877
0.012600
0.026275
0.022028
-0.063035
-0.144210
-0.167217
-0.172940
-0.180677
-0.166076
-0.148760
-0.123881
-0.088184
-0.026430
0.018026
0.060417
0.079786
0.081453
0.113365
0.112312
0.093756
0.064036
0.000062
-0.072392
-0.101803
-0.146864
-0.186462
-0.180735
-0.182387
-0.156657
-0.156732
-0.134236
-0.083677
-0.018145
0.026090
0.066086
0.097512
0.110823
0.104184
0.087993
0.086465
0.050941
-0.000815
-0.017953
-0.072672
-0.127771
-0.180810
-0.199206
-0.178353
-0.170842
-0.148832
-0.119464
-0.119950
-0.080644
-0.018152
0.035683
0.076877
0.108770
0.118110
0.109171
0.085096
0.029070
-0.026356
-0.092937
-0.122373
-0.106565
-0.131624
-0.167128
-0.179307
-0.171792
-0.170511
-0.136733
-0.081974
-0.033296
0.008725
0.052018
0.072144
0.092567
0.085510
0.080689
0.062864
0.039972
0.022836
-0.024218
-0.072445
-0.116385
-0.140260
-0.143158
-0.124392
-0.167505
-0.181702
-0.148117
-0.081398
-0.026294
0.005956
0.042258
0.100952
0.121953
0.128717
0.117860
0.135430
0.125380
0.090363
0.002380
-0.113601
-0.113854
-0.118936
-0.156923
-0.132053
-0.131368
-0.135590
-0.050264
-0.061950
-0.010557
0.034322
0.076965
0.129074
0.144093
0.129803
0.127233
0.118425
0.082838
0.036036
-0.009914
-0.040504
-0.087079
-0.131118
-0.119136
-0.109079
-0.117217
-0.109830
-0.066366
-0.018300
0.027322
0.067149
0.108701
0.137282
0.171227
0.162961
0.142104
0.131332
0.089776
0.040753
-0.035832
-0.123417
-0.117603
-0.111636
-0.152095
-0.175091
-0.153913
-0.140220
-0.113747
-0.068830
0.000800
0.036636
0.064297
0.069349
0.094744
0.146098
0.092345
0.053092
0.078019
0.025594
-0.049221
-0.101183
-0.140255
-0.184698
-0.206817
-0.200783
-0.193192
-0.166775
-0.124453
-0.093848
-0.043484
-0.016173
0.008279
0.050545
0.077939
0.048372
0.088450
0.085540
0.047426
-0.010826
-0.064020
-0.102116
-0.140620
-0.173816
-0.201642
-0.207960
-0.212650
-0.189554
-0.136268
-0.078722
-0.033231
-0.045027
0.025277
0.070489
0.091839
0.074438
0.064288
0.069850
0.026476
-0.050917
-0.065133
-0.122928
-0.175122
-0.199644
-0.212384
-0.240072
-0.192286
-0.148612
-0.121009
-0.120176
-0.044117
-0.034211
-0.001468
-0.013403
0.063066
0.083276
0.138292
0.086062
-0.015681
-0.051762
-0.082373
-0.098939
-0.117052
-0.148536
-0.176619
-0.201374
-0.211994
-0.191459
-0.144027
-0.072662
-0.030339
-0.050726
-0.016247
0.060259
0.088173
0.094148
0.072431
0.037827
0.009833
-0.023982
-0.063880
-0.089330
-0.111754
-0.190581
-0.221695
-0.227390
-0.161182
-0.107877
-0.079394
-0.083789
-0.016649
0.081792
0.118772
0.207501
0.202473
0.201252
0.260456
0.300678
0.275001
0.211219
0.193487
0.166369
0.186569
0.174259
0.168759
0.217856
0.256910
0.313801
0.394961
0.456791
0.516632
0.601864
0.696493
0.775753
0.835234
0.846510
0.862687
0.876868
0.882879
0.863336
0.777803
0.691262
0.640152
0.573330
0.530665
0.505255
0.446100
0.389626
0.347941
0.326750
0.355495
0.360477
0.342670
0.342889
0.329096
0.301684
0.278419
0.218660
0.165385
0.151430
0.102555
0.018194
-0.083624
-0.130730
-0.141957
-0.091965
-0.041559
0.005357
0.017160
0.013808
0.021014
0.038890
0.064629
0.131491
0.165033
0.170809
0.141150
0.129829
0.104006
0.106700
0.023534
-0.081228
-0.100002
-0.146861
-0.150828
-0.166180
-0.154881
-0.130674
-0.091304
-0.053148
-0.031905
0.015365
0.093244
0.110313
0.121889
0.133799
0.119179
0.083620
0.053375
0.032153
-0.015026
-0.050118
-0.064027
-0.113071
-0.133566
-0.138594
-0.128976
-0.142506
-0.174114
-0.153594
-0.034671
0.065272
0.107307
0.102542
0.093905
0.115808
0.121628
0.093706
0.060564
0.026976
-0.015837
-0.053255
-0.100954
-0.131045
-0.141465
-0.100630
-0.078528
-0.085447
-0.120889
-0.064063
-0.012936
0.043112
0.088397
0.118775
0.143420
0.136738
0.114504
0.085348
0.106681
0.053932
-0.012102
-0.041095
-0.109281
-0.120775
-0.131867
-0.144927
-0.129232
-0.096109
-0.055678
-0.011995
0.012981
0.110015
0.138155
0.172666
0.175153
0.199602
0.131056
0.105214
0.086207
0.088547
0.053941
0.028975
-0.070071
-0.127937
-0.120412
-0.096189
-0.057422
-0.064737
-0.055202
0.010623
0.081462
0.107156
0.157373
0.194767
0.220037
0.207117
0.184484
0.159226
0.125879
0.099422
0.105780
0.059142
-0.009828
-0.037292
-0.033570
-0.078296
-0.034881
0.006796
0.033968
0.045038
0.081022
0.139156
0.180616
0.221023
0.216462
0.202125
0.242702
0.262315
0.224118
0.148397
0.077846
0.071935
0.063160
-0.025819
-0.050926
-0.039083
-0.003823
-0.000953
-0.016790
0.050441
0.125632
0.153990
0.209820
0.202770
0.242639
0.319050
0.279931
0.231027
0.194259
0.148421
0.155083
0.098681
0.034674
-0.004713
-0.014592
-0.039229
-0.032406
0.017758
0.086996
0.070678
0.073680
0.114646
0.137113
0.220158
0.235033
0.265331
0.269979
0.218664
0.206017
0.163468
0.111317
0.077334
0.046406
-0.006513
-0.048855
-0.088850
-0.078990
-0.018566
0.031624
0.019914
0.060865
0.125865
0.167823
0.201674
0.205331
0.185044
0.205465
0.186668
0.149630
0.114636
0.062963
0.019104
-0.018943
-0.050622
-0.084359
-0.089895
-0.076172
-0.088380
-0.082104
-0.060115
0.015344
0.100704
0.122122
0.134566
0.111540
0.133426
0.141600
0.141137
0.105945
0.048422
0.005317
-0.054000
-0.111516
-0.143212
-0.149705
-0.164821
-0.166667
-0.147136
-0.091326
-0.045285
-0.008283
0.061579
0.120179
0.090428
0.094411
0.126168
0.118442
0.118994
0.095748
0.033231
-0.023471
-0.077796
-0.112638
-0.158720
-0.186073
-0.189011
-0.128195
-0.128611
-0.119938
-0.059896
-0.025713
0.001385
0.054643
0.098582
0.115266
0.124016
0.106048
0.088472
0.055760
-0.000027
-0.046368
-0.071740
-0.110310
-0.169123
-0.199951
-0.203868
-0.165020
-0.150831
-0.106306
-0.064276
-0.058166
-0.016585
0.039056
0.067070
0.071888
0.111683
0.123067
0.117567
0.073937
-0.012704
-0.064962
-0.075974
-0.126230
-0.187391
-0.190972
-0.170955
-0.140743
-0.122644
-0.078600
-0.037081
-0.024919
-0.005944
0.029777
0.085274
0.088895
0.123306
0.093764
0.082429
0.056494
0.008735
-0.019124
-0.075879
-0.105300
-0.127398
-0.144447
-0.181829
-0.175853
-0.117436
-0.088071
-0.069541
-0.045147
-0.001966
0.071197
0.128602
0.112620
0.128025
0.129877
0.102940
0.068446
0.014527
-0.021549
-0.084913
-0.116993
-0.142123
-0.168217
-0.163937
-0.141196
-0.135690
-0.115914
-0.081928
-0.031388
0.029342
0.095688
0.113623
0.125972
0.113669
0.095437
0.079586
0.039594
0.014701
0.002850
-0.039584
-0.080995
-0.128392
-0.163691
-0.184690
-0.190248
-0.155449
-0.117982
-0.086340
-0.055307
0.011377
0.071413
0.106696
0.135602
0.132269
0.118068
0.097278
0.050438
0.002076
-0.040974
-0.050766
-0.091599
-0.111193
-0.162622
-0.173256
-0.164540
-0.140012
-0.117208
-0.066662
-0.036812
0.014097
0.058869
0.081228
0.100058
0.131117
0.124308
0.098519
0.086289
0.017524
-0.054232
-0.044733
-0.068705
-0.155436
-0.184760
-0.203359
-0.181622
-0.147822
-0.091458
-0.052510
-0.035047
-0.007681
0.016860
0.065049
0.094047
0.094742
0.084203
0.095144
0.040329
0.004693
-0.015538
-0.100756
-0.173260
-0.164199
-0.148149
-0.169032
-0.177393
-0.148341
-0.128899
-0.098679
-0.037519
-0.005405
0.042884
0.079062
0.099408
0.112911
0.099619
0.069428
0.058854
0.020411
-0.039068
-0.086166
-0.133813
-0.173185
-0.189125
-0.182311
-0.161274
-0.132461
-0.108243
-0.061990
-0.036592
-0.005704
0.049664
0.081854
0.085689
0.103807
0.066884
0.005324
-0.009627
-0.001582
-0.014474
-0.111491
-0.150434
-0.158587
-0.134360
-0.164902
-0.170979
-0.159590
-0.139751
-0.124568
-0.049439
0.006824
0.054914
0.081599
0.099445
0.092732
0.080946
0.064758
0.032540
-0.006706
-0.071314
-0.111895
-0.147039
-0.173524
-0.196182
-0.194532
-0.180496
-0.149383
-0.130739
-0.086271
-0.044118
-0.006677
0.026836
0.052129
0.083194
0.081875
0.091093
0.062888
0.012087
-0.011126
-0.042424
-0.095927
-0.135226
-0.175764
-0.186762
-0.197106
-0.217540
-0.204164
-0.163535
-0.092639
-0.034657
0.021179
0.050919
0.079330
0.085173
0.112310
0.114226
0.079977
0.041425
-0.002297
-0.043229
-0.076252
-0.114452
-0.116497
-0.176283
-0.193238
-0.156442
-0.150908
-0.126168
-0.063854
-0.028556
0.022372
0.070707
0.084604
0.091081
0.118983
0.120018
0.099913
0.091522
0.055849
0.002369
-0.058751
-0.102383
-0.143801
-0.170772
-0.182236
-0.153997
-0.157219
-0.128701
-0.078393
-0.028983
0.035018
0.063575
0.082378
0.121463
0.136001
0.176198
0.137363
0.097943
0.062113
0.012908
-0.037878
-0.086332
-0.132665
-0.139110
-0.147996
-0.135156
-0.131732
-0.117024
-0.065266
-0.017852
0.030927
0.102110
0.122623
0.138461
0.155451
0.075969
0.028609
0.044174
0.009187
-0.038542
-0.083954
-0.130166
-0.157553
-0.177914
-0.177585
-0.165799
-0.160022
-0.124748
-0.071656
-0.044881
0.005482
0.037588
0.065851
0.070184
0.088121
0.091208
0.066815
0.013878
-0.019091
-0.077364
-0.124904
-0.143012
-0.197560
-0.224068
-0.221665
-0.187996
-0.196599
-0.176189
-0.148745
-0.097647
-0.037197
-0.001696
0.035586
0.078053
0.075898
0.071130
0.038288
0.001922
-0.017048
-0.060011
-0.121994
-0.162005
-0.166090
-0.198029
-0.211833
-0.195827
-0.172239
-0.177651
-0.157507
-0.115268
-0.059655
-0.014477
0.014500
0.038433
0.053368
0.024397
0.020380
-0.014922
-0.060039
-0.079712
-0.123206
-0.182185
-0.237904
-0.257435
-0.240984
-0.221940
-0.176291
-0.145427
-0.112193
-0.085418
-0.027534
0.001020
0.034378
0.082040
0.089610
0.066732
0.045470
0.001758
-0.051360
-0.090228
-0.136588
-0.186819
-0.232480
-0.249346
-0.253223
-0.247643
-0.231309
-0.186467
-0.131133
-0.114492
-0.065746
-0.004301
0.013469
0.011474
0.041598
0.065977
0.052876
0.038420
-0.002866
-0.047117
-0.075945
-0.107945
-0.103156
-0.108905
-0.126070
-0.095231
-0.055497
-0.015495
0.014785
0.057464
0.126071
0.200511
0.265523
0.326688
0.383548
0.407379
0.420482
0.397379
0.374976
0.360419
0.351746
0.323598
0.298765
0.333925
0.378467
0.418978
0.460518
0.522043
0.621909
0.710272
0.770492
0.812656
0.836686
0.842387
0.825472
0.794064
0.734290
0.695848
0.629296
0.541866
0.394628
0.282061
0.186046
0.130413
0.074692
0.044553
0.023323
0.004660
0.038665
0.029418
0.056889
0.125925
0.144037
0.163481
0.150976
0.123473
0.104109
0.085461
0.043189
-0.039051
-0.045821
-0.088000
-0.125938
-0.143432
-0.156459
-0.166295
-0.149928
-0.101882
-0.059195
-0.012329
0.031300
0.067681
0.069127
0.095317
0.109024
0.095282
0.073442
0.047094
-0.003483
-0.047009
-0.084833
-0.104345
-0.159840
-0.206418
-0.215023
-0.200411
-0.203819
-0.149777
-0.103391
-0.064453
0.005579
0.048517
0.069127
0.104981
0.118004
0.088265
0.036040
0.006291
-0.027228
-0.054521
-0.110887
-0.133526
-0.166124
-0.207928
-0.223228
-0.185506
-0.158850
-0.130553
-0.097254
-0.052970
-0.004936
0.026456
0.065697
0.097401
0.116622
0.100223
0.044500
0.036879
-0.003501
-0.062427
-0.111521
-0.125220
-0.127378
-0.201722
-0.242280
-0.216547
-0.161842
-0.108179
-0.083976
-0.055923
0.022577
0.054443
0.059035
0.070811
0.113940
0.143353
0.111357
0.069538
-0.001181
-0.053166
-0.062390
-0.063857
-0.087091
-0.133557
-0.172993
-0.168094
-0.145386
-0.092718
-0.055297
0.008431
0.063659
0.096961
0.140253
0.171070
0.160643
0.140506
0.113756
0.087067
0.056519
0.012439
-0.021112
-0.060453
-0.103241
-0.119282
-0.119791
-0.128619
-0.104372
-0.055657
-0.005772
0.049577
0.063185
0.101646
0.147690
0.170579
0.182355
0.185850
0.154039
0.111505
0.070428
0.023378
0.002868
-0.036303
-0.059260
-0.074295
-0.098416
-0.095480
-0.058583
-0.003481
0.030458
0.040936
0.088976
0.133778
0.175305
0.200683
0.200481
0.190588
0.163989
0.147430
0.101292
0.061090
0.027268
-0.015909
-0.070538
-0.084758
-0.090686
-0.083970
-0.052652
-0.010181
0.007550
0.073274
0.131821
0.186114
0.208257
0.226922
0.203981
0.176940
0.168935
0.129232
0.095475
0.044354
-0.018819
-0.039835
-0.065934
-0.079002
-0.085124
-0.073237
-0.059074
-0.038952
-0.002594
0.061915
0.107924
0.148455
0.178746
0.197512
0.202125
0.193814
0.156729
0.118692
0.084437
0.027889
-0.021868
-0.076953
-0.120605
-0.130671
-0.131242
-0.136471
-0.126378
-0.069498
-0.044682
0.003278
0.026460
0.068400
0.122519
0.144088
0.147759
0.157753
0.138371
0.066121
0.011593
-0.030699
-0.078779
-0.120621
-0.156168
-0.179177
-0.182255
-0.171107
-0.153465
-0.131800
-0.093751
-0.044219
-0.002120
0.039653
0.070774
0.082946
0.085829
0.085117
0.054543
0.019822
-0.024115
-0.060426
-0.124365
-0.161619
-0.194302
-0.215609
-0.227008
-0.210542
-0.188203
-0.163793
-0.125461
-0.081074
-0.036643
-0.002094
0.043675
0.072517
0.096055
0.063861
0.031487
-0.001808
-0.058324
-0.128004
-0.146215
-0.169123
-0.196330
-0.220684
-0.237618
-0.224181
-0.183943
-0.161850
-0.137094
-0.106400
-0.041140
0.022711
0.041586
0.057802
0.053135
0.021685
-0.006319
-0.040234
-0.070979
-0.093891
-0.131961
-0.171535
-0.206481
-0.229598
-0.239343
-0.235495
-0.218917
-0.184207
-0.166938
-0.097330
-0.038251
0.040509
0.060078
0.080817
0.073865
0.057117
0.023711
-0.006737
-0.015975
-0.070264
-0.149331
-0.195632
-0.222994
-0.230756
-0.233352
-0.232620
-0.204456
-0.167381
-0.127577
-0.095868
-0.036045
0.000968
0.017698
0.049435
0.062093
0.047452
0.022608
-0.018902
-0.061784
-0.110951
-0.153451
-0.155066
-0.193552
-0.209847
-0.233908
-0.227974
-0.216127
-0.164734
-0.120898
-0.081560
-0.034323
0.013959
0.039200
0.040274
0.045918
0.014532
-0.014626
0.002736
-0.008011
-0.053569
-0.100421
-0.150332
-0.164760
-0.189634
-0.229628
-0.281160
-0.241491
-0.171549
-0.094061
-0.060237
-0.055672
-0.018156
0.031552
0.054905
0.057476
0.061133
0.053094
0.008805
-0.037465
-0.093176
-0.157372
-0.192010
-0.225902
-0.234364
-0.244995
-0.235346
-0.208281
-0.154802
-0.109325
-0.073565
-0.055496
0.017872
0.025733
0.052050
0.062741
0.052505
0.018998
-0.008539
-0.059098
-0.113614
-0.148333
-0.170981
-0.204701
-0.233781
-0.249941
-0.235483
-0.224326
-0.161476
-0.103224
-0.075880
-0.061757
-0.025404
-0.004180
0.043802
0.050180
0.017421
-0.023576
-0.052303
-0.090787
-0.066681
-0.097204
-0.142531
-0.203827
-0.207682
-0.224272
-0.249165
-0.232910
-0.174719
-0.115755
-0.068876
-0.040350
-0.005282
0.014427
0.009378
0.045846
0.012725
0.024436
0.005036
-0.057740
-0.118272
-0.151428
-0.204808
-0.243433
-0.239413
-0.238367
-0.259788
-0.231218
-0.178798
-0.133379
-0.077512
-0.058201
-0.019467
0.016252
0.034023
0.031324
0.023509
0.004193
-0.021499
-0.074202
-0.121872
-0.156741
-0.204513
-0.235178
-0.246975
-0.253855
-0.259069
-0.243394
-0.181251
-0.138345
-0.095482
-0.053207
-0.031102
0.009191
0.046701
0.050487
0.042545
0.011351
-0.039339
-0.086703
-0.129527
-0.171105
-0.220555
-0.245032
-0.267035
-0.279936
-0.269328
-0.238149
-0.203680
-0.153293
-0.118157
-0.064673
-0.018724
0.014955
0.049541
0.025667
0.021259
0.005064
-0.021957
-0.069662
-0.120222
-0.151539
-0.193534
-0.223609
-0.237976
-0.258429
-0.256220
-0.231538
-0.201429
-0.160834
-0.108558
-0.042711
-0.016347
0.016188
0.061460
0.077047
0.064022
0.031678
0.012153
-0.013294
-0.076143
-0.112780
-0.153835
-0.197405
-0.276049
-0.251903
-0.222621
-0.200285
-0.197108
-0.169797
-0.101554
-0.045058
0.009877
0.066858
0.060768
0.066441
0.075194
0.055926
0.029634
-0.047093
-0.094564
-0.113192
-0.140181
-0.159023
-0.188692
-0.195023
-0.187003
-0.173041
-0.165425
-0.115941
-0.064699
-0.026760
0.022951
0.048196
0.070406
0.075412
0.052291
0.023946
-0.010143
-0.052940
-0.086072
-0.109322
-0.149196
-0.182599
-0.209648
-0.234745
-0.238712
-0.213992
-0.200968
-0.155476
-0.103972
-0.091215
-0.035112
0.024528
0.048243
0.044860
0.020340
-0.006008
-0.039121
-0.073853
-0.104165
-0.183203
-0.214432
-0.259951
-0.284372
-0.244946
-0.238836
-0.231338
-0.213395
-0.186334
-0.141412
-0.111499
-0.054151
-0.031246
0.021043
0.047812
0.020412
-0.028631
-0.049626
-0.099336
-0.153808
-0.202343
-0.235855
-0.269410
-0.275060
-0.291744
-0.274294
-0.269898
-0.222122
-0.181736
-0.136745
-0.093492
-0.046684
-0.016075
0.004149
0.019787
0.008254
-0.010300
-0.024886
-0.078558
-0.147569
-0.220221
-0.235948
-0.270332
-0.307349
-0.330721
-0.306692
-0.270016
-0.230843
-0.191736
-0.142923
-0.102361
-0.064357
-0.021773
-0.009010
-0.026508
-0.019874
-0.023189
-0.073173
-0.116216
-0.153969
-0.202741
-0.254617
-0.279533
-0.296439
-0.298658
-0.268499
-0.243601
-0.212822
-0.170057
-0.147412
-0.119768
-0.065623
-0.031311
-0.002734
-0.021027
-0.013699
-0.017036
-0.062899
-0.113863
-0.166478
-0.220945
-0.266714
-0.317499
-0.290950
-0.285910
-0.267975
-0.246786
-0.190055
-0.150057
-0.088015
-0.015213
0.025629
0.079095
0.103710
0.123421
0.121585
0.119873
0.095834
0.078411
0.071197
0.070615
0.075669
0.069232
0.056790
0.050379
0.106337
0.167036
0.205577
0.267184
0.333426
0.429305
0.566459
0.631498
0.652327
0.660155
0.673430
0.718953
0.739237
0.718357
0.670905
0.605332
0.580387
0.516879
0.480805
0.459989
0.436290
0.396703
0.343184
0.302385
0.292932
0.296530
0.296135
0.292015
0.263134
0.219191
0.183931
0.136309
0.103714
0.050464
-0.016968
-0.073088
-0.138943
-0.189399
-0.204247
-0.196210
-0.185622
-0.165857
-0.141319
-0.097502
-0.051071
-0.012111
0.013603
0.039242
0.061380
0.069057
0.050221
0.022721
-0.014240
-0.074670
-0.096504
-0.136071
-0.195112
-0.208068
-0.181414
-0.229881
-0.254124
-0.233639
-0.206143
-0.148505
-0.099412
-0.052035
-0.016816
0.021344
0.020746
0.041739
0.036109
0.034418
-0.016608
-0.056184
-0.108491
-0.166838
-0.198736
-0.242297
-0.278419
-0.274306
-0.244076
-0.217225
-0.165665
-0.129893
-0.105550
-0.052992
-0.022950
0.004911
0.053472
0.072836
0.057234
0.015358
-0.032925
-0.063334
-0.115549
-0.176265
-0.212231
-0.229884
-0.242509
-0.228316
-0.219219
-0.193455
-0.192667
-0.151181
-0.085080
-0.030132
-0.009750
-0.012512
0.029382
0.044151
0.026514
0.071115
0.062428
0.011729
-0.084916
-0.145752
-0.165957
-0.196216
-0.197470
-0.220021
-0.219091
-0.217238
-0.163894
-0.126597
-0.067171
-0.019589
0.031613
0.081189
0.085368
0.088784
0.071024
0.057913
0.014094
-0.036820
-0.079034
-0.113039
-0.184114
-0.176915
-0.170238
-0.178955
-0.191597
-0.168439
-0.128103
-0.081310
-0.032036
0.027057
0.070135
0.092673
0.110883
0.105760
0.109249
0.073669
0.053031
0.015862
-0.023303
-0.061217
-0.116965
-0.151113
-0.161612
-0.160108
-0.139007
-0.105024
-0.062639
-0.033086
-0.001277
0.047706
0.085186
0.132399
0.167027
0.149473
0.128171
0.144423
0.116406
0.062536
-0.014215
-0.065901
-0.086586
-0.102189
-0.116712
-0.129523
-0.133408
-0.117634
-0.038516
-0.014964
0.038607
0.088758
0.137306
0.142793
0.135188
0.177008
0.179766
0.119530
0.111916
0.071459
0.003454
-0.077932
-0.092530
-0.121475
-0.130487
-0.127007
-0.114585
-0.085483
-0.049537
-0.007004
0.030325
0.045066
0.094058
0.118866
0.144277
0.155470
0.144089
0.126777
0.081136
0.041157
-0.014529
-0.051069
-0.091375
-0.127421
-0.148615
-0.159386
-0.150975
-0.125895
-0.094877
-0.071984
-0.035077
0.004481
0.028271
0.059463
0.087284
0.109791
0.121875
0.105502
0.063124
0.005511
-0.018523
-0.061685
-0.117231
-0.139087
-0.194088
-0.179413
-0.198103
-0.197463
-0.158824
-0.116903
-0.076037
-0.048721
-0.008908
0.058764
0.075835
0.073640
0.060828
0.058251
0.015528
-0.033348
-0.083174
-0.133352
-0.176638
-0.197514
-0.226359
-0.239363
-0.230627
-0.213147
-0.161922
-0.125474
-0.081896
-0.063664
-0.033208
0.012688
0.030507
0.018937
0.026680
0.008563
-0.020618
-0.039921
-0.082351
-0.140756
-0.225987
-0.228896
-0.246985
-0.250668
-0.237830
-0.248592
-0.211733
-0.173111
-0.119548
-0.066500
-0.048066
-0.018634
0.038041
0.067697
0.035601
-0.008696
-0.035698
-0.045045
-0.102173
-0.185695
-0.239555
-0.241624
-0.224621
-0.227768
-0.225818
-0.233271
-0.194720
-0.159169
-0.095709
-0.050376
-0.028780
-0.021846
0.005563
0.023156
0.000022
-0.022694
-0.039734
-0.068045
-0.119930
-0.149801
-0.180088
-0.208112
-0.231482
-0.245334
-0.233186
-0.198765
-0.173072
-0.165219
-0.114287
-0.043552
-0.020122
0.009122
0.049380
0.059673
0.037295
0.027400
0.000384
-0.062690
-0.128074
-0.189313
-0.209929
-0.226403
-0.258084
-0.253484
-0.228862
-0.241132
-0.201052
-0.133841
-0.073090
-0.045854
-0.027471
0.032655
0.094724
0.081931
0.029729
0.051525
0.007887
-0.026404
-0.078200
-0.131916
-0.183945
-0.210163
-0.241418
-0.244715
-0.243528
-0.219287
-0.172737
-0.116212
-0.063739
-0.034406
0.020385
0.037025
0.049100
0.048333
0.035964
0.032984
-0.007564
-0.047709
-0.076935
-0.129997
-0.172493
-0.220463
-0.248524
-0.251766
-0.227866
-0.229166
-0.174342
-0.124220
-0.097639
-0.043924
-0.023864
0.012236
0.049141
0.047321
0.036302
0.035767
-0.024431
-0.074884
-0.093554
-0.144996
-0.161401
-0.201528
-0.223049
-0.251478
-0.244469
-0.228520
-0.170470
-0.146601
-0.106573
-0.070891
-0.026052
0.042434
0.063412
0.051910
0.042271
0.034204
0.010142
-0.038874
-0.087955
-0.145636
-0.185016
-0.211229
-0.217171
-0.232217
-0.213112
-0.202691
-0.186354
-0.131858
-0.119908
-0.081682
-0.026608
0.034270
0.047091
0.029870
0.029069
0.015713
-0.009212
-0.077806
-0.140305
-0.187494
-0.201620
-0.214665
-0.217312
-0.220370
-0.252995
-0.196362
-0.170316
-0.112577
-0.089513
-0.039497
-0.000453
0.027193
0.037316
0.045871
0.043115
0.013209
-0.023036
-0.058381
-0.104738
-0.159877
-0.196652
-0.220706
-0.246114
-0.249620
-0.238509
-0.201901
-0.150084
-0.107205
-0.074783
-0.031094
-0.007688
0.005536
0.029747
0.068848
0.076997
0.027810
-0.008791
-0.018869
-0.090739
-0.153105
-0.195324
-0.213729
-0.209287
-0.197870
-0.176001
-0.184485
-0.122320
-0.060476
-0.042056
-0.016176
0.053137
0.064433
0.084774
0.092359
0.085564
0.055765
0.021407
-0.024768
-0.072634
-0.123667
-0.152075
-0.174936
-0.200270
-0.204104
-0.169340
-0.145377
-0.126325
-0.105398
-0.068439
-0.005090
0.052415
0.098154
0.097521
0.098889
0.082684
0.062215
0.016757
0.006668
-0.030578
-0.075699
-0.138411
-0.183268
-0.236862
-0.234756
-0.231108
-0.181372
-0.145456
-0.109319
-0.067412
-0.025654
0.007738
0.051775
0.055754
0.057546
0.039694
0.014075
-0.014073
-0.032015
-0.102781
-0.164546
-0.197761
-0.222863
-0.253553
-0.267594
-0.256889
-0.246966
-0.222729
-0.170371
-0.076927
-0.021192
-0.008711
0.005266
0.072759
0.089756
0.044755
0.028775
-0.019067
-0.075439
-0.110683
-0.166665
-0.219427
-0.263583
-0.271189
-0.267202
-0.261519
-0.225912
-0.200186
-0.139437
-0.104761
-0.071264
-0.039082
0.001245
0.022977
0.030648
-0.001024
-0.014728
-0.048752
-0.114926
-0.164735
-0.189891
-0.216075
-0.244732
-0.290060
-0.301314
-0.272455
-0.251332
-0.215027
-0.176966
-0.152692
-0.092179
-0.042203
0.001066
0.017781
0.015895
-0.015986
-0.021375
-0.050039
-0.086603
-0.143245
-0.164860
-0.202333
-0.248829
-0.295664
-0.303054
-0.288320
-0.248849
-0.206191
-0.174525
-0.132026
-0.086519
-0.039656
0.018451
0.065087
0.077476
0.039817
-0.008385
-0.100638
-0.111552
-0.145057
-0.208002
-0.254190
-0.278179
-0.318682
-0.314149
-0.274942
-0.244918
-0.239071
-0.191856
-0.136278
-0.085691
-0.032970
0.009445
0.044628
0.060402
0.090456
0.072895
0.057488
0.039488
-0.007980
-0.017319
-0.053920
-0.068163
-0.050097
-0.035970
-0.009860
0.040826
0.083318
0.147642
0.245009
0.344546
0.411643
0.440434
0.472189
0.504093
0.546278
0.524267
0.533697
0.559919
0.572111
0.613171
0.605749
0.600797
0.604350
0.539124
0.504584
0.516437
0.560843
0.602094
0.624617
0.635830
0.632536
0.613730
0.573925
0.509415
0.464768
0.393529
0.306786
0.215069
0.112597
0.020345
-0.061768
-0.110821
-0.145422
-0.147010
-0.155540
-0.141891
-0.119543
-0.086152
-0.037125
0.020494
0.062634
0.086124
0.110582
0.101412
0.085485
0.080448
0.047793
0.016337
-0.061191
-0.115445
-0.147330
-0.185655
-0.213597
-0.218614
-0.217580
-0.204047
-0.163754
-0.115289
-0.071583
-0.056902
-0.015568
0.025582
0.047188
0.059280
0.051242
0.007275
-0.030427
-0.078645
-0.123517
-0.131145
-0.153523
-0.177641
-0.178561
-0.222623
-0.239661
-0.212151
-0.185417
-0.136961
-0.062784
-0.031805
-0.007746
0.044075
0.057009
0.092343
0.063739
0.069406
0.034056
-0.064053
-0.152163
-0.184971
-0.194898
-0.213356
-0.217569
-0.234106
-0.225709
-0.202699
-0.181780
-0.148332
-0.076451
-0.037220
0.000637
0.054944
0.074967
0.074388
0.081769
0.048726
0.013519
-0.024157
-0.077647
-0.112854
-0.173484
-0.201792
-0.224023
-0.236549
-0.229734
-0.209546
-0.160454
-0.113054
-0.052418
-0.028757
0.001880
0.089909
0.122685
0.112626
0.080751
0.050018
0.014290
-0.008433
-0.022431
-0.035883
-0.112242
-0.179151
-0.200518
-0.217782
-0.210351
-0.169740
-0.130373
-0.076994
-0.042270
0.002037
0.047710
0.084324
0.103492
0.122523
0.115528
0.100964
0.065051
-0.015513
-0.071767
-0.073248
-0.110614
-0.148815
-0.161632
-0.159970
-0.133872
-0.106773
-0.073574
-0.040694
0.020362
0.045469
0.082056
0.112515
0.130523
0.144226
0.139680
0.120406
0.091924
0.052245
0.013191
-0.020988
-0.086981
-0.124988
-0.165727
-0.156273
-0.113364
-0.102507
-0.070348
-0.032640
0.000922
0.077149
0.106510
0.100902
0.129066
0.144252
0.139386
0.124675
0.080189
0.037548
-0.005493
-0.034157
-0.074164
-0.104261
-0.126541
-0.134950
-0.140868
-0.123120
-0.077649
-0.034541
-0.010744
0.032282
0.079165
0.112658
0.139798
0.139429
0.127985
0.112265
0.068894
0.035113
0.015046
-0.068115
-0.038089
-0.095833
-0.183195
-0.182645
-0.139346
-0.137321
-0.096592
-0.049453
-0.005516
0.037274
0.089722
0.095898
0.109719
0.119383
0.113137
0.095365
0.057982
-0.003945
-0.071009
-0.124442
-0.140572
-0.169283
-0.203521
-0.191551
-0.175707
-0.143455
-0.121979
-0.083563
-0.064972
-0.035607
0.013324
0.045447
0.073388
0.091312
0.086354
0.085375
0.045732
-0.006518
-0.051966
-0.129091
-0.169732
-0.221197
-0.254357
-0.270836
-0.231304
-0.179930
-0.138814
-0.102204
-0.049202
-0.013887
0.029132
0.072357
0.079970
0.070714
0.060272
0.035258
0.017368
-0.025457
-0.082900
-0.142237
-0.204945
-0.220348
-0.255028
-0.272246
-0.224749
-0.223117
-0.200147
-0.109370
-0.059929
-0.034421
-0.018193
0.034940
0.052245
0.062713
0.055521
0.042251
-0.000747
-0.057436
-0.102184
-0.144702
-0.181351
-0.189780
-0.214503
-0.230081
-0.242745
-0.213178
-0.178007
-0.126231
-0.083708
-0.035376
-0.007750
0.007080
0.042888
0.064975
0.050121
0.018520
-0.020039
-0.047148
-0.094850
-0.150257
-0.170431
-0.185085
-0.216758
-0.225359
-0.211013
-0.201010
-0.169736
-0.123200
-0.069391
-0.034389
-0.007828
0.031084
0.034474
0.046424
0.057159
0.017854
0.006418
-0.039539
-0.095716
-0.111342
-0.156238
-0.173458
-0.173391
-0.202648
-0.208662
-0.202941
-0.174768
-0.120568
-0.074649
-0.035346
0.016751
0.043585
0.059536
0.060912
0.062255
0.042511
0.007314
-0.033729
-0.088993
-0.129278
-0.180332
-0.216010
-0.227471
-0.224567
-0.214618
-0.200497
-0.158367
-0.099768
-0.041215
-0.036606
0.034726
0.070035
0.084285
0.084789
0.066072
0.050039
0.013950
-0.042800
-0.101983
-0.152875
-0.188632
-0.205008
-0.228686
-0.219645
-0.233586
-0.191933
-0.143693
-0.097049
-0.044473
-0.016850
0.029390
0.062739
0.091044
0.067204
0.047842
0.052366
0.044334
0.009866
-0.056374
-0.133263
-0.164575
-0.198127
-0.216887
-0.230541
-0.234947
-0.224588
-0.186378
-0.139752
-0.049683
0.017755
0.065485
0.086517
0.097009
0.078472
0.085741
0.074168
0.029364
-0.024950
-0.072555
-0.118819
-0.173674
-0.193614
-0.216409
-0.208957
-0.214372
-0.196328
-0.157874
-0.111888
-0.067013
-0.032119
0.013533
0.034810
0.052599
0.044821
0.085290
0.067062
0.014557
-0.035995
-0.067555
-0.128722
-0.168733
-0.189960
-0.215892
-0.223046
-0.233133
-0.228423
-0.169872
-0.107583
-0.077232
-0.036848
0.015565
0.060869
0.081082
0.076434
0.068971
0.049580
0.015784
-0.021888
-0.058269
-0.113682
-0.155283
-0.169916
-0.206481
-0.207009
-0.207572
-0.180913
-0.131380
-0.084679
-0.038157
0.014347
0.020176
0.028502
0.053972
0.088476
0.081858
0.094936
0.050457
-0.034139
-0.067435
-0.093176
-0.133440
-0.176914
-0.195729
-0.194521
-0.190222
-0.154889
-0.118268
-0.081907
-0.037007
-0.020848
0.018165
0.060629
0.088738
0.131497
0.098109
0.076359
0.034233
-0.020583
-0.050338
-0.077177
-0.116299
-0.126495
-0.143581
-0.158185
-0.137436
-0.116129
-0.102517
-0.046179
0.005555
0.007420
0.067958
0.111049
0.140551
0.131628
0.104346
0.083363
0.072003
0.012231
-0.056519
-0.104023
-0.131538
-0.155802
-0.178833
-0.190264
-0.173493
-0.107452
-0.072397
-0.048392
-0.037686
-0.002761
0.040620
0.075885
0.090857
0.075097
0.073236
0.057327
0.003148
-0.040379
-0.079848
-0.126049
-0.171377
-0.193009
-0.185045
-0.204616
-0.223135
-0.230793
-0.182632
-0.135530
-0.079597
-0.037121
-0.000692
0.037720
0.056972
0.060276
0.039630
-0.003952
-0.036015
-0.064674
-0.112046
-0.151847
-0.201668
-0.249102
-0.266294
-0.247185
-0.229456
-0.208669
-0.183726
-0.170999
-0.113680
-0.062218
-0.022223
-0.008668
0.038781
0.062430
0.074055
0.058771
0.037108
-0.032278
-0.093601
-0.160670
-0.215245
-0.260484
-0.253548
-0.258448
-0.245755
-0.244444
-0.221549
-0.173629
-0.090202
-0.036129
-0.026557
-0.016168
0.055446
0.062371
0.070189
0.048134
-0.010598
-0.042757
-0.090234
-0.156995
-0.194693
-0.231472
-0.264240
-0.257947
-0.233919
-0.219077
-0.182500
-0.143118
-0.102537
-0.048043
-0.005785
0.004437
0.024292
0.028491
0.027968
-0.002347
-0.018834
-0.080841
-0.106477
-0.160066
-0.208441
-0.233728
-0.257840
-0.260177
-0.239045
-0.218660
-0.171787
-0.108165
-0.046145
-0.017656
0.046453
0.097091
0.133491
0.175555
0.184793
0.149521
0.086731
0.051406
0.057624
0.068932
0.049984
0.051722
0.025419
0.038420
0.059263
0.070400
0.185042
0.275670
0.335277
0.396088
0.455431
0.529425
0.588059
0.631505
0.681491
0.688459
0.676678
0.674751
0.661424
0.649637
0.629251
0.584086
0.565239
0.573200
0.560209
0.537192
0.540943
0.547876
0.568095
0.562718
0.520800
0.488451
0.435549
0.402492
0.340177
0.271366
0.217035
0.156625
0.095495
0.032440
-0.059872
-0.115220
-0.113724
-0.132493
-0.143112
-0.129646
-0.095105
-0.041988
0.008548
0.059162
0.095265
0.110500
0.104155
0.137221
0.126686
0.100513
0.065648
0.011764
-0.028402
-0.083884
-0.142725
-0.156487
-0.183947
-0.205677
-0.178100
-0.189601
-0.136611
-0.091089
-0.066480
-0.024628
0.018686
0.049857
0.085222
0.092677
0.080803
0.031317
-0.031434
-0.084049
-0.108720
-0.104224
-0.155741
-0.174041
-0.203333
-0.212531
-0.211710
-0.183186
-0.149790
-0.103531
-0.066875
-0.046280
0.011201
0.036115
0.064739
0.090461
0.104104
0.077574
0.027691
-0.030949
-0.067548
-0.121150
-0.150632
-0.184424
-0.206979
-0.227699
-0.216405
-0.193069
-0.163380
-0.113509
-0.078285
-0.022343
0.018403
0.051701
0.064802
0.047229
0.031805
0.043893
0.037765
0.003906
-0.043752
-0.090442
-0.151628
-0.198567
-0.190365
-0.204945
-0.205850
-0.179449
-0.145607
-0.105244
-0.068241
0.003303
0.050663
0.073982
0.102348
0.128088
0.109323
0.083507
0.067746
0.014775
-0.040656
-0.112698
-0.153694
-0.169078
-0.181955
-0.193328
-0.172303
-0.158325
-0.111928
-0.062772
0.000014
0.040468
0.048489
0.069763
0.118831
0.137440
0.154073
0.119471
0.072544
0.024890
-0.021161
-0.069039
-0.122599
-0.144894
-0.168163
-0.175587
-0.144271
-0.112095
-0.080028
-0.023463
0.024747
0.066857
0.077149
0.135532
0.139693
0.131781
0.131167
0.111487
0.075531
0.029629
-0.005341
-0.035172
-0.079539
-0.124155
-0.143306
-0.136134
-0.120187
-0.118359
-0.103361
-0.058039
0.025484
0.035935
0.078298
0.120250
0.147680
0.161675
0.149478
0.125951
0.054790
0.016427
-0.005409
-0.047888
-0.075711
-0.139444
-0.181091
-0.147292
-0.134153
-0.105080
-0.104156
-0.060923
-0.031417
0.037919
0.092393
0.110052
0.114795
0.125551
0.128797
0.121887
0.081864
0.032776
-0.019209
-0.088013
-0.116015
-0.147896
-0.188833
-0.203336
-0.173076
-0.150937
-0.119794
-0.082011
-0.020928
0.025955
0.066935
0.095412
0.117935
0.107950
0.103333
0.084927
0.048510
0.004826
-0.043422
-0.097556
-0.142876
-0.175937
-0.205933
-0.220608
-0.203791
-0.164862
-0.122575
-0.079467
-0.033358
-0.004603
0.032485
0.059184
0.102242
0.095057
0.074256
0.055307
0.030000
-0.022731
-0.077689
-0.131046
-0.169908
-0.210196
-0.211303
-0.223102
-0.213972
-0.183352
-0.140286
-0.100687
-0.048168
-0.019963
0.019503
0.033877
0.073686
0.063794
0.069663
0.062252
0.001720
-0.042459
-0.107632
-0.162335
-0.206395
-0.200280
-0.220199
-0.231435
-0.246462
-0.209314
-0.148111
-0.110649
-0.068428
-0.031661
0.004305
0.037494
0.069914
0.086235
0.079352
0.053668
0.008721
-0.028613
-0.081764
-0.116483
-0.158402
-0.214355
-0.221047
-0.229015
-0.237146
-0.207706
-0.144380
-0.112268
-0.066254
-0.027309
0.004620
0.017855
0.019480
0.064354
0.080865
0.055601
-0.017853
-0.071504
-0.104531
-0.137493
-0.171351
-0.201802
-0.224627
-0.216493
-0.200632
-0.192148
-0.132205
-0.101096
-0.058154
-0.056865
-0.007382
0.052572
0.051324
0.048384
0.069132
0.059680
0.043987
-0.014085
-0.068088
-0.133655
-0.172208
-0.195377
-0.231943
-0.230668
-0.215616
-0.211659
-0.159801
-0.094305
-0.040772
-0.012599
0.010681
0.056651
0.072070
0.089048
0.079132
0.049076
0.043139
-0.012824
-0.062557
-0.090344
-0.140439
-0.179692
-0.192942
-0.229806
-0.235829
-0.160172
-0.092055
-0.058297
-0.059959
-0.024051
0.018366
0.062974
0.075650
0.081635
0.101594
0.083319
0.039508
-0.012571
-0.062466
-0.109611
-0.161731
-0.193270
-0.201467
-0.234269
-0.233149
-0.170946
-0.130788
-0.097685
-0.062267
-0.030149
0.046867
0.067132
0.085623
0.114451
0.113473
0.075855
0.012880
-0.031975
-0.064771
-0.117523
-0.172164
-0.190668
-0.199942
-0.215137
-0.196449
-0.169724
-0.139526
-0.089508
-0.038521
-0.000693
0.021198
0.048665
0.079551
0.089232
0.087836
0.051819
0.004708
-0.043404
-0.072360
-0.123871
-0.161792
-0.204750
-0.209448
-0.223440
-0.231847
-0.181485
-0.136390
-0.106894
-0.052504
-0.012927
0.015340
0.049110
0.076420
0.089622
0.068003
0.046957
0.014922
-0.026135
-0.074402
-0.116600
-0.152398
-0.173006
-0.198587
-0.223127
-0.214633
-0.180393
-0.150863
-0.114213
-0.053084
-0.009394
0.054472
0.066526
0.060965
0.052158
0.057127
0.027181
-0.013487
-0.019783
-0.069710
-0.101670
-0.143006
-0.190379
-0.230838
-0.226497
-0.215139
-0.191871
-0.147805
-0.114801
-0.065473
-0.034669
0.023989
0.059083
0.059427
0.079347
0.075032
0.048957
0.040125
0.019049
-0.029412
-0.121137
-0.150476
-0.161281
-0.185006
-0.211559
-0.205348
-0.157991
-0.104755
-0.064647
-0.019538
0.020537
0.047056
0.056699
0.045436
0.112792
0.131551
0.113688
0.084988
0.023497
-0.024563
-0.088111
-0.146912
-0.199226
-0.172372
-0.150437
-0.153584
-0.139430
-0.091222
-0.054224
0.007544
0.033806
0.087383
0.129080
0.111776
0.116635
0.113356
0.100244
0.071854
0.024389
-0.023241
-0.059022
-0.111269
-0.138405
-0.173424
-0.212448
-0.180180
-0.127184
-0.105082
-0.071234
-0.029626
0.023923
0.038086
0.067309
0.107018
0.111788
0.111246
0.101250
0.108411
0.015347
-0.060535
-0.104760
-0.153638
-0.176981
-0.210741
-0.224198
-0.204417
-0.189493
-0.158036
-0.121513
-0.065229
-0.021866
0.018609
0.040591
0.039712
0.048292
0.059048
0.107541
0.025096
-0.047773
-0.124239
-0.149732
-0.175575
-0.201542
-0.222895
-0.241436
-0.246355
-0.241210
-0.182515
-0.139616
-0.084158
-0.049976
-0.017212
0.009560
0.019014
0.031399
0.024105
0.007255
-0.032821
-0.076858
-0.086388
-0.140818
-0.223491
-0.231200
-0.239919
-0.251057
-0.264868
-0.232460
-0.184685
-0.135059
-0.074983
-0.040607
-0.009989
0.038790
0.031854
0.047289
0.041559
0.000368
-0.036090
-0.088177
-0.174010
-0.180705
-0.178155
-0.194262
-0.234736
-0.230161
-0.211783
-0.215097
-0.156000
-0.134917
-0.102617
-0.051251
-0.013925
0.029025
0.054539
0.056623
0.043283
0.009480
-0.037244
-0.069746
-0.133473
-0.187120
-0.225915
-0.246140
-0.274454
-0.257755
-0.231632
-0.204747
-0.177309
-0.136868
-0.104206
-0.066788
-0.017702
0.010558
0.032087
0.059454
0.041649
0.041090
0.020785
-0.019905
-0.054967
-0.092295
-0.115983
-0.117702
-0.119886
-0.106864
-0.088359
-0.071151
-0.045654
0.058675
0.148183
0.211400
0.256686
0.321386
0.359739
0.390015
0.419282
0.469107
0.496815
0.457944
0.425296
0.400563
0.373842
0.365972
0.428498
0.451754
0.499717
0.547863
0.637371
0.708877
0.725362
0.789172
0.796930
0.813934
0.812858
0.784382
0.753082
0.694548
0.624713
0.504308
0.388383
0.292044
0.175526
0.095980
0.028189
-0.005272
-0.031610
-0.036483
-0.023967
0.013524
0.064112
0.099778
0.124350
0.173273
0.168621
0.162687
0.149702
0.133747
0.115506
0.072986
0.006584
-0.054512
-0.092280
-0.136266
-0.153193
-0.159086
-0.169572
-0.157816
-0.143457
-0.122507
-0.042675
0.013400
0.043739
0.066468
0.088530
0.102927
0.087414
0.052281
-0.021222
-0.074308
-0.104523
-0.114044
-0.140737
-0.189023
-0.207679
-0.224649
-0.207065
-0.157975
-0.129191
-0.099739
-0.065025
-0.028310
-0.001074
0.023268
0.037434
0.034092
0.045286
0.038673
0.011188
-0.014463
-0.022924
-0.075055
-0.169193
-0.217851
-0.218294
-0.236629
-0.239609
-0.198309
-0.147851
-0.091158
-0.017854
0.051603
0.073472
0.110616
0.128685
0.109433
0.109407
0.080944
0.016566
-0.011067
-0.058415
-0.109448
-0.148108
-0.184683
-0.186320
-0.198652
-0.224160
-0.196591
-0.149959
-0.110551
-0.047509
0.031653
0.062036
0.093758
0.117809
0.125171
0.111837
0.070020
0.024770
0.004568
-0.039727
-0.093281
-0.134200
-0.180087
-0.189638
-0.185521
-0.166878
-0.132763
-0.104347
-0.070776
-0.012150
0.037270
0.074715
0.121394
0.142870
0.146262
0.111636
0.099948
0.064783
0.046342
0.006724
-0.061727
-0.099528
-0.104768
-0.106843
-0.151185
-0.153918
-0.126823
-0.082155
-0.031553
0.012337
0.076400
0.122922
0.147899
0.163241
0.142567
0.159188
0.147819
0.082044
0.031731
-0.007281
-0.031149
-0.071790
-0.118616
-0.117561
-0.107866
-0.110614
-0.086411
-0.062813
-0.024611
-0.001320
0.056659
0.107033
0.170251
0.185644
0.167113
0.145151
0.125443
0.112666
0.079231
0.039947
-0.020505
-0.068269
-0.076924
-0.077833
-0.087838
-0.097834
-0.092435
-0.074362
-0.050260
-0.000810
0.061478
0.122711
0.147703
0.182407
0.157237
0.138920
0.137623
0.132578
0.092296
0.010003
-0.037037
-0.056941
-0.093389
-0.112598
-0.116318
-0.117565
-0.096661
-0.073413
-0.025405
0.030806
0.068141
0.104670
0.134248
0.147904
0.157125
0.144525
0.109122
0.068990
0.026579
0.012149
-0.015334
-0.070988
-0.140472
-0.146193
-0.142059
-0.142447
-0.125288
-0.104453
-0.062759
-0.030915
0.036408
0.057856
0.086137
0.111482
0.120524
0.108976
0.075686
0.043577
-0.000014
-0.025320
-0.095157
-0.141381
-0.206768
-0.222638
-0.188909
-0.168654
-0.167639
-0.137509
-0.088785
0.007084
0.037950
0.050693
0.068678
0.094517
0.099953
0.081414
0.067127
0.043477
0.031212
-0.070331
-0.127273
-0.155698
-0.141162
-0.140941
-0.187075
-0.198699
-0.186148
-0.131464
-0.099060
-0.047628
0.025501
0.075043
0.097110
0.109164
0.108769
0.094957
0.060363
0.016094
-0.027470
-0.070441
-0.100616
-0.145507
-0.173152
-0.203154
-0.221144
-0.202178
-0.182902
-0.150557
-0.118744
-0.071290
-0.008523
0.035553
0.046077
0.061401
0.077462
0.079761
0.044913
0.039369
-0.000172
-0.066477
-0.116253
-0.152704
-0.199987
-0.215293
-0.232076
-0.238677
-0.213137
-0.128110
-0.050663
-0.009484
0.051787
0.068384
0.084513
0.101484
0.085378
0.061875
0.055561
0.043687
0.004615
-0.049534
-0.091550
-0.149206
-0.197843
-0.190770
-0.177883
-0.186913
-0.176666
-0.103538
-0.074269
-0.069412
-0.016552
0.086432
0.131724
0.146371
0.137852
0.111264
0.049930
0.049300
0.027224
-0.029819
-0.089658
-0.126239
-0.168773
-0.191248
-0.185726
-0.162726
-0.153453
-0.118708
-0.074600
-0.038191
-0.005434
0.030383
0.079364
0.128139
0.131261
0.099736
0.067023
0.050978
-0.001208
-0.054022
-0.103557
-0.158215
-0.146649
-0.160773
-0.196825
-0.212883
-0.187526
-0.130518
-0.082838
-0.040942
-0.013062
0.034025
0.090425
0.142043
0.127803
0.126369
0.090803
0.050302
0.022272
-0.026381
-0.106050
-0.155893
-0.202118
-0.216152
-0.188570
-0.179509
-0.179290
-0.143394
-0.077989
-0.029036
0.026597
0.065303
0.090846
0.098277
0.085271
0.093623
0.099312
0.047066
-0.015302
-0.056178
-0.110114
-0.155197
-0.178925
-0.179657
-0.162397
-0.173659
-0.180964
-0.163537
-0.133642
-0.056748
0.019325
0.130808
0.132353
0.110500
0.111756
0.116254
0.095178
0.049380
0.006573
-0.055717
-0.119805
-0.165094
-0.180785
-0.205564
-0.205731
-0.193880
-0.157551
-0.089806
-0.072383
-0.047459
0.015112
0.053442
0.078375
0.094363
0.123622
0.173511
0.097788
0.021751
-0.052852
-0.100349
-0.152269
-0.181271
-0.194490
-0.208862
-0.205023
-0.199741
-0.182701
-0.156389
-0.082028
-0.035185
0.009155
0.063248
0.077070
0.080689
0.091866
0.082870
0.064842
0.001358
-0.010644
-0.069796
-0.118448
-0.158611
-0.175620
-0.217170
-0.222191
-0.217942
-0.165731
-0.110775
-0.073008
-0.037124
-0.020712
0.016375
0.057135
0.092897
0.114933
0.106747
0.073657
0.029899
0.006408
-0.058035
-0.118237
-0.144814
-0.166863
-0.191462
-0.218193
-0.200099
-0.163999
-0.140370
-0.067308
-0.049739
-0.030244
0.031289
0.069240
0.093273
0.082756
0.058943
0.048887
0.065682
0.016293
-0.035971
-0.097472
-0.160685
-0.187015
-0.199813
-0.202980
-0.189902
-0.181403
-0.156145
-0.109448
-0.048253
0.007119
0.060342
0.092854
0.097651
0.080759
0.071697
0.064692
0.029065
0.000920
-0.057612
-0.115046
-0.144512
-0.166037
-0.181631
-0.181689
-0.196167
-0.192485
-0.155031
-0.106618
-0.069776
-0.007123
0.015499
0.066273
0.106504
0.105824
0.098975
0.060025
0.034089
0.005368
-0.044179
-0.103886
-0.158054
-0.186417
-0.226972
-0.246310
-0.202604
-0.158606
-0.126680
-0.082811
-0.039070
-0.009647
0.059740
0.100341
0.139419
0.134816
0.098084
0.083341
0.027007
0.023430
-0.014369
-0.083317
-0.156377
-0.135277
-0.169047
-0.165213
-0.133636
-0.124550
-0.079983
-0.039527
0.010745
0.047949
0.082618
0.106631
0.125449
0.110273
0.117820
0.094113
0.066484
0.011902
-0.028842
-0.083165
-0.111395
-0.128731
-0.155001
-0.157366
-0.149661
-0.142842
-0.112723
-0.062039
-0.026690
0.034227
0.090417
0.127763
0.155442
0.164199
0.180534
0.161673
0.118617
0.053643
-0.029184
-0.078895
-0.115067
-0.144671
-0.157989
-0.161882
-0.179633
-0.145452
-0.104449
-0.056628
-0.015176
0.027637
0.083730
0.094595
0.086933
0.101046
0.104009
0.092908
0.065597
0.021004
-0.057985
-0.117909
-0.113016
-0.155871
-0.220445
-0.216536
-0.206519
-0.185281
-0.157340
-0.083116
-0.044297
-0.002448
0.031479
0.060495
0.081232
0.096379
0.089335
0.050865
0.026401
0.022625
-0.047991
-0.114362
-0.166621
-0.184443
-0.190021
-0.205514
-0.257194
-0.221646
-0.177989
-0.134039
-0.117207
-0.041956
0.021992
0.053921
0.100207
0.091210
0.080067
0.042070
0.013180
-0.018444
-0.069141
-0.123967
-0.175195
-0.202349
-0.231454
-0.237019
-0.251493
-0.211905
-0.162106
-0.128289
-0.090609
-0.018337
0.028758
0.057119
0.047849
0.066158
0.057411
0.047739
0.016483
-0.020807
-0.088868
-0.128494
-0.164728
-0.186706
-0.211275
-0.234344
-0.211162
-0.194991
-0.172575
-0.128162
-0.087229
-0.063832
-0.056680
0.032950
0.077882
0.127745
0.108848
0.064100
0.025577
-0.039949
-0.091244
-0.148632
-0.179527
-0.198802
-0.215645
-0.230814
-0.230597
-0.198782
-0.159285
-0.152150
-0.082165
-0.012160
0.006924
0.039768
0.105938
0.133546
0.123317
0.104292
0.074804
0.039203
0.011438
0.010368
-0.025657
-0.067222
-0.080548
-0.045049
-0.003823
0.023987
0.053497
0.124912
0.211823
0.328399
0.412313
0.459150
0.505684
0.551958
0.589165
0.598050
0.580580
0.584499
0.579652
0.567574
0.565683
0.560503
0.571539
0.612788
0.632782
0.648612
0.684443
0.734098
0.748856
0.770033
0.785737
0.795432
0.776547
0.716192
0.630152
0.535527
0.457887
0.342426
0.277210
0.183519
0.079834
-0.006616
-0.020959
-0.047194
-0.052647
-0.046058
-0.012101
0.022328
0.040970
0.076891
0.118147
0.155437
0.190592
0.185931
0.171603
0.145694
0.104790
0.037049
-0.000161
-0.027206
-0.114138
-0.189953
-0.179804
-0.177337
-0.184105
-0.143620
-0.109142
-0.077618
-0.025717
0.038440
0.071662
0.084943
0.121456
0.117165
0.118405
0.084924
0.027158
-0.010001
-0.039400
-0.093094
-0.126512
-0.133220
-0.167057
-0.180148
-0.183620
-0.186722
-0.175232
-0.133140
-0.121112
-0.083637
0.057135
0.123204
0.184084
0.153264
0.155525
0.117604
0.061502
0.004393
-0.049248
-0.093453
-0.139002
-0.184314
-0.199207
-0.205967
-0.175647
-0.163222
-0.128246
-0.076108
-0.030442
0.020313
0.063428
0.075205
0.089371
0.100146
0.115461
0.102574
0.056620
-0.001379
-0.050005
-0.086929
-0.133206
-0.161542
-0.204907
-0.222629
-0.184832
-0.135146
-0.099854
-0.070607
-0.040049
0.011325
0.064783
0.101045
0.121757
0.134046
0.139127
0.119308
0.061257
0.025712
-0.008983
-0.053584
-0.100538
-0.122311
-0.165121
-0.197892
-0.188422
-0.118252
-0.093010
-0.058689
0.000457
0.047972
0.102212
0.122164
0.112719
0.126091
0.143217
0.113489
0.088412
0.045817
-0.009242
-0.055299
-0.090573
-0.112651
-0.122109
-0.138433
-0.111886
-0.086961
-0.073191
-0.033836
0.019058
0.075140
0.132139
0.153045
0.175536
0.180881
0.170804
0.153039
0.139928
0.086067
0.011961
-0.016413
-0.035035
-0.090878
-0.113547
-0.108848
-0.100519
-0.055328
-0.039290
-0.022666
0.030497
0.075107
0.120501
0.161603
0.181877
0.225592
0.188822
0.165681
0.139886
0.092949
0.059817
0.008601
-0.020428
-0.038677
-0.064899
-0.074585
-0.077083
-0.075061
-0.059867
-0.033226
0.049085
0.116201
0.156881
0.192423
0.200842
0.214913
0.198209
0.153304
0.087107
0.055712
0.049599
-0.011633
-0.070742
-0.094038
-0.121744
-0.137175
-0.119326
-0.103119
-0.068172
-0.008611
0.035397
0.054265
0.117598
0.184514
0.200565
0.216749
0.177855
0.128415
0.097355
0.071562
0.015414
-0.052228
-0.105826
-0.159238
-0.178765
-0.158459
-0.136171
-0.125434
-0.092223
-0.060526
-0.019033
0.021880
0.038250
0.050767
0.137612
0.185893
0.161311
0.090704
0.034033
-0.001087
-0.040429
-0.092372
-0.139176
-0.168784
-0.187669
-0.188246
-0.173796
-0.145180
-0.134111
-0.096036
-0.043910
-0.029868
0.014462
0.063232
0.094887
0.103986
0.105673
0.065884
0.015222
-0.042979
-0.080508
-0.139645
-0.177550
-0.229285
-0.254397
-0.220527
-0.192792
-0.152147
-0.139477
-0.101135
-0.046350
-0.017852
0.016790
0.054660
0.052507
0.071606
0.096243
0.099649
0.047668
-0.033880
-0.067449
-0.111440
-0.177483
-0.218566
-0.239775
-0.239498
-0.225080
-0.186331
-0.144101
-0.095970
-0.071772
-0.039908
0.016866
0.043229
0.060127
0.071249
0.061671
0.030472
0.022855
-0.012775
-0.078015
-0.141566
-0.187686
-0.235132
-0.254887
-0.249367
-0.234568
-0.185516
-0.145654
-0.096709
-0.064356
-0.009177
0.060511
0.078490
0.061668
0.064570
0.071810
0.041671
-0.007196
-0.029928
-0.066540
-0.101529
-0.172258
-0.230831
-0.242060
-0.216685
-0.203327
-0.177008
-0.153874
-0.118769
-0.066858
-0.018839
0.016716
0.057878
0.079686
0.083990
0.073440
0.045664
0.010486
-0.033008
-0.053385
-0.102792
-0.165067
-0.230299
-0.241734
-0.248343
-0.213702
-0.165355
-0.135063
-0.098606
-0.059204
-0.044812
0.035796
0.076946
0.091266
0.084658
0.082596
0.057398
0.029190
-0.011491
-0.057621
-0.109398
-0.156043
-0.203976
-0.229706
-0.234592
-0.217171
-0.178912
-0.129634
-0.118213
-0.081708
-0.049743
-0.009709
0.034302
0.079056
0.109554
0.100868
0.057687
0.024334
-0.043403
-0.074254
-0.087689
-0.141470
-0.187812
-0.215635
-0.227094
-0.218935
-0.194900
-0.160644
-0.122403
-0.084175
-0.053142
0.003855
0.013491
0.047241
0.065511
0.078370
0.039845
0.000559
-0.041954
-0.094250
-0.110066
-0.125998
-0.171156
-0.209478
-0.228570
-0.207169
-0.200012
-0.187880
-0.146850
-0.087160
-0.026962
0.022591
0.054443
0.081133
0.090563
0.054445
0.018457
-0.009501
-0.050203
-0.098131
-0.125474
-0.149380
-0.198855
-0.226739
-0.242160
-0.239931
-0.223555
-0.209127
-0.146990
-0.115772
-0.060916
-0.002819
0.031326
0.043569
0.066087
0.073585
0.040943
0.001903
-0.032343
-0.068912
-0.112631
-0.181494
-0.225921
-0.247899
-0.255196
-0.234005
-0.212708
-0.178414
-0.140743
-0.100437
-0.068869
-0.028872
0.026920
0.075162
0.080083
0.033644
0.038162
-0.009380
-0.064475
-0.109231
-0.159170
-0.199105
-0.233000
-0.247132
-0.247937
-0.236494
-0.216519
-0.184361
-0.142581
-0.092298
-0.034590
0.006618
0.025214
0.035356
0.069892
0.026374
0.020227
-0.012854
-0.040413
-0.090191
-0.155690
-0.187426
-0.224263
-0.252533
-0.277992
-0.241447
-0.213576
-0.190143
-0.149679
-0.113810
-0.091756
-0.040537
0.002474
0.025307
0.035891
0.025711
-0.009095
-0.030234
-0.058865
-0.113366
-0.170816
-0.193823
-0.215365
-0.241541
-0.232742
-0.224875
-0.216375
-0.199702
-0.160307
-0.117082
-0.068090
-0.003087
0.043931
0.054744
0.055202
0.048789
0.031712
-0.013959
-0.044585
-0.096117
-0.152331
-0.193464
-0.227606
-0.239275
-0.268702
-0.278581
-0.254748
-0.190497
-0.151155
-0.117859
-0.056099
-0.004835
0.030222
0.046227
0.050781
0.041942
0.032525
-0.028900
-0.078125
-0.122604
-0.165540
-0.201668
-0.227616
-0.247658
-0.258296
-0.267028
-0.258617
-0.237519
-0.175404
-0.097329
-0.054729
0.006904
0.039780
0.020089
0.013684
0.032579
0.035965
0.006580
-0.042124
-0.093506
-0.146734
-0.179861
-0.220491
-0.234970
-0.253835
-0.243068
-0.204492
-0.163658
-0.147128
-0.087000
-0.020614
0.018500
0.035461
0.078200
0.091914
0.095006
0.071391
0.006355
-0.041995
-0.079350
-0.152597
-0.174353
-0.197342
-0.240923
-0.213836
-0.206872
-0.190323
-0.154415
-0.121384
-0.082379
-0.031549
0.011240
0.052839
0.077367
0.088641
0.081797
0.057214
0.040460
-0.010509
-0.069084
-0.104635
-0.155128
-0.175071
-0.162841
-0.177673
-0.187613
-0.156277
-0.110461
-0.068416
-0.033257
-0.014020
0.060770
0.098542
0.110353
0.098409
0.062938
0.053855
0.031336
-0.026758
-0.081591
-0.137500
-0.174827
-0.207197
-0.232510
-0.230394
-0.224657
-0.198900
-0.165942
-0.139052
-0.090518
-0.039236
0.029723
0.061987
0.078568
0.047986
0.002161
-0.052451
-0.031405
-0.051152
-0.103087
-0.146126
-0.180660
-0.220066
-0.238623
-0.251198
-0.270537
-0.223000
-0.194962
-0.164390
-0.135516
-0.081913
-0.009037
0.040995
0.049738
0.051759
0.026956
0.020017
-0.014710
-0.066764
-0.141225
-0.176545
-0.200126
-0.246910
-0.270367
-0.275315
-0.259456
-0.238934
-0.215439
-0.150600
-0.121225
-0.068912
-0.016464
-0.002103
0.019032
0.027921
0.023202
0.026623
-0.005928
-0.053895
-0.116328
-0.163386
-0.195194
-0.224186
-0.240435
-0.268125
-0.285671
-0.254687
-0.205848
-0.146212
-0.111346
-0.079774
-0.022565
0.021352
0.043358
0.043520
0.014045
-0.037774
-0.042246
-0.049683
-0.078692
-0.137934
-0.196384
-0.220852
-0.242812
-0.270248
-0.269403
-0.219400
-0.180053
-0.144715
-0.120191
-0.075394
-0.023601
0.005562
0.014136
0.034959
0.045585
0.011478
-0.025904
-0.081386
-0.128677
-0.172742
-0.217486
-0.256367
-0.272939
-0.266175
-0.254853
-0.220007
-0.171209
-0.137191
-0.082143
-0.021048
0.047220
0.092366
0.105382
0.149719
0.184416
0.175846
0.133007
0.116692
0.125710
0.066931
0.042385
0.043142
0.069355
0.086827
0.139291
0.206649
0.275929
0.362355
0.461456
0.549863
0.636542
0.678504
0.754930
0.813026
0.806082
0.823855
0.819783
0.829644
0.804210
0.732422
0.683828
0.669505
0.629634
0.613310
0.582901
0.599631
0.571470
0.543497
0.517590
0.515933
0.493021
0.449905
0.432916
0.372244
0.305800
0.262524
0.221828
0.145860
0.084930
0.047229
0.007630
-0.062796
-0.083432
-0.099587
-0.086523
-0.070620
-0.044664
-0.012405
0.024547
0.059978
0.094606
0.125756
0.147047
0.178334
0.142111
0.136046
0.089225
0.041893
0.004395
-0.042000
-0.083404
-0.137785
-0.181030
-0.178612
-0.170346
-0.151335
-0.081212
-0.039085
0.000870
0.022399
0.028682
0.080934
0.124201
0.121675
0.099674
0.085031
0.038404
0.035952
-0.002574
-0.070694
-0.131052
-0.171695
-0.166070
-0.167299
-0.154555
-0.155288
-0.171524
-0.111719
-0.060506
-0.014924
0.028009
0.081038
0.122187
0.165363
0.142334
0.117488
0.072951
0.045571
-0.013099
-0.075036
-0.133586
-0.213129
-0.228198
-0.241101
-0.220511
-0.186747
-0.181643
-0.134438
-0.027410
0.033027
0.065203
0.123667
0.141689
0.181666
0.210700
0.216431
0.163226
0.094454
0.042314
-0.014352
-0.060763
-0.100054
-0.125290
-0.127450
-0.117534
-0.076972
-0.044704
-0.009550
0.031180
0.066915
0.094664
0.137781
0.181057
0.189512
0.189569
0.165580
0.141374
0.079543
0.025500
-0.013548
-0.058942
-0.085577
-0.102021
-0.106144
-0.096015
-0.046502
-0.009315
0.041219
0.071193
0.044078
0.094801
0.171838
0.185926
0.244673
0.241607
0.199378
0.168800
0.128079
0.105102
0.057985
0.012314
-0.006385
-0.005030
-0.019958
-0.035371
-0.021251
0.020179
0.074988
0.124772
0.175987
0.216720
0.253108
0.262561
0.248939
0.222994
0.207185
0.225557
0.203806
0.163647
0.036662
-0.003769
-0.050949
-0.050454
-0.026023
-0.007024
0.037838
0.051811
0.081961
0.138684
0.210399
0.241583
0.280011
0.295611
0.308139
0.303787
0.272071
0.215006
0.188579
0.113630
-0.025379
-0.053316
-0.046454
-0.026613
-0.034121
-0.069559
-0.066121
0.003451
0.081822
0.150548
0.196586
0.233957
0.332922
0.343338
0.324740
0.316063
0.285033
0.255038
0.197682
0.146207
0.093100
0.050480
0.016747
0.002217
-0.013101
-0.014223
0.010422
0.055879
0.102357
0.140194
0.201071
0.231951
0.261104
0.284554
0.276395
0.266394
0.256630
0.219269
0.173463
0.128896
0.059625
0.024642
-0.025937
-0.052123
-0.050203
-0.024662
-0.017223
-0.006135
0.030208
0.087576
0.127928
0.150027
0.190069
0.193819
0.241381
0.265057
0.239451
0.203678
0.146531
0.070580
0.027156
-0.010095
-0.052079
-0.082389
-0.104422
-0.114136
-0.072243
-0.038490
0.009279
0.052821
0.091747
0.160804
0.216048
0.236705
0.230605
0.233910
0.225580
0.208092
0.150251
0.074557
0.025994
-0.021399
-0.070400
-0.110295
-0.097953
-0.076285
-0.022957
0.021918
0.059174
0.091099
0.115416
0.151142
0.200463
0.226442
0.235832
0.236452
0.204708
0.174917
0.143281
0.088680
0.023887
-0.018380
-0.049289
-0.057686
-0.082106
-0.080970
-0.064192
-0.010620
0.043865
0.096677
0.147492
0.179607
0.234830
0.262947
0.271664
0.237848
0.219335
0.182596
0.124672
0.069049
0.042355
0.006099
-0.027797
-0.019916
-0.061354
-0.066192
-0.050679
-0.028946
0.042061
0.089906
0.140069
0.175539
0.213767
0.273790
0.274828
0.254917
0.219223
0.189567
0.182419
0.117812
0.063991
0.004390
-0.030621
-0.028801
-0.037944
-0.039716
-0.005097
0.039598
0.078471
0.127401
0.189470
0.229298
0.266748
0.260181
0.274691
0.253062
0.233962
0.225296
0.173676
0.105789
0.060625
0.053305
0.005664
-0.017245
-0.035194
-0.026045
0.003598
0.042358
0.081805
0.123388
0.169185
0.215661
0.261544
0.296226
0.308272
0.289998
0.267634
0.231578
0.179255
0.129832
0.088212
0.047431
-0.001208
-0.027079
-0.020628
-0.012561
0.015235
0.034141
0.081695
0.136020
0.175236
0.245053
0.295941
0.305388
0.298424
0.259102
0.225421
0.213944
0.215753
0.169267
0.113677
0.047885
-0.031063
-0.056975
-0.003683
0.020070
0.024948
0.028728
0.089174
0.150582
0.235933
0.248495
0.298228
0.297749
0.314568
0.319873
0.298463
0.247300
0.172492
0.141344
0.096694
0.049903
0.013884
-0.004512
-0.019545
-0.017709
0.033598
0.109544
0.154239
0.183820
0.213762
0.254322
0.262296
0.291685
0.305697
0.301853
0.272204
0.233813
0.170376
0.126991
0.086358
0.040816
-0.023585
-0.004977
0.000061
0.006926
0.028966
0.060043
0.110003
0.152809
0.216190
0.279587
0.301645
0.289660
0.291890
0.301352
0.283240
0.242228
0.214196
0.183617
0.141211
0.067453
0.031283
0.005355
-0.014837
-0.013187
0.019780
0.068846
0.123910
0.172801
0.203454
0.240475
0.274437
0.300846
0.312971
0.314898
0.284769
0.258135
0.218067
0.161437
0.115676
0.079279
0.027006
0.003186
0.003745
-0.000233
0.027356
0.067289
0.103389
0.145827
0.219665
0.257013
0.295051
0.332278
0.314679
0.304696
0.264142
0.235075
0.185409
0.145080
0.105121
0.097511
0.039495
-0.001761
0.001282
0.019951
0.047284
0.094910
0.136512
0.171399
0.234397
0.266449
0.310796
0.341210
0.345300
0.315484
0.301199
0.275793
0.233473
0.188919
0.113075
0.052623
0.045633
0.027074
-0.008420
0.009059
0.063918
0.098317
0.150635
0.180718
0.219439
0.265266
0.314651
0.325891
0.359993
0.374483
0.345360
0.230384
0.154280
0.108753
0.098418
0.095451
0.060958
0.026772
0.008729
0.013580
0.069188
0.109650
0.157879
0.215793
0.250519
0.292281
0.303636
0.354976
0.390702
0.296531
0.250058
0.244861
0.216343
0.182103
0.113082
0.071980
0.035454
0.033176
-0.000698
-0.010834
0.054706
0.096286
0.165754
0.254151
0.289780
0.326847
0.353886
0.311675
0.297745
0.334248
0.338194
0.299984
0.252467
0.213087
0.166689
0.119882
0.077008
0.040642
0.037660
0.085630
0.124250
0.146683
0.168245
0.221139
0.281561
0.334645
0.348936
0.378142
0.391361
0.365065
0.373930
0.341733
0.284971
0.233926
0.197196
0.139205
0.094603
0.086129
0.080676
0.086095
0.114327
0.159565
0.214630
0.264913
0.302653
0.331111
0.350991
0.373035
0.374541
0.350894
0.336092
0.317271
0.298419
0.256078
0.219098
0.177077
0.157056
0.130495
0.132723
0.136641
0.162282
0.194871
0.240517
0.275607
0.310824
0.359275
0.384809
0.380066
0.372978
0.364175
0.353002
0.284250
0.244490
0.215090
0.184891
0.133568
0.095622
0.079292
0.055689
0.091483
0.089721
0.117665
0.164614
0.242858
0.287087
0.308981
0.348723
0.361899
0.347463
0.325344
0.335549
0.327499
0.307296
0.245026
0.178331
0.115958
0.083462
0.066548
0.057600
0.045356
0.074738
0.116910
0.169235
0.210680
0.261462
0.300489
0.322550
0.347717
0.370479
0.363617
0.331971
0.284200
0.224386
0.200586
0.155182
0.108858
0.052417
0.026502
0.039056
0.051780
0.062863
0.108119
0.143997
0.196900
0.264593
0.282081
0.304236
0.338742
0.347008
0.308841
0.277956
0.266267
0.227343
0.190296
0.167275
0.129511
0.089875
0.070207
0.042434
0.057717
0.107262
0.138493
0.172099
0.199672
0.223877
0.278370
0.314904
0.323196
0.328642
0.344204
0.306266
0.268158
0.209719
0.190178
0.127068
0.092347
0.070096
0.065487
0.061497
0.061805
0.094151
0.093421
0.113418
0.186915
0.256553
0.304367
0.401065
0.407554
0.364887
0.335447
0.339541
0.299974
0.243379
0.200881
0.156370
0.112880
0.082998
0.075090
0.067006
0.075583
0.147724
0.211224
0.247246
0.295003
0.365625
0.430975
0.474834
0.518826
0.539205
0.546282
0.530100
0.529941
0.538200
0.525393
0.512953
0.502964
0.513700
0.533109
0.563362
0.623711
0.663229
0.710809
0.778928
0.813302
0.929374
1.050552
1.183465
1.200868
1.228122
1.231918
1.215404
1.143652
1.114444
1.049260
0.962153
0.877172
0.846697
0.788854
0.699936
0.610567
0.588698
0.550889
0.550979
0.534184
0.543846
0.554208
0.546190
0.542363
0.539917
0.517733
0.507798
0.464988
0.420045
0.378245
0.296938
0.250586
0.213392
0.161329
0.120661
0.141354
0.159461
0.198465
0.229541
0.267725
0.333692
0.400861
0.419054
0.444574
0.454988
0.425968
0.386089
0.357521
0.293587
0.281847
0.206136
0.177151
0.174479
0.153997
0.113178
0.124146
0.136621
0.129405
0.187041
0.224842
0.265468
0.332571
0.389758
0.418842
0.411923
0.394882
0.379598
0.330785
0.281492
0.230695
0.190919
0.114731
0.087065
0.085650
0.072367
0.076888
0.095126
0.185968
0.194221
0.246565
0.298453
0.346018
0.392961
0.425624
0.416372
0.404784
0.404846
0.357535
0.285788
0.241736
0.179022
0.154252
0.120777
0.082391
0.094194
0.095329
0.107080
0.152477
0.191887
0.248284
0.284135
0.337281
0.389911
0.425508
0.423640
0.407211
0.379533
0.375135
0.353748
0.265959
0.225895
0.185649
0.156176
0.132903
0.124638
0.142686
0.145292
0.183348
0.232516
0.306042
0.372056
0.416668
0.432343
0.468033
0.404184
0.391101
0.385572
0.372350
0.300165
0.266285
0.227423
0.198094
0.169497
0.141450
0.133387
0.124416
0.172378
0.231834
0.265281
0.309659
0.337845
0.390666
0.452010
0.474157
0.466114
0.436011
0.407138
0.395201
0.339504
0.293938
0.299016
0.260502
0.225494
0.215302
0.217189
0.226453
0.210677
0.214923
0.261806
0.303350
0.375161
0.432890
0.475736
0.493298
0.506847
0.499808
0.494783
0.453108
0.404180
0.351642
0.316169
0.278586
0.268585
0.247227
0.185463
0.169777
0.233625
0.348136
0.401265
0.386980
0.439447
0.419927
0.391161
0.430429
0.413184
0.458470
0.484167
0.423989
0.378476
0.313694
0.266828
0.218303
0.207478
0.210211
0.234031
0.242171
0.260894
0.259621
0.302234
0.370772
0.364228
0.410965
0.477124
0.490791
0.470057
0.456282
0.454302
0.418104
0.391565
0.318863
0.269899
0.224196
0.187798
0.178683
0.177059
0.157423
0.186197
0.222326
0.271219
0.306613
0.328989
0.387584
0.455638
0.463882
0.472045
0.419994
0.381963
0.323268
0.245396
0.233844
0.205594
0.173056
0.139521
0.112807
0.109334
0.104770
0.129102
0.172921
0.190049
0.253140
0.282138
0.325847
0.344840
0.375126
0.385535
0.389197
0.376204
0.341014
0.304208
0.264301
0.211362
0.146240
0.130147
0.107391
0.071121
0.075692
0.026584
0.051705
0.139852
0.168673
0.178747
0.246629
0.324137
0.374533
0.334017
0.327684
0.274302
0.281626
0.280556
0.221490
0.172451
0.149671
0.082346
0.044595
0.088675
0.069823
0.061894
0.080749
0.149220
0.218857
0.266106
0.289825
0.315454
0.363865
0.364583
0.349299
0.282622
0.232891
0.200970
0.151194
0.105490
0.077341
0.050171
0.030308
0.030524
0.035297
0.047067
0.084159
0.121375
0.174870
0.227074
0.262658
0.278484
0.321533
0.331856
0.324563
0.301784
0.278684
0.263736
0.196549
0.135852
0.082261
0.053248
0.036171
0.012911
0.016874
0.056762
0.083418
0.122755
0.189808
0.231410
0.247277
0.296231
0.335790
0.338323
0.323785
0.302347
0.257455
0.223457
0.165438
0.111613
0.030586
0.012023
0.022235
0.071801
0.063570
0.073375
0.129805
0.141365
0.178687
0.238623
0.288674
0.327839
0.331099
0.325610
0.319461
0.304361
0.237168
0.190275
0.162222
0.132596
0.093886
0.047312
0.003716
0.009034
0.040871
0.050794
0.073098
0.129541
0.174187
0.222612
0.254134
0.273404
0.285433
0.337185
0.341176
0.296689
0.267776
0.234985
0.176261
0.118822
0.079453
0.079293
0.059160
0.032726
0.035057
0.021939
0.039272
0.111603
0.176797
0.190956
0.234083
0.296204
0.310817
0.317712
0.307577
0.285532
0.238484
0.196849
0.147458
0.103830
0.072344
0.035976
0.031517
0.013806
0.000790
0.010567
0.055115
0.089014
0.139867
0.185576
0.212089
0.226333
0.256774
0.295846
0.297714
0.274575
0.250627
0.198478
0.146609
0.088745
0.045667
0.009750
-0.009627
-0.027320
0.009884
0.009247
0.024001
0.074395
0.145174
0.198694
0.222538
0.268705
0.288615
0.285284
0.271531
0.262785
0.225425
0.157938
0.112291
0.065172
0.028708
0.001231
-0.026218
-0.026123
-0.022385
-0.007497
0.028580
0.084739
0.158185
0.178031
0.202664
0.227622
0.254136
0.253152
0.250283
0.254716
0.247442
0.135988
0.095356
0.106467
0.105373
-0.009792
-0.083744
-0.040657
-0.009750
0.006843
0.003378
0.028928
0.084096
0.138104
0.177805
0.211937
0.238658
0.249279
0.254398
0.238242
0.211848
0.172884
0.108994
0.049187
0.030638
-0.001440
-0.039145
-0.069495
-0.087608
-0.048780
0.001843
0.066315
0.102254
0.161696
0.193734
0.213413
0.226021
0.254759
0.257901
0.219642
0.194712
0.157276
0.086921
0.048811
-0.011859
-0.038190
-0.036995
-0.031260
-0.067733
-0.061522
-0.020578
0.033251
0.109638
0.121861
0.174276
0.215813
0.248117
0.253261
0.237962
0.207504
0.170970
0.125004
0.072318
0.020142
0.020325
-0.026129
-0.042023
-0.044279
-0.024251
-0.026232
-0.056121
-0.030719
0.043838
0.123247
0.160468
0.202608
0.239822
0.252243
0.190125
0.172786
0.170175
0.115706
0.072886
-0.001139
-0.032945
-0.043943
-0.089303
-0.080590
-0.066259
-0.046236
-0.005836
0.024812
0.070177
0.111426
0.151706
0.188201
0.199657
0.229251
0.205863
0.155884
0.153470
0.131301
0.063789
0.013163
-0.042129
-0.095087
-0.088554
-0.072191
-0.092857
-0.059889
0.000747
0.049255
0.064739
0.156740
0.193832
0.178825
0.210265
0.231881
0.230493
0.184022
0.130073
0.084944
0.047533
-0.000063
-0.022217
-0.062428
-0.101927
-0.131639
-0.101595
-0.076927
-0.046119
0.017186
0.078888
0.121276
0.156648
0.170841
0.212852
0.226770
0.199481
0.178857
0.132574
0.096348
0.053693
0.015910
-0.008139
-0.049801
-0.084090
-0.094951
-0.081625
-0.033194
0.003772
0.037585
0.070972
0.120336
0.181782
0.226194
0.244746
0.237630
0.222966
0.204079
0.164908
0.098415
0.048303
0.016992
-0.021433
-0.044299
-0.052128
-0.072984
-0.073641
-0.054608
-0.022747
0.025293
0.088043
0.126150
0.167709
0.226031
0.247704
0.231730
0.249899
0.230162
0.201069
0.137158
0.077437
0.026421
0.000208
-0.018210
-0.056610
-0.063416
-0.051010
-0.035051
-0.020656
0.014493
0.056824
0.119797
0.162504
0.156619
0.200090
0.227202
0.220628
0.166822
0.137865
0.086777
0.039688
0.026211
-0.006692
-0.073560
-0.113614
-0.130069
-0.102347
-0.080812
-0.077795
-0.024092
0.009865
0.052155
0.094993
0.129241
0.147495
0.144159
0.162915
0.162454
0.132122
0.069123
0.009956
-0.042124
-0.074625
-0.117655
-0.139882
-0.154865
-0.145905
-0.119089
-0.080724
-0.022712
0.011657
0.032991
0.074238
0.096738
0.118937
0.122888
0.112979
0.077863
0.066067
0.017280
-0.014028
-0.075028
-0.099519
-0.142729
-0.171796
-0.174693
-0.154578
-0.171369
-0.103865
-0.059409
-0.017148
0.044040
0.090369
0.114444
0.116708
0.140682
0.121604
0.099873
0.054631
0.013602
-0.055632
-0.084370
-0.141484
-0.160391
-0.127752
-0.152936
-0.149226
-0.165388
-0.151058
-0.081650
-0.009524
0.040583
0.068832
0.123337
0.189528
0.163137
0.124837
0.005187
-0.040738
-0.023796
-0.051667
-0.090247
-0.135148
-0.173035
-0.179675
-0.193728
-0.172369
-0.142860
-0.105019
-0.061763
-0.043235
-0.014163
0.031839
0.075207
0.078124
0.099614
0.057908
0.047355
0.052664
0.048666
-0.025502
-0.103413
-0.121769
-0.143328
-0.148633
-0.141368
-0.123429
-0.084716
-0.047585
0.006757
0.076691
0.141174
0.191905
0.244417
0.287132
0.326726
0.336270
0.322798
0.303388
0.331450
0.352420
0.331870
0.314241
0.325020
0.345117
0.363595
0.401844
0.461998
0.541789
0.651994
0.754271
0.805183
0.822948
0.879528
0.962310
1.009739
0.985751
0.960394
0.905137
0.846502
0.794819
0.669824
0.539446
0.431234
0.396452
0.299658
0.250425
0.211574
0.194990
0.160163
0.172019
0.218987
0.265838
0.292766
0.311522
0.303217
0.263165
0.222454
0.181795
0.131239
0.074992
0.006642
-0.044546
-0.092333
-0.113550
-0.113975
-0.108122
-0.124415
-0.114782
-0.039271
0.042741
0.071309
0.125100
0.153836
0.151627
0.180803
0.170253
0.115179
0.115477
0.105605
0.098262
0.053084
0.022388
-0.181386
-0.229593
-0.272274
-0.219448
-0.162930
-0.117810
-0.054740
0.037254
0.064792
0.074846
0.136909
0.119053
0.248067
0.193173
-0.116562
-0.081302
-0.040691
-0.075255
-0.122626
-0.167914
-0.187021
-0.194966
-0.224898
-0.209375
-0.112528
-0.069198
-0.045678
-0.008841
0.013059
0.046579
0.066189
0.076231
0.106672
0.147568
0.132411
0.072574
-0.011074
-0.061642
-0.110964
-0.106771
-0.096706
-0.120569
-0.160164
-0.186415
-0.178306
-0.099608
-0.046607
0.025050
0.077528
0.104214
0.135828
0.153749
0.138725
0.174739
0.075717
0.001597
0.003683
-0.013134
-0.063903
-0.123302
-0.148597
-0.158888
-0.161902
-0.174397
-0.173620
-0.118063
-0.035060
0.009973
0.069064
0.129011
0.164531
0.136239
0.134998
0.157314
0.113200
0.102849
0.059726
0.007112
-0.035833
-0.105110
-0.132809
-0.126674
-0.136756
-0.168264
-0.166143
-0.103425
-0.048813
0.008105
0.068394
0.114084
0.157620
0.181188
0.166539
0.158256
0.118227
0.120739
0.069291
0.036479
0.004659
-0.043015
-0.073612
-0.076702
-0.110243
-0.129799
-0.107711
-0.057301
-0.016779
0.032087
0.087191
0.138008
0.186248
0.207446
0.240923
0.170849
0.172365
0.128690
0.066991
0.038003
0.011135
-0.011376
-0.050064
-0.093352
-0.073550
-0.046112
-0.033673
-0.042259
0.009949
0.042404
0.071290
0.098926
0.142966
0.192358
0.228230
0.193999
0.164809
0.141643
0.096735
0.052478
0.005898
-0.035635
-0.065328
-0.100696
-0.099721
-0.067476
-0.064366
-0.046135
-0.011802
0.029138
0.075623
0.120561
0.158575
0.179753
0.189875
0.190011
0.166754
0.089015
-0.003717
-0.014922
-0.042725
-0.084649
-0.131189
-0.153524
-0.150324
-0.136867
-0.120421
-0.103222
-0.037184
0.022404
0.040562
0.073930
0.098159
0.123846
0.151168
0.133775
0.074966
0.082657
-0.002905
-0.034291
-0.076022
-0.133051
-0.186849
-0.190631
-0.185036
-0.155129
-0.207855
-0.207764
-0.118863
-0.058063
-0.029584
0.035755
0.065878
0.073997
0.074486
0.068965
0.041159
0.020893
-0.024056
-0.118538
-0.174148
-0.208620
-0.246822
-0.241955
-0.241160
-0.244816
-0.211484
-0.192494
-0.163432
-0.119506
-0.056597
-0.016719
0.020503
0.043620
0.074883
0.080227
0.030440
0.000247
-0.050718
-0.107883
-0.111859
-0.180675
-0.267543
-0.277456
-0.274024
-0.278383
-0.267479
-0.246519
-0.194945
-0.157627
-0.085120
0.001372
-0.043727
0.006318
0.033056
0.004534
0.013131
-0.013788
-0.061575
-0.109593
-0.200164
-0.237840
-0.265913
-0.267922
-0.277940
-0.288153
-0.277175
-0.217657
-0.133332
-0.124720
-0.091974
-0.020704
0.016637
0.040750
0.028203
-0.010622
-0.036783
-0.075693
-0.100389
-0.128627
-0.155307
-0.198464
-0.224387
-0.252458
-0.290956
-0.291299
-0.270533
-0.240574
-0.178274
-0.143296
-0.090953
-0.045968
0.003833
0.024529
0.037057
0.015928
0.009122
-0.094605
-0.069142
-0.092171
-0.151206
-0.183846
-0.233969
-0.253016
-0.273029
-0.305803
-0.267110
-0.214891
-0.184367
-0.139869
-0.102151
-0.026877
-0.001548
0.022964
0.022267
0.013755
-0.010054
-0.072864
-0.098320
-0.114732
-0.199317
-0.225726
-0.243102
-0.265990
-0.263431
-0.242132
-0.233040
-0.177764
-0.121194
-0.105688
-0.113946
-0.133514
-0.061383
-0.017950
-0.003253
-0.003553
-0.014620
-0.046868
-0.093594
-0.137593
-0.167344
-0.209533
-0.264158
-0.298752
-0.323874
-0.283415
-0.280889
-0.240687
-0.195995
-0.147450
-0.104516
-0.049880
-0.016559
-0.003998
0.002172
-0.013047
-0.005793
-0.041399
-0.094748
-0.121342
-0.187585
-0.249221
-0.280356
-0.302263
-0.321431
-0.328598
-0.223040
-0.185335
-0.173668
-0.132272
-0.067119
-0.039318
-0.031453
-0.015036
-0.026535
-0.002906
-0.021127
-0.061386
-0.110274
-0.148018
-0.200149
-0.262726
-0.297363
-0.299030
-0.300330
-0.298625
-0.286137
-0.255918
-0.198818
-0.151833
-0.117934
-0.083392
-0.034513
-0.018851
-0.008795
0.003170
-0.017970
-0.066948
-0.118061
-0.164745
-0.212185
-0.252626
-0.264354
-0.297007
-0.312648
-0.305916
-0.290268
-0.255825
-0.183967
-0.138983
-0.122250
-0.086838
-0.055747
-0.017074
-0.007122
-0.045687
-0.044912
-0.078632
-0.127640
-0.170117
-0.222280
-0.264389
-0.316733
-0.332120
-0.334326
-0.297507
-0.290029
-0.274182
-0.225443
-0.159577
-0.126018
-0.105056
-0.058689
-0.024991
-0.018044
-0.038093
-0.088354
-0.069921
-0.077441
-0.150508
-0.217325
-0.294232
-0.318081
-0.325883
-0.310678
-0.274213
-0.255743
-0.271610
-0.239931
-0.170378
-0.126794
-0.079733
-0.037756
-0.016963
-0.036659
-0.024067
-0.037769
-0.096662
-0.159291
-0.231964
-0.233828
-0.245005
-0.255011
-0.273810
-0.309297
-0.330741
-0.311175
-0.286598
-0.227717
-0.175803
-0.157180
-0.120196
-0.084461
-0.039930
-0.023487
-0.026444
-0.070238
-0.078941
-0.143741
-0.181465
-0.229580
-0.248204
-0.311205
-0.315836
-0.324030
-0.342766
-0.307047
-0.266732
-0.238935
-0.191038
-0.150439
-0.106197
-0.084690
-0.077365
-0.046113
-0.033316
-0.048597
-0.076578
-0.121181
-0.161622
-0.226705
-0.265713
-0.351858
-0.358681
-0.356285
-0.331602
-0.285740
-0.233801
-0.215759
-0.150998
-0.105148
-0.075570
-0.116206
-0.082691
-0.044079
-0.089213
-0.117789
-0.107332
-0.117492
-0.166404
-0.236591
-0.271058
-0.306817
-0.345016
-0.362807
-0.339379
-0.321445
-0.265719
-0.217818
-0.183459
-0.161817
-0.120576
-0.054634
-0.038027
-0.046767
-0.056034
-0.064566
-0.072410
-0.110030
-0.167069
-0.227866
-0.289203
-0.346724
-0.324696
-0.323869
-0.329884
-0.322954
-0.318032
-0.324312
-0.235323
-0.105377
-0.048521
-0.040024
-0.055541
-0.038057
-0.042932
-0.065537
-0.103552
-0.135566
-0.167246
-0.217058
-0.270205
-0.324354
-0.366563
-0.352744
-0.346042
-0.349350
-0.288114
-0.230866
-0.215531
-0.189870
-0.141912
-0.090455
-0.067319
-0.044698
-0.018266
-0.057728
-0.097829
-0.147511
-0.182375
-0.234812
-0.285869
-0.330751
-0.355639
-0.339462
-0.352815
-0.355649
-0.343711
-0.271080
-0.227350
-0.171721
-0.121390
-0.091566
-0.026356
-0.047917
-0.054608
-0.058209
-0.074393
-0.114543
-0.194775
-0.225396
-0.268022
-0.275533
-0.328897
-0.362040
-0.331279
-0.304109
-0.278809
-0.238473
-0.180319
-0.125539
-0.074503
-0.058061
-0.031578
-0.025735
-0.017097
-0.047975
-0.076369
-0.129911
-0.199347
-0.213745
-0.216454
-0.262819
-0.308152
-0.332752
-0.352184
-0.316891
-0.283878
-0.206180
-0.155921
-0.121865
-0.101019
-0.062087
-0.027568
0.008746
0.019106
-0.015800
-0.049071
-0.102535
-0.155253
-0.205504
-0.189255
-0.277389
-0.338047
-0.299883
-0.323513
-0.306546
-0.248515
-0.212629
-0.174178
-0.150948
-0.086984
-0.048132
-0.033174
-0.048287
-0.047250
-0.102512
-0.121229
-0.153787
-0.214827
-0.255721
-0.277076
-0.300638
-0.312345
-0.320090
-0.302341
-0.322461
-0.281951
-0.233238
-0.188766
-0.157501
-0.125629
-0.091867
-0.072369
-0.057117
-0.064799
-0.104764
-0.133392
-0.158326
-0.207949
-0.256626
-0.312086
-0.374363
-0.412773
-0.432258
-0.425129
-0.360813
-0.285530
-0.266827
-0.223654
-0.168262
-0.136754
-0.094346
-0.049482
-0.027050
-0.079182
-0.135781
-0.176158
-0.193059
-0.234458
-0.313098
-0.364025
-0.369292
-0.379815
-0.382209
-0.378798
-0.375956
-0.327942
-0.296536
-0.250558
-0.170249
-0.141858
-0.102319
-0.073280
-0.051073
-0.040568
-0.056809
-0.110192
-0.132232
-0.243136
-0.359065
-0.358957
-0.352765
-0.359479
-0.439843
-0.443612
-0.350512
-0.345482
-0.273912
-0.242982
-0.205833
-0.170857
-0.109609
-0.066064
-0.071410
-0.093108
-0.119962
-0.139976
-0.166851
-0.215206
-0.279858
-0.321673
-0.346262
-0.359507
-0.376103
-0.391950
-0.373278
-0.323909
-0.261045
-0.237220
-0.208485
-0.145590
-0.136261
-0.118814
-0.110579
-0.119001
-0.127761
-0.138556
-0.174829
-0.210261
-0.237584
-0.252330
-0.266790
-0.294098
-0.308401
-0.261132
-0.206904
-0.159782
-0.111452
-0.062059
0.013075
0.072185
0.126860
0.188468
0.239243
0.267117
0.287928
0.290319
0.281821
0.272160
0.274395
0.269063
0.282141
0.298286
0.350252
0.384381
0.439132
0.457642
0.528998
0.586574
0.668774
0.720785
0.758443
0.742861
0.712646
0.682449
0.649816
0.591304
0.472947
0.356403
0.247205
0.135239
0.035919
-0.022188
-0.062729
-0.091235
-0.108971
-0.111154
-0.067441
-0.033662
0.008305
0.036788
0.059266
0.052539
0.052019
0.053445
0.009797
-0.034238
-0.075822
-0.141779
-0.180668
-0.245323
-0.265954
-0.288593
-0.302037
-0.294075
-0.277859
-0.249658
-0.237407
-0.177096
-0.111526
-0.062348
-0.012411
-0.015432
-0.036969
-0.031406
-0.040385
-0.070502
-0.104895
-0.174255
-0.222738
-0.286329
-0.330177
-0.330372
-0.314346
-0.276859
-0.289120
-0.307785
-0.271918
-0.201924
-0.206790
-0.148229
-0.110007
