0.035989
0.069185
0.133975
0.163083
0.192370
0.203398
0.193351
0.173005
0.146284
0.102858
0.046163
0.000100
-0.054878
-0.111042
-0.100506
-0.098081
-0.094142
-0.092525
-0.060407
-0.027723
0.014184
0.052643
0.138978
0.156503
0.179666
0.193936
0.189102
0.168967
0.129044
0.087033
0.035607
-0.012813
-0.065001
-0.096401
-0.115112
-0.125362
-0.121265
-0.111305
-0.074918
-0.039744
0.006931
0.022326
0.103760
0.132398
0.145444
0.163003
0.162026
0.131913
0.093713
0.050718
-0.004926
-0.043451
-0.099441
-0.102957
-0.124065
-0.144939
-0.153727
-0.133145
-0.116818
-0.073042
-0.032034
0.017893
0.068389
0.093643
0.105220
0.111018
0.103120
0.077599
0.043839
-0.005215
-0.052405
-0.091143
-0.132825
-0.161253
-0.172928
-0.175019
-0.177138
-0.168802
-0.137225
-0.100718
-0.052233
-0.008653
0.022312
0.063112
0.082495
0.099501
0.088439
0.071678
0.027856
-0.021240
-0.048053
-0.102870
-0.141199
-0.171477
-0.182146
-0.204467
-0.187142
-0.164342
-0.140444
-0.113916
-0.069573
-0.028562
0.009132
0.050373
0.104872
0.093204
0.085260
0.070761
0.029059
-0.007207
-0.059547
-0.106070
-0.154521
-0.189036
-0.211466
-0.208658
-0.201671
-0.188104
-0.153477
-0.110906
-0.082686
-0.037068
0.008285
0.040315
0.087746
0.095302
0.064080
0.046259
0.049271
-0.003121
-0.044373
-0.104211
-0.137959
-0.175055
-0.203115
-0.214024
-0.212429
-0.188706
-0.149077
-0.114769
-0.058429
-0.008700
0.027145
0.061536
0.087856
0.089887
0.082140
0.058242
0.022654
0.004205
-0.039664
-0.092207
-0.140931
-0.176690
-0.189838
-0.195947
-0.191757
-0.174435
-0.145812
-0.104824
-0.065420
-0.018718
0.029383
0.053150
0.095321
0.094371
0.080843
0.063434
0.023012
-0.020703
-0.066539
-0.113112
-0.132485
-0.149592
-0.164158
-0.176411
-0.184125
-0.170923
-0.138812
-0.101977
-0.059148
-0.010776
0.030774
0.059049
0.088228
0.104228
0.098325
0.074080
0.047783
0.002883
-0.055382
-0.102413
-0.140899
-0.178150
-0.208423
-0.199683
-0.188621
-0.168633
-0.129054
-0.109808
-0.064798
-0.010979
0.026197
0.067888
0.093282
0.093287
0.089381
0.062762
0.043233
-0.003449
-0.028175
-0.075567
-0.135124
-0.176982
-0.199829
-0.207476
-0.200440
-0.185429
-0.156493
-0.119768
-0.060377
-0.013754
0.020848
0.052952
0.082464
0.087080
0.086927
0.063231
0.019542
-0.005890
-0.039272
-0.080891
-0.134569
-0.165133
-0.197349
-0.207380
-0.205713
-0.190623
-0.155742
-0.121682
-0.074197
-0.020694
0.017899
0.063201
0.084800
0.089214
0.078098
0.060106
0.027364
-0.010653
-0.075363
-0.099996
-0.152384
-0.189124
-0.220367
-0.221916
-0.202622
-0.171887
-0.154236
-0.130954
-0.082263
-0.023678
0.023875
0.043666
0.085060
0.077783
0.078635
0.062297
0.022522
-0.017908
-0.056590
-0.097127
-0.138221
-0.184895
-0.199575
-0.198744
-0.192446
-0.189711
-0.163256
-0.131139
-0.083869
-0.028114
0.015691
0.036563
0.069778
0.072597
0.067857
0.055318
0.030511
-0.009140
-0.064596
-0.099245
-0.153949
-0.193301
-0.210439
-0.216817
-0.211427
-0.184847
-0.159283
-0.118558
-0.061904
0.017908
0.038676
0.049945
0.060818
0.066919
0.070505
0.053052
0.017132
-0.032637
-0.080201
-0.117347
-0.152237
-0.198416
-0.194980
-0.221265
-0.200786
-0.189765
-0.162989
-0.114562
-0.065806
-0.022826
0.014937
0.053821
0.075572
0.075686
0.072651
0.050969
0.022435
-0.013469
-0.064811
-0.110297
-0.158437
-0.185534
-0.209916
-0.222557
-0.219173
-0.210067
-0.164408
-0.130885
-0.093388
-0.048048
0.010622
0.048761
0.060636
0.073546
0.091348
0.066111
0.029037
-0.016814
-0.063289
-0.108754
-0.154018
-0.187570
-0.204546
-0.213407
-0.199076
-0.189709
-0.160019
-0.126458
-0.084584
-0.026410
0.008173
0.053570
0.083094
0.085427
0.084196
0.069690
0.032244
0.007447
-0.044960
-0.095338
-0.127996
-0.165833
-0.171611
-0.177218
-0.188023
-0.171419
-0.098337
-0.073580
-0.057804
0.004386
0.043815
0.087023
0.118172
0.125062
0.123480
0.092390
0.056318
0.012160
-0.017400
-0.081022
-0.129536
-0.149455
-0.162682
-0.181077
-0.179187
-0.151220
-0.125930
-0.096493
-0.042290
0.012020
0.054189
0.096272
0.106024
0.118319
0.131552
0.100202
0.072884
0.028008
-0.003537
-0.047415
-0.083577
-0.123114
-0.142263
-0.141661
-0.146850
-0.132612
-0.120892
-0.084199
-0.041104
-0.004290
0.036271
0.093742
0.117051
0.114157
0.102250
0.082842
0.046173
0.010555
-0.035296
-0.083079
-0.131254
-0.171304
-0.197880
-0.208074
-0.201699
-0.190337
-0.158765
-0.122901
-0.072310
-0.016889
0.021473
0.064617
0.075379
0.078173
0.071926
0.047464
0.027776
-0.019656
-0.077006
-0.116328
-0.151919
-0.201463
-0.209198
-0.234343
-0.222795
-0.211590
-0.171132
-0.118834
-0.087919
-0.040196
-0.011714
0.029684
0.053526
0.059258
0.051873
0.033254
-0.001477
-0.034125
-0.081359
-0.127182
-0.166863
-0.194047
-0.212413
-0.234145
-0.232131
-0.207134
-0.172864
-0.144244
-0.091066
-0.043915
-0.005385
0.024018
0.049002
0.053186
0.044656
0.038394
0.014141
-0.032424
-0.081824
-0.124634
-0.162524
-0.200417
-0.221607
-0.229376
-0.235983
-0.221082
-0.175820
-0.143369
-0.102534
-0.062601
-0.031705
0.015925
0.042065
0.027917
0.069313
0.048694
0.002922
-0.045048
-0.079662
-0.126045
-0.160164
-0.207532
-0.230449
-0.228870
-0.214317
-0.203434
-0.167111
-0.133942
-0.102876
-0.059913
-0.013037
0.028050
0.032346
0.056018
0.062377
0.031692
-0.013219
-0.034260
-0.061941
-0.104780
-0.144525
-0.171167
-0.174127
-0.167831
-0.149549
-0.104990
-0.055462
-0.006745
0.047281
0.108435
0.185320
0.229036
0.266863
0.312534
0.347662
0.358281
0.351133
0.346902
0.331752
0.331103
0.332168
0.332289
0.339294
0.364026
0.415926
0.484656
0.544695
0.617995
0.687727
0.791202
0.849410
0.881024
0.906764
0.914615
0.875967
0.825779
0.775340
0.716321
0.645044
0.551990
0.450255
0.330144
0.235810
0.159832
0.113713
0.083774
0.072021
0.093227
0.124845
0.147120
0.188653
0.221179
0.218654
0.203775
0.201547
0.188991
0.139554
0.087894
0.038163
-0.021081
-0.060884
-0.103208
-0.128549
-0.166325
-0.138276
-0.113218
-0.089538
-0.055266
-0.014659
0.034858
0.061185
0.112555
0.129514
0.134429
0.122183
0.094773
0.057543
0.025886
-0.024911
-0.079571
-0.106711
-0.147237
-0.173208
-0.191236
-0.192435
-0.178593
-0.140357
-0.096639
-0.046652
0.005316
0.044702
0.075687
0.097350
0.112377
0.097152
0.078713
0.043037
0.005645
-0.031264
-0.081384
-0.119471
-0.152717
-0.188400
-0.189901
-0.175123
-0.156541
-0.121199
-0.093978
-0.051569
-0.007962
0.064688
0.071106
0.086236
0.087053
0.104881
0.088452
0.065694
0.004647
-0.027990
-0.071960
-0.104176
-0.156432
-0.177351
-0.182029
-0.169480
-0.144542
-0.097605
-0.060072
-0.031040
0.014850
0.042378
0.105610
0.133836
0.147679
0.119066
0.094589
0.064706
0.027422
-0.007620
-0.062001
-0.105459
-0.123256
-0.150426
-0.169905
-0.150425
-0.116374
-0.087805
-0.047302
-0.007467
0.039260
0.072610
0.113357
0.141521
0.140667
0.130764
0.105491
0.076969
0.045642
0.036802
0.001308
-0.032739
-0.071686
-0.109464
-0.120582
-0.104996
-0.085697
-0.057431
-0.023030
0.025204
0.078947
0.111364
0.151718
0.172366
0.193727
0.174461
0.159685
0.133950
0.093104
0.058726
0.011829
-0.030433
-0.057073
-0.084864
-0.096337
-0.078445
-0.065132
-0.038025
0.001427
0.035979
0.088167
0.121313
0.150849
0.202452
0.250428
0.229723
0.189708
0.159368
0.118911
0.070855
0.018948
-0.020424
-0.049694
-0.062476
-0.076478
-0.070641
-0.050686
-0.022509
0.019791
0.053005
0.102274
0.147128
0.167521
0.190926
0.219865
0.210917
0.172007
0.132720
0.079021
0.045465
0.010827
-0.024007
-0.055611
-0.077709
-0.087446
-0.076837
-0.059732
-0.037867
-0.004072
0.031855
0.056469
0.132728
0.159284
0.172149
0.186558
0.180093
0.167210
0.144179
0.099966
0.061785
0.004486
-0.049425
-0.091853
-0.109817
-0.112096
-0.114438
-0.096373
-0.071349
-0.031627
0.009458
0.050254
0.101847
0.140994
0.147263
0.158002
0.143085
0.126440
0.097141
0.054173
0.007467
-0.040075
-0.084059
-0.116260
-0.158769
-0.177083
-0.140785
-0.141342
-0.120490
-0.082256
-0.036225
0.030311
0.079778
0.089385
0.092942
0.113091
0.146455
0.107300
0.054474
0.007754
-0.008022
-0.068642
-0.112455
-0.143233
-0.182003
-0.200914
-0.168152
-0.151371
-0.124929
-0.085498
-0.070455
-0.017453
0.034204
0.075322
0.098546
0.112861
0.088439
0.061610
0.018851
-0.017500
-0.048439
-0.062008
-0.089818
-0.128838
-0.179846
-0.201764
-0.197889
-0.174728
-0.137923
-0.086748
-0.044086
0.004871
0.033246
0.065834
0.089290
0.101414
0.089279
0.066737
0.037810
-0.002538
-0.039206
-0.083817
-0.128419
-0.163824
-0.181358
-0.191933
-0.189171
-0.168594
-0.135138
-0.100158
-0.058312
0.000049
0.041930
0.088351
0.111870
0.112274
0.120201
0.094237
0.050596
0.003484
-0.033379
-0.076062
-0.119970
-0.163024
-0.171949
-0.173007
-0.178455
-0.163722
-0.119605
-0.095186
-0.050390
0.015294
0.048640
0.080448
0.115495
0.103655
0.105826
0.079702
0.044836
-0.012833
-0.036290
-0.079679
-0.115555
-0.146205
-0.193588
-0.189414
-0.149030
-0.125645
-0.100811
-0.066235
-0.050774
0.000980
0.052472
0.080374
0.113513
0.116966
0.100238
0.078973
0.081211
0.028156
-0.023070
-0.064480
-0.102924
-0.156513
-0.183992
-0.181821
-0.172940
-0.143589
-0.129942
-0.076740
-0.031835
0.015405
0.059725
0.084722
0.101902
0.098264
0.101240
0.080780
0.037723
0.008423
-0.025224
-0.069920
-0.109665
-0.140268
-0.165619
-0.180046
-0.180568
-0.167492
-0.130573
-0.069404
-0.046863
0.007573
0.048415
0.081121
0.097368
0.100949
0.100918
0.084955
0.051515
0.002605
-0.039692
-0.077038
-0.116819
-0.151250
-0.169322
-0.181497
-0.171319
-0.149173
-0.116773
-0.079685
-0.043016
-0.005354
0.049328
0.066115
0.083196
0.085669
0.083829
0.056206
0.033148
0.013831
-0.029452
-0.081518
-0.116598
-0.142349
-0.179666
-0.187327
-0.188559
-0.165677
-0.142939
-0.121242
-0.055999
-0.001740
0.039125
0.072305
0.084979
0.094481
0.097778
0.078605
0.046720
-0.001164
-0.048913
-0.092980
-0.135727
-0.181481
-0.203787
-0.217021
-0.191046
-0.166351
-0.131290
-0.093226
-0.032141
0.006490
0.045506
0.079955
0.088124
0.082356
0.081593
0.070020
0.017905
-0.012299
-0.059568
-0.116093
-0.147317
-0.165978
-0.196125
-0.196786
-0.201157
-0.174619
-0.127607
-0.089231
-0.063213
-0.028315
0.023351
0.056419
0.064000
0.080661
0.076813
0.082272
0.061137
0.016809
-0.052615
-0.101389
-0.155250
-0.184907
-0.206078
-0.209466
-0.185649
-0.156672
-0.133193
-0.101195
-0.066830
-0.030460
0.025317
0.058128
0.079032
0.090324
0.076433
0.065425
0.026936
-0.013974
-0.042129
-0.097664
-0.139806
-0.196048
-0.217773
-0.197914
-0.195612
-0.175615
-0.146219
-0.125259
-0.066641
-0.000307
0.036719
0.064418
0.085901
0.087559
0.077940
0.058576
0.027967
0.000079
-0.059234
-0.095768
-0.142768
-0.173644
-0.213891
-0.193257
-0.186443
-0.181405
-0.154713
-0.117257
-0.062842
0.003049
0.029565
0.064613
0.097528
0.096970
0.079163
0.060593
0.021448
-0.018688
-0.056684
-0.097306
-0.145400
-0.180331
-0.202563
-0.204901
-0.193544
-0.165550
-0.131861
-0.086512
-0.057076
-0.020987
0.012556
0.045741
0.075307
0.077971
0.068899
0.057945
0.022772
-0.012289
-0.056557
-0.100609
-0.161624
-0.200190
-0.220112
-0.209451
-0.153694
-0.154104
-0.147558
-0.103262
-0.065019
-0.026445
0.023114
0.058659
0.078717
0.100978
0.086356
0.063880
0.028777
-0.024890
-0.058520
-0.080208
-0.120519
-0.170628
-0.195268
-0.205976
-0.196968
-0.176928
-0.154435
-0.123507
-0.058685
-0.003751
0.038930
0.069243
0.078541
0.080219
0.066395
0.024811
0.024644
0.023136
-0.031079
-0.079591
-0.145965
-0.171143
-0.195228
-0.228695
-0.204628
-0.158691
-0.141770
-0.110993
-0.069337
-0.022942
0.020667
0.055719
0.075223
0.077559
0.076904
0.053269
0.019394
-0.018343
-0.049868
-0.082196
-0.146667
-0.177743
-0.194881
-0.196181
-0.192183
-0.171231
-0.142883
-0.106191
-0.033305
-0.001239
0.045961
0.085153
0.106477
0.118527
0.111404
0.086772
0.059017
0.017247
-0.022853
-0.051393
-0.091873
-0.135228
-0.156415
-0.165751
-0.174651
-0.156483
-0.121590
-0.073765
-0.006964
0.028654
0.060686
0.096715
0.114251
0.108174
0.102026
0.060376
0.089893
0.054242
-0.001427
-0.039473
-0.081913
-0.109058
-0.138544
-0.134022
-0.104920
-0.091365
-0.078365
-0.047417
0.005092
0.036294
0.078120
0.112686
0.134795
0.154527
0.152914
0.111289
0.077613
0.038596
-0.016099
-0.073306
-0.117257
-0.148388
-0.175307
-0.188476
-0.144587
-0.137723
-0.122099
-0.103042
-0.052321
-0.006886
0.042140
0.093526
0.094360
0.113984
0.100753
0.075698
0.056546
0.020457
-0.038542
-0.086871
-0.151233
-0.179380
-0.199565
-0.197685
-0.172127
-0.168698
-0.152824
-0.119319
-0.076679
-0.029069
0.039921
0.072510
0.084152
0.088993
0.068012
0.044023
0.021577
-0.027694
-0.072734
-0.094007
-0.137677
-0.174527
-0.198643
-0.211384
-0.202082
-0.213926
-0.175938
-0.114260
-0.049937
-0.045036
-0.007979
0.021966
0.039918
0.058586
0.058594
0.054099
-0.004587
-0.011044
-0.053981
-0.091407
-0.136291
-0.164213
-0.185860
-0.203534
-0.199980
-0.173749
-0.147468
-0.111526
-0.068275
-0.034247
0.012711
0.052294
0.073854
0.071569
0.062079
0.042680
0.031702
-0.012867
-0.066049
-0.100361
-0.161053
-0.189448
-0.206539
-0.217861
-0.214776
-0.185189
-0.154530
-0.121218
-0.077298
-0.027073
0.018800
0.057800
0.079004
0.090744
0.072319
0.045311
0.014358
-0.025446
-0.082199
-0.116474
-0.165003
-0.205994
-0.217550
-0.232828
-0.219604
-0.167979
-0.139733
-0.099683
-0.065153
0.018311
0.094354
0.117661
0.164733
0.168027
0.186711
0.178006
0.155537
0.132782
0.111810
0.077191
0.050786
0.055968
0.081869
0.104309
0.136576
0.194404
0.275064
0.349749
0.425726
0.512160
0.578815
0.637599
0.682542
0.728577
0.771057
0.849216
0.829373
0.783662
0.768548
0.731176
0.701596
0.682252
0.638442
0.596720
0.583899
0.592797
0.594724
0.585414
0.560170
0.547614
0.519484
0.489021
0.449489
0.401199
0.339124
0.288995
0.221913
0.198004
0.134127
0.083490
0.027871
-0.021402
-0.026819
-0.021178
-0.039870
-0.040621
-0.038391
0.008788
0.058171
0.095696
0.109494
0.153243
0.206031
0.208160
0.162056
0.132785
0.097986
0.065587
0.021537
-0.026423
-0.062744
-0.093613
-0.124387
-0.138876
-0.130096
-0.117149
-0.084881
-0.038114
0.008216
0.051392
0.095122
0.114561
0.129189
0.132631
0.117308
0.102994
0.073176
0.038178
-0.013390
-0.062339
-0.109586
-0.151893
-0.146524
-0.165555
-0.138032
-0.128153
-0.087834
-0.046010
0.004136
0.054071
0.085971
0.123382
0.131820
0.133982
0.123806
0.094976
0.079767
0.048060
-0.012592
-0.059475
-0.111650
-0.143828
-0.160940
-0.156118
-0.137903
-0.136791
-0.092216
-0.060267
-0.001680
0.053775
0.078100
0.109098
0.149302
0.165495
0.139725
0.133766
0.109790
0.076891
0.025910
-0.025938
-0.036541
-0.083634
-0.110743
-0.114512
-0.105338
-0.094807
-0.060500
-0.015769
0.034227
0.069734
0.108636
0.140634
0.168207
0.180954
0.172412
0.160354
0.135668
0.102643
0.045793
-0.003916
-0.043158
-0.075155
-0.089432
-0.088065
-0.079793
-0.067234
-0.044904
0.003952
0.048552
0.106435
0.151125
0.187601
0.206829
0.213918
0.206665
0.191759
0.157911
0.113026
0.080556
0.030992
-0.014127
-0.034842
-0.046105
-0.066610
-0.065898
-0.033234
-0.005673
0.041885
0.088847
0.131243
0.166043
0.184018
0.212501
0.241865
0.241413
0.220541
0.175516
0.128732
0.089586
0.050450
0.031015
-0.005153
-0.025458
-0.034830
-0.025034
0.007066
0.040005
0.068170
0.102398
0.137109
0.190523
0.263452
0.272216
0.261278
0.229985
0.208222
0.190493
0.162249
0.122875
0.070358
0.028854
0.002672
-0.003651
-0.027848
-0.026490
-0.013647
0.023591
0.063062
0.107710
0.151367
0.182800
0.224353
0.233868
0.246067
0.226894
0.205855
0.172387
0.138478
0.067494
0.042036
-0.002818
-0.033814
-0.052903
-0.068038
-0.041320
-0.016800
-0.004741
0.016053
0.074947
0.117988
0.159351
0.194838
0.221797
0.236182
0.226291
0.200833
0.158654
0.115992
0.064519
0.009970
-0.021900
-0.059590
-0.077167
-0.085523
-0.087055
-0.068882
-0.046261
-0.009384
0.034716
0.081945
0.123432
0.150429
0.175432
0.175630
0.166980
0.155617
0.120421
0.071325
0.021314
-0.020686
-0.055652
-0.089902
-0.110357
-0.121879
-0.116455
-0.101914
-0.072337
-0.030110
0.015394
0.062328
0.093224
0.122561
0.137102
0.131190
0.137409
0.129531
0.092065
0.047288
0.004996
-0.032549
-0.068623
-0.109867
-0.141141
-0.144076
-0.135304
-0.122211
-0.089500
-0.048055
-0.005203
0.045432
0.077040
0.108189
0.103678
0.122952
0.127044
0.088330
0.062335
0.049315
0.005366
-0.049531
-0.080765
-0.115903
-0.145947
-0.146077
-0.158619
-0.078806
-0.057011
-0.042188
-0.005253
0.030386
0.075037
0.110646
0.127388
0.148404
0.156128
0.119624
0.064447
0.042748
0.004239
-0.035184
-0.071744
-0.104642
-0.130982
-0.137441
-0.143566
-0.122302
-0.084441
-0.042485
0.011528
0.052062
0.086830
0.127171
0.138920
0.148353
0.143502
0.133271
0.086224
0.043342
-0.002523
-0.031710
-0.085907
-0.138789
-0.140954
-0.129411
-0.138831
-0.136278
-0.089124
-0.045175
0.009836
0.055253
0.085892
0.151744
0.180969
0.154727
0.144462
0.123081
0.083564
0.041538
0.023173
-0.014700
-0.065875
-0.115763
-0.132345
-0.142348
-0.127575
-0.106978
-0.074334
-0.037295
0.001981
0.050249
0.088224
0.119955
0.159305
0.160431
0.156058
0.129584
0.096758
0.066327
0.009613
-0.041593
-0.073898
-0.104705
-0.123259
-0.120763
-0.118870
-0.105387
-0.075095
-0.037794
0.002506
0.037944
0.052083
0.131353
0.187280
0.177258
0.157323
0.109124
0.087692
0.057251
-0.004354
-0.036880
-0.053181
-0.086366
-0.126552
-0.130856
-0.157363
-0.120309
-0.101420
-0.029260
0.011263
0.059192
0.097823
0.118562
0.143201
0.146816
0.133406
0.130090
0.086973
0.037660
-0.004410
-0.048209
-0.077772
-0.126504
-0.154445
-0.172804
-0.125052
-0.117542
-0.088274
-0.048251
0.003395
0.055851
0.076392
0.109964
0.127942
0.135976
0.130191
0.105421
0.080865
0.044318
-0.009449
-0.081568
-0.104138
-0.119221
-0.130842
-0.139843
-0.142200
-0.131999
-0.107479
-0.061668
-0.006703
0.031778
0.075471
0.104160
0.125049
0.134330
0.138600
0.120145
0.085669
0.047334
0.006989
-0.036054
-0.085602
-0.123503
-0.164033
-0.165316
-0.158760
-0.139645
-0.094282
-0.047226
-0.004670
0.029785
0.077062
0.096286
0.113704
0.131261
0.138754
0.106310
0.076462
0.031659
-0.021659
-0.069992
-0.114494
-0.144458
-0.158823
-0.158516
-0.158597
-0.134760
-0.084798
-0.056857
-0.005051
0.029631
0.056023
0.079136
0.120418
0.125739
0.141129
0.111425
0.079537
0.037366
-0.015915
-0.060211
-0.105337
-0.162138
-0.175233
-0.145615
-0.136036
-0.140394
-0.111630
-0.065732
-0.023782
0.042301
0.076808
0.101278
0.120929
0.117414
0.122408
0.094471
0.055725
0.022848
-0.011385
-0.048506
-0.092842
-0.129676
-0.148231
-0.141863
-0.138807
-0.119375
-0.106429
-0.058903
-0.017389
0.018984
0.060582
0.072835
0.104087
0.125316
0.124387
0.099732
0.071749
0.018681
-0.016623
-0.057235
-0.116695
-0.147743
-0.137352
-0.156195
-0.148053
-0.145236
-0.131911
-0.080674
-0.014242
0.049340
0.088434
0.105906
0.118078
0.119015
0.117506
0.082631
0.039193
-0.005249
-0.038109
-0.080989
-0.088505
-0.131718
-0.151306
-0.153195
-0.150175
-0.137315
-0.101986
-0.062090
-0.012356
0.024174
0.064504
0.097897
0.089243
0.155473
0.127053
0.090515
0.067742
0.028839
-0.031946
-0.066979
-0.098489
-0.142033
-0.161803
-0.170748
-0.160091
-0.133277
-0.105902
-0.066110
-0.016541
0.015652
0.074846
0.096618
0.120188
0.136332
0.114422
0.080535
0.075232
0.049939
-0.008062
-0.062212
-0.098986
-0.128999
-0.144667
-0.160703
-0.163400
-0.152203
-0.112521
-0.062285
-0.003367
0.033680
0.082108
0.122617
0.135722
0.148363
0.146454
0.127996
0.090746
0.053136
-0.003741
-0.043029
-0.064165
-0.091674
-0.131691
-0.156850
-0.116477
-0.075864
-0.049123
-0.011766
0.017552
0.064339
0.106184
0.126665
0.141346
0.153954
0.136355
0.124971
0.106243
0.059249
0.012963
-0.021909
-0.061028
-0.077923
-0.105203
-0.110368
-0.109446
-0.078460
-0.045354
-0.001261
0.041473
0.078353
0.106392
0.144207
0.194278
0.178735
0.171781
0.138520
0.099007
0.054640
0.046138
-0.003366
-0.060922
-0.082657
-0.117630
-0.125308
-0.122507
-0.091767
-0.064255
-0.019410
0.003474
0.020727
0.055695
0.082853
0.148931
0.175638
0.147205
0.109426
0.083221
0.032620
-0.008507
-0.059477
-0.105037
-0.134369
-0.154236
-0.157647
-0.153524
-0.126094
-0.095707
-0.054181
-0.015431
0.014944
0.061034
0.090096
0.105497
0.113711
0.102818
0.082538
0.050677
0.005079
-0.042768
-0.081466
-0.132898
-0.151181
-0.173424
-0.165032
-0.183364
-0.175168
-0.130969
-0.094725
-0.057551
0.005355
0.064797
0.106186
0.106030
0.113115
0.112750
0.073394
0.037324
-0.009181
-0.047131
-0.089833
-0.152733
-0.153430
-0.183975
-0.192042
-0.195761
-0.170230
-0.142437
-0.092386
-0.037185
-0.007458
0.068283
0.089181
0.114427
0.107433
0.084917
0.068210
0.050831
0.018111
-0.020220
-0.077296
-0.125293
-0.151040
-0.184227
-0.194332
-0.190104
-0.170136
-0.128489
-0.086270
-0.052581
-0.017607
0.040160
0.069582
0.088507
0.103281
0.097808
0.078763
0.040813
-0.000747
-0.052571
-0.097954
-0.146946
-0.156078
-0.178122
-0.190134
-0.185046
-0.178907
-0.139608
-0.085782
-0.039709
0.025611
0.082011
0.116138
0.155007
0.178056
0.178853
0.188403
0.172630
0.128572
0.104711
0.078958
0.068457
0.064055
0.040164
0.066256
0.112155
0.164057
0.239792
0.310600
0.379943
0.471659
0.560448
0.610037
0.649132
0.717738
0.772996
0.767080
0.748897
0.736135
0.705801
0.745945
0.707575
0.662339
0.633297
0.623883
0.614072
0.609293
0.617738
0.625670
0.640480
0.621276
0.583166
0.555853
0.526101
0.485952
0.415355
0.343833
0.250434
0.210161
0.166364
0.103667
0.054763
0.013059
-0.011079
-0.034746
-0.040474
-0.018554
0.003282
0.035675
0.076783
0.115600
0.130601
0.184723
0.187836
0.198064
0.189075
0.178745
0.132574
0.073272
0.027603
-0.003654
-0.057510
-0.101374
-0.110580
-0.106565
-0.096635
-0.097777
-0.063991
-0.037659
0.016920
0.067253
0.110422
0.109307
0.139753
0.144261
0.136529
0.131162
0.133353
0.068321
-0.019085
-0.058277
-0.083008
-0.110251
-0.131381
-0.129754
-0.119358
-0.134873
-0.074653
-0.035761
0.004415
0.036997
0.082027
0.118446
0.136482
0.137478
0.138399
0.127446
0.092230
0.056714
-0.005915
-0.038915
-0.072092
-0.115658
-0.129593
-0.141025
-0.158875
-0.116678
-0.051852
0.004401
0.048431
0.069752
0.107033
0.144943
0.151848
0.155459
0.146736
0.137376
0.103019
0.046629
0.017864
-0.011478
-0.052936
-0.084627
-0.107926
-0.108123
-0.100582
-0.078103
-0.050356
-0.011582
0.035788
0.075172
0.111055
0.138666
0.190876
0.205084
0.202190
0.167487
0.127292
0.103222
0.054506
-0.007792
-0.048822
-0.070960
-0.098388
-0.083459
-0.068387
-0.015772
0.000488
0.023808
0.077160
0.114594
0.135475
0.160526
0.197354
0.213362
0.214324
0.199367
0.172184
0.123958
0.070959
0.018573
-0.017536
-0.040538
-0.060125
-0.072045
-0.052118
-0.034552
0.006762
0.063177
0.109034
0.148323
0.177359
0.213002
0.244886
0.241912
0.244344
0.235917
0.204340
0.155563
0.111916
0.058423
0.002826
-0.011643
-0.014700
-0.017566
-0.017701
0.008403
0.034245
0.064278
0.114075
0.170971
0.195733
0.230401
0.249257
0.253695
0.244962
0.222340
0.187476
0.164917
0.147849
0.097712
0.026738
-0.025423
-0.008182
-0.034245
-0.036964
0.018665
0.039271
0.075713
0.122101
0.152223
0.186191
0.217148
0.241273
0.257727
0.212353
0.175574
0.165480
0.144514
0.108401
0.056168
0.011237
-0.028598
-0.058726
-0.051442
-0.049607
-0.032413
-0.000442
0.032132
0.068870
0.126169
0.174029
0.189860
0.192789
0.193998
0.191083
0.170953
0.139554
0.116043
0.069556
0.010667
-0.042894
-0.080105
-0.073244
-0.075775
-0.063451
-0.066135
-0.011908
0.009311
0.035973
0.084479
0.123281
0.152810
0.174144
0.179045
0.166419
0.154971
0.130497
0.062576
0.005788
-0.038223
-0.082353
-0.119891
-0.159630
-0.129269
-0.098915
-0.088927
-0.077852
0.009168
0.039376
0.066288
0.113017
0.137969
0.139189
0.151711
0.137002
0.110340
0.076587
0.041930
-0.019174
-0.051210
-0.095872
-0.138554
-0.146928
-0.141563
-0.142223
-0.120311
-0.089719
-0.056820
-0.010847
0.033423
0.070298
0.092922
0.103490
0.119959
0.124824
0.105908
0.083893
0.039317
-0.019778
-0.073734
-0.100487
-0.126045
-0.133318
-0.143606
-0.153569
-0.138545
-0.098596
-0.055280
-0.012711
0.032492
0.083194
0.107170
0.111514
0.118408
0.115777
0.093374
0.067569
0.037115
-0.014496
-0.064580
-0.068852
-0.099509
-0.131417
-0.149895
-0.153142
-0.141505
-0.120545
-0.073740
0.005245
0.048846
0.088624
0.129134
0.139824
0.154526
0.158123
0.120018
0.076369
0.033297
-0.013646
-0.053502
-0.095107
-0.139476
-0.160879
-0.162694
-0.115451
-0.067148
-0.068093
-0.041000
0.003278
0.048191
0.100185
0.131901
0.133261
0.139584
0.127705
0.106507
0.079748
0.064820
0.012923
-0.063772
-0.106021
-0.125944
-0.144884
-0.134823
-0.122258
-0.095047
-0.089671
-0.038309
0.014889
0.054611
0.089614
0.123427
0.167192
0.167371
0.130633
0.113377
0.089516
0.029571
-0.011229
-0.033898
-0.082562
-0.121296
-0.126602
-0.144347
-0.142748
-0.131148
-0.095290
-0.044424
-0.003046
0.053714
0.087024
0.125613
0.151034
0.133534
0.134132
0.109961
0.080922
0.045264
0.009011
-0.030910
-0.083625
-0.111182
-0.129462
-0.142396
-0.142039
-0.110562
-0.081294
-0.055898
-0.006154
0.052901
0.111625
0.128709
0.129250
0.133255
0.129084
0.094999
0.077225
0.045446
-0.005755
-0.052609
-0.088922
-0.114721
-0.137806
-0.156662
-0.156088
-0.120915
-0.093136
-0.061453
-0.011360
0.027691
0.060517
0.090066
0.124418
0.161982
0.156728
0.116369
0.078077
0.039109
-0.007051
-0.057030
-0.099867
-0.140677
-0.159561
-0.163850
-0.158334
-0.126598
-0.092598
-0.058675
-0.010346
0.047411
0.080501
0.103581
0.126528
0.115439
0.108379
0.069076
0.049539
0.007196
-0.027528
-0.044296
-0.073820
-0.114804
-0.114695
-0.137404
-0.154556
-0.139530
-0.107780
-0.047875
0.002545
0.025713
0.072341
0.107359
0.116917
0.113720
0.110346
0.088931
0.066283
0.012060
-0.036351
-0.072871
-0.122761
-0.182952
-0.143091
-0.148753
-0.144225
-0.127246
-0.080178
-0.035246
-0.020382
-0.002880
0.059582
0.092842
0.116566
0.122676
0.101935
0.086752
0.038329
-0.015705
-0.034933
-0.091211
-0.147458
-0.122477
-0.149716
-0.084617
-0.117424
-0.118215
-0.088231
-0.044837
-0.005432
0.037568
0.069434
0.105761
0.107437
0.113243
0.098511
0.064995
0.050269
-0.002988
-0.058409
-0.055631
-0.100895
-0.145547
-0.180859
-0.201961
-0.178932
-0.124069
-0.091866
-0.056718
-0.016621
0.008287
0.046571
0.099907
0.112447
0.115302
0.093982
0.099470
0.070063
0.015259
-0.044329
-0.081408
-0.099728
-0.140623
-0.163544
-0.168442
-0.159196
-0.125398
-0.085897
-0.042872
-0.000876
0.029061
0.081654
0.095412
0.093331
0.109697
0.099331
0.079083
0.059131
-0.008108
-0.004644
-0.025410
-0.077770
-0.098266
-0.113950
-0.144142
-0.139214
-0.106015
-0.084032
-0.047609
-0.015988
0.040900
0.079122
0.117713
0.151042
0.156905
0.149283
0.113507
0.081593
0.043789
0.003994
-0.041658
-0.070286
-0.069395
-0.106022
-0.123206
-0.123220
-0.099170
-0.067644
-0.029021
0.015598
0.062150
0.085481
0.116363
0.141480
0.158246
0.146160
0.172632
0.115292
0.070875
0.052130
-0.021227
-0.078604
-0.102777
-0.094354
-0.094213
-0.083706
-0.065868
-0.050723
-0.005926
0.031053
0.071688
0.124525
0.133519
0.169033
0.200570
0.174485
0.122286
0.116211
0.087419
0.027128
-0.046420
-0.092305
-0.130133
-0.160330
-0.156367
-0.163635
-0.163732
-0.136178
-0.067800
-0.016439
0.056090
0.105497
0.132178
0.141285
0.129990
0.114497
0.090759
0.078291
0.036732
-0.025868
-0.077339
-0.120262
-0.154875
-0.176403
-0.179292
-0.183044
-0.143926
-0.132601
-0.113946
-0.033764
0.036069
0.064975
0.090488
0.107707
0.129727
0.114171
0.079160
0.047629
-0.006473
-0.048072
-0.087831
-0.121966
-0.150634
-0.168081
-0.181100
-0.172944
-0.161978
-0.126693
-0.079353
-0.051026
-0.006303
0.042667
0.064589
0.106790
0.113499
0.100976
0.071979
0.033309
-0.005055
-0.056224
-0.094517
-0.139142
-0.190451
-0.223595
-0.180774
-0.188889
-0.152150
-0.103096
-0.068120
-0.050818
-0.005121
0.041638
0.081496
0.105259
0.106270
0.096899
0.071845
0.046083
-0.004859
-0.058289
-0.112926
-0.141807
-0.168832
-0.189677
-0.196328
-0.188280
-0.168231
-0.123910
-0.060547
-0.028481
0.002229
0.037002
0.064206
0.083865
0.072608
0.068974
0.060614
0.028118
-0.008618
-0.056109
-0.093973
-0.125466
-0.158403
-0.149802
-0.131143
-0.105581
-0.069502
0.005065
0.065720
0.132798
0.159507
0.202205
0.272613
0.309592
0.333443
0.356798
0.344348
0.336597
0.317979
0.324618
0.322098
0.326611
0.349085
0.351551
0.390751
0.420235
0.478478
0.555447
0.631295
0.708409
0.747798
0.835006
0.873982
0.876854
0.860598
0.881684
0.843562
0.805301
0.751940
0.670809
0.562941
0.458294
0.360865
0.270159
0.224704
0.199583
0.170430
0.143537
0.155410
0.161082
0.175882
0.207618
0.239362
0.245136
0.278477
0.250851
0.192621
0.200603
0.162905
0.093948
0.023403
-0.024896
-0.052047
-0.072538
-0.076466
-0.077356
-0.065077
-0.041074
-0.002049
0.036709
0.062631
0.098090
0.159722
0.171836
0.166845
0.157937
0.137837
0.094772
0.058323
0.015253
-0.029082
-0.068526
-0.111319
-0.142316
-0.151566
-0.145077
-0.097410
-0.046955
-0.010106
0.010523
0.037858
0.059037
0.100093
0.126216
0.166146
0.170918
0.134424
0.082558
0.036306
-0.001019
-0.050879
-0.096468
-0.133066
-0.161431
-0.145065
-0.140705
-0.132101
-0.100506
-0.044490
0.017914
0.082610
0.080127
0.102795
0.140531
0.157591
0.146346
0.112957
0.079744
0.044440
0.000692
-0.069675
-0.075991
-0.061042
-0.084714
-0.100332
-0.108305
-0.094736
-0.069586
-0.026006
0.020591
0.081431
0.127405
0.161248
0.172309
0.180294
0.183138
0.149577
0.110788
0.062390
0.021947
-0.012762
-0.061522
-0.083081
-0.094692
-0.105420
-0.098996
-0.080682
-0.046946
0.011802
0.056022
0.104760
0.119243
0.164040
0.191575
0.185693
0.157143
0.159237
0.127200
0.115347
0.065959
0.032342
-0.007031
-0.054628
-0.071788
-0.058277
-0.065896
-0.046310
-0.017249
0.039365
0.059729
0.115917
0.169549
0.194045
0.229396
0.233136
0.228307
0.215497
0.193480
0.132573
0.087476
0.046810
0.017478
-0.028749
-0.066739
-0.089952
-0.031028
0.027781
0.066802
0.109193
0.133450
0.172952
0.217047
0.243717
0.249090
0.243294
0.247104
0.230869
0.184421
0.134848
0.095227
0.073560
0.019410
-0.027017
-0.046601
-0.016837
0.000742
0.010028
0.034215
0.073469
0.125686
0.179833
0.209067
0.244851
0.262301
0.259946
0.246992
0.223858
0.191326
0.158358
0.104482
0.062093
0.018962
-0.026405
-0.039369
-0.027868
-0.033028
-0.011577
0.016017
0.055188
0.091059
0.147693
0.193215
0.231379
0.243709
0.236581
0.228297
0.198979
0.157495
0.121614
0.079079
0.022997
-0.017289
-0.051603
-0.075940
-0.073212
-0.060350
-0.044810
-0.003956
0.018768
0.064532
0.103198
0.152195
0.175503
0.199388
0.214143
0.177400
0.147468
0.129434
0.085159
0.025681
-0.043983
-0.084348
-0.076008
-0.103577
-0.088848
-0.082808
-0.045764
-0.032922
-0.002789
0.022193
0.051605
0.088831
0.117291
0.145300
0.156584
0.136345
0.122153
0.130488
0.117623
0.020113
-0.054904
-0.097307
-0.131964
-0.154924
-0.155465
-0.145879
-0.105336
-0.074317
-0.054578
-0.013438
0.038513
0.084282
0.123135
0.144717
0.140457
0.132065
0.104748
0.065014
0.024741
-0.021964
-0.067862
-0.111594
-0.129409
-0.138197
-0.156855
-0.145571
-0.142171
-0.107698
-0.058837
-0.013027
0.025836
0.066412
0.101709
0.117519
0.121337
0.122796
0.101490
0.070547
0.025262
-0.024300
-0.066018
-0.107470
-0.133952
-0.154224
-0.153933
-0.145332
-0.127695
-0.119936
-0.057711
-0.004608
0.033896
0.049152
0.082332
0.144062
0.171181
0.142297
0.115728
0.099990
0.049401
-0.007194
-0.066026
-0.095167
-0.145078
-0.155121
-0.133955
-0.152119
-0.097618
-0.075176
-0.063128
-0.030835
0.056151
0.090940
0.118264
0.142289
0.120301
0.131903
0.147036
0.115642
0.066620
-0.002613
-0.055186
-0.109146
-0.133543
-0.155141
-0.161270
-0.147771
-0.139054
-0.123514
-0.053480
-0.020541
0.020453
0.061565
0.105323
0.134433
0.134176
0.132121
0.124077
0.101828
0.059841
0.040254
-0.040408
-0.092996
-0.130602
-0.138213
-0.136038
-0.134987
-0.094400
-0.046277
-0.035731
-0.022245
0.048002
0.093943
0.111278
0.112171
0.124703
0.115402
0.110764
0.084349
0.075879
0.052716
-0.048473
-0.113542
-0.118614
-0.133525
-0.147899
-0.124156
-0.127679
-0.082001
-0.033030
0.011855
0.047158
0.087375
0.112618
0.124273
0.135777
0.124401
0.112917
0.076169
0.044707
-0.001316
-0.053541
-0.099826
-0.134132
-0.170356
-0.176062
-0.151293
-0.140332
-0.109258
-0.040945
0.007752
0.046004
0.091299
0.115654
0.132442
0.132325
0.109662
0.092999
0.063500
0.014498
-0.034134
-0.093022
-0.124506
-0.155345
-0.183844
-0.152060
-0.112714
-0.117035
-0.084920
-0.012929
0.012122
0.024802
0.092199
0.118618
0.114416
0.120329
0.119002
0.114028
0.060250
0.005506
-0.032148
-0.070570
-0.128799
-0.158205
-0.144104
-0.163091
-0.168106
-0.135995
-0.120190
-0.044890
0.023032
0.050247
0.094429
0.114240
0.118702
0.120684
0.140855
0.108427
0.068940
0.015648
-0.029964
-0.070954
-0.131144
-0.157858
-0.158391
-0.184278
-0.184813
-0.158253
-0.105380
-0.076695
-0.051867
0.009779
0.092360
0.143646
0.149666
0.139021
0.107301
0.067934
0.021153
-0.018652
-0.050278
-0.090945
-0.108078
-0.141350
-0.165163
-0.189693
-0.153483
-0.125224
-0.108320
-0.063150
0.007158
0.027770
0.056077
0.074166
0.116912
0.114359
0.069998
0.040173
0.022421
-0.005083
-0.034139
-0.035472
-0.059850
-0.105119
-0.151043
-0.159090
-0.155474
-0.136968
-0.132065
-0.082857
-0.037976
0.028411
0.081354
0.111792
0.132388
0.138760
0.106788
0.073020
0.047305
0.018802
-0.015052
-0.088151
-0.148558
-0.179493
-0.181970
-0.171352
-0.150913
-0.115376
-0.093395
-0.061567
-0.014406
0.033370
0.060876
0.084267
0.106709
0.117457
0.103707
0.074704
0.038242
0.007940
-0.030400
-0.082291
-0.115722
-0.149347
-0.179664
-0.187762
-0.163754
-0.119824
-0.100860
-0.063030
-0.024620
0.016391
0.066414
0.105594
0.113185
0.116227
0.090486
0.068969
0.028370
-0.008914
-0.029893
-0.086012
-0.102187
-0.093121
-0.118591
-0.130951
-0.124862
-0.112790
-0.079530
-0.044770
-0.001101
0.040672
0.082574
0.133684
0.162196
0.164332
0.153134
0.114767
0.091974
0.045146
0.000068
-0.047604
-0.091166
-0.123289
-0.141717
-0.140136
-0.132482
-0.120663
-0.081991
-0.039245
0.006056
0.046859
0.091745
0.138339
0.142141
0.147192
0.155687
0.157305
0.115350
0.053324
0.038512
0.003738
-0.041997
-0.090189
-0.120534
-0.129353
-0.094534
-0.068430
-0.043240
-0.010181
0.043722
0.075871
0.106973
0.140950
0.159536
0.165398
0.138828
0.105469
0.084025
0.058217
0.008614
-0.028782
-0.057805
-0.104871
-0.147215
-0.172050
-0.165616
-0.119303
-0.064713
-0.039058
-0.022276
0.026701
0.075291
0.098537
0.115716
0.133464
0.120117
0.089557
0.074964
0.024055
-0.021652
-0.078112
-0.122392
-0.167319
-0.205006
-0.202550
-0.172874
-0.140092
-0.092428
-0.060317
-0.036413
-0.001009
0.058344
0.103852
0.121911
0.105754
0.084133
0.058412
0.030356
-0.035211
-0.076222
-0.125160
-0.153918
-0.149216
-0.152706
-0.144404
-0.169045
-0.182431
-0.110404
-0.048336
-0.029352
-0.006150
0.021481
0.056271
0.096864
0.101755
0.085932
0.068056
0.034155
-0.023566
-0.074072
-0.135021
-0.193082
-0.177073
-0.195844
-0.146694
-0.160723
-0.146466
-0.127351
-0.079896
-0.046935
-0.011069
0.024459
0.061077
0.102400
0.120162
0.109310
0.105980
0.061015
0.018272
-0.039946
-0.091943
-0.140353
-0.169582
-0.195265
-0.189726
-0.188360
-0.170620
-0.129049
-0.088101
-0.049455
-0.011654
0.030043
0.065158
0.079066
0.072514
0.066704
0.045037
0.026538
-0.003023
-0.043733
-0.076162
-0.089636
-0.135423
-0.163583
-0.169761
-0.182280
-0.082323
-0.045081
0.005725
0.074424
0.129561
0.169079
0.221488
0.262410
0.287645
0.304671
0.307987
0.297602
0.280596
0.260977
0.248494
0.261490
0.262136
0.247424
0.305665
0.400833
0.477053
0.495032
0.594937
0.671111
0.733468
0.800827
0.857942
0.928455
0.919316
0.886993
0.866497
0.823244
0.765995
0.697382
0.622470
0.550285
0.457944
0.367754
0.308756
0.254826
0.231977
0.221577
0.212700
0.212315
0.208891
0.243061
0.286171
0.295183
0.276977
0.262318
0.235021
0.192765
0.131689
0.071111
0.018437
-0.029987
-0.066895
-0.087976
-0.082304
-0.065700
-0.062873
-0.039515
-0.020238
0.027456
0.077820
0.094056
0.137385
0.199948
0.199706
0.180959
0.142675
0.094290
0.040397
-0.000139
-0.034101
-0.074231
-0.104296
-0.125715
-0.149571
-0.133619
-0.107360
-0.085449
-0.012503
0.039326
0.068776
0.106255
0.129506
0.126125
0.145585
0.165097
0.140295
0.087998
0.062414
0.005362
-0.042857
-0.088826
-0.122210
-0.131704
-0.129608
-0.122510
-0.107525
-0.083697
-0.029816
0.005671
0.041163
0.085060
0.135496
0.160067
0.162319
0.158525
0.112507
0.081402
0.040923
-0.004096
-0.045458
-0.087369
-0.127281
-0.147246
-0.146813
-0.121823
-0.096227
-0.056540
-0.025639
0.033693
0.083712
0.123216
0.155894
0.159538
0.147038
0.116725
0.129928
0.109686
0.082782
0.034559
0.009051
-0.060035
-0.106199
-0.093853
-0.099151
-0.077514
-0.036301
-0.021048
0.018080
0.061742
0.104958
0.122504
0.170889
0.198005
0.210291
0.197623
0.164763
0.132104
0.111807
0.067960
0.013129
-0.029433
-0.070204
-0.111448
-0.132489
-0.081066
-0.039369
0.020932
0.045052
0.081876
0.126453
0.188695
0.232709
0.234450
0.216308
0.214760
0.200687
0.177345
0.142286
0.084115
0.033874
0.010575
-0.005803
-0.024696
-0.044440
-0.037035
-0.018057
0.011469
0.063109
0.102008
0.150930
0.210641
0.270214
0.260904
0.256602
0.245747
0.199917
0.218604
0.176608
0.144372
0.085516
0.035952
0.015978
-0.018796
-0.030234
-0.026929
-0.002541
-0.001988
0.065439
0.113335
0.147033
0.189149
0.220496
0.262929
0.249814
0.315425
0.262602
0.219286
0.154300
0.094067
0.076269
0.040576
0.009074
-0.025921
-0.034586
-0.038338
-0.016260
0.025234
0.062719
0.102607
0.155143
0.216662
0.251980
0.246193
0.244602
0.245900
0.221926
0.175670
0.121105
0.070888
0.028808
-0.018175
-0.064757
-0.065911
-0.034941
-0.036059
-0.028939
-0.007053
0.022227
0.078181
0.139547
0.174562
0.206119
0.196696
0.208341
0.195726
0.170220
0.140857
0.098647
0.041164
-0.010041
-0.042243
-0.084572
-0.106129
-0.101881
-0.074261
-0.060504
-0.051407
-0.019010
0.021133
0.059385
0.116573
0.152596
0.166742
0.165231
0.162305
0.125719
0.094792
0.053039
0.005105
-0.030065
-0.065241
-0.112341
-0.139618
-0.151119
-0.136804
-0.122775
-0.081523
-0.028218
0.007583
0.048693
0.112006
0.127150
0.144526
0.141986
0.133080
0.105667
0.059803
0.028424
-0.028803
-0.053902
-0.098239
-0.117555
-0.122146
-0.157818
-0.193639
-0.103518
-0.069172
-0.045249
-0.009052
0.056075
0.098801
0.125289
0.136521
0.143521
0.142804
0.115342
0.076431
0.036484
-0.020059
-0.045826
-0.104211
-0.133773
-0.154187
-0.158153
-0.142138
-0.120203
-0.087786
-0.045097
0.000256
0.024626
0.049980
0.090185
0.134094
0.131906
0.126557
0.142295
0.109399
0.031601
-0.031931
-0.072107
-0.103111
-0.121720
-0.142954
-0.141718
-0.133864
-0.116567
-0.096710
-0.046625
0.007248
0.047764
0.096493
0.129277
0.149154
0.148359
0.143855
0.118497
0.079864
0.029907
-0.028308
-0.067564
-0.101603
-0.132062
-0.143885
-0.141731
-0.126910
-0.109332
-0.075190
-0.038271
0.025507
0.063380
0.094064
0.111537
0.149050
0.153385
0.143800
0.118225
0.083449
0.032129
-0.018891
-0.052006
-0.093271
-0.118642
-0.145502
-0.150773
-0.124460
-0.105284
-0.069765
-0.031937
0.006896
0.058810
0.087884
0.117240
0.131445
0.146462
0.138303
0.111069
0.072523
0.030380
-0.011957
-0.064057
-0.116499
-0.137717
-0.148454
-0.161453
-0.153693
-0.124956
-0.092806
-0.059274
-0.008115
0.049573
0.091436
0.119985
0.145226
0.155430
0.154196
0.119840
0.084636
0.040985
-0.002333
-0.050569
-0.098150
-0.133897
-0.167431
-0.169560
-0.123981
-0.101063
-0.094030
-0.003484
0.038568
0.051432
0.094072
0.130617
0.140885
0.154094
0.154259
0.131333
0.084432
0.037609
-0.019241
-0.047708
-0.100523
-0.131074
-0.140714
-0.155240
-0.143833
-0.111122
-0.083173
-0.054372
-0.014482
0.021362
0.076068
0.110077
0.142025
0.146360
0.136739
0.102684
0.058978
0.018514
-0.037217
-0.084204
-0.100520
-0.117294
-0.135773
-0.144687
-0.153772
-0.134732
-0.091088
-0.067084
-0.022677
0.023019
0.070517
0.109540
0.129227
0.125559
0.115295
0.086524
0.048758
0.019375
-0.023028
-0.072571
-0.117786
-0.144450
-0.163656
-0.166608
-0.168770
-0.140084
-0.099058
-0.068889
-0.019059
0.023432
0.079688
0.107611
0.130589
0.138141
0.126199
0.097091
0.055849
0.009547
-0.037113
-0.077143
-0.119777
-0.146927
-0.173128
-0.183394
-0.160782
-0.138275
-0.106537
-0.064581
-0.017443
0.035479
0.073867
0.097179
0.114461
0.120928
0.110242
0.098794
0.071892
0.019709
-0.039281
-0.076779
-0.109513
-0.160314
-0.186243
-0.202140
-0.210282
-0.157086
-0.104720
-0.051099
-0.003646
0.031532
0.079780
0.111014
0.113315
0.112751
0.129520
0.104587
0.059216
0.015828
-0.030484
-0.083551
-0.124904
-0.153871
-0.175672
-0.176354
-0.190780
-0.147300
-0.115662
-0.090964
-0.061483
-0.004592
0.056829
0.099317
0.141835
0.158216
0.128243
0.105238
0.065265
0.023215
-0.026984
-0.067508
-0.102816
-0.132357
-0.156736
-0.163866
-0.149112
-0.136281
-0.096538
-0.051748
0.004863
0.052885
0.089363
0.113041
0.143093
0.163300
0.144377
0.122487
0.087882
0.059315
0.006932
-0.046955
-0.092884
-0.134166
-0.120138
-0.126096
-0.140958
-0.108901
-0.076723
-0.018510
0.018751
0.056021
0.101640
0.125798
0.145064
0.144376
0.145551
0.133748
0.088723
0.049880
0.000839
-0.040572
-0.076667
-0.116303
-0.131584
-0.127594
-0.117559
-0.087305
-0.050716
-0.008676
0.045892
0.079352
0.121653
0.148836
0.172792
0.174965
0.155339
0.119122
0.081209
0.067314
0.021513
-0.047055
-0.108049
-0.119666
-0.123661
-0.138127
-0.146469
-0.134852
-0.078156
-0.031592
0.022503
0.069830
0.095151
0.109503
0.142898
0.138941
0.125652
0.101749
0.055509
0.023538
-0.030072
-0.090802
-0.124351
-0.150760
-0.169847
-0.190578
-0.186597
-0.154971
-0.104453
-0.074558
-0.038591
0.010270
0.056470
0.091166
0.103816
0.112107
0.107394
0.073210
0.024108
-0.010753
-0.050244
-0.100496
-0.147808
-0.179334
-0.204173
-0.204855
-0.191163
-0.179059
-0.140143
-0.098967
-0.055548
-0.008734
0.045722
0.090546
0.098614
0.114484
0.088018
0.063902
0.031669
-0.010075
-0.061108
-0.105092
-0.137142
-0.173706
-0.197128
-0.203664
-0.192969
-0.174317
-0.141770
-0.106017
-0.078352
-0.018954
0.026902
0.084807
0.087883
0.089777
0.070477
0.039144
0.026337
-0.000981
-0.041708
-0.102760
-0.149846
-0.175218
-0.191426
-0.193487
-0.176411
-0.167069
-0.138363
-0.091829
-0.044078
0.004722
0.046366
0.071693
0.097977
0.101546
0.082104
0.058282
0.013569
-0.021192
-0.065818
-0.119006
-0.148221
-0.185744
-0.194567
-0.190005
-0.180234
-0.166435
-0.106749
-0.053515
0.003365
0.064505
0.122177
0.162426
0.193338
0.211364
0.213317
0.201769
0.184358
0.180093
0.154900
0.132367
0.128994
0.135124
0.137830
0.170581
0.208014
0.252768
0.333213
0.405589
0.481538
0.567283
0.644848
0.720728
0.781039
0.822425
0.845736
0.846496
0.833049
0.786764
0.733029
0.690711
0.626638
0.585656
0.547519
0.516911
0.496763
0.458915
0.423964
0.408789
0.402299
0.407030
0.391821
0.366660
0.336890
0.316546
0.285700
0.254229
0.210002
0.166245
0.110409
0.047758
-0.002447
-0.046490
-0.071040
-0.093461
-0.104347
-0.073424
-0.034404
0.019918
0.063147
0.099238
0.130568
0.162333
0.176968
0.186526
0.173521
0.139692
0.101978
0.065375
0.016587
-0.039517
-0.061142
-0.104493
-0.136888
-0.142395
-0.145239
-0.131648
-0.095696
-0.056624
-0.002977
0.060384
0.091046
0.128943
0.136562
0.140893
0.140403
0.118677
0.089036
0.036842
0.000723
-0.049681
-0.089241
-0.125796
-0.153417
-0.178215
-0.157596
-0.122520
-0.091047
-0.052339
-0.010888
0.043989
0.084100
0.109001
0.140429
0.147198
0.143150
0.121017
0.081509
0.034980
-0.005598
-0.054612
-0.090672
-0.116707
-0.132733
-0.147190
-0.134716
-0.107206
-0.081142
-0.043339
0.000353
0.058898
0.095448
0.128217
0.153075
0.166553
0.142373
0.117967
0.078716
0.066155
0.037132
-0.014448
-0.065628
-0.111449
-0.115404
-0.111851
-0.111884
-0.096489
-0.051896
0.002869
0.051152
0.093505
0.129814
0.149415
0.169554
0.171991
0.167897
0.154975
0.135993
0.092541
0.048637
0.004706
-0.043148
-0.084351
-0.096244
-0.113923
-0.093003
-0.060633
-0.011325
0.034422
0.079679
0.119366
0.157481
0.190225
0.216670
0.218753
0.210812
0.189050
0.156015
0.110011
0.069711
0.030081
-0.013796
-0.049971
-0.057312
-0.059127
-0.050655
-0.030356
0.011286
0.057808
0.101214
0.130408
0.169667
0.207397
0.246174
0.271179
0.262641
0.236428
0.186883
0.143644
0.097831
0.055122
0.011526
-0.013366
-0.031971
-0.033029
-0.033454
-0.009831
0.031387
0.063162
0.108206
0.153854
0.204961
0.240568
0.249979
0.264679
0.251196
0.236216
0.205596
0.149455
0.093196
0.060827
0.008023
-0.033040
-0.041737
-0.042193
-0.039605
-0.021889
-0.000970
0.048181
0.110074
0.158040
0.198131
0.230875
0.241009
0.247420
0.239974
0.216219
0.188802
0.126969
0.077182
0.042959
-0.004843
-0.035570
-0.052818
-0.066647
-0.082547
-0.048454
-0.017921
0.028225
0.072073
0.122891
0.155419
0.185164
0.207284
0.212793
0.203803
0.182724
0.147976
0.091400
0.046802
-0.001598
-0.046219
-0.077664
-0.106135
-0.112088
-0.104954
-0.081533
-0.053173
-0.009419
0.042049
0.079688
0.117615
0.157949
0.179772
0.174920
0.159562
0.141790
0.088433
0.040273
-0.004990
-0.047701
-0.089425
-0.120678
-0.140176
-0.146333
-0.147375
-0.112865
-0.073976
-0.027703
0.006473
0.042533
0.085929
0.121248
0.129445
0.140881
0.128809
0.093152
0.063925
0.000578
-0.030800
-0.072219
-0.096216
-0.136487
-0.157833
-0.155107
-0.154563
-0.135282
-0.110782
-0.055525
-0.004035
0.035938
0.079692
0.114805
0.126362
0.132392
0.117347
0.098882
0.064698
0.008713
-0.039388
-0.083188
-0.121526
-0.147124
-0.154340
-0.155000
-0.162335
-0.145082
-0.106114
-0.058253
-0.022006
0.014383
0.089467
0.120432
0.143586
0.143019
0.126390
0.098212
0.063358
0.027474
-0.016837
-0.062822
-0.107232
-0.143647
-0.160247
-0.174571
-0.165902
-0.142755
-0.100213
-0.064440
-0.015983
0.034676
0.072861
0.103910
0.128950
0.125663
0.135081
0.118660
0.080916
0.030730
-0.020151
-0.058190
-0.099201
-0.132745
-0.155617
-0.165341
-0.144648
-0.128153
-0.099067
-0.047169
-0.004219
0.045272
0.075380
0.102443
0.130805
0.149806
0.136133
0.122689
0.076768
0.026765
-0.020057
-0.070168
-0.108531
-0.128679
-0.138501
-0.151294
-0.146595
-0.122976
-0.102093
-0.050771
-0.005333
0.040820
0.091315
0.111783
0.124889
0.146862
0.131968
0.114254
0.084319
0.030496
-0.025418
-0.060601
-0.095132
-0.130854
-0.152656
-0.162669
-0.154567
-0.129645
-0.088744
-0.049569
0.004164
0.048451
0.086164
0.110826
0.138430
0.141801
0.136744
0.107975
0.067161
0.013795
-0.017355
-0.047739
-0.100042
-0.129715
-0.151835
-0.158821
-0.158132
-0.125154
-0.103254
-0.049105
-0.001709
0.052355
0.089922
0.113683
0.129756
0.137685
0.128548
0.107701
0.071527
0.025201
-0.021755
-0.063453
-0.126343
-0.142165
-0.164062
-0.183471
-0.177950
-0.136755
-0.106621
-0.059455
-0.011395
0.040064
0.087681
0.111119
0.128770
0.141789
0.132094
0.099031
0.060538
0.011991
-0.033477
-0.078586
-0.124106
-0.146251
-0.172369
-0.169606
-0.165986
-0.153232
-0.111502
-0.064898
-0.007595
0.032506
0.070894
0.104608
0.131324
0.129718
0.126075
0.102416
0.061282
0.014504
-0.024328
-0.078858
-0.125363
-0.143205
-0.166954
-0.175218
-0.158329
-0.153904
-0.120232
-0.072545
-0.022196
0.027280
0.066923
0.100372
0.124891
0.131499
0.118652
0.092749
0.051190
0.005553
-0.032383
-0.074672
-0.119672
-0.145672
-0.169800
-0.181543
-0.174445
-0.156186
-0.118807
-0.073187
-0.025343
0.024537
0.069556
0.094577
0.116519
0.117977
0.104067
0.079459
0.050885
0.005672
-0.037145
-0.083637
-0.128207
-0.152030
-0.171971
-0.185432
-0.176624
-0.165970
-0.121446
-0.066161
-0.014895
0.031789
0.070723
0.098696
0.116850
0.123137
0.110292
0.095011
0.058251
0.011121
-0.031633
-0.063898
-0.113970
-0.127415
-0.146041
-0.155086
-0.153721
-0.140436
-0.099905
-0.037597
0.013362
0.059603
0.100483
0.124469
0.142049
0.157968
0.151661
0.126018
0.081451
0.045444
0.013142
-0.032500
-0.090549
-0.126345
-0.148735
-0.156618
-0.148215
-0.116966
-0.079933
-0.034251
0.013487
0.050962
0.090412
0.141156
0.158837
0.174937
0.164910
0.150625
0.110259
0.055498
0.015954
-0.027422
-0.068127
-0.094543
-0.110958
-0.128813
-0.114607
-0.101784
-0.066922
-0.023917
0.027547
0.083148
0.126570
0.149027
0.168524
0.163713
0.146154
0.131680
0.092777
0.039019
-0.007388
-0.058928
-0.098382
-0.139279
-0.156953
-0.157346
-0.157326
-0.140718
-0.107348
-0.077462
-0.019909
0.025006
0.068568
0.104387
0.121252
0.129228
0.114103
0.081585
0.041549
0.004138
-0.031716
-0.080801
-0.142858
-0.165339
-0.186603
-0.190707
-0.185784
-0.160737
-0.124003
-0.092416
-0.033226
0.008548
0.038727
0.064653
0.090100
0.095257
0.088047
0.064212
0.036493
-0.008596
-0.064426
-0.114667
-0.162274
-0.186196
-0.201478
-0.201990
-0.207235
-0.180959
-0.135559
-0.098531
-0.037308
-0.007268
0.035436
0.073952
0.100350
0.092864
0.089553
0.075682
0.037171
-0.004119
-0.060141
-0.108437
-0.161896
-0.184480
-0.206767
-0.208040
-0.204247
-0.183180
-0.136254
-0.099001
-0.050881
0.009690
0.037918
0.076232
0.092020
0.095535
0.080861
0.074122
0.035913
-0.007772
-0.063919
-0.110601
-0.154775
-0.186138
-0.206511
-0.209858
-0.205362
-0.176143
-0.135000
-0.097808
-0.054175
-0.009508
0.031394
0.065819
0.086887
0.090284
0.082046
0.062180
0.035216
0.012250
-0.032885
-0.064485
-0.093850
-0.124912
-0.126810
-0.118331
-0.094449
-0.057677
-0.018451
0.035165
0.114105
0.174751
0.238757
0.287052
0.331546
0.365010
0.393195
0.397962
0.392819
0.376910
0.355671
0.335042
0.320378
0.302951
0.323488
0.368492
0.415479
0.473177
0.534458
0.612793
0.702811
0.769660
0.806646
0.841207
0.869319
0.852610
0.824104
0.783951
0.732153
0.661578
0.551648
0.438084
0.327936
0.233832
0.173216
0.114011
0.085192
0.058924
0.064725
0.091213
0.116946
0.147298
0.170107
0.192457
0.204684
0.213021
0.203633
0.169894
0.131434
0.092858
0.033670
-0.009968
-0.047969
-0.079514
-0.101391
-0.106844
-0.101642
-0.080162
-0.049050
-0.021020
0.025336
0.063719
0.108421
0.143728
0.162400
0.163046
0.157333
0.135813
0.087789
0.039775
-0.020798
-0.061114
-0.105445
-0.150034
-0.148347
-0.150174
-0.146575
-0.134806
-0.095066
-0.047298
0.001471
0.037694
0.089191
0.132288
0.150980
0.146079
0.141868
0.120257
0.081054
0.043448
-0.013658
-0.053118
-0.099353
-0.137471
-0.164196
-0.162934
-0.166409
-0.131722
-0.088422
-0.040279
0.004523
0.049037
0.081008
0.125117
0.152168
0.153948
0.140980
0.120569
0.081937
0.046216
0.000341
-0.045185
-0.096721
-0.128172
-0.137288
-0.148008
-0.138315
-0.103826
-0.068317
-0.026214
0.019950
0.063050
0.114949
0.150305
0.160769
0.159139
0.156968
0.132958
0.112465
0.081291
0.028373
-0.015620
-0.066640
-0.092624
-0.103008
-0.100711
-0.113000
-0.093155
-0.047773
-0.008649
0.046239
0.101318
0.146976
0.181765
0.200943
0.202767
0.197075
0.178651
0.128655
0.097338
0.047936
0.012456
-0.029168
-0.077544
-0.086206
-0.076347
-0.076303
-0.048277
-0.018187
0.025241
0.086731
0.135517
0.177364
0.206595
0.225387
0.234984
0.219616
0.208277
0.173444
0.137717
0.086101
0.040631
-0.003201
-0.033791
-0.039353
-0.049122
-0.041474
-0.016314
0.020203
0.065926
0.123666
0.155296
0.197406
0.234728
0.249633
0.263866
0.250322
0.228340
0.194189
0.161165
0.108747
0.057039
0.012650
-0.024417
-0.035955
-0.046264
-0.033837
-0.008836
0.025677
0.071246
0.126188
0.174662
0.211068
0.248377
0.264640
0.266366
0.237385
0.205941
0.178420
0.154398
0.099274
0.052888
0.007224
-0.032339
-0.055217
-0.051396
-0.034204
-0.016343
0.014695
0.045592
0.089471
0.138498
0.177130
0.216164
0.236947
0.243655
0.231946
0.210981
0.174446
0.118879
0.077595
0.014591
-0.019654
-0.041211
-0.058691
-0.082748
-0.075305
-0.062215
-0.022756
0.020703
0.061402
0.108616
0.146423
0.177383
0.190711
0.196128
0.192255
0.173751
0.135892
0.087109
0.036445
-0.012598
-0.065921
-0.107681
-0.122374
-0.139594
-0.127738
-0.093590
-0.067948
-0.027027
0.027152
0.062973
0.101365
0.133383
0.147946
0.158978
0.152629
0.122568
0.090581
0.056467
-0.003239
-0.059252
-0.085702
-0.127076
-0.157955
-0.158634
-0.153653
-0.125578
-0.103401
-0.067087
-0.008317
0.047105
0.082529
0.113867
0.136466
0.144841
0.126619
0.103979
0.065691
0.027922
-0.013063
-0.066615
-0.107360
-0.143797
-0.169433
-0.175688
-0.170024
-0.140947
-0.112349
-0.067017
-0.019918
0.023704
0.080315
0.115761
0.133194
0.137605
0.121541
0.098672
0.068226
0.013745
-0.027011
-0.075614
-0.107291
-0.151277
-0.172754
-0.165645
-0.145697
-0.130568
-0.102967
-0.057314
-0.005273
0.041530
0.074181
0.114410
0.131224
0.144385
0.140173
0.113480
0.076266
0.020064
-0.046245
-0.088505
-0.118850
-0.141183
-0.154277
-0.164251
-0.161881
-0.130630
-0.095261
-0.055551
-0.007653
0.051443
0.089809
0.130329
0.151474
0.148310
0.139936
0.120065
0.089223
0.039439
-0.011551
-0.063076
-0.103268
-0.122795
-0.150409
-0.157182
-0.154298
-0.126188
-0.098854
-0.052292
-0.007629
0.048164
0.068771
0.107245
0.137701
0.142299
0.127139
0.109174
0.074779
0.036120
-0.015033
-0.066669
-0.090219
-0.127010
-0.143516
-0.157003
-0.142704
-0.129512
-0.087065
-0.042972
-0.000374
0.036656
0.084730
0.127012
0.141662
0.152138
0.140305
0.120097
0.091573
0.048859
-0.013215
-0.063663
-0.106266
-0.137262
-0.153194
-0.153825
-0.139066
-0.116949
-0.101360
-0.048332
0.003158
0.060184
0.105937
0.135506
0.142765
0.150681
0.136633
0.109555
0.074513
0.025574
-0.015824
-0.056778
-0.102093
-0.140613
-0.170750
-0.162748
-0.155425
-0.137360
-0.090047
-0.056842
-0.008372
0.037365
0.088369
0.111790
0.133076
0.147495
0.130838
0.093090
0.067624
0.028706
-0.022457
-0.073298
-0.126360
-0.154375
-0.171606
-0.184970
-0.174407
-0.152440
-0.105097
-0.058325
-0.014068
0.035651
0.087351
0.112886
0.134135
0.145172
0.119859
0.095246
0.067233
0.020476
-0.024589
-0.082740
-0.122940
-0.154146
-0.158590
-0.162452
-0.175844
-0.153979
-0.102162
-0.061924
-0.024797
0.013287
0.074922
0.101574
0.123283
0.132730
0.128090
0.098040
0.062342
0.017669
-0.031502
-0.077962
-0.108859
-0.155578
-0.175326
-0.184661
-0.167477
-0.144336
-0.100480
-0.062506
-0.026662
0.027904
0.067669
0.094865
0.118518
0.124745
0.116517
0.100182
0.065348
0.026982
-0.022124
-0.078525
-0.116883
-0.141530
-0.163829
-0.173692
-0.151599
-0.144375
-0.121296
-0.063183
-0.011580
0.050947
0.093886
0.141202
0.148308
0.154448
0.142057
0.126153
0.090558
0.057510
0.010563
-0.048140
-0.094707
-0.130275
-0.151072
-0.151957
-0.120635
-0.102113
-0.072438
-0.034901
0.016699
0.055719
0.094166
0.121275
0.138182
0.144136
0.140833
0.122814
0.086898
0.052833
-0.002834
-0.046955
-0.082351
-0.103058
-0.119731
-0.127589
-0.120181
-0.096865
-0.062950
-0.014090
0.035563
0.085267
0.116136
0.163018
0.182457
0.178505
0.168730
0.142203
0.102320
0.057603
0.018477
-0.043586
-0.079245
-0.117169
-0.145027
-0.146086
-0.128038
-0.106055
-0.082123
-0.052215
-0.020986
0.035544
0.079215
0.112395
0.142768
0.158918
0.144571
0.110523
0.064403
0.029349
-0.022231
-0.070818
-0.113833
-0.149808
-0.179084
-0.186403
-0.183086
-0.154678
-0.123490
-0.084523
-0.047954
0.012440
0.059982
0.092149
0.110428
0.112444
0.106894
0.082369
0.040653
-0.007468
-0.054702
-0.110645
-0.165111
-0.185714
-0.204259
-0.210754
-0.206282
-0.174446
-0.143335
-0.093932
-0.050094
0.007613
0.048570
0.084205
0.106667
0.111332
0.104783
0.076943
0.047211
-0.003631
-0.046721
-0.104700
-0.161695
-0.195571
-0.211625
-0.229327
-0.221888
-0.188831
-0.151300
-0.110032
-0.046463
0.009694
0.044091
0.077242
0.098452
0.114063
0.094387
0.072638
0.037861
-0.017838
-0.054257
-0.095720
-0.149347
-0.171783
-0.197383
-0.195169
-0.197735
-0.173977
-0.138896
-0.090701
-0.038759
-0.002181
0.041553
0.073959
0.097782
0.085781
0.089924
0.064291
0.024429
-0.022548
-0.075733
-0.127698
-0.163561
-0.189445
-0.208879
-0.198713
-0.175693
-0.139821
-0.093978
-0.044754
0.017794
0.082863
0.131518
0.184192
0.229928
0.229871
0.236625
0.223830
0.214123
0.192637
0.174292
0.135065
0.120050
0.109658
0.110415
0.145591
0.185467
0.239545
0.292830
0.372739
0.437932
0.519424
0.606647
0.679242
0.747703
0.773891
0.809434
0.814636
0.806828
0.765488
0.708232
0.658105
0.605119
0.562115
0.532959
0.516899
0.471793
0.435084
0.396122
0.383383
0.378335
0.387720
0.388800
0.373068
0.352878
0.320877
0.289065
0.229144
0.179423
0.124298
0.063835
0.006921
-0.038055
-0.074421
-0.114451
-0.130623
-0.117747
-0.086028
-0.049215
0.000462
0.031485
0.081128
0.121327
0.146504
0.168236
0.157375
0.141818
0.133891
0.108278
0.077246
0.025088
-0.025016
-0.075112
-0.123100
-0.148414
-0.163807
-0.174146
-0.148871
-0.137043
-0.106679
-0.053848
0.019405
0.060256
0.062946
0.091588
0.112291
0.143343
0.095405
0.030542
-0.008776
-0.047208
-0.088987
-0.121831
-0.184954
-0.211215
-0.166644
-0.157413
-0.131768
-0.119959
-0.101213
-0.046367
-0.029862
-0.014219
0.074225
0.157966
0.200339
0.161287
0.158679
0.123196
0.096368
0.059070
0.010299
-0.069056
-0.125906
-0.152615
-0.168440
-0.133357
-0.087409
-0.045225
0.002966
0.059163
0.101845
0.134889
0.158312
0.182629
0.174007
0.177827
0.156502
0.124738
0.072850
0.019778
-0.040099
-0.076826
-0.115104
-0.135197
-0.152128
-0.148477
-0.119255
-0.074603
-0.030723
-0.006667
0.046781
0.115672
0.189160
0.207081
0.193110
0.187291
0.193911
0.182200
0.130834
0.050732
-0.001391
-0.061502
-0.112441
-0.143810
-0.165409
-0.152192
-0.129935
-0.092468
-0.037578
0.054393
0.119013
0.163114
0.203546
0.244012
0.276829
0.279651
0.251047
0.216551
0.155313
0.087066
0.046823
0.008994
0.011031
-0.021437
-0.038558
-0.040895
-0.041141
0.003734
0.057610
0.109030
0.160498
0.205401
0.232645
0.256221
0.268703
0.269864
0.246138
0.195418
0.141246
0.091035
0.058930
0.018779
-0.022801
-0.042281
-0.064568
-0.047681
0.021271
0.035850
0.065187
0.110501
0.182767
0.221564
0.228280
0.248440
0.260402
0.260435
0.223099
0.177807
0.146279
0.112039
0.075499
0.037555
0.007351
-0.003072
-0.018472
-0.025155
-0.012026
0.008607
0.033686
0.081272
0.148408
0.227591
0.270098
0.273464
0.251462
0.252281
0.230293
0.207957
0.142613
0.088005
0.052394
0.015483
-0.027986
-0.053386
-0.062519
-0.068109
-0.057475
-0.022108
0.020654
0.059956
0.116386
0.170866
0.208321
0.235377
0.216004
0.186741
0.150433
0.131698
0.081298
0.048325
0.011415
-0.027506
-0.051805
-0.045400
-0.037461
-0.075400
-0.087938
-0.083464
-0.022105
0.020429
0.063998
0.094581
0.131496
0.172976
0.211769
0.194920
0.143277
0.098697
0.059516
0.016404
-0.020067
-0.074320
-0.106112
-0.109412
-0.103675
-0.074908
-0.050199
-0.041129
-0.012300
0.036683
0.069098
0.111570
0.117657
0.144842
0.165622
0.163850
0.123867
0.059514
0.010140
-0.040983
-0.069290
-0.107933
-0.119946
-0.129807
-0.137247
-0.141228
-0.117814
-0.077093
-0.030806
-0.018748
0.043911
0.081701
0.111643
0.158967
0.181416
0.168714
0.141097
0.084299
0.037928
0.002278
-0.025242
-0.087219
-0.108720
-0.145719
-0.183351
-0.171635
-0.133001
-0.104201
-0.061228
-0.019925
0.050551
0.109316
0.133589
0.167303
0.152132
0.160151
0.140826
0.113176
0.069018
0.022578
-0.028943
-0.066504
-0.095695
-0.116328
-0.145395
-0.128592
-0.113918
-0.071494
-0.016325
0.028509
0.064886
0.109714
0.143306
0.188031
0.203302
0.170538
0.141596
0.111427
0.045275
-0.003820
-0.044769
-0.075401
-0.111944
-0.155258
-0.172913
-0.149791
-0.119760
-0.075823
-0.031486
-0.011098
0.064092
0.162648
0.198196
0.200301
0.198925
0.205663
0.156456
0.124619
0.083299
0.000082
-0.054811
-0.093551
-0.152946
-0.153899
-0.137246
-0.100834
-0.097444
-0.049145
0.000139
0.040650
0.093438
0.160922
0.181925
0.177751
0.182049
0.159694
0.151976
0.126125
0.083791
0.016877
-0.044223
-0.119773
-0.148242
-0.156931
-0.177846
-0.145994
-0.113715
-0.072319
-0.045101
0.001325
0.038507
0.065421
0.102215
0.137115
0.149135
0.131540
0.099154
0.093299
0.105878
0.072122
0.032566
-0.033858
-0.052867
-0.080223
-0.101930
-0.094527
-0.081024
-0.055128
-0.027856
-0.001786
0.036924
0.092404
0.121161
0.156866
0.176601
0.207268
0.198503
0.178454
0.112647
0.043135
-0.008260
-0.067302
-0.103374
-0.130196
-0.121731
-0.089857
-0.083137
-0.077445
-0.031910
0.026516
0.098359
0.132271
0.134346
0.144923
0.166469
0.145562
0.134025
0.104000
0.076108
0.032729
-0.020280
-0.068907
-0.103176
-0.120489
-0.145490
-0.134233
-0.123343
-0.089522
-0.053429
-0.030635
0.007515
0.087148
0.157332
0.191002
0.185259
0.129677
0.114130
0.081404
0.050014
0.011686
-0.027643
-0.078552
-0.114981
-0.163012
-0.146235
-0.099851
-0.092152
-0.063189
-0.028628
0.015974
0.056437
0.115567
0.175769
0.189061
0.192187
0.173135
0.188531
0.146358
0.101658
0.039014
-0.011290
-0.030823
-0.055535
-0.091784
-0.132054
-0.125580
-0.108441
-0.084454
-0.032794
0.015287
0.095598
0.177910
0.192565
0.186481
0.200276
0.174780
0.141155
0.119631
0.081657
0.039828
0.009556
-0.026846
-0.042943
-0.051979
-0.078186
-0.081072
-0.052405
-0.019142
0.012226
0.065728
0.116474
0.149195
0.181689
0.204612
0.210439
0.198332
0.180281
0.138740
0.097157
0.069013
0.040985
0.008830
-0.020083
-0.059041
-0.099939
-0.098694
-0.074557
-0.020972
0.017229
0.050880
0.074414
0.106824
0.129006
0.166351
0.192940
0.195182
0.172906
0.113699
0.020526
-0.063800
-0.081173
-0.124592
-0.152546
-0.153120
-0.170977
-0.150918
-0.062951
0.034526
0.080229
0.087972
0.067010
0.092874
0.138957
0.158128
0.159309
0.136192
0.120068
0.084763
0.040921
-0.023421
-0.078039
-0.127511
-0.175271
-0.190235
-0.188555
-0.181325
-0.159276
-0.127355
-0.089792
-0.034820
0.019316
0.079882
0.114010
0.145280
0.167030
0.121547
0.105718
0.121230
0.084622
0.006455
-0.056542
-0.113654
-0.152360
-0.168660
-0.174299
-0.157711
-0.175754
-0.162865
-0.108060
-0.050592
0.048314
0.102511
0.143553
0.158051
0.158709
0.176841
0.139662
0.088916
0.015172
-0.035460
-0.094550
-0.131973
-0.169727
-0.186552
-0.172618
-0.135584
-0.130723
-0.100713
-0.061712
-0.009123
0.038432
0.067462
0.114195
0.142734
0.142088
0.101519
0.075115
0.061147
0.044928
-0.014714
-0.134580
-0.150312
-0.133915
-0.145473
-0.143990
-0.126134
-0.098115
-0.067332
-0.034037
0.020289
0.057681
0.102754
0.148067
0.192412
0.223357
0.232116
0.240482
0.194061
0.154714
0.146450
0.126172
0.102196
0.094776
0.091089
0.116591
0.173873
0.182248
0.252306
0.345684
0.401514
0.456098
0.514699
0.591933
0.657143
0.694978
0.703161
0.706973
0.684113
0.680227
0.688212
0.694026
0.673926
0.625033
0.617294
0.624842
0.575366
0.580214
0.611828
0.625272
0.619267
0.586969
0.566036
0.628057
0.650044
0.580476
0.506432
0.417907
0.343672
0.288200
0.231199
0.147037
0.070614
0.018155
-0.013504
-0.026343
-0.027842
-0.003899
0.032190
0.053369
0.060961
0.106551
0.160254
0.205399
0.209621
0.217354
0.245327
0.226444
0.195171
0.155286
0.092173
0.033938
-0.013768
-0.061624
-0.095608
-0.133722
-0.154390
-0.111190
-0.091354
-0.046874
0.033507
0.094580
0.100396
0.177164
0.228062
0.216452
0.185809
0.231169
0.217238
0.141669
0.028978
-0.050569
-0.080283
-0.110034
-0.120626
-0.101800
-0.102988
-0.086708
-0.016987
0.035177
0.070736
0.105422
0.126248
0.145495
0.185836
0.200674
0.180641
0.160650
0.110394
0.078370
0.041237
0.022716
0.024840
-0.028619
-0.085633
-0.112220
-0.115757
-0.084444
-0.053073
-0.007733
0.074920
0.166995
0.191431
0.205601
0.223779
0.243742
0.231119
0.190795
0.154630
0.108765
0.060967
0.022912
-0.030615
-0.074734
-0.094337
-0.097339
-0.100023
-0.083723
-0.044080
-0.008896
0.020312
0.062889
0.165159
0.217559
0.258083
0.262659
0.259887
0.248035
0.204004
0.159243
0.116676
0.027802
-0.033590
-0.073031
-0.097643
-0.093323
-0.092059
-0.029578
0.015876
0.075795
0.173858
0.227464
0.263017
0.266894
0.300856
0.317215
0.306252
0.276802
0.224412
0.188630
0.159666
0.098084
0.059118
-0.008078
-0.016177
0.005784
0.041090
0.051592
0.046214
0.077265
0.107287
0.165644
0.232219
0.301818
0.332859
0.360236
0.369186
0.320628
0.287440
0.249245
0.178591
0.120049
0.079937
0.037767
0.030839
0.042668
0.007704
-0.001236
0.039858
0.098541
0.136989
0.161187
0.184816
0.219518
0.248863
0.272715
0.255853
0.270174
0.296215
0.267821
0.160922
0.132191
0.102785
0.088519
0.048672
0.036560
0.025952
0.053924
0.071331
0.121038
0.175910
0.211381
0.246254
0.281918
0.305945
0.326569
0.361899
0.382024
0.356175
0.256803
0.155833
0.113755
0.076276
0.044309
-0.019820
-0.043679
-0.016938
0.050329
0.086430
0.144102
0.193439
0.235080
0.260740
0.282720
0.305842
0.327878
0.317035
0.259743
0.214511
0.173632
0.124597
0.061290
0.014556
-0.015562
-0.023093
-0.016969
-0.021547
-0.006091
-0.020641
0.013508
0.074618
0.132179
0.158857
0.196977
0.245016
0.257084
0.274557
0.242130
0.213292
0.168611
0.113566
0.049177
0.000301
-0.055493
-0.072484
-0.071226
-0.086911
-0.066867
0.004698
0.075517
0.150813
0.177995
0.186388
0.208625
0.233525
0.213957
0.188738
0.183152
0.148604
0.093863
0.018832
0.001078
-0.062614
-0.118464
-0.124607
-0.128452
-0.147546
-0.108576
-0.061667
-0.026620
0.055607
0.116858
0.192640
0.237155
0.230289
0.213913
0.176945
0.146915
0.147280
0.104154
0.034841
-0.002927
-0.015236
-0.029373
-0.025445
-0.004672
-0.018121
-0.053580
-0.043564
-0.009906
0.038530
0.092559
0.148778
0.204024
0.221464
0.211589
0.233582
0.224915
0.169619
0.127771
0.072388
0.041313
-0.019156
-0.064440
-0.098322
-0.102343
-0.090157
-0.045662
-0.016427
0.030127
0.076616
0.115448
0.152738
0.166307
0.179825
0.169996
0.166793
0.184629
0.161293
0.110081
0.053309
0.014229
-0.001634
-0.012416
-0.031942
-0.070888
-0.084465
-0.080798
-0.068502
0.010854
0.053651
0.086330
0.114372
0.145159
0.147467
0.152478
0.191254
0.214138
0.220654
0.130348
0.052779
0.004061
-0.031836
-0.018912
-0.010405
-0.042330
-0.073538
-0.055389
-0.011513
0.035378
0.058056
0.080779
0.138328
0.196779
0.232769
0.245685
0.218665
0.189997
0.162664
0.090328
0.060575
0.048156
0.003552
-0.014951
-0.055498
-0.072509
-0.029131
-0.067047
-0.062888
-0.015445
0.045494
0.104247
0.164043
0.199828
0.257109
0.266991
0.276385
0.242909
0.198806
0.160896
0.101087
0.033993
-0.018982
-0.039191
-0.097959
-0.108992
-0.083401
-0.074831
-0.020265
0.048530
0.086199
0.133916
0.162864
0.181926
0.166247
0.156663
0.158655
0.147066
0.127315
0.090781
0.063813
0.029001
-0.010569
-0.008328
0.000987
-0.021978
-0.043526
-0.070728
-0.078277
-0.045152
-0.009857
0.021445
0.062150
0.108356
0.143252
0.201121
0.260923
0.248575
0.213905
0.175407
0.112639
0.018331
-0.034642
-0.061775
-0.056740
-0.063789
-0.069093
-0.041431
-0.018028
0.017789
0.065726
0.091586
0.150317
0.181621
0.219807
0.234739
0.195970
0.148666
0.095352
0.130415
0.110765
0.077174
0.008895
-0.054910
-0.070196
-0.079227
-0.071551
-0.061228
-0.032433
0.009233
0.054748
0.121877
0.169305
0.204915
0.200387
0.201903
0.214062
0.218953
0.155970
0.067595
0.027263
0.015939
-0.046344
-0.093285
-0.122709
-0.136809
-0.128480
-0.063909
-0.017397
0.026186
0.090010
0.174569
0.241407
0.255116
0.274074
0.251637
0.251885
0.240963
0.203368
0.157022
0.114902
0.059425
0.014502
-0.032101
-0.065920
-0.120808
-0.138520
-0.101432
-0.068544
-0.045929
-0.023370
0.008231
0.010136
0.045207
0.163422
0.247200
0.303666
0.291038
0.250477
0.249300
0.176103
0.108902
0.043613
0.017722
-0.015544
-0.033157
-0.022607
-0.002665
0.029874
0.061188
0.088615
0.118062
0.196938
0.235740
0.267976
0.250357
0.258318
0.256430
0.225647
0.170051
0.129875
0.074085
0.004204
-0.025858
-0.058843
-0.070933
-0.064556
-0.041475
0.012348
0.049046
0.094434
0.133642
0.165607
0.166702
0.201126
0.201380
0.170810
0.145043
0.111387
0.075001
0.044528
-0.013034
-0.054946
-0.102680
-0.139717
-0.138618
-0.114369
-0.100945
-0.025340
0.071486
0.126363
0.143827
0.153117
0.174129
0.204933
0.190544
0.183908
0.167591
0.144297
0.082755
0.014380
-0.071142
-0.125762
-0.186946
-0.213819
-0.217325
-0.181213
-0.104199
-0.040414
0.057250
0.135441
0.179714
0.178738
0.164949
0.191881
0.210790
0.188847
0.161264
0.121014
0.067988
0.009735
-0.014403
-0.043988
-0.071874
-0.118503
-0.124593
-0.114980
-0.097695
-0.067415
-0.020202
0.007737
0.061838
0.103420
0.119803
0.148741
0.160806
0.164095
0.160141
0.116077
0.044928
0.017645
-0.018535
-0.070712
-0.121297
-0.144065
-0.162312
-0.157529
-0.153674
-0.107028
-0.053939
0.037289
0.115443
0.146375
0.152910
0.152948
0.126590
0.168094
0.151495
0.095886
0.052519
0.022442
-0.029923
-0.055233
-0.079808
-0.117047
-0.122403
-0.093779
-0.042973
0.006273
0.044235
0.114131
0.173058
0.221946
0.269173
0.306368
0.306267
0.305414
0.289211
0.247070
0.240694
0.244294
0.229856
0.189989
0.167552
0.166733
0.177426
0.206489
0.266772
0.384416
0.515736
0.631460
0.653382
0.700023
0.767821
0.874420
0.909645
0.920907
0.912334
0.909036
0.883397
0.821066
0.764974
0.741760
0.693226
0.619711
0.553195
0.516355
0.495644
0.453463
0.421530
0.425633
0.437862
0.419985
0.417323
0.409036
0.427732
0.446621
0.361923
0.277151
0.228487
0.187874
0.107898
0.060563
0.031280
-0.038585
-0.058305
-0.023748
-0.005570
0.031949
0.062729
0.082256
0.131538
0.169027
0.180250
0.192904
0.222922
0.250701
0.274974
0.253374
0.244188
0.155315
0.064119
-0.006493
-0.047948
-0.065261
-0.085725
-0.109117
-0.104432
-0.056639
-0.007694
0.059617
0.130259
0.177440
0.189392
0.224116
0.256071
0.278158
0.258073
0.191824
0.145039
0.056972
0.018055
-0.015840
-0.052072
-0.067650
-0.083897
-0.079584
-0.054393
0.000300
0.038396
0.073033
0.115521
0.138158
0.165388
0.177923
0.198944
0.218876
0.222359
0.198031
0.152173
0.109656
0.038153
0.005562
-0.052837
-0.098810
-0.110907
-0.095840
-0.081962
-0.044222
0.016790
0.046997
0.101288
0.152732
0.177360
0.163705
0.174313
0.206333
0.194223
0.145599
0.156951
0.126525
0.066247
0.048640
0.037744
-0.001937
-0.037909
-0.007784
-0.002828
0.016603
0.050047
0.085753
0.121160
0.203216
0.253188
0.299313
0.304060
0.296197
0.261937
0.212910
0.141697
0.105585
0.077085
0.031488
-0.006663
-0.025986
-0.041199
-0.029268
-0.021069
-0.000057
0.076898
0.147529
0.209212
0.246305
0.277830
0.287825
0.302238
0.293609
0.273401
0.233979
0.194302
0.155137
0.094239
0.028021
-0.000719
-0.019541
-0.038745
0.002577
0.034861
0.072846
0.119831
0.163649
0.190117
0.270635
0.357590
0.365389
0.357442
0.348122
0.318942
0.289561
0.231414
0.169687
0.113458
0.084730
0.052821
0.043100
0.033621
0.040557
0.065761
0.095990
0.139417
0.181363
0.218588
0.241624
0.262290
0.265496
0.265506
0.266039
0.271019
0.234249
0.220684
0.183932
0.180121
0.174887
0.104032
0.023884
0.004333
0.028221
0.047746
0.067299
0.121874
0.160834
0.216702
0.267383
0.322205
0.357780
0.376774
0.330124
0.308025
0.315368
0.246259
0.188290
0.160393
0.095768
0.049828
-0.013462
-0.016373
-0.006740
0.009191
0.058891
0.110216
0.144078
0.190504
0.217275
0.251313
0.276491
0.295278
0.304496
0.263245
0.205796
0.147118
0.084116
0.041082
0.004137
-0.024819
-0.049202
-0.068762
-0.091900
-0.077263
-0.013031
0.048002
0.075368
0.137800
0.188047
0.224450
0.240806
0.257957
0.242067
0.211610
0.197704
0.159584
0.104671
0.059413
-0.013300
-0.069703
-0.129282
-0.161546
-0.170430
-0.146904
-0.072031
-0.044472
-0.004654
0.061662
0.173802
0.258152
0.257486
0.249898
0.244540
0.201834
0.149027
0.110809
0.080153
0.052203
0.020230
-0.029566
-0.083403
-0.104283
-0.104199
-0.095063
-0.068115
-0.021029
0.030678
0.085554
0.141461
0.192688
0.230426
0.215523
0.159349
0.150058
0.130607
0.087362
0.050577
0.023158
0.002745
-0.065990
-0.107067
-0.117626
-0.120894
-0.114548
-0.086405
-0.019055
0.012019
0.045069
0.105493
0.160458
0.187631
0.232373
0.221242
0.172298
0.130934
0.101303
0.069988
0.010876
0.005689
-0.043348
-0.071546
-0.083621
-0.083827
-0.074429
-0.052065
-0.018560
0.050225
0.092116
0.131502
0.162015
0.171755
0.176501
0.179908
0.132569
0.092884
0.055398
0.016735
-0.012190
-0.036803
-0.063808
-0.121848
-0.126755
-0.101257
-0.057736
-0.019051
-0.007310
0.028467
0.100671
0.133618
0.161938
0.176365
0.197927
0.188132
0.127819
0.053136
-0.045283
-0.069851
-0.057921
-0.084499
-0.148134
-0.151166
-0.153958
-0.120172
-0.089288
-0.014428
0.052007
0.073478
0.128982
0.158133
0.194323
0.223359
0.243672
0.228796
0.221308
0.212118
0.188478
0.120205
0.053428
0.004723
-0.044805
-0.056458
-0.090190
-0.063686
-0.030220
-0.013212
0.035165
0.065754
0.112264
0.146650
0.172864
0.192123
0.195482
0.186800
0.174614
0.134759
0.075896
0.010849
-0.022049
-0.050077
-0.060555
-0.051813
-0.092196
-0.107520
-0.066488
-0.038920
0.010894
0.039445
0.061915
0.080897
0.133266
0.168190
0.185669
0.183439
0.186409
0.161100
0.118669
0.101021
0.050923
-0.060819
-0.094743
-0.106764
-0.108280
-0.109602
-0.103053
-0.087319
-0.023271
0.042324
0.086234
0.100410
0.093250
0.100379
0.109689
0.122806
0.113211
0.131595
0.095216
-0.003580
-0.073861
-0.067482
-0.057023
-0.084122
-0.120663
-0.107182
-0.057137
-0.039662
-0.027641
0.023864
0.087557
0.141732
0.157103
0.195817
0.227035
0.223867
0.183351
0.126514
0.056073
0.010320
-0.051295
-0.112479
-0.139317
-0.157203
-0.161259
-0.151753
-0.086487
-0.043989
0.007991
0.063902
0.110832
0.129404
0.138287
0.144699
0.150182
0.181396
0.164388
0.099041
0.037859
0.008943
-0.015858
-0.052965
-0.081736
-0.129483
-0.140868
-0.098744
-0.064533
-0.023239
0.011986
0.047568
0.090677
0.146133
0.171469
0.186510
0.193065
0.175655
0.130503
0.089993
0.045900
0.007542
-0.042959
-0.067019
-0.111745
-0.162177
-0.155946
-0.145001
-0.079727
-0.025321
0.023569
0.050967
0.086757
0.122977
0.171273
0.202299
0.208413
0.182888
0.151221
0.110555
0.073829
0.020880
-0.056490
-0.093830
-0.130910
-0.115890
-0.058103
-0.009056
-0.038575
-0.029001
0.013034
0.062018
0.115292
0.146210
0.183678
0.195916
0.183416
0.157709
0.139897
0.140534
0.103078
0.029915
-0.020010
-0.006670
0.020228
-0.039584
-0.085553
-0.100958
-0.083300
-0.037144
0.018506
0.049730
0.087526
0.140615
0.158609
0.179114
0.212581
0.250294
0.262206
0.203758
0.148605
0.096794
0.056609
-0.009284
-0.061782
-0.113790
-0.137920
-0.142521
-0.124831
-0.050642
-0.006539
0.026281
0.076699
0.117629
0.175561
0.228175
0.218268
0.157652
0.144036
0.126355
0.080637
0.018130
-0.023217
-0.061892
-0.103961
-0.133812
-0.121746
-0.128088
-0.110599
-0.071448
-0.040625
-0.019273
0.005781
0.036624
0.073909
0.110930
0.130312
0.095704
0.095262
0.082741
0.053748
0.038529
-0.009981
-0.069628
-0.113046
-0.148573
-0.140866
-0.118521
-0.129298
-0.121477
-0.062355
-0.014622
0.062022
0.126785
0.153729
0.162641
0.153300
0.130236
0.109864
0.069847
0.016338
-0.019492
-0.054043
-0.072462
-0.121157
-0.167950
-0.191871
-0.187393
-0.163773
-0.123469
-0.066618
0.001571
0.052678
0.143362
0.162391
0.169294
0.168253
0.158918
0.111336
0.060119
0.009858
-0.016855
-0.050879
-0.091817
-0.176386
-0.196824
-0.186830
-0.187617
-0.162648
-0.140302
-0.108872
-0.037190
0.043051
0.107324
0.158683
0.161552
0.158867
0.119100
0.106110
0.068883
0.009867
-0.049771
-0.082914
-0.114908
-0.150191
-0.135949
-0.142746
-0.183036
-0.163162
-0.092407
-0.045557
0.039662
0.095740
0.101295
0.110499
0.154382
0.166618
0.187743
0.212733
0.179977
0.158200
0.097155
0.062331
0.051553
0.006120
0.007826
0.026714
0.040009
0.047032
0.157834
0.235437
0.294403
0.394029
0.544063
0.577631
0.620642
0.633349
0.649798
0.646092
0.660876
0.704227
0.676557
0.683479
0.664653
0.653956
0.654677
0.642021
0.631961
0.656505
0.675805
0.721505
0.760374
0.776390
0.762306
0.755779
0.714108
0.628354
0.555301
0.515941
0.468153
0.358794
0.229810
0.144130
0.101578
0.055464
0.015283
0.005578
0.000927
0.002615
-0.007220
0.016513
0.041213
0.092715
0.149062
0.194736
0.227840
0.209451
0.178166
0.146426
0.130981
0.110147
0.119109
0.116352
0.035544
-0.043463
-0.053295
-0.050122
-0.076248
-0.067880
-0.025268
0.004490
0.043574
0.083806
0.122731
0.143820
0.173423
0.149648
0.135559
0.099298
0.071413
0.085330
0.082915
0.037568
-0.009463
-0.069947
-0.128150
-0.131168
-0.132061
-0.106204
-0.109207
-0.068053
-0.018681
0.073448
0.147455
0.196066
0.231906
0.227760
0.187116
0.128591
0.088385
0.033883
-0.029900
-0.100307
-0.154736
-0.158051
-0.150894
-0.094504
-0.070145
-0.009229
0.020832
0.022758
0.057582
0.099015
0.150316
0.207508
0.222164
0.202590
0.212193
0.197075
0.175122
0.144235
0.114826
0.049831
-0.019614
-0.079879
-0.114210
-0.113581
-0.119561
-0.111693
-0.096658
-0.065413
0.013935
0.084097
0.143413
0.166086
0.207580
0.254874
0.289296
0.250075
0.212824
0.154904
0.068786
0.025945
-0.047846
-0.094754
-0.115076
-0.100500
-0.086441
-0.019785
0.036898
0.020574
0.057196
0.107100
0.158174
0.209739
0.222188
0.229171
0.224747
0.217868
0.197699
0.189673
0.125070
0.037285
-0.004129
-0.023056
-0.037622
-0.056309
-0.079252
-0.049565
0.045971
0.110939
0.159546
0.206217
0.233365
0.261382
0.295119
0.294981
0.283107
0.240833
0.225132
0.163829
0.107327
0.069015
0.032453
-0.011083
-0.023851
-0.033576
-0.025446
0.010992
0.034916
0.072323
0.136626
0.191412
0.230529
0.272276
0.318254
0.332605
0.300835
0.243032
0.173756
0.102712
0.058737
0.048785
0.020889
-0.032790
-0.047677
0.010194
0.061456
0.111463
0.096975
0.062090
0.090867
0.142211
0.220545
0.259170
0.315950
0.332058
0.349515
0.298870
0.232125
0.185312
0.122989
0.097184
0.075103
0.061894
-0.004956
-0.058651
-0.057156
-0.021952
0.020171
0.055157
0.101104
0.157694
0.206042
0.210277
0.219068
0.220013
0.208069
0.205469
0.171567
0.135751
0.087018
0.095255
0.057978
0.033069
-0.007915
-0.036214
-0.041884
-0.045841
-0.012905
0.021996
0.058463
0.099228
0.134320
0.170420
0.198463
0.207624
0.213198
0.186366
0.143967
0.066757
0.008826
-0.028491
-0.048449
-0.071907
-0.113287
-0.134217
-0.148091
-0.103649
-0.038897
-0.023924
-0.007213
0.006473
0.046307
0.100433
0.134545
0.135314
0.140108
0.116100
0.097245
0.072496
0.004737
-0.041305
-0.076964
-0.093862
-0.109979
-0.135029
-0.138217
-0.119724
-0.050358
-0.004685
0.013096
0.053780
0.078211
0.112975
0.147291
0.165559
0.159807
0.130528
0.103454
0.061990
0.000498
-0.015826
-0.031486
-0.078863
-0.108223
-0.131740
-0.120733
-0.110994
-0.089031
-0.048897
0.007755
0.033534
0.069385
0.100598
0.128772
0.142359
0.139253
0.127810
0.084690
0.056531
-0.018770
-0.100918
-0.126089
-0.148697
-0.154104
-0.167736
-0.181907
-0.146582
-0.093851
-0.045840
0.006862
0.110017
0.157431
0.200376
0.194842
0.160341
0.134876
0.124745
0.167110
0.124842
0.029207
-0.037194
-0.071534
-0.112849
-0.156148
-0.158815
-0.143424
-0.126542
-0.120809
-0.107439
-0.074234
-0.011196
0.061506
0.108090
0.153141
0.213360
0.255275
0.193363
0.146913
0.142146
0.076381
-0.001532
-0.051185
-0.092025
-0.123615
-0.141908
-0.128348
-0.100572
-0.080331
-0.040176
0.004393
0.054938
0.096430
0.107519
0.145195
0.173134
0.163916
0.136809
0.100995
0.047179
0.016046
-0.039813
-0.067932
-0.078329
-0.111741
-0.110860
-0.094706
-0.080765
-0.046215
0.005485
0.023603
0.052246
0.099557
0.111688
0.117869
0.114599
0.104768
0.087210
0.094978
0.102330
0.047439
0.023974
-0.040434
-0.109917
-0.151425
-0.143182
-0.143837
-0.121182
-0.055110
0.009320
0.058341
0.100895
0.133368
0.173737
0.171566
0.131176
0.115823
0.111583
0.084860
0.043308
-0.000226
-0.008823
-0.043762
-0.102750
-0.132897
-0.141251
-0.098805
-0.078457
-0.062991
-0.039858
-0.006558
0.029152
0.074578
0.093368
0.135295
0.163742
0.157083
0.147719
0.121057
0.056634
-0.011245
-0.061865
-0.118610
-0.176552
-0.191489
-0.179767
-0.152520
-0.119715
-0.084752
-0.016331
0.028763
0.078461
0.094912
0.110697
0.163647
0.166719
0.164732
0.136509
0.069721
0.049948
0.026817
0.012165
-0.029541
-0.079385
-0.137646
-0.148732
-0.139684
-0.135547
-0.117756
-0.081142
-0.032066
0.034258
0.081978
0.130653
0.162561
0.156290
0.145923
0.134577
0.099155
0.061784
0.017643
-0.037341
-0.080679
-0.115439
-0.109547
-0.098664
-0.109708
-0.119521
-0.117714
-0.091128
-0.043627
0.003419
0.008970
0.020643
0.090836
0.143128
0.169769
0.165391
0.080061
0.065970
0.045164
-0.033019
-0.098604
-0.124783
-0.146732
-0.168899
-0.164186
-0.113794
-0.060216
-0.024853
-0.015120
0.011616
0.072101
0.111523
0.126820
0.111515
0.067385
0.100260
0.100317
0.064321
0.009476
-0.062683
-0.101784
-0.160722
-0.188375
-0.177762
-0.157003
-0.121037
-0.101453
-0.049729
0.005013
0.061539
0.096220
0.136862
0.135251
0.158997
0.152979
0.146611
0.127067
0.089905
0.036341
-0.020806
-0.078499
-0.082221
-0.101493
-0.097096
-0.082569
-0.090612
-0.060474
-0.027691
0.026515
0.077497
0.119907
0.160155
0.169298
0.171903
0.164877
0.128398
0.084809
0.040053
-0.013453
-0.038364
-0.060173
-0.101637
-0.099984
-0.126622
-0.105287
-0.067182
-0.038010
-0.019333
0.017819
0.075144
0.142502
0.163038
0.187248
0.204314
0.183123
0.177754
0.122364
0.059734
0.015284
-0.019708
-0.048003
-0.077039
-0.121219
-0.119884
-0.084776
-0.068833
-0.045018
-0.028554
-0.020301
0.037704
0.061889
0.099469
0.186878
0.232554
0.270921
0.241228
0.180428
0.079044
-0.000212
-0.032895
-0.049283
-0.077615
-0.105008
-0.124519
-0.116917
-0.095268
-0.063538
-0.044811
-0.009976
0.033272
0.060217
0.100213
0.133130
0.142341
0.113080
0.099145
0.060135
0.017544
-0.031202
-0.064272
-0.081127
-0.109789
-0.095442
-0.091913
-0.108487
-0.147754
-0.124383
-0.050410
-0.032623
0.021750
0.050178
0.093342
0.132534
0.149454
0.143246
0.104930
0.051870
0.011766
-0.028990
-0.074278
-0.123989
-0.170403
-0.206873
-0.186735
-0.178138
-0.155930
-0.093420
-0.063616
-0.049261
-0.022179
0.044340
0.126719
0.177838
0.156274
0.107513
0.079866
0.053227
0.011600
-0.055833
-0.102068
-0.113849
-0.143636
-0.159175
-0.156190
-0.157876
-0.144114
-0.104625
-0.071986
-0.036325
-0.008149
0.019552
0.057980
0.092614
0.110357
0.094615
0.097517
0.070462
0.012490
-0.015966
-0.049798
-0.070174
-0.099474
-0.136758
-0.168672
-0.167943
-0.143547
-0.109389
-0.057951
-0.006654
0.032054
0.054350
0.095320
0.123149
0.135137
0.125001
0.088062
0.058587
0.018807
-0.027666
-0.063495
-0.096053
-0.129842
-0.151934
-0.139493
-0.128550
-0.084208
-0.030371
0.056512
0.128026
0.171369
0.223625
0.294450
0.331696
0.362214
0.381267
0.389303
0.387912
0.355825
0.338751
0.334889
0.321232
0.323371
0.329887
0.343704
0.372563
0.414907
0.513360
0.601723
0.696802
0.788927
0.857446
0.918293
0.946827
0.945399
0.937065
0.883505
0.840796
0.801149
0.742008
0.647324
0.520913
0.425471
0.334110
0.249516
0.189546
0.147637
0.100780
0.077457
0.079331
0.102959
0.147999
0.206439
0.263238
0.325699
0.350447
0.287418
0.244110
0.180015
0.115274
0.047104
-0.012629
-0.034720
-0.072266
-0.087225
-0.072018
-0.043971
-0.025811
-0.010804
0.029827
0.077900
0.103937
0.145652
0.179589
0.196358
0.185417
0.157927
0.124773
0.095403
0.056224
0.021692
-0.040819
-0.108484
-0.136587
-0.125466
-0.122021
-0.116588
-0.078581
-0.035805
0.020638
0.063789
0.092922
0.119334
0.153737
0.172490
0.165144
0.120002
0.109235
0.062899
-0.000291
-0.043581
-0.076250
-0.096218
-0.114579
-0.141321
-0.143767
-0.138128
-0.122762
-0.076852
-0.018717
0.031486
0.063619
0.107826
0.165475
0.199616
0.193349
0.153479
0.114745
0.068995
0.014508
-0.033289
-0.054272
-0.081194
-0.101690
-0.130983
-0.132348
-0.116340
-0.080454
-0.026620
0.002132
0.041194
0.074239
0.095724
0.112667
0.126975
0.127952
0.114334
0.076391
0.075955
0.103804
0.076724
0.029639
-0.025930
-0.061925
-0.110180
-0.122340
-0.089195
-0.051201
-0.004145
0.052134
0.103044
0.141760
0.171018
0.195011
0.208146
0.196273
0.180717
0.168927
0.134062
0.093820
0.044642
0.001184
-0.031531
-0.060550
-0.065140
-0.058264
-0.033655
-0.023472
0.007370
0.059397
0.120307
0.177620
0.208334
0.215099
0.230281
0.215177
0.198965
0.163898
0.138658
0.092737
0.062819
0.022397
-0.017779
-0.014796
-0.010432
-0.011810
-0.011306
0.001999
0.045000
0.108266
0.155639
0.188198
0.226099
0.261472
0.264577
0.280605
0.249854
0.207125
0.147400
0.101379
0.054754
0.028200
0.006800
-0.021283
-0.036453
-0.013506
0.046585
0.058047
0.072255
0.127179
0.170591
0.211689
0.242073
0.271996
0.296336
0.283642
0.260048
0.218743
0.173611
0.129685
0.082825
0.021455
-0.011163
-0.033955
-0.047592
-0.032003
-0.020575
0.005997
0.044234
0.082700
0.109654
0.148063
0.179509
0.183820
0.204489
0.238529
0.243460
0.231716
0.213746
0.146516
0.081580
0.011080
-0.034649
-0.064920
-0.074059
-0.080929
-0.048572
-0.039118
-0.001360
0.056003
0.098631
0.143781
0.188624
0.209061
0.211587
0.202175
0.176186
0.145787
0.089500
0.037572
-0.014947
-0.064625
-0.105972
-0.131237
-0.142861
-0.139689
-0.119780
-0.109123
-0.059147
-0.007780
0.063327
0.156371
0.187501
0.160476
0.157768
0.156655
0.140879
0.108317
0.065955
0.002758
-0.039128
-0.083280
-0.125735
-0.141741
-0.147663
-0.137522
-0.114170
-0.091637
-0.054458
-0.035407
0.011221
0.064602
0.096986
0.115722
0.141870
0.133193
0.103881
0.068559
0.021489
-0.030852
-0.069507
-0.118709
-0.160808
-0.166763
-0.174676
-0.153655
-0.129071
-0.096273
-0.064958
-0.033425
-0.006881
0.044989
0.097307
0.111111
0.118415
0.111744
0.090813
0.069207
0.010236
-0.032138
-0.061547
-0.114248
-0.143609
-0.169027
-0.181329
-0.174513
-0.138258
-0.112069
-0.079506
-0.028339
0.018125
0.072921
0.110088
0.135645
0.154116
0.119299
0.087534
0.055964
0.020378
-0.014479
-0.055918
-0.097211
-0.135274
-0.159932
-0.160878
-0.145953
-0.128069
-0.106160
-0.072609
-0.023828
0.000609
0.026859
0.061727
0.081272
0.101976
0.094148
0.090718
0.083116
0.066311
0.029232
-0.017182
-0.072901
-0.113473
-0.145002
-0.163018
-0.142461
-0.120602
-0.110319
-0.071007
-0.016676
0.028319
0.064773
0.102982
0.134020
0.139797
0.136661
0.113573
0.073938
0.034103
-0.009338
-0.065765
-0.117578
-0.152961
-0.174714
-0.179939
-0.180343
-0.153107
-0.125854
-0.084193
-0.021721
0.035616
0.093356
0.123958
0.141619
0.147958
0.142899
0.129706
0.090748
0.046902
-0.008482
-0.059528
-0.099301
-0.125489
-0.156879
-0.179590
-0.166827
-0.131515
-0.110671
-0.074942
-0.028196
0.021901
0.052880
0.086924
0.110867
0.114240
0.113222
0.086079
0.067231
0.022982
-0.025802
-0.076318
-0.116601
-0.145603
-0.170205
-0.171084
-0.162953
-0.128732
-0.104242
-0.057971
-0.017523
0.017715
0.058537
0.103960
0.129448
0.125911
0.103551
0.079226
0.025735
0.009120
-0.063006
-0.074952
-0.103124
-0.163408
-0.197903
-0.187318
-0.185216
-0.161141
-0.083727
-0.065504
0.002976
0.011268
0.047217
0.092996
0.112904
0.115661
0.101713
0.066130
0.019217
-0.005318
-0.030879
-0.057519
-0.101808
-0.159649
-0.185007
-0.190345
-0.181631
-0.170727
-0.150332
-0.123118
-0.094005
0.005128
0.048243
0.075226
0.135695
0.129386
0.126122
0.118054
0.074612
0.023147
-0.029046
-0.091857
-0.145375
-0.151887
-0.178665
-0.206424
-0.197092
-0.175807
-0.136689
-0.098493
-0.047526
-0.003458
0.038345
0.078731
0.110198
0.110210
0.110648
0.073880
0.053272
0.029334
-0.027388
-0.092266
-0.137493
-0.187988
-0.174366
-0.191888
-0.202349
-0.190865
-0.153209
-0.098782
-0.061817
-0.002647
0.039971
0.083609
0.085667
0.091068
0.091689
0.078432
0.048671
0.001450
-0.040410
-0.095935
-0.131281
-0.174354
-0.187787
-0.202201
-0.200264
-0.188002
-0.162628
-0.113446
-0.065445
-0.032031
0.018909
0.052508
0.074871
0.082528
0.074132
0.067759
0.042582
0.003623
-0.060154
-0.116670
-0.162583
-0.194633
-0.214848
-0.195821
-0.193653
-0.180117
-0.148692
-0.108592
-0.053604
-0.002711
0.031464
0.047257
0.064365
0.083297
0.076194
0.049245
0.016622
-0.029237
-0.072275
-0.115505
-0.160435
-0.199075
-0.191897
-0.199354
-0.197296
-0.190252
-0.158933
-0.136526
-0.054385
0.000444
0.030689
0.055027
0.102550
0.105071
0.090533
0.074059
0.053161
0.004759
-0.047157
-0.102056
-0.146446
-0.191033
-0.205801
-0.196345
-0.187991
-0.165568
-0.122316
-0.092139
-0.033205
0.026354
0.081652
0.105501
0.112450
0.123847
0.112206
0.088266
0.038963
-0.002595
-0.024306
-0.078680
-0.128084
-0.166100
-0.198304
-0.214918
-0.198394
-0.163637
-0.124687
-0.093728
-0.035555
0.004234
0.046608
0.072435
0.103231
0.128756
0.137717
0.117290
0.077045
0.047177
-0.006951
-0.060792
-0.101142
-0.137854
-0.153583
-0.162621
-0.154753
-0.137444
-0.116158
-0.094310
-0.051122
-0.007717
0.026754
0.053162
0.092422
0.092058
0.077471
0.050788
0.032685
-0.002255
-0.054804
-0.109051
-0.168677
-0.204217
-0.216879
-0.241567
-0.226376
-0.188380
-0.161602
-0.125917
-0.076948
-0.035333
0.000541
0.031310
0.043831
0.052308
0.062908
0.060574
0.012895
-0.047070
-0.107861
-0.120257
-0.168550
-0.193031
-0.222029
-0.219074
-0.226256
-0.201553
-0.165575
-0.140396
-0.102586
-0.067325
-0.027675
0.019312
0.032868
0.039069
0.046594
0.025725
-0.010018
-0.041727
-0.098235
-0.147761
-0.184753
-0.228899
-0.248840
-0.249878
-0.244059
-0.206943
-0.179151
-0.152159
-0.097114
-0.057399
-0.010256
0.017583
0.026580
0.030264
0.030669
0.002274
-0.033544
-0.068112
-0.125997
-0.176151
-0.205827
-0.261280
-0.255964
-0.246353
-0.239141
-0.232163
-0.187313
-0.155126
-0.119132
-0.058553
-0.018955
0.021507
0.037141
0.049193
0.029361
0.023077
-0.009802
-0.051526
-0.108348
-0.166614
-0.212681
-0.269049
-0.301533
-0.292593
-0.284610
-0.269589
-0.264673
-0.171147
-0.132070
-0.100043
-0.040416
-0.009360
0.028090
0.052417
0.060706
0.043233
0.026030
-0.003466
-0.054556
-0.091969
-0.136182
-0.145784
-0.168551
-0.157317
-0.145950
-0.104692
-0.062329
-0.016367
0.049255
0.115768
0.173687
0.225476
0.288384
0.310749
0.337064
0.354787
0.361654
0.357742
0.323590
0.303662
0.300678
0.297465
0.310644
0.336095
0.388302
0.444349
0.501011
0.576734
0.666152
0.745189
0.769491
0.804013
0.816477
0.828780
0.804070
0.762440
0.713212
0.663784
0.558132
0.431537
0.329144
0.216360
0.118976
0.109527
0.040413
0.003442
-0.011050
-0.012201
-0.007956
0.074170
0.104776
0.139663
0.147910
0.145409
0.138599
0.130460
0.084632
0.027208
-0.016284
-0.080329
-0.130465
-0.141658
-0.171728
-0.178808
-0.181723
-0.165985
-0.128063
-0.085216
-0.034668
0.009772
0.043192
0.067009
0.081019
0.097778
0.092273
0.071361
0.041832
-0.012427
-0.051003
-0.095123
-0.137734
-0.204441
-0.228054
-0.232417
-0.223346
-0.204590
-0.173329
-0.122885
-0.077619
-0.047454
-0.013222
0.019346
0.031989
0.076358
0.068409
0.038474
0.025170
-0.033728
-0.085104
-0.105725
-0.148875
-0.195672
-0.222592
-0.228386
-0.230021
-0.212013
-0.175014
-0.126416
-0.084814
-0.039489
-0.000495
0.051992
0.072870
0.079889
0.072134
0.050305
0.007005
-0.022467
-0.068621
-0.120471
-0.166251
-0.209990
-0.230878
-0.233118
-0.186608
-0.194063
-0.155058
-0.122313
-0.088250
-0.038334
0.000829
0.051927
0.080675
0.101152
0.098606
0.062740
0.024345
-0.031231
-0.021271
-0.066718
-0.114895
-0.153685
-0.171405
-0.185470
-0.191510
-0.172821
-0.130319
-0.090280
-0.047707
0.005221
0.058461
0.098562
0.120133
0.129878
0.134413
0.108028
0.068204
0.024930
-0.022917
-0.063879
-0.110411
-0.146055
-0.166005
-0.171192
-0.143312
-0.107487
-0.078385
-0.045665
0.006110
0.072116
0.100239
0.103451
0.102710
0.121422
0.123856
0.115857
0.077795
0.049493
0.001030
-0.041956
-0.078567
-0.116740
-0.118383
-0.115834
-0.098524
-0.081722
-0.059100
-0.018907
0.019001
0.057201
0.102609
0.139754
0.166741
0.175360
0.178536
0.172005
0.128713
0.083054
0.031707
-0.004887
-0.049859
-0.049478
-0.088830
-0.117883
-0.106783
-0.086556
-0.058337
-0.028133
0.034123
0.073700
0.105905
0.142722
0.172627
0.182380
0.171851
0.145466
0.112012
0.072340
0.037822
-0.012770
-0.075786
-0.109523
-0.133929
-0.148948
-0.142749
-0.108988
-0.069746
-0.023418
0.031824
0.068478
0.095664
0.123309
0.145546
0.152122
0.158036
0.135956
0.094423
0.058045
0.022264
-0.044378
-0.095146
-0.128747
-0.144343
-0.162898
-0.172582
-0.154539
-0.127270
-0.082223
-0.041566
0.004135
0.053409
0.128599
0.125765
0.121596
0.120234
0.081298
0.057613
0.010256
-0.041940
-0.087848
-0.136803
-0.170841
-0.202943
-0.207216
-0.195524
-0.177765
-0.148816
-0.107969
-0.079094
-0.043122
-0.006668
0.046732
0.080604
0.089874
0.074639
0.040928
0.022620
-0.015037
-0.061328
-0.118076
-0.166528
-0.200623
-0.226787
-0.240194
-0.237221
-0.206602
-0.178725
-0.136234
-0.105844
-0.060282
-0.017795
0.016623
0.048067
0.057787
0.029271
0.011066
-0.015061
-0.053417
-0.091935
-0.136940
-0.176069
-0.199341
-0.232414
-0.250799
-0.231917
-0.209419
-0.185367
-0.146666
-0.127787
-0.098877
-0.040286
0.007904
0.022177
0.011181
0.020914
0.000760
-0.032576
-0.080066
-0.117735
-0.151983
-0.197946
-0.215622
-0.244524
-0.264766
-0.267393
-0.242702
-0.202982
-0.159671
-0.123368
-0.070303
-0.030546
-0.000800
0.027767
0.045271
0.025019
0.009896
-0.009985
-0.066194
-0.105907
-0.145036
-0.179625
-0.218609
-0.251693
-0.257766
-0.246504
-0.235139
-0.200261
-0.155711
-0.106520
-0.058102
-0.011267
0.011699
0.024821
0.041783
0.036571
0.022496
-0.011982
-0.063425
-0.109399
-0.170296
-0.219617
-0.245472
-0.209968
-0.227521
-0.206251
-0.192833
-0.185067
-0.171466
-0.098938
-0.037727
0.003920
0.038130
0.056419
0.056017
0.028861
0.025556
0.012192
-0.011184
-0.066032
-0.110994
-0.166538
-0.202820
-0.233982
-0.239190
-0.242255
-0.214095
-0.188709
-0.148430
-0.109312
-0.068125
-0.015846
0.016543
0.049145
0.066617
0.060577
0.036182
0.000767
-0.051402
-0.095974
-0.140054
-0.159712
-0.192697
-0.222946
-0.240133
-0.246794
-0.233034
-0.201564
-0.152220
-0.116002
-0.050023
0.025884
0.041192
0.062088
0.064984
0.060068
0.033596
-0.001813
-0.041478
-0.078073
-0.133450
-0.177223
-0.204282
-0.234512
-0.244615
-0.239203
-0.217214
-0.183968
-0.143761
-0.100979
-0.050818
0.011999
0.048553
0.058506
0.069707
0.048940
0.025866
0.001390
-0.047310
-0.099257
-0.160022
-0.185937
-0.215461
-0.249303
-0.241884
-0.242743
-0.230456
-0.197275
-0.152602
-0.116432
-0.063279
-0.020800
0.008605
0.014167
0.038362
0.057262
0.024278
-0.010785
-0.042389
-0.090681
-0.150241
-0.189486
-0.203177
-0.219117
-0.241171
-0.254906
-0.243970
-0.205812
-0.154021
-0.114467
-0.071478
-0.025183
0.000456
0.037447
0.043540
0.041608
0.028310
-0.005371
-0.047648
-0.096985
-0.158985
-0.204212
-0.234391
-0.246143
-0.251127
-0.256683
-0.243336
-0.198387
-0.162786
-0.115512
-0.076931
-0.038676
-0.002381
0.022154
0.028131
0.027071
-0.008563
-0.046160
-0.104282
-0.142196
-0.150979
-0.195879
-0.206286
-0.242785
-0.286636
-0.240493
-0.217474
-0.195331
-0.174504
-0.134927
-0.068899
-0.028362
-0.000445
0.021373
0.032288
0.019521
0.001304
-0.034127
-0.085361
-0.132755
-0.179557
-0.216704
-0.250051
-0.262219
-0.263255
-0.270252
-0.231829
-0.189625
-0.141184
-0.098663
-0.070066
-0.018311
0.012488
0.036781
0.048055
0.036090
0.014001
-0.018387
-0.073021
-0.113372
-0.135243
-0.200947
-0.228841
-0.237536
-0.255272
-0.248060
-0.214284
-0.174342
-0.135007
-0.075400
-0.030002
0.019459
0.045319
0.057636
0.052797
0.048155
0.032933
0.010066
-0.022707
-0.084539
-0.132070
-0.177802
-0.214805
-0.238167
-0.224440
-0.226456
-0.210236
-0.176706
-0.126534
-0.082399
-0.034006
0.017569
0.045653
0.064627
0.070242
0.069853
0.036469
0.004947
-0.032846
-0.073022
-0.110369
-0.161358
-0.193140
-0.193721
-0.200735
-0.201625
-0.194509
-0.162518
-0.125653
-0.082804
-0.038452
0.003477
0.036430
0.064096
0.069130
0.059460
0.042717
-0.002784
-0.051125
-0.106154
-0.159526
-0.178022
-0.210318
-0.253750
-0.256904
-0.266706
-0.254232
-0.224238
-0.176700
-0.142296
-0.100294
-0.031110
0.039161
0.049274
0.048927
0.040622
0.013793
-0.013993
-0.063199
-0.121612
-0.164836
-0.219966
-0.266126
-0.313849
-0.290667
-0.275811
-0.268483
-0.228385
-0.182563
-0.144358
-0.110113
-0.055423
-0.023926
0.011073
0.009265
-0.001101
-0.028017
-0.061428
-0.091460
-0.141441
-0.190892
-0.239327
-0.260525
-0.274613
-0.282238
-0.282540
-0.255474
-0.232548
-0.185810
-0.153206
-0.100419
-0.057986
-0.030188
-0.022973
0.000451
-0.005290
-0.023575
-0.057134
-0.094839
-0.150755
-0.194615
-0.255161
-0.265008
-0.280771
-0.292528
-0.285029
-0.268510
-0.241206
-0.189857
-0.137066
-0.097457
-0.062767
-0.023593
0.007159
0.011690
-0.013193
-0.040117
-0.063456
-0.112291
-0.166832
-0.200533
-0.248142
-0.277666
-0.289867
-0.295783
-0.284640
-0.264263
-0.243829
-0.187358
-0.143361
-0.103649
-0.078177
-0.050376
-0.022712
-0.006474
-0.019606
-0.059866
-0.086538
-0.117500
-0.166183
-0.200564
-0.238841
-0.270897
-0.281234
-0.263148
-0.246091
-0.226365
-0.189320
-0.112919
-0.030400
0.023876
0.081115
0.146114
0.187826
0.215195
0.211947
0.207338
0.201992
0.191454
0.168244
0.161904
0.142352
0.142923
0.160240
0.173671
0.204824
0.263460
0.328290
0.412203
0.501606
0.577325
0.655480
0.720687
0.791453
0.834441
0.825573
0.802758
0.771317
0.713987
0.652403
0.600018
0.542176
0.462827
0.388788
0.307833
0.236868
0.201912
0.188437
0.176124
0.175829
0.181966
0.167903
0.164719
0.164736
0.155975
0.141823
0.121405
0.065266
0.034558
-0.029993
-0.078561
-0.108555
-0.147736
-0.191903
-0.190067
-0.173410
-0.155303
-0.132475
-0.101970
-0.058228
-0.025339
0.022248
0.052346
0.082308
0.093484
0.056745
0.021986
-0.024566
-0.046468
-0.101474
-0.145102
-0.187927
-0.210251
-0.235832
-0.246785
-0.242731
-0.213754
-0.185312
-0.149497
-0.114524
-0.086312
-0.043466
0.002400
0.033456
0.043945
0.030128
0.000684
-0.022648
-0.072738
-0.136997
-0.171481
-0.199588
-0.235114
-0.263560
-0.241092
-0.249289
-0.242115
-0.204624
-0.169328
-0.118527
-0.087105
-0.046435
0.002398
0.043739
0.050671
0.043294
0.034682
-0.000747
-0.047648
-0.090359
-0.141737
-0.187868
-0.223075
-0.225901
-0.241964
-0.227193
-0.196619
-0.183887
-0.151710
-0.099935
-0.062690
-0.025971
0.012300
0.040918
0.069006
0.068153
0.051806
0.021579
-0.034377
-0.079716
-0.128571
-0.164408
-0.192590
-0.211743
-0.229703
-0.221005
-0.190377
-0.169682
-0.142665
-0.090056
-0.048474
-0.008311
0.019146
0.041269
0.062908
0.078962
0.054103
0.026809
-0.026225
-0.057479
-0.098916
-0.130476
-0.155093
-0.165033
-0.193146
-0.193675
-0.168418
-0.135758
-0.091339
-0.027138
0.015096
0.058291
0.091802
0.113330
0.136707
0.114376
0.083754
0.061561
0.015679
-0.041651
-0.079847
-0.130662
-0.152814
-0.162612
-0.168790
-0.159088
-0.148701
-0.113489
-0.058933
-0.010468
0.044924
0.071352
0.109141
0.127621
0.144100
0.129053
0.105414
0.076227
0.052601
0.017391
-0.032113
-0.095386
-0.128005
-0.154110
-0.173663
-0.152417
-0.123004
-0.096211
-0.058417
-0.019540
0.033295
0.084753
0.124838
0.135966
0.140509
0.139205
0.112854
0.085185
0.040058
-0.019578
-0.066471
-0.104381
-0.129314
-0.157785
-0.185524
-0.171616
-0.152984
-0.117316
-0.077056
-0.031265
0.018715
0.064870
0.084219
0.090535
0.101884
0.105968
0.107533
0.066983
0.022812
-0.029740
-0.087069
-0.130790
-0.177107
-0.196968
-0.188723
-0.186088
-0.170462
-0.148456
-0.105883
-0.065536
-0.019380
0.042953
0.069183
0.071421
0.088098
0.075929
0.042130
0.008575
-0.031260
-0.073963
-0.118769
-0.151194
-0.200371
-0.217102
-0.243424
-0.239771
-0.225670
-0.202077
-0.154878
-0.108886
-0.065835
-0.028567
-0.002637
0.026969
0.044103
0.036739
0.010308
-0.038205
-0.073978
-0.120669
-0.157872
-0.207074
-0.254070
-0.298514
-0.295615
-0.268932
-0.255935
-0.221963
-0.183365
-0.098822
-0.024092
-0.001001
0.022521
0.028444
0.029824
0.018654
0.003848
-0.014109
-0.063350
-0.107146
-0.152592
-0.197019
-0.240825
-0.269462
-0.271905
-0.277658
-0.252184
-0.210352
-0.179332
-0.144981
-0.094230
-0.056366
-0.028013
0.002529
0.011548
0.017192
-0.005395
-0.032891
-0.081925
-0.128123
-0.169457
-0.215678
-0.247024
-0.259020
-0.272699
-0.271520
-0.248876
-0.233441
-0.182508
-0.129184
-0.081646
-0.049755
-0.019858
-0.000538
0.036579
0.027150
0.007645
-0.026893
-0.063359
-0.108513
-0.164021
-0.200537
-0.246865
-0.259066
-0.280333
-0.283557
-0.264399
-0.239051
-0.169403
-0.099599
-0.067961
-0.045636
-0.026059
0.006935
0.022837
0.032285
0.014217
-0.023021
-0.075459
-0.118146
-0.163085
-0.194786
-0.220271
-0.251979
-0.243093
-0.249173
-0.239550
-0.202219
-0.166874
-0.124601
-0.072951
-0.031222
-0.001727
0.019087
0.021719
0.013619
0.002596
-0.030935
-0.062900
-0.112059
-0.152593
-0.190417
-0.223812
-0.250557
-0.263085
-0.261362
-0.245166
-0.202577
-0.156789
-0.112740
-0.058058
-0.021321
-0.005886
-0.003824
0.010934
0.006427
0.000292
-0.027776
-0.064326
-0.100528
-0.144046
-0.167671
-0.210605
-0.242859
-0.251812
-0.241031
-0.208631
-0.185910
-0.160968
-0.114759
-0.074529
-0.029104
-0.004340
0.002793
0.020367
0.032190
0.023131
-0.025183
-0.074853
-0.113114
-0.154871
-0.196834
-0.218852
-0.234141
-0.230056
-0.225498
-0.205938
-0.185698
-0.138984
-0.094823
-0.051161
-0.020489
0.011546
0.038401
0.044289
0.022884
0.004528
-0.043211
-0.079554
-0.135358
-0.193749
-0.201339
-0.216363
-0.254771
-0.260938
-0.263391
-0.254086
-0.211332
-0.160358
-0.117986
-0.067061
-0.020022
0.028530
0.040604
0.041706
0.033330
0.024130
-0.020684
-0.062496
-0.105031
-0.135656
-0.177053
-0.219721
-0.249592
-0.270778
-0.266938
-0.250031
-0.207966
-0.171754
-0.131527
-0.083945
-0.053371
-0.011755
0.011617
0.020583
0.005703
-0.013365
-0.033572
-0.071296
-0.121453
-0.160278
-0.197568
-0.230702
-0.268737
-0.276368
-0.280520
-0.250832
-0.230277
-0.190865
-0.112093
-0.060721
-0.024803
0.009592
0.021296
0.027054
0.001483
-0.024130
-0.055420
-0.099103
-0.147741
-0.197759
-0.187789
-0.213875
-0.229077
-0.253651
-0.259146
-0.252203
-0.196378
-0.147446
-0.119876
-0.080835
-0.048380
-0.008163
0.002879
0.018006
0.021001
-0.003020
-0.034351
-0.084356
-0.130904
-0.173559
-0.218800
-0.263909
-0.279214
-0.280133
-0.279443
-0.254064
-0.204302
-0.162602
-0.123407
-0.078176
-0.044880
-0.003930
0.028921
0.034223
0.020011
0.001709
-0.017620
-0.065765
-0.108707
-0.151640
-0.185664
-0.211905
-0.231686
-0.231269
-0.224765
-0.208307
-0.183095
-0.144612
-0.080264
-0.033014
-0.000652
0.035634
0.047487
0.051507
0.051461
0.026003
-0.016322
-0.050125
-0.102246
-0.158727
-0.197429
-0.218637
-0.235809
-0.237159
-0.231503
-0.226413
-0.194986
-0.160406
-0.106769
-0.056576
-0.010246
0.032216
0.065706
0.058099
0.069524
0.051698
0.006746
-0.023215
-0.054519
-0.097357
-0.130148
-0.175851
-0.193199
-0.214739
-0.225782
-0.210163
-0.168848
-0.121632
-0.082175
-0.043414
-0.004381
0.017316
0.041121
0.032021
0.039574
0.037729
0.002551
-0.048868
-0.093617
-0.156848
-0.197410
-0.220521
-0.254064
-0.260110
-0.269187
-0.250312
-0.207631
-0.158367
-0.119206
-0.077188
-0.048445
-0.007431
0.024571
0.005920
-0.001187
-0.027939
-0.066265
-0.097805
-0.135213
-0.186986
-0.218426
-0.258126
-0.283725
-0.289617
-0.287773
-0.266924
-0.235016
-0.194923
-0.160082
-0.124452
-0.097018
-0.057261
-0.025610
-0.024678
-0.020725
-0.025205
-0.068528
-0.111047
-0.160113
-0.205909
-0.248646
-0.267531
-0.280252
-0.297537
-0.291871
-0.271704
-0.222072
-0.185977
-0.146938
-0.111228
-0.065647
-0.029610
-0.011501
-0.016218
-0.021595
-0.037153
-0.069130
-0.104081
-0.158809
-0.204763
-0.246887
-0.278829
-0.301222
-0.287807
-0.278346
-0.283340
-0.245787
-0.205003
-0.161335
-0.108131
-0.068241
-0.030754
-0.000725
0.003590
-0.003918
-0.024464
-0.057951
-0.107877
-0.164804
-0.219553
-0.245437
-0.272583
-0.290186
-0.291713
-0.291535
-0.267874
-0.247360
-0.208214
-0.156002
-0.103704
-0.073055
-0.041388
-0.021300
-0.015507
-0.020868
-0.040396
-0.062105
-0.086772
-0.127354
-0.173656
-0.205471
-0.221799
-0.222347
-0.209258
-0.190945
-0.178347
-0.119216
-0.075685
-0.016774
0.035971
0.094746
0.129694
0.180225
0.209116
0.237405
0.250238
0.278558
0.269236
0.246697
0.211518
0.185576
0.223900
0.243117
0.278338
0.321295
0.362260
0.429802
0.502169
0.588810
0.679654
0.748637
0.786422
0.803272
0.800712
0.783053
0.730135
0.688792
0.644765
0.563169
0.481819
0.398706
0.296241
0.203015
0.149174
0.109563
0.075416
0.068516
0.059522
0.059951
0.078774
0.118454
0.124520
0.138561
0.130764
0.108607
0.077777
0.054705
0.037127
-0.016798
-0.088144
-0.141187
-0.171795
-0.197867
-0.190877
-0.186128
-0.176216
-0.137559
-0.095679
-0.051702
-0.018685
0.021983
0.035759
0.049659
0.045390
0.054146
0.034532
-0.013625
-0.062395
-0.089892
-0.140584
-0.178127
-0.223763
-0.248190
-0.241837
-0.234077
-0.219315
-0.200174
-0.158948
-0.105207
-0.061765
-0.029991
0.009944
0.042239
0.048248
0.034803
0.020284
-0.016295
-0.057116
-0.104425
-0.143443
-0.190033
-0.212343
-0.232169
-0.250137
-0.245446
-0.229297
-0.199903
-0.144621
-0.129062
-0.034236
-0.015746
0.005670
0.033180
0.040190
0.033767
0.011564
-0.025012
-0.058140
-0.079076
-0.124713
-0.162312
-0.199433
-0.225159
-0.238723
-0.225820
-0.218121
-0.196061
-0.145877
-0.107712
-0.068313
-0.017888
0.028958
0.058563
0.060811
0.064535
0.041617
0.008113
-0.031626
-0.076903
-0.131243
-0.170471
-0.189677
-0.193365
-0.203128
-0.203474
-0.173099
-0.141553
-0.099958
-0.065906
-0.026253
0.016277
0.072434
0.080888
0.080821
0.079242
0.069162
0.033058
-0.021166
-0.073533
-0.119730
-0.142887
-0.157160
-0.180130
-0.184878
-0.184249
-0.158553
-0.135233
-0.080473
-0.025256
0.019064
0.065879
0.100033
0.107226
0.118189
0.106564
0.089102
0.052259
0.010099
-0.038048
-0.072202
-0.109204
-0.135920
-0.165916
-0.156956
-0.144328
-0.138896
-0.093788
-0.052163
-0.008899
0.036602
0.077930
0.112479
0.137328
0.151587
0.143834
0.127926
0.089143
0.051846
0.004344
-0.038772
-0.071324
-0.107081
-0.146997
-0.145457
-0.139226
-0.127410
-0.093641
-0.044394
-0.003996
0.039011
0.071098
0.101328
0.138983
0.134450
0.125021
0.117288
0.079141
0.041530
0.006451
-0.053462
-0.104220
-0.121067
-0.162184
-0.155653
-0.143882
-0.135941
-0.116390
-0.078255
-0.025490
0.021200
0.064684
0.094037
0.112628
0.115703
0.113243
0.096862
0.057925
0.009208
-0.036420
-0.077759
-0.116433
-0.146612
-0.169218
-0.198708
-0.199031
-0.188276
-0.160836
-0.111485
-0.053422
-0.012118
0.040373
0.061769
0.071186
0.066065
0.073774
0.076193
0.027376
-0.033612
-0.078577
-0.115912
-0.152700
-0.177975
-0.204381
-0.217183
-0.212622
-0.193507
-0.158146
-0.114628
-0.091600
-0.050063
-0.018917
0.020687
0.016675
0.031297
0.055370
0.025918
-0.033085
-0.067559
-0.114583
-0.169279
-0.199821
-0.216693
-0.241567
-0.250721
-0.224638
-0.203593
-0.177422
-0.141788
-0.097299
-0.060481
-0.012147
0.010028
0.026694
0.033949
0.014779
-0.001858
-0.029189
-0.071316
-0.124055
-0.170901
-0.213162
-0.238852
-0.256527
-0.265137
-0.258820
-0.252333
-0.206236
-0.154185
-0.098557
-0.067070
-0.007601
0.002391
0.026783
0.027490
0.017988
0.003703
-0.017867
-0.047772
-0.081565
-0.129510
-0.182047
-0.229267
-0.261965
-0.274545
-0.275846
-0.254429
-0.209176
-0.158441
-0.122891
-0.069565
-0.029570
0.006521
0.024090
0.032482
0.021976
0.017811
-0.013295
-0.069754
-0.101750
-0.128959
-0.173838
-0.210384
-0.238474
-0.240417
-0.251221
-0.235256
-0.207999
-0.157205
-0.115150
-0.072092
-0.041294
0.013565
0.040829
0.045590
0.029992
0.014550
-0.011898
-0.066995
-0.118713
-0.142021
-0.177826
-0.207398
-0.235987
-0.249644
-0.240994
-0.217394
-0.183542
-0.146674
-0.098522
-0.051542
-0.014930
0.018334
0.036904
0.059283
0.045076
0.021422
-0.021844
-0.049136
-0.084598
-0.134606
-0.168548
-0.203050
-0.237145
-0.261054
-0.216702
-0.198600
-0.176297
-0.147482
-0.097642
-0.060378
-0.033235
0.019787
0.039203
0.055055
0.055054
0.019221
-0.020578
-0.069250
-0.114584
-0.168590
-0.201907
-0.226225
-0.243334
-0.261459
-0.199496
-0.164924
-0.157689
-0.127513
-0.071962
-0.018314
0.003021
0.016014
0.033286
0.049554
0.047774
0.025768
-0.000250
-0.031183
-0.088439
-0.152687
-0.200784
-0.231535
-0.247637
-0.246205
-0.225043
-0.207335
-0.180736
-0.153726
-0.099889
-0.040336
-0.005064
0.025205
0.046965
0.049373
0.041243
0.034488
-0.009850
-0.055145
-0.110726
-0.157699
-0.194580
-0.241601
-0.260937
-0.258694
-0.252976
-0.220031
-0.203956
-0.159944
-0.115758
-0.055455
-0.025581
0.003702
0.024127
0.031361
0.033536
0.015513
-0.008075
-0.047428
-0.103499
-0.147903
-0.179317
-0.221772
-0.226646
-0.235874
-0.256286
-0.244227
-0.223116
-0.189848
-0.132989
-0.075009
-0.032364
-0.007157
0.023817
0.045229
0.034874
0.016330
-0.017489
-0.070307
-0.104179
-0.149638
-0.181195
-0.213955
-0.230303
-0.246476
-0.230186
-0.222589
-0.194685
-0.157406
-0.103669
-0.062786
-0.035249
0.001069
0.026443
0.028893
0.023302
0.021704
-0.022055
-0.061725
-0.119021
-0.170650
-0.218381
-0.232046
-0.243059
-0.239083
-0.238663
-0.218353
-0.191527
-0.156237
-0.112850
-0.059692
-0.021374
-0.005945
0.019329
0.033005
0.021565
-0.004687
-0.032917
-0.063806
-0.112369
-0.154173
-0.200771
-0.232649
-0.259257
-0.268774
-0.248364
-0.244739
-0.209518
-0.156989
-0.112914
-0.063188
-0.022856
0.006825
0.014007
0.018356
0.024800
0.012850
-0.030470
-0.092598
-0.136986
-0.181390
-0.207908
-0.232521
-0.255509
-0.258876
-0.245265
-0.215743
-0.192302
-0.157229
-0.104314
-0.074308
-0.040674
0.003953
0.031737
0.055815
0.045743
0.010688
-0.025226
-0.063281
-0.111347
-0.166863
-0.215389
-0.247864
-0.258555
-0.256985
-0.245129
-0.232551
-0.211333
-0.172892
-0.113187
-0.057477
-0.034948
-0.000394
0.013039
0.023825
0.014274
-0.004279
-0.043060
-0.074504
-0.107732
-0.156999
-0.184319
-0.230794
-0.264663
-0.266525
-0.240814
-0.229250
-0.204140
-0.171788
-0.112976
-0.069271
-0.029839
-0.003389
0.008392
0.025612
0.033269
0.015922
-0.021675
-0.059482
-0.097229
-0.145664
-0.174445
-0.213995
-0.225529
-0.251423
-0.253969
-0.228138
-0.197548
-0.178138
-0.095340
-0.047502
0.003139
0.033247
0.039485
0.048106
0.044509
0.026877
-0.008355
-0.034185
-0.086724
-0.125924
-0.161440
-0.179660
-0.212605
-0.231268
-0.218416
-0.190897
-0.153090
-0.114077
-0.071951
-0.040528
0.000948
0.037607
0.057585
0.066543
0.067128
0.053042
0.018820
-0.016586
-0.080613
-0.114610
-0.152804
-0.189440
-0.196537
-0.186821
-0.174171
-0.177485
-0.156242
-0.127109
-0.073638
-0.014560
0.041266
0.097441
0.109685
0.084568
0.074529
0.047464
0.015470
-0.031727
-0.083169
-0.130623
-0.161798
-0.203589
-0.225378
-0.232778
-0.238051
-0.221671
-0.170384
-0.131143
-0.092484
-0.039855
-0.006744
0.015581
0.034270
0.059912
0.036503
0.015832
-0.006271
-0.042838
-0.090022
-0.148308
-0.197338
-0.228223
-0.245810
-0.256253
-0.258064
-0.228845
-0.207137
-0.155244
-0.105877
-0.066823
-0.033653
0.000085
0.019056
0.029499
0.009210
-0.013850
-0.022908
-0.049213
-0.118123
-0.163315
-0.200364
-0.231175
-0.255719
-0.279887
-0.287442
-0.270184
-0.209374
-0.170147
-0.116519
-0.072188
-0.058202
-0.020427
-0.006822
0.011379
0.004751
-0.016559
-0.059859
-0.097432
-0.129650
-0.163496
-0.209286
-0.245099
-0.256260
-0.243192
-0.238204
-0.235575
-0.218411
-0.180826
-0.140977
-0.084874
-0.039345
-0.004770
0.015566
0.018094
0.003426
-0.016263
-0.048822
-0.080333
-0.121805
-0.165727
-0.212703
-0.239028
-0.253738
-0.264542
-0.264314
-0.231575
-0.202535
-0.157643
-0.115401
-0.072368
-0.038867
-0.002737
0.008907
0.005558
0.000844
-0.006032
-0.034876
-0.079362
-0.140252
-0.182674
-0.233222
-0.274920
-0.288001
-0.282366
-0.274430
-0.245473
-0.203784
-0.141980
-0.078683
-0.031030
0.017016
0.075254
0.102905
0.111880
0.131031
0.134267
0.114069
0.087656
0.048555
0.027687
0.013383
-0.001808
0.002362
0.024906
0.063748
0.107650
0.182904
0.261710
0.352418
0.419835
0.490579
0.601792
0.635320
0.661554
0.668290
0.703271
0.728379
0.715201
0.704107
0.702940
0.681565
0.632188
0.588902
0.546515
0.550561
0.584318
0.564577
0.546106
0.530030
0.502425
0.485850
0.446106
0.414966
0.368449
0.325332
0.262995
0.177622
0.132551
0.079068
0.016783
-0.029363
-0.055259
-0.084824
-0.108917
-0.127179
-0.107479
-0.072292
-0.031601
0.000722
0.039834
0.079449
0.104287
0.127447
0.122722
0.102736
0.069143
0.055488
0.007555
-0.042379
-0.084451
-0.131430
-0.178194
-0.203509
-0.212331
-0.205401
-0.178101
-0.107361
-0.080088
-0.047068
-0.014568
0.016463
0.057065
0.071261
0.066529
0.052580
0.035760
-0.004794
-0.049806
-0.079806
-0.131623
-0.166086
-0.179108
-0.201034
-0.212599
-0.203011
-0.184426
-0.153070
-0.107193
-0.065829
-0.031961
0.021920
0.044218
0.068955
0.076667
0.062655
0.033393
0.013207
-0.027060
-0.069545
-0.105248
-0.153581
-0.189983
-0.217627
-0.210127
-0.209905
-0.184142
-0.155719
-0.102037
-0.063387
-0.002329
0.039766
0.055029
0.073419
0.081604
0.073853
0.047305
0.020365
-0.013159
-0.053646
-0.105867
-0.151120
-0.183841
-0.199516
-0.209623
-0.199498
-0.187457
-0.149144
-0.085691
-0.024240
0.019366
0.049951
0.092695
0.110080
0.099821
0.105474
0.088254
0.057928
0.012474
-0.015936
-0.056571
-0.098631
-0.135263
-0.162033
-0.171210
-0.157757
-0.131834
-0.098150
-0.046039
-0.014624
0.033578
0.082035
0.116015
0.120511
0.120207
0.116603
0.116368
0.084927
0.038904
0.017697
-0.039517
-0.089135
-0.110900
-0.143903
-0.134642
-0.146800
-0.091782
-0.066692
-0.020479
0.018111
0.054071
0.110107
0.149311
0.159388
0.174716
0.180671
0.151934
0.121572
0.079982
0.037691
-0.012144
-0.038895
-0.071289
-0.095321
-0.098662
-0.088448
-0.069410
-0.035469
0.005858
0.053175
0.105450
0.132973
0.174158
0.189447
0.191347
0.179126
0.174601
0.129771
0.077644
0.042995
-0.011440
-0.056551
-0.086851
-0.097926
-0.101419
-0.091271
-0.072075
-0.037824
0.002647
0.063608
0.101498
0.126217
0.152780
0.191574
0.183106
0.166502
0.140101
0.113833
0.065061
0.015471
-0.017745
-0.056628
-0.099113
-0.126945
-0.126835
-0.127731
-0.106471
-0.073398
-0.028223
0.005531
0.057463
0.103879
0.137602
0.154310
0.145707
0.125374
0.117763
0.085390
0.039558
-0.005261
-0.044837
-0.082006
-0.120039
-0.157550
-0.166254
-0.159635
-0.135315
-0.108559
-0.077141
-0.040578
-0.004926
0.047617
0.074351
0.093925
0.097064
0.094970
0.078465
0.026718
-0.005000
-0.044706
-0.098162
-0.133926
-0.169567
-0.196747
-0.182897
-0.187996
-0.179627
-0.119056
-0.107928
-0.071412
-0.020183
0.019582
0.050483
0.076993
0.077052
0.078007
0.051226
0.008345
-0.025502
-0.069490
-0.123020
-0.158633
-0.179637
-0.194950
-0.199744
-0.192686
-0.179706
-0.150044
-0.115602
-0.067737
-0.036229
0.007572
0.040562
0.063085
0.059894
0.060016
0.031822
0.005953
-0.032540
-0.080621
-0.129833
-0.167608
-0.200441
-0.216524
-0.211604
-0.205281
-0.188270
-0.153342
-0.113658
-0.072113
-0.032688
0.013696
0.043595
0.051726
0.066943
0.063610
0.041027
0.002071
-0.046662
-0.091515
-0.131944
-0.173261
-0.201289
-0.209785
-0.197906
-0.205101
-0.195123
-0.166804
-0.115451
-0.063548
-0.014020
0.023372
0.045887
0.053203
0.064399
0.066521
0.047650
0.018206
-0.025269
-0.055735
-0.115569
-0.163045
-0.176071
-0.197469
-0.214553
-0.189401
-0.186682
-0.148708
-0.109043
-0.073509
-0.008303
0.022119
0.054197
0.079208
0.076299
0.086211
0.075427
0.035472
-0.003678
-0.051620
-0.092578
-0.139974
-0.164894
-0.195215
-0.193125
-0.182180
-0.173371
-0.146579
-0.109057
-0.062859
-0.012356
0.021759
0.047973
0.066989
0.078535
0.075556
0.045970
0.023167
0.002949
-0.040270
-0.095120
-0.142200
-0.172425
-0.189554
-0.183647
-0.194171
-0.186762
-0.154317
-0.096971
-0.052912
-0.004651
0.023426
0.062645
0.083217
0.074653
0.068736
0.062560
0.008542
0.007828
-0.042753
-0.105571
-0.152801
-0.175151
-0.194011
-0.186148
-0.192779
-0.185898
-0.141909
-0.105134
-0.065570
-0.018796
0.020740
0.046383
0.072476
0.077289
0.073349
0.050598
0.013055
-0.033092
-0.080661
-0.116534
-0.161596
-0.193582
-0.184865
-0.187694
-0.182006
-0.164195
-0.146507
-0.112280
-0.079087
-0.031144
0.005198
0.058677
0.095779
0.115686
0.101735
0.068586
0.013636
-0.034447
-0.082590
-0.126545
-0.164307
-0.196098
-0.237577
-0.227996
-0.210937
-0.173194
-0.137918
-0.112033
-0.068863
-0.022634
0.019654
0.048071
0.073304
0.072438
0.065964
0.047962
0.003628
-0.015339
-0.053949
-0.113586
-0.161403
-0.189867
-0.219163
-0.223674
-0.222492
-0.201652
-0.160228
-0.107176
-0.063836
-0.027599
0.016062
0.042684
0.068867
0.081777
0.085396
0.057596
0.013265
-0.037756
-0.070698
-0.127727
-0.170374
-0.209367
-0.229509
-0.225469
-0.215556
-0.214615
-0.193687
-0.132551
-0.049910
-0.020072
0.017283
0.038085
0.049847
0.051317
0.039811
0.028685
0.004543
-0.033815
-0.076796
-0.114358
-0.143997
-0.174517
-0.212275
-0.216173
-0.221023
-0.175270
-0.159512
-0.121069
-0.075103
-0.032956
0.002633
0.036430
0.052444
0.043274
0.044621
0.015227
-0.002094
-0.030844
-0.083667
-0.117639
-0.158782
-0.187164
-0.209169
-0.221241
-0.202098
-0.195726
-0.166588
-0.128524
-0.082515
-0.029934
0.009546
0.050124
0.072022
0.070212
0.055175
0.042394
0.001941
-0.053320
-0.090094
-0.133946
-0.166473
-0.189955
-0.207834
-0.221727
-0.207068
-0.205318
-0.160901
-0.129642
-0.087497
-0.038135
-0.000970
0.034546
0.055313
0.055678
0.048816
0.037262
0.004902
-0.036090
-0.076191
-0.133454
-0.168142
-0.205404
-0.240710
-0.260274
-0.227382
-0.221457
-0.169819
-0.104593
-0.067603
-0.016575
0.021245
0.051826
0.081653
0.089369
0.066490
0.046550
0.011756
-0.032015
-0.071552
-0.123583
-0.159913
-0.198883
-0.219120
-0.228455
-0.221240
-0.198328
-0.170282
-0.127934
-0.076940
-0.033393
0.024778
0.049873
0.060534
0.071766
0.077267
0.041124
0.005766
-0.036400
-0.068813
-0.120960
-0.174400
-0.198211
-0.216171
-0.221762
-0.207549
-0.196841
-0.158634
-0.112747
-0.069966
-0.028752
0.026182
0.057646
0.082134
0.091839
0.081053
0.071504
0.042911
0.011123
-0.038326
-0.087749
-0.133859
-0.157730
-0.173206
-0.175234
-0.160856
-0.151914
-0.118542
-0.091058
-0.040288
0.010606
0.065638
0.083685
0.088474
0.097933
0.079814
0.060596
0.046461
0.010798
-0.039716
-0.074009
-0.121064
-0.155276
-0.175441
-0.176405
-0.166683
-0.149490
-0.103835
-0.042540
-0.001272
0.019375
0.060208
0.093956
0.116005
0.129558
0.132818
0.102939
0.070436
0.020398
-0.009518
-0.061268
-0.117804
-0.149173
-0.171239
-0.197459
-0.174898
-0.156598
-0.126998
-0.095800
-0.076827
-0.039923
0.015495
0.084943
0.085329
0.089869
0.065428
0.045370
0.006654
-0.020251
-0.073114
-0.122613
-0.144284
-0.176055
-0.202524
-0.211906
-0.203231
-0.179048
-0.159047
-0.120150
-0.061880
-0.019858
-0.001463
0.014152
0.075965
0.076325
0.067779
0.047543
-0.002086
-0.046049
-0.072856
-0.137394
-0.180892
-0.210659
-0.227202
-0.231399
-0.219818
-0.213522
-0.183244
-0.145081
-0.100086
-0.050011
-0.004237
0.031193
0.050152
0.049487
0.041787
0.018745
-0.002401
-0.046887
-0.094859
-0.150061
-0.192412
-0.211958
-0.230166
-0.251014
-0.238108
-0.209088
-0.171766
-0.138385
-0.098688
-0.051335
-0.015778
0.008337
0.048782
0.056251
0.043780
0.032247
0.006266
-0.041166
-0.091077
-0.128324
-0.173468
-0.208403
-0.229859
-0.233309
-0.221690
-0.205008
-0.170595
-0.122830
-0.087361
-0.045792
-0.007496
0.029452
0.041622
0.044176
0.037608
0.021663
-0.011447
-0.062949
-0.107792
-0.137758
-0.175631
-0.200215
-0.223549
-0.244658
-0.265549
-0.212325
-0.183960
-0.145626
-0.088234
-0.041158
0.001886
0.032889
0.049654
0.065920
0.083058
0.091042
0.081482
0.051624
0.018088
-0.030969
-0.068063
-0.053438
-0.043966
-0.053890
-0.026005
0.010921
0.074467
0.134240
0.228989
0.322951
0.399847
0.461722
0.496043
0.549893
0.565341
0.554012
0.590621
0.584039
0.575825
0.575330
0.576542
0.586227
0.595870
0.636400
0.672108
0.700276
0.722642
0.766857
0.788769
0.802906
0.829487
0.842195
0.851664
0.805454
0.705907
0.618267
0.519647
0.415144
0.299552
0.189840
0.106249
0.028415
-0.006657
-0.021564
-0.026531
-0.014412
0.011121
0.048756
0.076832
0.120778
0.150786
0.165249
0.169944
0.174913
0.164315
0.136412
0.092608
0.044181
0.011274
-0.028853
-0.083754
-0.108777
-0.139440
-0.157446
-0.158887
-0.134978
-0.095166
-0.041958
0.002941
0.058749
0.093726
0.120880
0.132355
0.121590
0.103346
0.088056
0.048256
0.011649
-0.040161
-0.095748
-0.132074
-0.160407
-0.184874
-0.170457
-0.152547
-0.143414
-0.120658
-0.070596
-0.042599
-0.003067
0.042040
0.084919
0.108076
0.096953
0.074988
0.044425
0.020431
-0.013810
-0.024355
-0.089660
-0.136087
-0.158458
-0.177537
-0.188083
-0.175482
-0.144384
-0.129968
-0.081916
-0.035142
0.015302
0.062890
0.089516
0.110622
0.116966
0.105229
0.063935
0.065968
0.002801
-0.022484
-0.068593
-0.100618
-0.129878
-0.157485
-0.145665
-0.146642
-0.128817
-0.101813
-0.056008
-0.009467
0.033916
0.071348
0.096962
0.131863
0.146878
0.128416
0.110356
0.096585
0.064691
0.009889
-0.040466
-0.085942
-0.115685
-0.133737
-0.132746
-0.118612
-0.107527
-0.083969
-0.033187
0.016489
0.064798
0.117303
0.144328
0.164173
0.183424
0.167156
0.135323
0.113238
0.073779
0.027863
-0.003668
-0.045546
-0.073173
-0.100544
-0.115356
-0.107144
-0.079469
-0.049142
-0.005308
0.043369
0.086971
0.124569
0.157129
0.190822
0.214464
0.201490
0.184934
0.153222
0.102076
0.067313
0.041661
0.004987
-0.034948
-0.064457
-0.079001
-0.079417
-0.052736
-0.014905
0.032238
0.078768
0.120841
0.165242
0.203634
0.223135
0.224008
0.220931
0.204076
0.174434
0.135682
0.091793
0.050923
0.001939
-0.029164
-0.053316
-0.053634
-0.035025
-0.018455
0.004027
0.031821
0.067823
0.130828
0.167382
0.202157
0.215737
0.229663
0.208100
0.180712
0.152219
0.122588
0.069639
0.021525
-0.017085
-0.050450
-0.072113
-0.081692
-0.088485
-0.067467
-0.031151
0.014722
0.070326
0.110797
0.147386
0.176629
0.187367
0.191850
0.183258
0.159287
0.128789
0.077984
0.040348
-0.000827
-0.050433
-0.091126
-0.109697
-0.126675
-0.110421
-0.087541
-0.069615
-0.015009
0.030196
0.068404
0.098557
0.144304
0.161563
0.162010
0.134101
0.098376
0.069899
0.064683
0.003306
-0.049543
-0.104504
-0.147124
-0.167693
-0.153878
-0.136061
-0.130173
-0.080132
-0.039383
-0.030237
0.034228
0.069027
0.102823
0.107838
0.113390
0.107498
0.086657
0.061262
0.014152
-0.024223
-0.080995
-0.135281
-0.167283
-0.169146
-0.160034
-0.168674
-0.155058
-0.127863
-0.095978
-0.046130
-0.008758
0.041632
0.076989
0.105195
0.102789
0.101339
0.082193
0.047756
0.024241
-0.027163
-0.082419
-0.127629
-0.168880
-0.189233
-0.200899
-0.198627
-0.165689
-0.124762
-0.087225
-0.035852
-0.003758
0.039306
0.071861
0.099184
0.100307
0.093156
0.063548
0.055464
0.000963
-0.046359
-0.089744
-0.135358
-0.170406
-0.189802
-0.206193
-0.194891
-0.159302
-0.124309
-0.091719
-0.042582
0.003638
0.059433
0.092576
0.102306
0.116286
0.115343
0.080685
0.048166
0.008259
-0.023217
-0.087326
-0.134672
-0.161774
-0.176690
-0.185569
-0.174138
-0.144362
-0.113425
-0.069489
-0.021498
0.006516
0.041532
0.067168
0.089895
0.103898
0.109499
0.091949
0.059160
0.006520
-0.043131
-0.081679
-0.126081
-0.149335
-0.168345
-0.172636
-0.172820
-0.137991
-0.110347
-0.066726
-0.022809
0.026946
0.060820
0.093816
0.108630
0.111973
0.116233
0.099369
0.051058
0.013757
-0.024721
-0.060093
-0.121790
-0.174138
-0.167461
-0.185252
-0.185474
-0.141481
-0.104000
-0.056840
-0.008979
0.020581
0.040038
0.081764
0.113762
0.135039
0.118089
0.080271
0.041840
-0.011334
-0.057666
-0.101829
-0.141113
-0.155461
-0.145591
-0.144726
-0.161150
-0.142962
-0.103572
-0.061352
-0.003309
0.018318
0.040729
0.088434
0.117618
0.107781
0.114858
0.093381
0.055949
0.013802
-0.037941
-0.073901
-0.113480
-0.150590
-0.178609
-0.191769
-0.179022
-0.141754
-0.112346
-0.075838
-0.035366
0.012434
0.063471
0.104170
0.101749
0.114184
0.113125
0.072536
0.032782
0.002248
-0.048897
-0.084633
-0.124365
-0.139431
-0.164528
-0.182250
-0.174861
-0.158641
-0.135964
-0.095135
-0.025080
0.033334
0.059246
0.077428
0.100798
0.103914
0.105256
0.069168
0.036781
0.006787
-0.041110
-0.082304
-0.123268
-0.158979
-0.185258
-0.194134
-0.185433
-0.161192
-0.132021
-0.096520
-0.055814
-0.011646
0.057973
0.073105
0.083865
0.071201
0.085457
0.061380
0.020457
-0.018939
-0.063924
-0.089937
-0.129567
-0.154324
-0.176261
-0.181648
-0.187825
-0.166881
-0.133318
-0.064568
-0.003748
0.022865
0.055781
0.077942
0.093936
0.106821
0.099899
0.057815
0.034740
-0.005500
-0.066596
-0.103959
-0.159604
-0.156570
-0.187267
-0.198929
-0.191768
-0.165770
-0.132195
-0.093725
-0.052200
-0.013008
0.031388
0.059503
0.086691
0.103264
0.110483
0.085005
0.051799
0.003500
-0.039489
-0.102019
-0.148075
-0.189906
-0.209519
-0.197562
-0.199623
-0.175898
-0.109531
-0.074811
-0.041614
-0.023802
0.029327
0.067126
0.092675
0.096715
0.100255
0.081573
0.041792
0.004243
-0.047117
-0.091675
-0.135294
-0.165975
-0.192548
-0.186030
-0.191118
-0.170947
-0.145625
-0.102657
-0.058971
-0.022666
0.030145
0.075374
0.096450
0.116457
0.085973
0.048840
0.007260
-0.009271
-0.034592
-0.079771
-0.135147
