-0.042801
0.005196
0.037581
0.075325
0.102660
0.109800
0.098349
0.062397
0.066908
0.022207
-0.027850
-0.069863
-0.115795
-0.148649
-0.173343
-0.182569
-0.184959
-0.160200
-0.131211
-0.079124
-0.035923
0.007053
0.029779
0.050527
0.094465
0.137786
0.147277
0.102500
0.070522
0.026239
-0.031387
-0.090856
-0.132432
-0.163476
-0.196989
-0.202979
-0.185374
-0.166454
-0.125553
-0.086107
-0.054750
0.024995
0.085531
0.118532
0.101512
0.133921
0.142599
0.108287
0.060718
0.016070
-0.028966
-0.072098
-0.133691
-0.172964
-0.194372
-0.195128
-0.201775
-0.169341
-0.118014
-0.076924
-0.034289
0.012308
0.050522
0.084617
0.121329
0.144004
0.137440
0.104713
0.081653
0.042895
-0.022349
-0.075317
-0.091776
-0.136328
-0.160825
-0.162476
-0.160055
-0.156880
-0.141392
-0.100439
-0.058814
0.012958
0.067396
0.091800
0.124844
0.119826
0.112841
0.092132
0.070186
0.023287
-0.030585
-0.064162
-0.096277
-0.117876
-0.159791
-0.193399
-0.196290
-0.163043
-0.127918
-0.073770
-0.012456
0.030983
0.070025
0.107875
0.124400
0.124853
0.131325
0.104182
0.053096
-0.021919
-0.026283
-0.070483
-0.112207
-0.151969
-0.182620
-0.168426
-0.178374
-0.144818
-0.119087
-0.072130
-0.034211
0.013705
0.056804
0.104097
0.129062
0.131421
0.108160
0.086053
0.066860
0.018340
-0.049673
-0.086057
-0.123224
-0.162891
-0.198227
-0.204244
-0.172365
-0.152467
-0.134450
-0.100868
-0.045528
-0.004305
0.046118
0.089581
0.095783
0.091725
0.091271
0.097101
0.045990
0.028503
-0.011407
-0.045814
-0.099743
-0.150723
-0.157797
-0.176784
-0.194726
-0.180686
-0.137071
-0.090261
-0.048624
-0.013304
0.035044
0.076817
0.087104
0.103839
0.088108
0.076697
0.053710
0.008170
-0.051167
-0.097397
-0.130434
-0.162407
-0.194646
-0.193657
-0.187924
-0.162323
-0.115988
-0.080926
-0.030077
0.008885
0.035680
0.068372
0.091023
0.104884
0.106573
0.083364
0.042162
-0.009055
-0.074101
-0.103166
-0.136087
-0.188304
-0.189780
-0.200513
-0.179844
-0.153817
-0.131818
-0.106507
-0.079576
-0.006533
0.034940
0.076122
0.095802
0.108892
0.099367
0.085275
0.054311
0.011552
-0.041178
-0.095327
-0.125666
-0.160326
-0.187937
-0.198149
-0.193608
-0.158776
-0.129369
-0.111871
-0.076408
-0.019595
0.055803
0.089388
0.113010
0.154023
0.141172
0.110176
0.072282
0.008345
-0.017584
-0.052631
-0.097494
-0.129683
-0.143394
-0.158451
-0.158119
-0.141624
-0.121153
-0.082171
-0.030428
0.024685
0.059754
0.097416
0.118361
0.141191
0.118831
0.108395
0.079589
0.066874
0.012480
-0.057257
-0.087664
-0.123020
-0.152265
-0.172457
-0.156126
-0.128339
-0.087996
-0.049940
-0.008907
0.044534
0.087413
0.133819
0.161322
0.165040
0.152326
0.132039
0.105476
0.044192
0.011848
-0.049074
-0.104145
-0.145932
-0.159088
-0.156267
-0.102156
-0.084776
-0.078192
-0.061948
-0.018981
0.028443
0.104779
0.125915
0.145804
0.152735
0.144508
0.122484
0.084379
0.034178
-0.022649
-0.072102
-0.112655
-0.153439
-0.169717
-0.180328
-0.174512
-0.165786
-0.137779
-0.098985
-0.054669
-0.016758
0.024127
0.071811
0.091684
0.088085
0.089071
0.072437
0.027251
-0.021077
-0.022663
-0.043359
-0.089344
-0.149147
-0.196327
-0.231944
-0.203455
-0.194534
-0.158024
-0.108400
-0.080463
-0.035274
0.031362
0.053415
0.074722
0.093458
0.069635
0.040064
-0.003271
-0.041790
-0.089225
-0.114986
-0.159572
-0.197701
-0.221668
-0.229498
-0.228886
-0.208502
-0.145869
-0.084880
-0.048790
-0.013775
0.034806
0.058524
0.067557
0.079666
0.074248
0.040438
0.023156
-0.022799
-0.062166
-0.108030
-0.153980
-0.194710
-0.213224
-0.220544
-0.221717
-0.209994
-0.181403
-0.126458
-0.075125
-0.043367
0.002555
0.058724
0.093631
0.098820
0.087081
0.067231
0.044132
-0.017548
-0.083103
-0.117887
-0.157858
-0.195030
-0.225504
-0.252465
-0.244303
-0.211762
-0.173197
-0.118865
-0.074086
-0.007321
0.028870
0.067689
0.099205
0.125240
0.137331
0.134145
0.115597
0.104408
0.060132
0.023568
-0.001498
0.015653
0.018279
0.029080
0.090908
0.109945
0.143396
0.206344
0.283505
0.358650
0.438233
0.503867
0.549353
0.585114
0.589541
0.612827
0.643182
0.665372
0.643962
0.634001
0.618038
0.622496
0.598093
0.581612
0.582130
0.593986
0.613129
0.656711
0.650365
0.647674
0.629469
0.606698
0.550295
0.492272
0.438355
0.358202
0.287017
0.197767
0.109798
0.040098
-0.020291
-0.067206
-0.076690
-0.093278
-0.093804
-0.086963
-0.065134
-0.041435
0.000570
0.052267
0.090294
0.130988
0.161081
0.178151
0.180063
0.136297
0.086472
0.030615
0.017411
-0.045599
-0.101310
-0.140708
-0.170992
-0.166953
-0.157305
-0.161576
-0.128721
-0.080821
-0.041730
0.000830
0.035702
0.088561
0.111878
0.101670
0.101457
0.071810
0.043341
0.009070
-0.030816
-0.068582
-0.114902
-0.164481
-0.179445
-0.187870
-0.183141
-0.168486
-0.118526
-0.080462
-0.057461
-0.012093
0.042325
0.078553
0.098556
0.125918
0.089289
0.086244
0.046091
0.004247
-0.034524
-0.079558
-0.130004
-0.173498
-0.214184
-0.199695
-0.178717
-0.153577
-0.087629
-0.028953
-0.007263
-0.003363
0.034845
0.091528
0.101551
0.110883
0.130567
0.116228
0.097843
0.060201
-0.008493
-0.087382
-0.117236
-0.106929
-0.143302
-0.183156
-0.170862
-0.157861
-0.128226
-0.093993
-0.032576
0.029329
0.061108
0.100285
0.146994
0.164291
0.154385
0.132074
0.109737
0.071279
0.023511
-0.030194
-0.067392
-0.102430
-0.114017
-0.141449
-0.145204
-0.114221
-0.091035
-0.035826
0.016786
0.056984
0.094538
0.122215
0.156119
0.171495
0.170496
0.149129
0.124554
0.070254
0.024928
-0.003327
-0.035947
-0.072602
-0.096610
-0.114487
-0.118223
-0.068845
-0.033508
0.013277
0.064787
0.114482
0.148026
0.181296
0.195514
0.217796
0.208488
0.198499
0.156463
0.112964
0.067357
0.022988
-0.009096
-0.043745
-0.068540
-0.076111
-0.061634
-0.026873
0.000136
0.040810
0.095057
0.140401
0.190076
0.223184
0.241683
0.256095
0.259234
0.237132
0.202795
0.145952
0.102991
0.059498
0.012985
-0.034957
-0.058137
-0.077311
-0.072889
-0.034722
-0.002109
0.042898
0.091571
0.136037
0.171178
0.209347
0.235328
0.236090
0.243481
0.222067
0.197771
0.139416
0.099034
0.047896
0.000314
-0.034885
-0.060113
-0.070887
-0.052048
-0.034634
-0.019692
-0.001256
0.038336
0.105864
0.134139
0.160894
0.181715
0.232267
0.262187
0.229735
0.181940
0.109210
0.068231
0.018891
-0.030430
-0.063813
-0.088015
-0.092653
-0.084256
-0.094145
-0.066478
-0.003687
0.031708
0.065712
0.107285
0.148249
0.169405
0.171849
0.159538
0.132220
0.082983
0.039488
0.004365
-0.036813
-0.081971
-0.106636
-0.142120
-0.143047
-0.139721
-0.117398
-0.100119
-0.081116
-0.022956
0.022331
0.069342
0.103646
0.139147
0.137874
0.138385
0.121239
0.075734
0.025016
-0.017330
-0.071006
-0.112830
-0.157757
-0.183914
-0.197956
-0.187248
-0.173872
-0.137144
-0.104558
-0.057771
-0.004042
0.047297
0.076705
0.085977
0.101001
0.104753
0.096865
0.066756
0.013940
-0.044485
-0.076756
-0.103534
-0.148106
-0.174080
-0.195432
-0.190495
-0.170162
-0.144811
-0.090830
-0.029566
0.008264
0.048599
0.069220
0.086665
0.099396
0.094793
0.086190
0.040482
0.003352
-0.031193
-0.076639
-0.125246
-0.172657
-0.212759
-0.185011
-0.159238
-0.137924
-0.122839
-0.122234
-0.020655
0.045611
0.085504
0.108316
0.125284
0.131995
0.124372
0.101122
0.072296
0.003001
-0.055082
-0.109608
-0.082003
-0.119919
-0.188495
-0.178031
-0.181470
-0.171807
-0.137028
-0.104368
-0.046849
0.053141
0.091769
0.104371
0.131284
0.137029
0.134964
0.111484
0.085156
0.024609
-0.027124
-0.062726
-0.102101
-0.162738
-0.172921
-0.175230
-0.185878
-0.171100
-0.139445
-0.100150
-0.041945
0.006034
0.058729
0.084879
0.118208
0.112278
0.105149
0.090798
0.071342
0.044981
-0.014063
-0.079657
-0.112712
-0.142223
-0.155325
-0.161055
-0.167895
-0.162725
-0.142362
-0.097308
-0.040332
0.013013
0.045724
0.085077
0.097488
0.106716
0.103274
0.091632
0.058045
0.013795
-0.046572
-0.090085
-0.121279
-0.156968
-0.174360
-0.176035
-0.186968
-0.163469
-0.129548
-0.106939
-0.063689
0.010383
0.062490
0.105875
0.116085
0.105947
0.117071
0.084842
0.059770
0.019401
-0.031825
-0.082004
-0.139356
-0.169459
-0.198392
-0.192710
-0.194860
-0.169220
-0.142818
-0.093859
-0.047654
0.005980
0.036538
0.084221
0.095287
0.105314
0.091780
0.069423
0.063592
0.028830
-0.017541
-0.073786
-0.149786
-0.176195
-0.184328
-0.185633
-0.199982
-0.182521
-0.137703
-0.098601
-0.064990
-0.008191
0.032621
0.072103
0.079255
0.092989
0.097305
0.067957
0.032354
-0.006732
-0.039157
-0.098591
-0.131512
-0.157449
-0.188837
-0.193753
-0.196212
-0.174068
-0.155418
-0.112717
-0.068278
-0.015482
0.018974
0.060555
0.102606
0.093484
0.096838
0.076916
0.013643
-0.052149
-0.095379
-0.074401
-0.115205
-0.146957
-0.155940
-0.190771
-0.179472
-0.172902
-0.130279
-0.122014
-0.063184
0.005024
0.035665
0.076118
0.078039
0.108106
0.096448
0.060492
0.009468
-0.032737
-0.079594
-0.066782
-0.135636
-0.194929
-0.220814
-0.210020
-0.196300
-0.182150
-0.166618
-0.113658
-0.058133
-0.008789
0.032567
0.065412
0.082500
0.086661
0.095787
0.078845
0.045999
-0.002972
-0.072265
-0.080661
-0.118748
-0.167855
-0.193037
-0.212354
-0.202908
-0.167371
-0.141540
-0.093839
-0.022513
0.034098
0.052221
0.083016
0.114220
0.129400
0.116443
0.097023
0.075172
0.062106
-0.005094
-0.056208
-0.084121
-0.112788
-0.142949
-0.164063
-0.166667
-0.161330
-0.130386
-0.085503
-0.035593
0.021009
0.066420
0.097952
0.120867
0.117579
0.110313
0.091426
0.069694
0.046662
-0.006378
-0.067243
-0.104674
-0.127990
-0.121062
-0.131322
-0.135372
-0.138290
-0.106676
-0.046211
0.003119
0.061411
0.095118
0.126222
0.141678
0.131595
0.138576
0.126581
0.083931
0.031859
-0.018138
-0.065730
-0.117122
-0.143660
-0.173011
-0.182369
-0.169518
-0.145315
-0.117577
-0.088455
-0.030192
0.022355
0.064604
0.069465
0.104154
0.105687
0.103056
0.080861
0.083093
0.049407
-0.040480
-0.127565
-0.175867
-0.157972
-0.136225
-0.152016
-0.207046
-0.188749
-0.154810
-0.133716
-0.083767
-0.050049
0.024184
0.053779
0.083153
0.069124
0.079845
0.065439
0.035033
-0.032876
-0.071913
-0.131972
-0.163696
-0.183213
-0.220323
-0.223669
-0.210796
-0.181954
-0.175907
-0.148431
-0.100284
-0.050914
0.039926
0.086899
0.088796
0.072262
0.054087
0.034078
0.003961
-0.031405
-0.075210
-0.127494
-0.162141
-0.196570
-0.207309
-0.219969
-0.231799
-0.214626
-0.173756
-0.107386
-0.048477
-0.020495
-0.000757
0.040368
0.070443
0.056642
0.033508
0.025588
0.034747
-0.016185
-0.079561
-0.139210
-0.182094
-0.226984
-0.220414
-0.218148
-0.207986
-0.204084
-0.198073
-0.146726
-0.094960
-0.037228
0.000434
0.042501
0.093843
0.093216
0.091242
0.047304
-0.003294
-0.014419
-0.062966
-0.105762
-0.144984
-0.164458
-0.178338
-0.188598
-0.177125
-0.141217
-0.099766
-0.041041
0.020543
0.099910
0.143264
0.181581
0.211865
0.274102
0.279168
0.309748
0.293267
0.273788
0.253411
0.235636
0.226157
0.237678
0.265172
0.300042
0.306264
0.356913
0.417587
0.509265
0.607540
0.697097
0.750966
0.815216
0.852930
0.882620
0.865446
0.847647
0.834411
0.773509
0.720163
0.635746
0.534814
0.441207
0.339283
0.266932
0.197789
0.179586
0.158415
0.140304
0.132689
0.140684
0.171853
0.197035
0.207262
0.218615
0.213437
0.177788
0.136998
0.072478
0.009338
-0.033658
-0.084910
-0.145008
-0.147101
-0.111157
-0.090934
-0.068654
-0.081390
-0.049518
-0.014779
0.042831
0.071832
0.097089
0.130270
0.137106
0.116189
0.084400
0.043464
0.031645
-0.008702
-0.056988
-0.117313
-0.169971
-0.176017
-0.181146
-0.183515
-0.168539
-0.145046
-0.097336
-0.057268
-0.018102
0.033367
0.065052
0.102780
0.105342
0.100722
0.074441
0.050507
0.004695
-0.033647
-0.072934
-0.114858
-0.151846
-0.170959
-0.199013
-0.206679
-0.138938
-0.122759
-0.086417
-0.053505
-0.019769
0.026610
0.087731
0.121920
0.103428
0.092429
0.081667
0.052842
0.012471
-0.030558
-0.075182
-0.122923
-0.153705
-0.170095
-0.177048
-0.182243
-0.154618
-0.111129
-0.084378
-0.038517
0.029608
0.071244
0.102060
0.125651
0.135417
0.120882
0.097791
0.069604
0.020386
-0.013455
-0.056050
-0.099077
-0.145375
-0.170737
-0.169444
-0.156853
-0.143612
-0.111212
-0.057877
-0.010665
0.046558
0.082731
0.113175
0.151622
0.171417
0.161064
0.137892
0.094239
0.045512
0.006987
-0.030445
-0.065294
-0.100799
-0.127000
-0.137656
-0.115211
-0.124670
-0.076749
-0.031956
0.009254
0.054918
0.095756
0.136419
0.187107
0.209395
0.190526
0.170851
0.139953
0.109023
0.064009
0.025633
-0.009472
-0.069340
-0.092475
-0.091727
-0.075977
-0.060502
-0.020878
0.026149
0.096638
0.116605
0.140098
0.193936
0.195158
0.205440
0.224570
0.207665
0.170309
0.123401
0.067925
0.052283
0.010521
-0.036174
-0.045905
-0.068673
-0.057343
-0.019597
0.018199
0.056847
0.109776
0.164928
0.194785
0.225402
0.231115
0.251327
0.252643
0.215311
0.150207
0.117781
0.088066
0.076354
0.037569
-0.041231
-0.063081
-0.085831
-0.082040
-0.060448
-0.001064
0.036031
0.078995
0.129100
0.176332
0.209832
0.220648
0.249463
0.235045
0.210252
0.182004
0.133820
0.061217
-0.002493
-0.031425
-0.038246
-0.057990
-0.064967
-0.076606
-0.060580
-0.032865
0.008514
0.052904
0.088706
0.136133
0.168487
0.176624
0.182009
0.173536
0.177847
0.162740
0.111438
0.052504
-0.003733
-0.056423
-0.093300
-0.104862
-0.119029
-0.126962
-0.113648
-0.075141
-0.049498
0.010200
0.057627
0.091159
0.127148
0.150582
0.154463
0.134058
0.110352
0.092027
0.049790
-0.004241
-0.047166
-0.107697
-0.156037
-0.163939
-0.177155
-0.156501
-0.130218
-0.109254
-0.075091
-0.011538
0.049382
0.067321
0.091813
0.115843
0.117288
0.100019
0.080754
0.044760
0.027125
-0.022515
-0.081459
-0.131519
-0.157379
-0.188630
-0.202706
-0.193595
-0.151326
-0.114972
-0.072407
-0.032668
0.010473
0.042128
0.084015
0.119558
0.137127
0.145298
0.082880
0.047011
0.011834
-0.020531
-0.063921
-0.107720
-0.142497
-0.184083
-0.207394
-0.199772
-0.182027
-0.148272
-0.066656
-0.041224
0.010722
0.050894
0.095074
0.120527
0.113324
0.111570
0.093893
0.061694
0.015565
-0.016505
-0.062137
-0.100368
-0.134596
-0.166721
-0.187010
-0.184037
-0.168035
-0.130090
-0.080610
-0.028009
0.017089
0.070426
0.087800
0.117079
0.127040
0.130622
0.115002
0.076107
0.020447
-0.023334
-0.061642
-0.103326
-0.139977
-0.169717
-0.188718
-0.159525
-0.140547
-0.116163
-0.078484
-0.033396
0.014063
0.071612
0.115559
0.128212
0.140243
0.121457
0.090686
0.073746
0.040156
-0.004930
-0.050202
-0.093678
-0.129601
-0.153136
-0.172725
-0.164217
-0.150653
-0.126689
-0.089112
-0.028662
0.034964
0.072617
0.096471
0.118791
0.143205
0.130869
0.093373
0.050097
0.039423
-0.003827
-0.060185
-0.115971
-0.146915
-0.167400
-0.183369
-0.183588
-0.161842
-0.132955
-0.088223
-0.039731
0.008249
0.057853
0.092744
0.108733
0.110225
0.104600
0.089703
0.078227
0.013944
-0.035703
-0.069837
-0.124272
-0.154228
-0.175145
-0.174356
-0.160186
-0.133194
-0.120430
-0.079970
-0.024594
0.041059
0.068819
0.078903
0.077386
0.078853
0.092326
0.082295
0.047064
0.039114
-0.014628
-0.094094
-0.128425
-0.148606
-0.154218
-0.173022
-0.180899
-0.173120
-0.126376
-0.091780
-0.052411
-0.001597
0.039750
0.087233
0.110519
0.111492
0.090790
0.070611
0.045940
-0.000855
-0.073744
-0.097443
-0.110773
-0.142681
-0.183096
-0.210943
-0.206034
-0.163885
-0.117279
-0.073029
-0.046030
-0.000006
0.063573
0.075361
0.104652
0.115174
0.120546
0.088848
0.054098
-0.010844
-0.049743
-0.095059
-0.150058
-0.169779
-0.180423
-0.188890
-0.184565
-0.156358
-0.130289
-0.110915
-0.067224
-0.008707
0.047568
0.065426
0.075977
0.103909
0.099390
0.070803
0.047147
-0.002340
-0.018040
-0.068717
-0.114771
-0.156797
-0.192346
-0.195464
-0.189032
-0.177306
-0.148567
-0.117718
-0.047287
-0.013010
0.019145
0.056920
0.079963
0.091277
0.084625
0.077880
0.055235
0.010226
-0.045387
-0.085477
-0.123748
-0.159302
-0.195543
-0.197319
-0.199957
-0.177415
-0.133888
-0.075700
-0.030310
0.032582
0.057780
0.079412
0.091522
0.092231
0.085683
0.065238
0.032325
0.009484
-0.046268
-0.100942
-0.141342
-0.172931
-0.183224
-0.195006
-0.202818
-0.176763
-0.129978
-0.075335
-0.054501
0.000257
0.029406
0.086147
0.119831
0.117899
0.104289
0.069489
0.025105
-0.006417
-0.036320
-0.084811
-0.141008
-0.180783
-0.207922
-0.203002
-0.193944
-0.161697
-0.119978
-0.086595
-0.038368
0.030118
0.084255
0.101849
0.124018
0.132594
0.127212
0.100753
0.077459
0.048290
-0.004078
-0.049941
-0.121233
-0.128241
-0.142754
-0.157582
-0.116495
-0.063015
-0.053098
-0.053655
-0.026696
0.028474
0.067993
0.090125
0.124519
0.149135
0.135218
0.114733
0.097796
0.032059
-0.018996
-0.059259
-0.098452
-0.133297
-0.156138
-0.162783
-0.144400
-0.119160
-0.063967
-0.015392
0.020870
0.066969
0.097287
0.128341
0.145962
0.142870
0.128450
0.119412
0.095750
0.049612
-0.007753
-0.052839
-0.095819
-0.129717
-0.149333
-0.164904
-0.159322
-0.137922
-0.114801
-0.075214
-0.030119
0.020598
0.066323
0.091521
0.109286
0.123831
0.115930
0.094911
0.057763
0.017202
-0.025605
-0.074301
-0.127127
-0.170586
-0.185164
-0.196366
-0.196656
-0.175191
-0.152826
-0.105070
-0.066170
-0.013668
0.029502
0.067172
0.104170
0.106270
0.099267
0.068990
0.039629
0.003789
-0.040715
-0.095187
-0.146219
-0.196753
-0.228064
-0.231354
-0.211414
-0.193569
-0.147661
-0.100621
-0.043733
-0.031899
-0.003387
-0.020110
0.093112
0.134529
0.094829
0.067856
0.043943
0.004519
-0.041952
-0.099347
-0.153034
-0.172131
-0.203649
-0.214047
-0.206759
-0.185344
-0.162791
-0.114351
-0.063050
-0.031640
0.019527
0.042204
0.065602
0.082021
0.083790
0.059542
0.021610
-0.030538
-0.048396
-0.106530
-0.149148
-0.189235
-0.216884
-0.224753
-0.211030
-0.202281
-0.176293
-0.127991
-0.065455
-0.021447
0.023383
0.048836
0.040315
0.038156
0.070885
0.097469
0.059591
-0.016590
-0.068628
-0.108767
-0.158264
-0.181579
-0.211884
-0.197561
-0.174998
-0.153023
-0.112721
-0.060112
-0.000136
0.056086
0.116973
0.170101
0.217418
0.230243
0.239742
0.249864
0.239965
0.221475
0.187819
0.167884
0.161075
0.172886
0.188715
0.212828
0.252410
0.300042
0.372795
0.442568
0.517972
0.620712
0.708873
0.780943
0.857017
0.892008
0.902729
0.890942
0.865854
0.825421
0.790524
0.713133
0.637339
0.594249
0.547080
0.500215
0.453058
0.392963
0.358521
0.347339
0.329099
0.299805
0.294825
0.291831
0.295693
0.293599
0.257684
0.231999
0.195937
0.147125
0.068696
0.039780
-0.013502
-0.061311
-0.107313
-0.093494
-0.095940
-0.074552
-0.055619
-0.023550
-0.001955
0.037948
0.094699
0.124550
0.153212
0.141036
0.136730
0.121610
0.096430
0.050189
-0.007368
-0.064833
-0.110193
-0.143594
-0.170920
-0.164814
-0.147909
-0.144820
-0.118754
-0.086222
-0.031055
0.038803
0.066726
0.098652
0.115669
0.129472
0.122919
0.083358
0.051587
0.024902
-0.013028
-0.071247
-0.104667
-0.131467
-0.164359
-0.184480
-0.174904
-0.146813
-0.131703
-0.082283
-0.006156
0.022780
0.065901
0.103563
0.149226
0.145508
0.125485
0.122964
0.086874
0.020069
-0.001067
-0.033024
-0.087234
-0.136180
-0.150685
-0.180108
-0.179127
-0.157736
-0.104832
-0.068943
-0.031481
0.032191
0.078344
0.092239
0.111831
0.120586
0.124670
0.122153
0.130272
0.061734
0.003593
-0.046329
-0.099303
-0.110836
-0.114031
-0.120012
-0.118441
-0.104831
-0.091942
-0.054426
-0.002174
0.037751
0.080640
0.119107
0.136314
0.158446
0.147799
0.140962
0.111613
0.069953
0.030384
-0.015993
-0.056779
-0.081087
-0.117940
-0.130280
-0.117518
-0.097298
-0.062334
-0.010896
0.036853
0.080245
0.135894
0.169335
0.179569
0.187537
0.180006
0.194275
0.173282
0.124567
0.080706
-0.002370
-0.035953
-0.061910
-0.075955
-0.086163
-0.072817
-0.064372
-0.015145
0.030358
0.071695
0.125142
0.173082
0.210802
0.233449
0.248084
0.243412
0.209227
0.174341
0.157740
0.117468
0.061842
0.010905
-0.018780
-0.035245
-0.048545
-0.045029
-0.025207
0.003271
0.056765
0.100032
0.144124
0.188318
0.221865
0.244439
0.257480
0.249586
0.230850
0.202993
0.171518
0.104326
0.045953
0.029908
-0.001765
-0.033659
-0.048725
-0.033557
-0.003492
0.035566
0.062053
0.102726
0.151036
0.187075
0.206888
0.230792
0.250546
0.251120
0.241095
0.175813
0.115009
0.104623
0.071739
0.027404
0.010193
-0.034894
-0.053912
-0.062476
-0.045020
-0.017995
0.002138
0.081323
0.139373
0.167333
0.178624
0.203244
0.218563
0.200318
0.192000
0.175142
0.136677
0.068804
0.008788
-0.029635
-0.070503
-0.093080
-0.107531
-0.095630
-0.089846
-0.063862
-0.005988
0.026426
0.054230
0.118275
0.139233
0.172128
0.195644
0.183615
0.157174
0.123848
0.055802
0.017866
-0.026952
-0.065601
-0.110777
-0.130632
-0.138609
-0.131839
-0.127470
-0.103596
-0.058666
-0.011986
0.034800
0.077735
0.112366
0.141765
0.148780
0.128680
0.111224
0.083621
0.043115
0.003253
-0.040644
-0.089512
-0.122865
-0.153879
-0.155111
-0.139191
-0.133842
-0.128714
-0.081462
-0.033713
0.004818
0.049133
0.104783
0.148570
0.159968
0.117342
0.103961
0.086078
0.032079
-0.033942
-0.075518
-0.113815
-0.129115
-0.150355
-0.167075
-0.153864
-0.117272
-0.077973
-0.065996
-0.014416
0.042634
0.079088
0.113050
0.131091
0.133903
0.126421
0.099535
0.068895
0.023226
-0.004557
-0.033849
-0.041094
-0.095022
-0.134957
-0.147190
-0.130110
-0.130144
-0.112620
-0.058773
-0.005152
0.054918
0.086694
0.109726
0.126357
0.124829
0.135087
0.133000
0.108574
0.066137
0.012289
-0.031033
-0.087929
-0.141066
-0.142414
-0.154190
-0.154046
-0.123383
-0.103391
-0.056270
-0.008035
0.030995
0.078728
0.117954
0.142514
0.148583
0.145851
0.129823
0.081562
0.047940
-0.005125
-0.051469
-0.090258
-0.112556
-0.137829
-0.163808
-0.156815
-0.141187
-0.096303
-0.055665
-0.027759
0.016919
0.065381
0.113863
0.156758
0.161149
0.143537
0.124982
0.077581
0.030151
0.009532
-0.039178
-0.093453
-0.125905
-0.157770
-0.173652
-0.169333
-0.136811
-0.068811
-0.034192
-0.013464
0.044943
0.084958
0.119012
0.143098
0.151763
0.132919
0.117770
0.083817
0.034784
-0.013136
-0.060208
-0.085284
-0.138304
-0.184424
-0.209983
-0.167478
-0.150548
-0.104448
-0.018211
0.040438
0.069456
0.074411
0.102977
0.112775
0.134533
0.122865
0.089542
0.082004
0.035870
-0.000379
-0.041648
-0.095906
-0.144549
-0.174078
-0.195029
-0.199663
-0.149273
-0.063234
-0.035779
-0.029233
-0.000549
0.051661
0.089141
0.120984
0.137953
0.130677
0.101503
0.063380
0.039705
0.005523
-0.057024
-0.098828
-0.133682
-0.161863
-0.178180
-0.164684
-0.145652
-0.122996
-0.077456
-0.041534
0.016864
0.058651
0.089904
0.118805
0.131049
0.116623
0.104277
0.055735
0.017638
-0.056357
-0.072887
-0.092136
-0.137287
-0.156364
-0.156120
-0.183573
-0.126896
-0.098187
-0.065561
-0.019950
0.034304
0.061007
0.064314
0.089786
0.106287
0.103767
0.086193
0.059214
0.017600
-0.027809
-0.081533
-0.120284
-0.149380
-0.175494
-0.181456
-0.181660
-0.156853
-0.136855
-0.098694
-0.038797
0.016326
0.069487
0.093145
0.103064
0.097520
0.109424
0.088184
0.065864
0.032242
-0.030147
-0.087751
-0.116287
-0.131731
-0.166807
-0.213964
-0.204782
-0.150720
-0.098368
-0.066855
-0.040494
0.018502
0.066069
0.084794
0.101436
0.120488
0.113644
0.088402
0.062252
0.020645
-0.038569
-0.092174
-0.118191
-0.141361
-0.150044
-0.168071
-0.186084
-0.174614
-0.152841
-0.079735
-0.043544
0.006683
0.048408
0.079687
0.107490
0.113263
0.094143
0.086710
0.074009
0.018931
-0.022308
-0.073423
-0.111244
-0.138675
-0.148710
-0.160964
-0.164997
-0.151659
-0.097404
-0.049972
-0.009238
0.037412
0.069039
0.112676
0.142733
0.142675
0.135412
0.116410
0.085190
0.052803
0.015869
-0.021046
-0.079613
-0.111487
-0.137925
-0.165723
-0.150991
-0.131299
-0.104112
-0.056317
-0.003055
0.058521
0.106229
0.132492
0.139243
0.164241
0.172983
0.148643
0.108948
0.056061
0.012629
-0.035565
-0.066458
-0.103115
-0.123335
-0.136601
-0.127083
-0.107873
-0.062297
-0.017187
0.016219
0.075646
0.107900
0.132192
0.158055
0.160669
0.127192
0.125219
0.097642
0.057743
0.006959
-0.034597
-0.086521
-0.116856
-0.147899
-0.154328
-0.159960
-0.145062
-0.107607
-0.066238
-0.031302
0.007142
0.053047
0.088253
0.103968
0.117869
0.129028
0.110855
0.069725
0.020540
-0.029865
-0.071205
-0.121995
-0.164339
-0.201457
-0.228292
-0.227649
-0.191823
-0.116758
-0.074890
0.000550
0.045944
0.075295
0.108456
0.107327
0.109258
0.102507
0.065922
0.031721
0.002760
-0.056534
-0.121896
-0.146097
-0.170760
-0.185884
-0.211450
-0.201462
-0.191433
-0.151340
-0.098264
-0.055696
-0.011757
0.032515
0.068211
0.084203
0.096938
0.097573
0.074854
0.043043
-0.007698
-0.054020
-0.087671
-0.138461
-0.193055
-0.208733
-0.228473
-0.213754
-0.165433
-0.131699
-0.103097
-0.074741
-0.027993
0.025577
0.066273
0.078857
0.087904
0.072390
0.055689
0.030849
-0.000171
-0.044503
-0.099576
-0.142276
-0.171128
-0.193974
-0.206661
-0.207199
-0.195402
-0.176844
-0.134080
-0.075722
-0.028217
0.009397
0.052015
0.098716
0.083905
0.053172
0.033817
0.018329
-0.019854
-0.058766
-0.095636
-0.126018
-0.153782
-0.185253
-0.168763
-0.153572
-0.112731
-0.053370
0.013424
0.068219
0.112533
0.156281
0.212084
0.259304
0.282301
0.315118
0.334267
0.332927
0.319058
0.309479
0.315943
0.287740
0.289453
0.330287
0.349514
0.380522
0.439067
0.514436
0.602690
0.686875
0.759755
0.826769
0.870529
0.900461
0.922822
0.949952
0.918210
0.840134
0.755119
0.700429
0.623164
0.536709
0.449313
0.375101
0.294111
0.246778
0.189185
0.144475
0.125363
0.160331
0.209657
0.237516
0.256716
0.258585
0.248024
0.232454
0.215060
0.175581
0.119786
0.061778
0.007282
-0.043165
-0.086445
-0.100854
-0.123056
-0.127330
-0.112280
-0.080181
-0.047273
-0.003067
0.041858
0.077691
0.124419
0.124865
0.141793
0.130543
0.095504
0.083028
0.040841
0.008718
-0.029979
-0.096369
-0.133820
-0.151916
-0.161562
-0.147704
-0.129455
-0.092193
-0.069060
-0.039988
-0.020348
0.033306
0.083342
0.107790
0.121962
0.121899
0.096823
0.062229
0.017458
-0.027923
-0.078391
-0.112178
-0.143114
-0.166503
-0.172223
-0.163492
-0.131196
-0.117562
-0.096978
-0.039603
0.038420
0.077299
0.102265
0.109617
0.124460
0.144154
0.115008
0.091645
0.034737
-0.009036
-0.067646
-0.098212
-0.147299
-0.171640
-0.160132
-0.154510
-0.161823
-0.135173
-0.073213
-0.033828
0.013269
0.064436
0.117756
0.153519
0.139129
0.151968
0.137543
0.104169
0.057505
0.024390
-0.005248
-0.051446
-0.107424
-0.129414
-0.140176
-0.135203
-0.117315
-0.090269
-0.055975
0.007268
0.057440
0.098213
0.128464
0.144481
0.163210
0.161322
0.136349
0.123695
0.098397
0.050551
-0.005666
-0.055999
-0.085379
-0.091998
-0.105614
-0.100349
-0.092162
-0.050682
-0.011795
0.048157
0.097251
0.134310
0.170001
0.197192
0.198119
0.187081
0.188051
0.148799
0.109080
0.076111
0.031869
-0.006810
-0.042457
-0.055250
-0.069369
-0.064804
-0.042344
0.012336
0.048666
0.090678
0.118563
0.165253
0.209654
0.234045
0.259335
0.235058
0.200731
0.178329
0.150911
0.101517
0.041084
-0.001593
-0.021765
-0.039955
-0.058479
-0.048505
-0.023238
0.023681
0.066758
0.116205
0.146176
0.193112
0.221299
0.230046
0.249905
0.248013
0.236023
0.192054
0.163641
0.111661
0.057608
0.010759
-0.005985
-0.030282
-0.042495
-0.039447
-0.031116
-0.000968
0.045714
0.087109
0.131851
0.167028
0.194940
0.216456
0.215801
0.224430
0.210634
0.181205
0.136715
0.101946
0.050451
0.002544
-0.044447
-0.059517
-0.088391
-0.097764
-0.065963
-0.042696
-0.019219
0.053978
0.154075
0.173614
0.194581
0.194586
0.204441
0.186156
0.153795
0.154863
0.103082
0.053320
-0.003586
-0.045631
-0.087649
-0.108786
-0.125260
-0.112090
-0.083066
-0.049914
0.003095
0.038591
0.063122
0.090728
0.123019
0.148456
0.159216
0.159806
0.125823
0.096684
0.053282
-0.001710
-0.049446
-0.084144
-0.112408
-0.127584
-0.164956
-0.125470
-0.093057
-0.074370
-0.072812
-0.043629
0.031826
0.087140
0.115999
0.131381
0.155806
0.137564
0.105064
0.081953
0.039789
-0.016427
-0.060910
-0.102447
-0.139215
-0.157719
-0.148596
-0.157339
-0.117655
-0.108312
-0.082241
-0.035030
0.003560
0.055129
0.090535
0.108969
0.121723
0.119078
0.105931
0.078072
0.043455
-0.010215
-0.065697
-0.103999
-0.144995
-0.155730
-0.158628
-0.161430
-0.152742
-0.128665
-0.082797
-0.022540
0.034142
0.076030
0.100432
0.120073
0.129131
0.105143
0.089384
0.064720
0.036582
0.003880
-0.025815
-0.083717
-0.122764
-0.155834
-0.168132
-0.148467
-0.124127
-0.096311
-0.057887
-0.005157
0.027232
0.067434
0.104721
0.123038
0.137793
0.141187
0.108855
0.086981
0.045612
-0.004637
-0.046780
-0.092326
-0.138838
-0.150162
-0.153321
-0.136570
-0.108305
-0.099708
-0.077159
-0.017571
0.029985
0.074594
0.118996
0.136456
0.148363
0.098649
0.094000
0.084443
0.035928
-0.017925
-0.054111
-0.086538
-0.115929
-0.134421
-0.143657
-0.144772
-0.136838
-0.112850
-0.075286
-0.019186
0.023576
0.074667
0.102687
0.113387
0.135181
0.130678
0.111430
0.078949
0.031685
-0.019105
-0.068514
-0.105256
-0.131850
-0.159204
-0.170827
-0.168935
-0.161142
-0.118510
-0.086100
-0.049703
0.003044
0.052093
0.094956
0.123278
0.165292
0.143591
0.112844
0.077025
0.039074
-0.016122
-0.065774
-0.120451
-0.134673
-0.152347
-0.172186
-0.182559
-0.151837
-0.124128
-0.084234
-0.042230
-0.000485
0.047229
0.089654
0.125744
0.121478
0.114177
0.088767
0.061014
0.019479
-0.043391
-0.072645
-0.121487
-0.152273
-0.171255
-0.210136
-0.165417
-0.145677
-0.123713
-0.062244
-0.001916
0.037632
0.061158
0.078818
0.105645
0.114598
0.108584
0.076962
0.043961
0.002695
-0.024928
-0.082682
-0.126157
-0.143952
-0.161415
-0.180433
-0.186834
-0.161065
-0.128948
-0.105602
-0.055148
-0.002527
0.048224
0.093023
0.106856
0.114523
0.099574
0.078464
0.050082
0.022792
-0.024433
-0.088246
-0.123981
-0.165039
-0.186824
-0.197530
-0.191248
-0.165542
-0.139829
-0.100874
-0.050747
0.004637
0.049142
0.075236
0.089047
0.099024
0.092937
0.066583
0.049134
0.015612
-0.024357
-0.077331
-0.120965
-0.149244
-0.175722
-0.184572
-0.182752
-0.178803
-0.141709
-0.093949
-0.059355
0.009725
0.027175
0.065181
0.090773
0.104555
0.101232
0.080368
0.038667
-0.008320
-0.038474
-0.072496
-0.111239
-0.153110
-0.175374
-0.204140
-0.189191
-0.166499
-0.149420
-0.107366
-0.077218
-0.030490
0.002644
0.060981
0.082728
0.105813
0.102913
0.096315
0.075827
0.027454
-0.029141
-0.090545
-0.126350
-0.154366
-0.154504
-0.155787
-0.172525
-0.165133
-0.137218
-0.109470
-0.064190
-0.005789
0.031182
0.074736
0.102873
0.124400
0.127959
0.092817
0.062903
0.022082
-0.021703
-0.050391
-0.095577
-0.142476
-0.192149
-0.150464
-0.142468
-0.123652
-0.093172
-0.056389
-0.016118
0.034053
0.078752
0.108686
0.137379
0.152924
0.147131
0.127582
0.092017
0.046620
-0.008431
-0.049064
-0.103338
-0.131933
-0.152343
-0.157057
-0.158518
-0.138191
-0.102368
-0.049888
0.001168
0.040357
0.101368
0.132955
0.148429
0.165421
0.147902
0.114819
0.091526
0.056715
0.014247
-0.041225
-0.084105
-0.111983
-0.120913
-0.150019
-0.159378
-0.136276
-0.113120
-0.075162
-0.032069
0.014515
0.057448
0.092725
0.115226
0.124059
0.113942
0.098817
0.069124
0.021131
-0.020018
-0.060935
-0.105255
-0.158106
-0.178935
-0.200183
-0.192111
-0.154476
-0.144121
-0.102107
-0.059996
-0.028336
0.026757
0.066120
0.081787
0.081221
0.074401
0.060453
0.029355
-0.013535
-0.054094
-0.098263
-0.145826
-0.181834
-0.199682
-0.211475
-0.207498
-0.179870
-0.160982
-0.126462
-0.083601
-0.026086
0.009213
0.048595
0.063453
0.071146
0.062254
0.036186
0.001480
-0.073318
-0.096050
-0.128420
-0.202948
-0.237135
-0.222640
-0.119311
-0.108764
-0.158016
-0.156087
-0.115482
-0.071415
-0.034488
-0.001123
0.028184
0.062404
0.060066
0.066614
0.039187
0.017145
-0.001015
-0.064936
-0.114896
-0.141901
-0.182787
-0.202979
-0.218837
-0.213088
-0.204723
-0.167224
-0.117401
-0.078969
-0.035333
0.002178
0.056359
0.088462
0.077440
0.078595
0.059344
0.021308
-0.032396
-0.078200
-0.123498
-0.160073
-0.184045
-0.211028
-0.249035
-0.240285
-0.211324
-0.176492
-0.151476
-0.093756
-0.035323
0.012645
0.066226
0.100080
0.116943
0.127267
0.122039
0.109818
0.078986
0.055258
0.019775
-0.016098
-0.030002
-0.026748
-0.018974
0.019391
0.052835
0.111905
0.198992
0.280716
0.375532
0.447013
0.516079
0.575155
0.626223
0.652036
0.654297
0.662462
0.649842
0.656028
0.652579
0.632425
0.642417
0.641833
0.612093
0.596130
0.618651
0.634678
0.663949
0.681101
0.689109
0.670861
0.621356
0.580446
0.530823
0.453728
0.416608
0.319051
0.234385
0.155066
0.098163
0.047930
0.003838
-0.030124
-0.046431
-0.047365
-0.032407
-0.043777
-0.018914
0.024066
0.072893
0.099565
0.147087
0.162403
0.160986
0.156766
0.134430
0.086245
0.035745
-0.011369
-0.042927
-0.084251
-0.128104
-0.152815
-0.168907
-0.173849
-0.148519
-0.123569
-0.085722
-0.046918
-0.000262
0.022786
0.098116
0.108183
0.120072
0.122554
0.102325
0.072486
0.021588
-0.040574
-0.089723
-0.139671
-0.143487
-0.171231
-0.187297
-0.187895
-0.182582
-0.140881
-0.097808
-0.056611
-0.004174
0.043250
0.072483
0.101497
0.112874
0.102096
0.093374
0.042656
-0.001842
-0.037731
-0.084986
-0.133347
-0.188976
-0.167158
-0.171925
-0.170578
-0.164233
-0.109489
-0.059650
-0.029871
0.007424
0.035215
0.072730
0.087538
0.105465
0.122448
0.093880
0.077637
0.032945
-0.018179
-0.059938
-0.116431
-0.147375
-0.160634
-0.168599
-0.171660
-0.151694
-0.115541
-0.078917
-0.031466
0.029993
0.066279
0.099321
0.122262
0.134011
0.111961
0.102415
0.049659
0.046450
0.014026
-0.034617
-0.069225
-0.100192
-0.122340
-0.140278
-0.132687
-0.115231
-0.103796
-0.068246
-0.014277
0.062169
0.124742
0.162983
0.180493
0.179090
0.172077
0.145542
0.104769
0.065738
0.026281
-0.001205
-0.069078
-0.112756
-0.114230
-0.104559
-0.078118
-0.063958
-0.045491
-0.004718
0.039597
0.087837
0.135867
0.175035
0.191525
0.208867
0.210384
0.181416
0.151407
0.122980
0.074739
0.029053
-0.010746
-0.045082
-0.052909
-0.053261
-0.046061
-0.038212
-0.018235
0.014764
0.069044
0.102893
0.173170
0.209247
0.212206
0.221495
0.210594
0.199000
0.162347
0.121637
0.083677
0.059471
0.014979
-0.037177
-0.065263
-0.077955
-0.058765
-0.032943
-0.005820
0.017600
0.056341
0.107489
0.162204
0.188380
0.208626
0.226467
0.231525
0.215493
0.172702
0.121423
0.089720
0.051011
-0.007947
-0.064410
-0.077070
-0.089918
-0.079533
-0.052690
-0.019593
0.013027
0.057393
0.105850
0.139572
0.172636
0.195191
0.192508
0.180344
0.162842
0.125773
0.075034
0.043991
0.015262
-0.038377
-0.072498
-0.090195
-0.101082
-0.108921
-0.107746
-0.073892
-0.023169
-0.005100
0.069140
0.133726
0.145230
0.141636
0.152821
0.164695
0.154225
0.121979
0.078470
0.019694
-0.031918
-0.092011
-0.122334
-0.137944
-0.143164
-0.144085
-0.127634
-0.098751
-0.055421
-0.019852
0.016243
0.055707
0.104963
0.136269
0.130201
0.101539
0.072868
0.090900
0.050390
-0.021040
-0.052157
-0.102829
-0.132162
-0.161664
-0.173405
-0.160712
-0.145226
-0.121942
-0.084633
-0.039848
0.005234
0.052501
0.074620
0.100129
0.117092
0.098235
0.085416
0.070220
0.029679
-0.021284
-0.067051
-0.094643
-0.134454
-0.166628
-0.190850
-0.186711
-0.185098
-0.127444
-0.073198
-0.042856
-0.000391
0.041848
0.073727
0.100707
0.107232
0.110950
0.100907
0.078473
0.032504
-0.004610
-0.066226
-0.113042
-0.160831
-0.167865
-0.153924
-0.141534
-0.135198
-0.091356
-0.073693
-0.028294
0.009934
0.049681
0.092420
0.112815
0.099645
0.115091
0.100782
0.045605
0.020623
-0.015540
-0.064477
-0.121702
-0.141756
-0.139798
-0.155115
-0.163528
-0.143160
-0.116524
-0.078497
-0.034406
0.016922
0.061720
0.082953
0.096892
0.087147
0.115495
0.110960
0.070142
0.037854
0.007085
-0.060629
-0.105924
-0.144175
-0.182216
-0.188637
-0.161422
-0.131638
-0.080657
-0.054721
-0.032028
0.010103
0.066440
0.085462
0.139576
0.128358
0.104576
0.075595
0.065029
0.036662
-0.011173
-0.063518
-0.111965
-0.151633
-0.186287
-0.189439
-0.175181
-0.148520
-0.136424
-0.086082
-0.037608
0.011488
0.054293
0.079080
0.104661
0.113807
0.100098
0.085047
0.069832
0.026540
-0.021799
-0.079016
-0.117927
-0.155354
-0.168632
-0.171964
-0.170969
-0.154075
-0.130733
-0.093835
-0.054468
0.000897
0.037152
0.071947
0.090097
0.117513
0.114278
0.086666
0.045697
0.038613
-0.022708
-0.074041
-0.115750
-0.145897
-0.183230
-0.201927
-0.202890
-0.165559
-0.122878
-0.094206
-0.042190
0.019474
0.053518
0.079134
0.088320
0.094471
0.090215
0.067348
0.050308
0.019021
-0.030840
-0.084666
-0.117866
-0.138285
-0.177068
-0.210745
-0.197187
-0.181595
-0.157798
-0.148575
-0.076992
0.021523
0.052084
0.100729
0.100979
0.107412
0.105344
0.092697
0.051013
0.029407
-0.039431
-0.085786
-0.145127
-0.186261
-0.190891
-0.185006
-0.199253
-0.177509
-0.150158
-0.125828
-0.073585
-0.022875
0.032058
0.066762
0.084233
0.091914
0.093145
0.069359
0.031069
-0.005900
-0.033456
-0.073813
-0.133539
-0.168470
-0.186154
-0.198930
-0.202717
-0.177579
-0.150038
-0.115741
-0.046509
0.007399
0.040480
0.060594
0.077640
0.082873
0.082577
0.065051
0.026699
-0.001698
-0.043963
-0.091209
-0.134859
-0.163566
-0.180333
-0.191601
-0.191559
-0.170463
-0.141409
-0.111793
-0.050006
-0.002898
0.023631
0.047358
0.079340
0.088144
0.078550
0.058347
0.028835
-0.013409
-0.054901
-0.085405
-0.127403
-0.163053
-0.194031
-0.203841
-0.188634
-0.162150
-0.120731
-0.093417
-0.052150
-0.003484
0.027276
0.070005
0.101714
0.110557
0.124547
0.111314
0.069343
0.018386
-0.033039
-0.075522
-0.119045
-0.139836
-0.157010
-0.182578
-0.145369
-0.146352
-0.102696
-0.048482
-0.022155
0.009846
0.061422
0.089295
0.094336
0.130427
0.127573
0.122087
0.078763
0.039502
-0.008325
-0.059147
-0.108121
-0.145946
-0.166220
-0.170540
-0.154714
-0.129604
-0.107471
-0.065804
-0.017291
0.053129
0.081798
0.114184
0.151159
0.173353
0.170886
0.140164
0.076532
0.061557
0.025950
-0.016956
-0.077539
-0.114865
-0.149024
-0.153116
-0.145559
-0.142464
-0.101472
-0.062818
-0.041340
-0.000113
0.042234
0.080502
0.108302
0.105226
0.116618
0.090760
0.058482
0.019140
-0.048982
-0.092480
-0.117439
-0.145472
-0.171765
-0.185676
-0.170383
-0.155997
-0.123765
-0.091757
-0.064414
-0.011796
0.032635
0.061806
0.088329
0.081862
0.076287
0.051461
0.016486
-0.015146
-0.057552
-0.109454
-0.148004
-0.180074
-0.205183
-0.216272
-0.206062
-0.192379
-0.154840
-0.122931
-0.074136
-0.022650
0.015907
0.041594
0.062766
0.063338
0.073006
0.049922
0.011912
-0.034981
-0.072179
-0.121106
-0.156658
-0.184899
-0.217176
-0.221534
-0.222046
-0.203976
-0.184568
-0.112130
-0.075784
-0.037550
0.024427
0.047181
0.061964
0.070205
0.069494
0.044639
0.022573
0.005985
-0.052241
-0.115933
-0.160410
-0.189518
-0.218936
-0.233827
-0.236778
-0.202059
-0.167439
-0.154531
-0.093382
-0.036505
-0.002271
0.036790
0.058130
0.060482
0.070342
0.044039
0.007302
-0.034565
-0.056136
-0.094852
-0.139659
-0.184261
-0.212761
-0.226029
-0.208602
-0.214396
-0.186819
-0.127824
-0.079494
-0.019428
0.026710
0.062582
0.129587
0.147724
0.165390
0.150336
0.131493
0.101125
0.064241
0.042456
0.018274
-0.010753
-0.016699
0.011050
0.048029
0.118478
0.174462
0.244325
0.320912
0.411225
0.461640
0.533659
0.590830
0.622606
0.638094
0.636631
0.643362
0.652798
0.643566
0.612810
0.601641
0.563893
0.536034
0.553850
0.542463
0.554644
0.567676
0.554156
0.577119
0.546774
0.523244
0.507800
0.474839
0.423709
0.361458
0.306386
0.217545
0.150331
0.078491
0.019831
-0.026895
-0.059691
-0.087805
-0.105210
-0.103146
-0.102850
-0.076643
-0.039880
0.012249
0.053188
0.087452
0.114631
0.145689
0.144843
0.146642
0.121737
0.072740
0.043712
0.000054
-0.061170
-0.097848
-0.129816
-0.157576
-0.169921
-0.159874
-0.118405
-0.116472
-0.087685
-0.047644
0.000990
0.045818
0.077519
0.087402
0.098401
0.096942
0.073075
0.047078
0.006187
-0.035935
-0.080371
-0.118455
-0.150978
-0.170510
-0.174752
-0.174440
-0.165772
-0.134938
-0.090695
-0.042246
0.000445
0.035041
0.073268
0.092870
0.104008
0.099164
0.087102
0.050985
0.013138
-0.036998
-0.081704
-0.119689
-0.155982
-0.175732
-0.181023
-0.160156
-0.140818
-0.111963
-0.089055
-0.039502
0.027164
0.065011
0.102121
0.109688
0.104488
0.103600
0.100613
0.058926
0.025652
-0.015731
-0.062237
-0.101590
-0.143629
-0.175377
-0.179155
-0.177381
-0.154479
-0.090138
-0.032210
0.036696
0.077266
0.098851
0.121712
0.122440
0.135979
0.140402
0.153576
0.130739
0.073131
-0.002895
-0.074572
-0.054317
-0.048709
-0.121266
-0.132248
-0.123554
-0.096425
-0.072973
-0.062134
-0.013798
0.045083
0.119834
0.166586
0.174363
0.174811
0.162054
0.145357
0.115385
0.093186
0.045325
-0.007089
-0.045841
-0.081027
-0.092181
-0.093364
-0.093167
-0.082402
-0.046283
-0.007817
0.052720
0.102921
0.133550
0.162031
0.188438
0.199069
0.191750
0.180536
0.148012
0.125942
0.096422
0.049095
0.001764
-0.042903
-0.065269
-0.063752
-0.053486
-0.049784
-0.007664
0.032504
0.081367
0.125817
0.167140
0.198509
0.224942
0.227651
0.222704
0.205565
0.176369
0.144316
0.102620
0.047185
-0.002589
-0.026319
-0.044792
-0.050955
-0.047124
-0.034436
-0.000896
0.021328
0.074292
0.131817
0.177064
0.216736
0.234100
0.228520
0.212853
0.172715
0.151859
0.135756
0.081177
0.031469
-0.008094
-0.030674
-0.048320
-0.064854
-0.070270
-0.055505
-0.026070
0.006074
0.049323
0.096978
0.152411
0.184378
0.203436
0.204349
0.204038
0.183337
0.152718
0.105020
0.056980
0.012170
-0.029329
-0.068545
-0.084609
-0.096239
-0.104068
-0.089895
-0.084084
-0.052299
-0.005256
0.048500
0.099533
0.166616
0.211325
0.246163
0.198946
0.126452
0.098848
0.087238
0.043335
-0.028203
-0.078671
-0.116101
-0.133904
-0.146126
-0.142691
-0.124427
-0.096133
-0.057982
-0.012272
0.040645
0.075138
0.095597
0.118601
0.129142
0.120363
0.111710
0.068482
0.022596
-0.010074
-0.054520
-0.107210
-0.138340
-0.158251
-0.164379
-0.161045
-0.146443
-0.124220
-0.093322
-0.020970
0.016885
0.053933
0.080944
0.097328
0.118150
0.122643
0.093993
0.065686
0.030942
-0.025091
-0.071254
-0.100408
-0.137435
-0.167811
-0.170960
-0.171481
-0.158120
-0.116057
-0.071199
-0.028363
0.011420
0.058871
0.100662
0.117669
0.122924
0.114070
0.093806
0.063185
0.023953
-0.013833
-0.064390
-0.106766
-0.138032
-0.164821
-0.174673
-0.175597
-0.157075
-0.136658
-0.097081
-0.036072
0.026400
0.092050
0.095912
0.090669
0.144907
0.148553
0.122212
0.081832
0.055083
-0.012524
-0.042938
-0.095380
-0.125174
-0.153600
-0.164444
-0.152841
-0.130233
-0.101625
-0.071571
-0.018238
-0.006741
0.019240
0.066969
0.105491
0.117601
0.135835
0.113184
0.126199
0.081510
0.006301
-0.046124
-0.086649
-0.139084
-0.168526
-0.165276
-0.140305
-0.113691
-0.089616
-0.059226
-0.014778
0.027625
0.069141
0.094234
0.123869
0.114207
0.106423
0.086191
0.057700
0.012730
-0.023446
-0.068488
-0.102759
-0.144096
-0.156873
-0.165174
-0.156850
-0.146210
-0.128228
-0.075968
-0.037268
0.005677
0.049247
0.083639
0.110565
0.119261
0.110749
0.086525
0.064107
0.020652
-0.028721
-0.073911
-0.110204
-0.153163
-0.162027
-0.181035
-0.170636
-0.174550
-0.112830
-0.077321
-0.033182
0.007564
0.046440
0.086551
0.103814
0.109200
0.108238
0.092899
0.047825
-0.020120
-0.060771
-0.079516
-0.131238
-0.140193
-0.162518
-0.177337
-0.184921
-0.170527
-0.139785
-0.113459
-0.048728
0.026879
0.064380
0.095312
0.113267
0.107670
0.102413
0.055979
0.010192
-0.001403
-0.046238
-0.068990
-0.092211
-0.156993
-0.188093
-0.199740
-0.136658
-0.117008
-0.099120
-0.071893
-0.038154
-0.015498
0.012354
0.072859
0.129844
0.130050
0.105523
0.076411
0.037306
-0.002462
-0.047395
-0.100238
-0.128810
-0.142304
-0.156590
-0.181161
-0.166742
-0.150573
-0.124442
-0.089147
-0.055014
-0.046849
0.007958
0.071051
0.094616
0.095229
0.093418
0.082924
0.047489
-0.003380
-0.057359
-0.091970
-0.133855
-0.164173
-0.177211
-0.172162
-0.163538
-0.159896
-0.133649
-0.098891
-0.031399
0.014533
0.039002
0.088955
0.118407
0.114868
0.101471
0.094975
0.072079
0.040212
-0.016248
-0.053157
-0.101644
-0.135985
-0.153482
-0.149635
-0.142484
-0.134301
-0.103451
-0.061335
-0.013324
0.039050
0.076324
0.099454
0.133898
0.142800
0.140731
0.121274
0.077830
0.032623
-0.019739
-0.055641
-0.109574
-0.151969
-0.168492
-0.145849
-0.132645
-0.113825
-0.091073
-0.041539
0.017767
0.047341
0.085395
0.134827
0.177032
0.173314
0.148640
0.107843
0.080719
0.057484
0.007438
-0.043773
-0.096349
-0.115160
-0.136792
-0.140680
-0.142455
-0.130603
-0.096121
-0.060608
-0.027881
0.023531
0.082065
0.112764
0.117491
0.111382
0.103489
0.070834
0.057990
0.006948
-0.034080
-0.069834
-0.110232
-0.123963
-0.155593
-0.179931
-0.184367
-0.161714
-0.131371
-0.085918
-0.042138
-0.004970
0.021145
0.062031
0.092598
0.092627
0.092673
0.066640
0.025841
-0.021786
-0.052325
-0.105697
-0.145287
-0.175756
-0.201512
-0.214024
-0.205404
-0.196547
-0.162756
-0.116659
-0.066211
-0.021667
-0.000540
0.016414
0.031987
0.077664
0.081076
0.060787
0.017987
-0.016963
-0.073699
-0.113133
-0.138870
-0.178082
-0.201958
-0.234647
-0.223745
-0.180547
-0.139716
-0.098022
-0.060883
-0.027424
0.004663
0.045069
0.066637
0.075309
0.069864
0.035661
0.001256
-0.018160
-0.069659
-0.095047
-0.139077
-0.178413
-0.206850
-0.228091
-0.215269
-0.204615
-0.169300
-0.131530
-0.089402
-0.030478
0.016785
0.059415
0.073728
0.079524
0.076891
0.051685
0.016647
-0.026875
-0.071460
-0.117770
-0.165444
-0.200998
-0.213091
-0.214237
-0.202273
-0.183490
-0.141214
-0.101449
-0.064940
-0.011982
0.058232
0.122809
0.162755
0.173847
0.184071
0.185931
0.179378
0.169691
0.126562
0.088413
0.070351
0.062723
0.060741
0.088470
0.103430
0.140974
0.211301
0.317946
0.374327
0.448353
0.503654
0.563313
0.649163
0.706191
0.700091
0.698960
0.738191
0.749418
0.728321
0.675389
0.634876
0.581707
0.586695
0.561224
0.533093
0.521377
0.530490
0.502909
0.459180
0.443211
0.422177
0.407038
0.377747
0.332444
0.276087
0.231850
0.173336
0.122519
0.076914
0.016055
-0.033464
-0.069834
-0.079424
-0.108162
-0.104760
-0.094503
-0.061487
-0.027001
0.009542
0.051597
0.090651
0.117145
0.144255
0.158122
0.138690
0.108378
0.076833
0.045409
0.004386
-0.052176
-0.097929
-0.133824
-0.146175
-0.168903
-0.163002
-0.162831
-0.124456
-0.078654
-0.031499
0.013720
0.056502
0.081662
0.110444
0.131130
0.117875
0.088201
0.058607
0.014658
-0.021721
-0.079038
-0.119447
-0.154228
-0.179158
-0.183049
-0.183166
-0.175648
-0.129906
-0.079417
-0.037367
-0.009916
0.027369
0.065674
0.121148
0.125570
0.107873
0.093153
0.053960
0.038462
0.004139
-0.063229
-0.113484
-0.133926
-0.149384
-0.141381
-0.137793
-0.131926
-0.100154
-0.065740
-0.016777
0.029449
0.066228
0.102328
0.118647
0.121367
0.112914
0.104458
0.086051
0.032953
-0.014198
-0.052494
-0.091408
-0.116282
-0.135305
-0.133612
-0.087268
-0.084026
-0.097232
-0.055847
0.009336
0.030052
0.067325
0.115592
0.135509
0.140766
0.137554
0.131487
0.098565
0.054974
0.011912
-0.017687
-0.053567
-0.092132
-0.121569
-0.142964
-0.095698
-0.084090
-0.057186
-0.022323
0.035059
0.072502
0.118812
0.153264
0.178200
0.184274
0.179495
0.159809
0.130736
0.091071
0.043991
-0.008188
-0.041098
-0.065184
-0.087931
-0.099852
-0.070564
-0.037571
-0.019455
-0.000636
0.042446
0.094693
0.148464
0.180643
0.212677
0.229263
0.217999
0.196461
0.130856
0.126639
0.107661
0.074226
0.016536
-0.019895
-0.051459
-0.049900
-0.054131
-0.041873
-0.008879
0.037865
0.083049
0.128860
0.172578
0.208561
0.221223
0.222364
0.229278
0.220755
0.182103
0.141056
0.094182
0.059268
0.009369
-0.036494
-0.031351
-0.053657
-0.037295
-0.035785
0.001411
0.035822
0.083736
0.134000
0.173467
0.200299
0.224507
0.229990
0.216233
0.194968
0.157906
0.128154
0.083616
0.038382
0.000287
-0.039393
-0.048197
-0.053061
-0.041501
-0.027038
-0.007896
0.019795
0.066051
0.104571
0.143668
0.167165
0.179074
0.192463
0.181194
0.191015
0.149150
0.074524
0.033806
0.017705
-0.008607
-0.069922
-0.082066
-0.090850
-0.100633
-0.095276
-0.035430
0.008800
0.029664
0.061173
0.117596
0.150084
0.158499
0.168022
0.170042
0.141552
0.103639
0.067337
0.022110
-0.021163
-0.068300
-0.111383
-0.142094
-0.139263
-0.125237
-0.110859
-0.098475
-0.057173
-0.016045
0.030046
0.071620
0.099491
0.119283
0.119616
0.130913
0.121932
0.095697
0.054606
-0.003954
-0.047523
-0.088699
-0.130053
-0.155548
-0.175624
-0.156399
-0.128250
-0.091003
-0.055541
-0.022379
0.014378
0.072458
0.101773
0.125836
0.139780
0.122540
0.105342
0.077586
0.037169
-0.003421
-0.063374
-0.107046
-0.137293
-0.149425
-0.153086
-0.145051
-0.129419
-0.109614
-0.070712
-0.011653
0.027358
0.078863
0.106603
0.128797
0.131128
0.112556
0.063866
0.052122
0.018591
-0.000055
-0.048959
-0.074126
-0.116336
-0.157380
-0.155517
-0.132731
-0.125433
-0.091323
-0.041212
-0.000416
0.060455
0.100617
0.128590
0.138671
0.121687
0.127836
0.109943
0.076639
0.042351
0.001757
-0.045912
-0.103374
-0.133456
-0.142652
-0.146760
-0.135310
-0.133843
-0.117122
-0.078078
-0.043201
0.056569
0.095797
0.097287
0.140501
0.146288
0.146176
0.127983
0.088796
0.041162
-0.001725
-0.066176
-0.098852
-0.129327
-0.142988
-0.147038
-0.159219
-0.142398
-0.097780
-0.051085
-0.027491
0.028960
0.069593
0.101839
0.142057
0.146241
0.123514
0.104579
0.075707
0.033082
-0.001347
-0.053239
-0.096224
-0.133792
-0.155420
-0.152089
-0.146042
-0.131845
-0.107994
-0.057108
-0.029636
0.017685
0.065618
0.098880
0.110393
0.112473
0.104473
0.104096
0.076369
0.028315
-0.011272
-0.071290
-0.097649
-0.130721
-0.148829
-0.155769
-0.166387
-0.149085
-0.112053
-0.069428
-0.036944
0.016700
0.059212
0.092822
0.097070
0.122655
0.105649
0.099080
0.063021
0.017515
-0.031282
-0.065649
-0.111101
-0.143387
-0.168924
-0.165884
-0.169107
-0.161712
-0.115751
-0.074112
-0.024707
0.019705
0.047434
0.079393
0.115386
0.109559
0.087741
0.073711
0.040940
0.025963
0.012232
-0.025754
-0.103918
-0.138153
-0.154139
-0.165352
-0.172126
-0.147945
-0.106829
-0.067231
-0.033773
0.012494
0.042256
0.072893
0.103966
0.117815
0.102022
0.079662
0.048639
0.014371
-0.024313
-0.083922
-0.119543
-0.152899
-0.180556
-0.186235
-0.180047
-0.172960
-0.138843
-0.075501
-0.049761
-0.004047
0.061474
0.104679
0.113489
0.114208
0.093754
0.074771
0.052450
0.013673
-0.025237
-0.068587
-0.116848
-0.152370
-0.181821
-0.182662
-0.172597
-0.152258
-0.113291
-0.069072
-0.038128
0.006224
0.038310
0.079732
0.099792
0.104283
0.105067
0.105575
0.073184
0.027849
-0.012361
-0.047429
-0.094796
-0.124558
-0.156527
-0.157342
-0.157927
-0.132800
-0.085312
-0.046268
0.004347
0.045948
0.075237
0.103788
0.121153
0.129057
0.141911
0.140952
0.107854
0.055765
0.013121
-0.035135
-0.076529
-0.107108
-0.139362
-0.151643
-0.137338
-0.116922
-0.083821
-0.040018
-0.000507
0.042845
0.099654
0.139724
0.161564
0.167681
0.155514
0.126626
0.110227
0.069512
0.019511
-0.031276
-0.075513
-0.110110
-0.121623
-0.136677
-0.118892
-0.096135
-0.074428
-0.032852
-0.007716
0.055051
0.084740
0.115463
0.126605
0.146014
0.132022
0.108846
0.076477
0.028413
-0.015881
-0.068231
-0.111679
-0.150864
-0.174119
-0.168808
-0.161543
-0.149190
-0.123046
-0.071387
-0.031259
0.012336
0.046089
0.076148
0.095544
0.093004
0.060053
0.079941
0.059879
0.017044
-0.024336
-0.072585
-0.124832
-0.153623
-0.183607
-0.202796
-0.194632
-0.181430
-0.137940
-0.076437
-0.044363
-0.012878
0.026382
0.063813
0.073355
0.060762
0.031387
0.020617
-0.015789
-0.037154
-0.058438
-0.059235
-0.080968
-0.170504
-0.176648
-0.190875
-0.161474
-0.158455
-0.153406
-0.128313
-0.077049
-0.027749
0.019717
0.070196
0.078914
0.077182
0.065784
0.048642
0.020328
-0.023340
-0.069357
-0.107279
-0.151299
-0.169721
-0.196184
-0.200624
-0.183004
-0.170549
-0.158058
-0.120464
-0.070779
-0.019609
0.023084
0.056061
0.082913
0.100754
0.083357
0.052490
0.024095
-0.023625
-0.060537
-0.114223
-0.156733
-0.186811
-0.203572
-0.209344
-0.204856
-0.191585
-0.154301
-0.112916
-0.065541
-0.017288
0.016148
0.074702
0.115129
0.128443
0.135638
0.127909
0.109493
0.080537
0.039820
0.018313
0.002027
-0.021385
-0.023676
-0.014627
0.016297
0.060701
0.113562
0.172293
0.247063
0.334918
0.405966
0.479547
0.532736
0.577432
0.588744
0.606278
0.617601
0.620598
0.622561
0.611977
0.601533
0.601812
0.597556
0.591943
0.582909
0.622447
0.651279
0.667787
0.675680
0.695564
0.711186
0.668947
0.630727
0.580436
0.501519
0.452158
0.362975
0.265948
0.166446
0.095221
0.047651
0.001001
-0.026887
-0.038393
-0.037507
-0.032771
-0.015340
0.032183
0.068146
0.107868
0.118602
0.144068
0.162321
0.168869
0.174865
0.154471
0.112275
0.066343
0.013889
-0.039235
-0.077228
-0.107774
-0.138343
-0.154972
-0.129346
-0.128825
-0.104811
-0.057169
-0.013733
0.028560
0.070762
0.102309
0.123313
0.125504
0.127735
0.111503
0.073371
0.021270
-0.027343
-0.075042
-0.117048
-0.160497
-0.164512
-0.154508
-0.144325
-0.131754
-0.106611
-0.066216
-0.029549
0.019222
0.058380
0.087666
0.101002
0.126575
0.124466
0.096061
0.060289
0.016081
-0.011010
-0.054587
-0.092449
-0.132244
-0.165788
-0.169742
-0.163930
-0.149174
-0.113483
-0.059216
-0.017460
0.070142
0.066987
0.054331
0.103376
0.155402
0.155026
0.129511
0.076488
0.048812
-0.001432
-0.064510
-0.100244
-0.115400
-0.140059
-0.153772
-0.145297
-0.124329
-0.083834
-0.036786
-0.010061
0.033400
0.070583
0.121518
0.142447
0.147925
0.150157
0.135245
0.109181
0.075242
0.033482
-0.017201
-0.058798
-0.090685
-0.130902
-0.130330
-0.128010
-0.105288
-0.060015
-0.028808
0.017014
0.066151
0.100469
0.135074
0.164437
0.177863
0.173981
0.158136
0.119707
0.090374
0.051285
0.009596
-0.032824
-0.060314
-0.084383
-0.096005
-0.085517
-0.064911
-0.029535
0.015698
0.057509
0.095541
0.141802
0.181274
0.194885
0.210083
0.197315
0.166446
0.150288
0.126524
0.092755
0.045401
-0.003010
-0.035791
-0.049441
-0.057117
-0.060002
-0.042092
-0.006643
0.024836
0.069949
0.148518
0.183904
0.214279
0.244700
0.226755
0.202687
0.206826
0.173795
0.129019
0.080627
0.058009
0.013665
-0.024036
-0.053129
-0.052788
-0.050125
-0.042605
-0.010011
0.053417
0.115648
0.138531
0.180014
0.202868
0.229701
0.217808
0.217388
0.220096
0.191654
0.136713
0.077513
0.033551
-0.000652
-0.030726
-0.064150
-0.088303
-0.070680
-0.042691
-0.019406
0.016505
0.061268
0.106436
0.155092
0.174890
0.189948
0.201037
0.195038
0.151449
0.153551
0.142068
0.071160
0.016977
-0.016638
-0.070963
-0.106391
-0.106756
-0.094174
-0.070832
-0.041604
-0.008987
0.036846
0.073554
0.113537
0.151031
0.158497
0.170275
0.159733
0.143835
0.116099
0.079664
0.035943
-0.015795
-0.062823
-0.100638
-0.137795
-0.147044
-0.141531
-0.120443
-0.076794
-0.037342
0.005158
0.042924
0.078411
0.118129
0.138483
0.139139
0.128637
0.119576
0.086834
0.050156
0.000843
-0.042761
-0.095212
-0.138836
-0.150494
-0.167620
-0.149431
-0.135519
-0.098371
-0.047954
-0.015246
0.022637
0.053005
0.088762
0.126461
0.131364
0.115293
0.084466
0.044092
0.031412
-0.008006
-0.074663
-0.124667
-0.127318
-0.151910
-0.160053
-0.144199
-0.131935
-0.094997
-0.054166
-0.015086
0.026073
0.064608
0.100609
0.125668
0.132432
0.129044
0.120391
0.081362
0.025754
-0.018563
-0.047060
-0.088392
-0.126987
-0.152177
-0.184489
-0.154341
-0.132773
-0.100879
-0.022691
0.036209
0.056020
0.076010
0.085136
0.100700
0.144285
0.122481
0.083507
0.045495
0.010135
0.022414
0.009214
-0.058651
-0.111061
-0.144109
-0.148668
-0.150098
-0.132386
-0.090086
-0.051324
-0.012567
0.042518
0.071513
0.114517
0.136843
0.141202
0.135535
0.117290
0.074551
0.044126
-0.004968
-0.040615
-0.087870
-0.133596
-0.161634
-0.185734
-0.160352
-0.136634
-0.099376
-0.053786
-0.009954
0.032457
0.073716
0.099847
0.117088
0.127853
0.133540
0.105679
0.079680
0.039012
-0.004032
-0.045031
-0.072722
-0.092924
-0.132222
-0.154009
-0.157741
-0.146062
-0.129034
-0.081059
-0.025862
0.023803
0.063711
0.091680
0.108960
0.119762
0.127945
0.093823
0.059004
0.027143
-0.004828
-0.047698
-0.115559
-0.139022
-0.157450
-0.162479
-0.153255
-0.127626
-0.100373
-0.073032
-0.019474
0.022107
0.052761
0.078135
0.093338
0.107634
0.117597
0.097714
0.055541
0.022202
-0.019908
-0.070770
-0.109515
-0.121656
-0.162042
-0.178063
-0.185655
-0.170011
-0.121805
-0.074038
-0.024349
0.008689
0.055015
0.080837
0.101139
0.129524
0.127038
0.094757
0.059373
0.018970
-0.039166
-0.083482
-0.116278
-0.148006
-0.178694
-0.184383
-0.167034
-0.175173
-0.127395
-0.049612
-0.001532
0.036182
0.027994
0.081238
0.090497
0.104061
0.111227
0.104218
0.071502
0.014238
-0.037444
-0.079768
-0.121194
-0.155860
-0.177264
-0.172517
-0.170837
-0.153226
-0.132891
-0.100318
-0.047864
0.007807
0.047999
0.084089
0.100777
0.104023
0.104174
0.074333
0.042027
0.012838
-0.037358
-0.075552
-0.117008
-0.148879
-0.173365
-0.183988
-0.177044
-0.151532
-0.117231
-0.071900
-0.047176
-0.009846
0.029450
0.066617
0.091392
0.110151
0.106420
0.068198
0.043188
-0.001935
-0.049363
-0.071429
-0.113089
-0.147553
-0.179560
-0.198264
-0.183504
-0.136894
-0.126021
-0.079077
-0.027200
0.014774
0.048677
0.066214
0.091550
0.108268
0.141880
0.110695
0.062845
0.019037
-0.019080
-0.057335
-0.090925
-0.125906
-0.144362
-0.136033
-0.134882
-0.113297
-0.085620
-0.042707
-0.004436
0.031946
0.076289
0.113547
0.133955
0.135771
0.134102
0.106197
0.077143
0.038546
0.001301
-0.051038
-0.094030
-0.109232
-0.142484
-0.146647
-0.135069
-0.105622
-0.081731
-0.040429
-0.002706
0.063155
0.105131
0.143609
0.163581
0.172283
0.155024
0.133519
0.105781
0.057700
0.009314
-0.033334
-0.064849
-0.126328
-0.157597
-0.167769
-0.156235
-0.092733
-0.086925
-0.061483
-0.015416
0.042114
0.092079
0.119580
0.126981
0.115356
0.112886
0.090616
0.049900
0.019802
-0.036604
-0.065527
-0.105262
-0.157080
-0.180414
-0.168388
-0.182157
-0.146245
-0.103996
-0.066857
-0.038767
-0.018362
0.017121
0.065582
0.088547
0.099805
0.093462
0.071747
0.057250
0.003102
-0.053536
-0.096990
-0.139351
-0.171176
-0.182011
-0.189914
-0.182896
-0.177508
-0.163291
-0.121760
-0.086520
-0.037973
0.020711
0.042915
0.061090
0.061211
0.070682
0.052058
0.019154
-0.028985
-0.073177
-0.114985
-0.152045
-0.150347
-0.176018
-0.213722
-0.207931
-0.187232
-0.152535
-0.106826
-0.067886
-0.022774
0.016980
0.046989
0.077927
0.082893
0.071455
0.043439
0.013911
-0.025100
-0.070357
-0.113541
-0.167205
-0.172198
-0.186904
-0.210970
-0.208431
-0.183805
-0.170929
-0.120822
-0.066208
-0.025241
0.021475
0.049671
0.078309
0.073776
0.065263
0.037638
0.001664
-0.055466
-0.084889
-0.109399
-0.150675
-0.183016
-0.212129
-0.222669
-0.229117
-0.199480
-0.163118
-0.112421
-0.062616
-0.004447
0.028260
0.055901
0.088650
0.100500
0.116049
0.089432
0.094023
0.091560
0.086660
0.054550
0.019742
0.001456
-0.013769
-0.003929
0.028709
0.067593
0.124954
0.234553
0.331196
0.396226
0.461546
0.545463
0.608765
0.624660
0.651119
0.672492
0.694493
0.697978
0.689925
0.679537
0.671563
0.658991
0.644658
0.619926
0.629851
0.645251
0.647320
0.662430
0.685590
0.691809
0.689074
0.658743
0.599128
0.544930
0.479173
0.402413
0.312971
0.228524
0.177730
0.118865
0.072356
0.022274
-0.015757
-0.028928
-0.035398
-0.011683
0.016972
0.022104
0.049079
0.079377
0.113057
0.148314
0.159685
0.158208
0.144008
0.123157
0.094703
0.043714
-0.005427
-0.037242
-0.077431
-0.127039
-0.142863
-0.150226
-0.150519
-0.131016
-0.097956
-0.059730
-0.017760
0.025021
0.060558
0.094677
0.108173
0.116807
0.098834
0.075297
0.041810
0.008823
-0.008985
-0.058133
-0.108067
-0.152573
-0.167882
-0.182169
-0.181636
-0.147639
-0.096438
-0.077295
-0.036089
0.001188
0.040816
0.070036
0.108838
0.111416
0.107952
0.089966
0.064924
0.013935
-0.034939
-0.074674
-0.125805
-0.151672
-0.174056
-0.185086
-0.150629
-0.123066
-0.098155
-0.055570
-0.022816
0.004091
0.029848
0.059847
0.084946
0.094593
0.150664
0.129403
0.088874
0.044931
0.002528
-0.041809
-0.104805
-0.130476
-0.159105
-0.152882
-0.145678
-0.130145
-0.103266
-0.057058
0.015205
0.035601
0.069162
0.108427
0.136378
0.143954
0.137676
0.113232
0.075236
0.057602
0.023359
-0.023473
-0.080092
-0.111127
-0.129104
-0.138620
-0.122101
-0.103462
-0.064729
-0.015938
0.011301
0.047769
0.085352
0.123669
0.142160
0.154267
0.152922
0.140852
0.112369
0.089207
0.063137
0.027869
-0.017815
-0.064697
-0.084671
-0.083876
-0.080071
-0.073534
-0.050731
-0.011243
0.032393
0.078076
0.143800
0.183525
0.201798
0.210016
0.201597
0.163858
0.129795
0.063119
0.087462
0.068109
0.015540
-0.061193
-0.067124
-0.080824
-0.063812
-0.031998
0.001172
0.031033
0.073075
0.118565
0.151874
0.195407
0.200018
0.232336
0.236214
0.210110
0.162358
0.126697
0.081712
0.039959
-0.010550
-0.037133
-0.065658
-0.062846
-0.052137
-0.028397
-0.008541
0.039589
0.075753
0.115879
0.156323
0.182400
0.195119
0.209501
0.206804
0.181616
0.155126
0.111056
0.059511
0.022257
-0.027596
-0.071727
-0.086331
-0.088686
-0.088477
-0.073213
-0.036668
0.003616
0.066612
0.103788
0.142192
0.182448
0.192886
0.181341
0.189046
0.172163
0.127861
0.079891
0.049894
0.009849
-0.031143
-0.073007
-0.102033
-0.107644
-0.105180
-0.092597
-0.068047
-0.022728
0.010393
0.061756
0.091802
0.129390
0.148231
0.155443
0.144552
0.118055
0.101321
0.061798
0.017931
-0.032840
-0.074737
-0.110715
-0.136686
-0.144562
-0.139877
-0.120487
-0.097015
-0.057073
-0.023324
0.019353
0.072358
0.101725
0.125411
0.121589
0.122316
0.093727
0.061886
0.028145
-0.018721
-0.069666
-0.117342
-0.135080
-0.136995
-0.164899
-0.175714
-0.129094
-0.112860
-0.070010
-0.033328
0.011456
0.073701
0.102438
0.103446
0.098343
0.097942
0.081953
0.039329
-0.014567
-0.044347
-0.066051
-0.101969
-0.142488
-0.176379
-0.202815
-0.163224
-0.130008
-0.099407
-0.069876
-0.043065
0.008047
0.050091
0.078502
0.123799
0.108748
0.100758
0.093392
0.074595
0.043416
-0.012203
-0.065402
-0.116957
-0.146397
-0.154131
-0.172333
-0.175635
-0.153648
-0.118645
-0.083500
-0.028556
0.022106
0.066091
0.105599
0.120592
0.124886
0.134615
0.103617
0.058893
0.022626
-0.025360
-0.061779
-0.099120
-0.136576
-0.167159
-0.167112
-0.156580
-0.135779
-0.104692
-0.065651
-0.031346
-0.009318
0.045247
0.086556
0.086745
0.095310
0.111999
0.102104
0.077588
0.018374
-0.028994
-0.064022
-0.099847
-0.145976
-0.158545
-0.161705
-0.163278
-0.173796
-0.130006
-0.091388
-0.031904
0.007198
0.057587
0.108531
0.128079
0.111517
0.094443
0.080291
0.053691
0.014056
-0.037645
-0.072043
-0.114557
-0.130551
-0.149075
-0.180277
-0.178423
-0.140264
-0.117354
-0.083288
-0.039326
0.003990
0.043099
0.067587
0.090846
0.111144
0.121052
0.090355
0.034933
-0.017566
-0.068747
-0.079943
-0.122125
-0.167992
-0.191595
-0.201530
-0.162768
-0.141191
-0.125526
-0.100761
-0.064044
-0.012986
0.040863
0.079541
0.116796
0.116361
0.099090
0.081959
0.037417
-0.003948
-0.047775
-0.099881
-0.153963
-0.173725
-0.192703
-0.185619
-0.189518
-0.170470
-0.145656
-0.101442
-0.049778
-0.022643
0.019122
0.059057
0.077825
0.093593
0.081053
0.056839
0.030321
-0.009994
-0.077190
-0.108427
-0.155182
-0.182492
-0.195729
-0.197817
-0.198359
-0.176490
-0.149837
-0.109545
-0.077048
-0.012850
0.018746
0.051779
0.082448
0.077058
0.064542
0.079316
0.053849
0.004847
-0.065490
-0.102328
-0.145499
-0.191273
-0.204333
-0.216104
-0.218065
-0.184657
-0.157529
-0.116505
-0.080556
-0.031988
-0.010668
0.056420
0.083604
0.077170
0.074888
0.035797
0.006260
-0.013760
-0.057457
-0.104772
-0.146951
-0.178293
-0.198630
-0.208406
-0.207497
-0.180920
-0.154666
-0.116116
-0.064381
-0.026554
-0.000938
0.043665
0.072650
0.076498
0.063896
0.025897
-0.002823
-0.034417
-0.079777
-0.109225
-0.147688
-0.188339
-0.202338
-0.208574
-0.220277
-0.209886
-0.128367
-0.104560
-0.071205
-0.036563
0.022437
0.055324
0.079346
0.073840
0.064604
0.049385
0.023987
-0.021605
-0.060522
-0.094008
-0.128808
-0.166887
-0.183237
-0.193801
-0.181536
-0.171686
-0.134916
-0.094773
-0.035744
-0.000897
0.044039
0.092631
0.113105
0.118199
0.103442
0.085108
0.032775
-0.003620
-0.037380
-0.095971
-0.126575
-0.154636
-0.176842
-0.199390
-0.187383
-0.172519
-0.154561
-0.099814
-0.035144
0.005834
0.048121
0.090785
0.121536
0.141031
0.129110
0.097273
0.060987
0.035457
-0.023870
-0.070237
-0.109123
-0.139899
-0.154296
-0.165218
-0.153138
-0.147918
-0.109583
-0.075121
-0.028587
0.019716
0.041586
0.059486
0.072962
0.065661
0.053480
0.028178
0.040800
0.013067
-0.058287
-0.105024
-0.135195
-0.191479
-0.215295
-0.220840
-0.203100
-0.170213
-0.142851
-0.120755
-0.079567
-0.035005
0.001905
0.028966
0.048090
0.061806
0.047805
0.018418
-0.020115
-0.060128
-0.096921
-0.136269
-0.173544
-0.210936
-0.235793
-0.244156
-0.228032
-0.213294
-0.179371
-0.152160
-0.105012
-0.073288
-0.040547
0.003373
0.018211
0.024487
0.013381
0.001864
-0.026329
-0.063320
-0.133935
-0.148517
-0.167796
-0.224020
-0.238896
-0.250723
-0.249915
-0.228045
-0.186738
-0.143343
-0.112010
-0.062259
-0.018487
0.019300
0.032676
0.035900
0.036178
0.020129
-0.015652
-0.059248
-0.110497
-0.154145
-0.200289
-0.239249
-0.242830
-0.263105
-0.283206
-0.246368
-0.192707
-0.163207
-0.117429
-0.079429
-0.038275
0.000486
0.030424
0.043415
0.051567
0.016455
-0.032446
-0.084422
-0.136410
-0.164232
-0.190639
-0.215862
-0.247314
-0.276369
-0.263085
-0.234039
-0.211504
-0.180622
-0.146054
-0.107974
-0.028945
0.003735
-0.014870
0.052078
0.033921
0.013228
-0.002338
-0.026747
-0.061076
-0.094494
-0.131108
-0.147896
-0.132498
-0.101582
-0.103475
-0.049980
-0.011484
0.030422
0.104798
0.181894
0.261309
0.340835
0.381693
0.432254
0.454036
0.469932
0.467304
0.462787
0.455349
0.456970
0.456729
0.469052
0.487921
0.508013
0.543294
0.606434
0.635102
0.652817
0.703139
0.732466
0.752851
0.761483
0.761556
0.738019
0.672023
0.582658
0.482667
0.392542
0.310290
0.213084
0.124052
0.026205
-0.036127
-0.052211
-0.046216
-0.026676
-0.004247
0.010141
0.035096
0.069068
0.095802
0.128781
0.148080
0.141377
0.107821
0.076932
0.037380
0.003575
-0.039848
-0.080265
-0.126383
-0.163866
-0.187552
-0.201990
-0.187889
-0.180351
-0.144527
-0.122969
-0.086732
-0.032709
0.007675
0.062356
0.093369
0.089128
0.061481
0.031319
-0.025893
-0.025770
-0.084857
-0.140833
-0.166547
-0.189434
-0.197043
-0.194064
-0.214299
-0.203592
-0.173255
-0.151832
-0.110227
-0.063147
-0.026940
0.023628
0.054986
0.072628
0.056948
0.034184
-0.012124
-0.039483
-0.077660
-0.112637
-0.167448
-0.205552
-0.229864
-0.237862
-0.215438
-0.191242
-0.169071
-0.119212
-0.079655
-0.046672
-0.005758
0.029295
0.050849
0.059555
0.058109
0.045491
0.002787
-0.054549
-0.088422
-0.112463
-0.145777
-0.185452
-0.193103
-0.195497
-0.190116
-0.181760
-0.165688
-0.127177
-0.069692
-0.027775
0.020202
0.051912
0.076634
0.069002
0.070070
0.058526
0.029411
-0.012358
-0.063908
-0.096125
-0.123837
-0.159928
-0.185679
-0.203953
-0.186832
-0.171047
-0.133245
-0.091319
-0.044634
0.028164
0.050178
0.079181
0.090381
0.106057
0.098926
0.080064
0.052538
0.021907
-0.026911
-0.075853
-0.112232
-0.150268
-0.179131
-0.159629
-0.164385
-0.147490
-0.095115
-0.056274
-0.008703
0.051798
0.088296
0.116303
0.130828
0.143396
0.131850
0.112319
0.092528
0.053251
0.006845
-0.034331
-0.074584
-0.107068
-0.128026
-0.140834
-0.135382
-0.123604
-0.080399
-0.018457
0.014638
0.056724
0.081317
0.112567
0.145165
0.155147
0.159206
0.149701
0.088395
0.036859
0.044942
-0.011057
-0.063351
-0.084674
-0.098105
-0.103663
-0.119905
-0.109850
-0.083912
-0.018339
0.018263
0.052313
0.095785
0.125000
0.152083
0.169902
0.150860
0.123960
0.089821
0.058412
0.016826
-0.032113
-0.076017
-0.107151
-0.133455
-0.150985
-0.147620
-0.121655
-0.085738
-0.051308
-0.007814
0.044667
0.074354
0.105676
0.137252
0.147450
0.124698
0.106601
0.071940
0.025748
-0.014664
-0.058314
-0.098519
-0.143364
-0.164380
-0.170451
-0.156527
-0.145266
-0.106693
-0.068034
-0.015252
0.005339
0.051777
0.082391
0.102188
0.112053
0.088000
0.061906
0.036833
-0.002518
-0.040898
-0.095793
-0.137512
-0.182665
-0.187808
-0.211807
-0.219445
-0.208797
-0.144082
-0.098613
-0.062499
-0.017958
0.026138
0.059430
0.077974
0.084392
0.085492
0.060672
0.006467
-0.039596
-0.072041
-0.112483
-0.150818
-0.184821
-0.213448
-0.212743
-0.211686
-0.203176
-0.168518
-0.116719
-0.083839
-0.044374
-0.005166
0.030641
0.055646
0.080635
0.072567
0.050877
0.021141
-0.014868
-0.077370
-0.137257
-0.200916
-0.206570
-0.222676
-0.231708
-0.222572
-0.217979
-0.186277
-0.136772
-0.068541
-0.021834
0.000494
0.028194
0.060409
0.060906
0.049433
0.013565
0.013876
0.001245
-0.051926
-0.127057
-0.163354
-0.185072
-0.222165
-0.230528
-0.227747
-0.200688
-0.157151
-0.098402
-0.052684
-0.018415
0.010189
0.047736
0.068805
0.068107
0.059465
0.050955
0.003739
-0.037753
-0.088408
-0.126239
-0.162453
-0.169543
-0.207046
-0.229911
-0.193653
-0.171701
-0.151323
-0.117070
-0.065419
-0.007877
-0.010883
0.032787
0.042597
0.065103
0.058433
0.019872
-0.027212
-0.038117
-0.062690
-0.111552
-0.146777
-0.176594
-0.214702
-0.214778
-0.183238
-0.166501
-0.140808
-0.113220
-0.068433
-0.020039
0.012468
0.041618
0.059913
0.079125
0.078246
0.046433
-0.006574
-0.046848
-0.079874
-0.119697
-0.170884
-0.200127
-0.204172
-0.213003
-0.221919
-0.212667
-0.165944
-0.120579
-0.089226
-0.015883
0.012245
0.021305
0.047898
0.054497
0.069685
0.043073
-0.002497
-0.051940
-0.091575
-0.126427
-0.171278
-0.196849
-0.226561
-0.244552
-0.235658
-0.186010
-0.171843
-0.122002
-0.078702
-0.031829
0.010344
0.037244
0.053559
0.061623
0.054822
0.031785
-0.020599
-0.049730
-0.096188
-0.145422
-0.181268
-0.208695
-0.224567
-0.210107
-0.210373
-0.194679
-0.167143
-0.135839
-0.102362
-0.060316
-0.019115
0.014656
0.038820
0.043820
0.034649
0.011091
0.001449
-0.041375
-0.097539
-0.128883
-0.175468
-0.209063
-0.233217
-0.238600
-0.235608
-0.216070
-0.180677
-0.135628
-0.099848
-0.063512
-0.016661
0.002171
0.022845
0.038346
0.040976
0.021920
-0.011151
-0.051846
-0.092782
-0.147669
-0.195425
-0.220622
-0.253579
-0.234035
-0.227358
-0.174244
-0.139350
-0.121085
-0.077346
-0.058744
-0.038684
-0.008166
0.027540
0.069572
0.065519
0.006841
-0.027352
-0.056115
-0.099322
-0.149787
-0.184507
-0.216624
-0.246341
-0.249126
-0.239699
-0.216375
-0.161391
-0.121222
-0.102912
-0.051922
-0.006252
0.026555
0.014339
0.036070
0.069707
0.049721
-0.002138
-0.069362
-0.113179
-0.129095
-0.160644
-0.212642
-0.251176
-0.257839
-0.228852
-0.203361
-0.176766
-0.135529
-0.103781
-0.057719
-0.013055
0.015634
0.046973
0.056539
0.055203
0.029598
-0.004118
-0.045624
-0.080020
-0.139933
-0.153425
-0.183255
-0.202864
-0.212274
-0.217668
-0.182172
-0.151324
-0.115819
-0.073090
-0.026635
0.009050
0.047903
0.079028
0.085107
0.081552
0.046238
0.023773
-0.011800
-0.053733
-0.101769
-0.140125
-0.182910
-0.211091
-0.222034
-0.200195
-0.182188
-0.147489
-0.094018
-0.066138
-0.015709
0.023109
0.061344
0.087875
0.087300
0.087684
0.076890
0.039092
0.012429
-0.036715
-0.077109
-0.112186
-0.148691
-0.165787
-0.184239
-0.175306
-0.148690
-0.105411
-0.074425
-0.036258
-0.005249
0.012226
0.062915
0.104064
0.089520
0.065743
0.039276
-0.001319
-0.029224
-0.078941
-0.108304
-0.148532
-0.179576
-0.189194
-0.200190
-0.205639
-0.199454
-0.182409
-0.136739
-0.065696
-0.012174
0.007776
0.029051
0.047398
0.046706
0.030716
0.012017
-0.023855
-0.055936
-0.090412
-0.110354
-0.167531
-0.198722
-0.221394
-0.254301
-0.251043
-0.231787
-0.196525
-0.144716
-0.091199
-0.057893
-0.029315
0.000677
0.021721
0.044317
0.040893
0.017780
-0.021558
-0.071858
-0.111866
-0.151407
-0.195773
-0.236182
-0.254234
-0.253588
-0.254455
-0.242757
-0.170596
-0.156714
-0.109201
-0.063088
-0.018557
0.010801
0.016858
0.019122
0.026567
0.013128
-0.031490
-0.069107
-0.112542
-0.157424
-0.189265
-0.233207
-0.242829
-0.256181
-0.248275
-0.223662
-0.188130
-0.147195
-0.110825
-0.064111
-0.041813
-0.003892
0.019513
0.027353
0.018367
-0.013625
-0.042624
-0.059558
-0.106701
-0.153710
-0.182643
-0.226161
-0.247109
-0.254123
-0.259513
-0.245400
-0.183067
-0.144252
-0.106153
-0.083767
-0.027986
0.021744
0.034072
0.020183
-0.000503
-0.000879
-0.046345
-0.058428
-0.080239
-0.119678
-0.157602
-0.156856
-0.163460
-0.161320
-0.157968
-0.119931
-0.071677
-0.021994
0.034304
0.102303
0.155474
0.213422
0.268002
0.296830
0.324324
0.335424
0.335310
0.316371
0.316835
0.317043
0.320024
0.302280
0.322658
0.362929
0.422536
0.474061
0.532169
0.591073
0.673716
0.737445
0.778243
0.814731
0.834328
0.814943
0.781391
0.732335
0.686473
0.616245
0.496605
0.379009
0.293172
0.209349
0.141778
0.070943
0.015525
-0.001220
0.008793
0.032786
0.063700
0.112802
0.151763
0.172851
0.178553
0.181475
0.160838
0.138445
0.091613
0.040409
-0.006569
-0.051299
-0.100526
-0.134789
-0.155874
-0.156366
-0.172800
-0.157201
-0.108125
-0.071060
-0.024218
0.010378
0.039044
0.057900
0.071110
0.096074
0.096324
0.073925
0.029588
-0.040801
-0.070853
-0.115188
-0.144143
-0.188085
-0.200092
-0.213335
-0.200563
-0.167550
-0.126130
-0.083200
-0.058026
-0.007396
0.022833
0.055759
0.080285
0.088314
0.084898
0.054535
0.013264
-0.028249
-0.073081
-0.121294
-0.153592
-0.178456
-0.200920
-0.223073
-0.203239
-0.162054
-0.138061
-0.101425
-0.057761
-0.010397
0.017661
0.057799
0.075407
0.075426
0.066754
0.077970
0.041747
-0.009858
-0.055483
-0.092317
-0.118018
-0.167166
-0.182796
-0.193232
-0.183558
-0.156584
-0.127129
-0.078791
-0.043610
-0.007168
0.043367
0.065369
0.095692
0.109194
0.098703
0.080957
0.055634
0.005510
-0.053918
-0.085916
-0.099499
-0.115430
-0.145494
-0.161334
-0.157347
-0.136310
-0.122806
-0.079080
-0.014542
0.030276
0.065738
0.102395
0.128466
0.137457
0.135588
0.099631
0.089153
0.050032
0.003470
-0.028562
-0.073269
-0.095467
-0.117012
-0.137446
-0.128345
-0.122525
-0.062059
-0.030394
0.013403
0.052881
0.103002
0.133995
0.150057
0.168120
0.174462
0.146780
0.104267
0.073395
0.060191
0.009109
-0.046536
-0.083557
-0.096344
-0.094612
-0.088339
-0.077590
-0.032793
0.009177
0.052048
0.089941
0.123543
0.152599
0.179229
0.186887
0.195649
0.186938
0.141297
0.099968
0.049920
-0.009204
-0.040081
-0.064400
-0.078391
-0.090416
-0.071489
-0.053973
-0.035125
-0.009336
0.065633
0.113563
0.157899
0.196291
0.194193
0.206186
0.197350
0.179357
0.147420
0.109572
0.049199
-0.001591
-0.039600
-0.080791
-0.091905
-0.085778
-0.087868
-0.068186
-0.042602
-0.003043
0.043442
0.084825
0.125319
0.159471
0.172297
0.190620
0.184046
0.164144
0.132258
0.077483
0.033805
-0.006416
-0.048876
-0.084555
-0.101770
-0.118044
-0.110460
-0.089783
-0.060595
-0.013699
0.025976
0.062710
0.102301
0.138049
0.154711
0.148291
0.148142
0.130942
0.091828
0.044824
0.002376
-0.041305
-0.071352
-0.110754
-0.144969
-0.161290
-0.153185
-0.127302
-0.085581
-0.029984
0.031553
0.066344
0.102885
0.102792
0.119422
0.115012
0.108360
0.081061
0.086540
0.049893
-0.008278
-0.066496
-0.104240
-0.130686
-0.142519
-0.155647
-0.149351
-0.143738
-0.113173
-0.060993
-0.016773
0.022580
0.053061
0.084411
0.105273
0.107798
0.103460
0.077972
0.046842
-0.000293
-0.051398
-0.100134
-0.128684
-0.155605
-0.173900
-0.158277
-0.154907
-0.134565
-0.105064
-0.062065
-0.028472
0.010263
0.044073
0.083382
0.121502
0.121471
0.100840
0.083009
0.053853
0.019816
-0.042859
-0.086811
-0.120610
-0.138615
-0.164972
-0.174079
-0.170299
-0.138884
-0.109292
-0.064539
-0.015865
0.031071
0.069060
0.087997
0.097769
0.126387
0.116472
0.088508
0.050899
0.007349
-0.017360
-0.069594
-0.074745
-0.112795
-0.138199
-0.149312
-0.141452
-0.126510
-0.104292
-0.058918
-0.016978
0.019953
0.045837
0.073629
0.093928
0.107891
0.105737
0.106942
0.077587
0.022408
-0.035157
-0.051692
-0.105564
-0.143657
-0.145155
-0.162393
-0.156365
-0.131166
-0.095246
-0.047994
-0.014261
0.037012
0.067750
0.079531
0.093963
0.111617
0.126875
0.099697
0.047053
0.025526
0.007578
-0.061879
-0.110895
-0.142067
-0.153096
-0.175907
-0.172874
-0.144276
-0.116531
-0.068726
-0.016401
0.031946
0.066724
0.095994
0.099560
0.086278
0.084219
0.049375
0.057128
0.016219
-0.028846
-0.065670
-0.113164
-0.142628
-0.160637
-0.170106
-0.176159
-0.137990
-0.118603
-0.074515
-0.033465
0.014615
0.052963
0.092936
0.106901
0.115658
0.105618
0.072467
0.042037
-0.005100
-0.043016
-0.091371
-0.132217
-0.171230
-0.181681
-0.186029
-0.167933
-0.144768
-0.129615
-0.095788
-0.019227
0.028128
0.048020
0.076015
0.091116
0.110593
0.124279
0.095758
0.052775
0.004886
-0.039964
-0.090958
-0.126703
-0.159157
-0.189462
-0.184887
-0.172737
-0.133727
-0.117704
-0.085935
-0.032661
0.008409
0.015990
0.045417
0.086245
0.109467
0.113708
0.085684
0.038320
-0.014673
-0.030983
-0.064825
-0.113468
-0.152021
-0.165353
-0.187130
-0.186525
-0.165818
-0.136756
-0.090804
-0.049073
-0.016570
0.024344
0.062795
0.090408
0.102512
0.111630
0.077013
0.055345
0.000320
-0.038906
-0.092415
-0.131159
-0.171387
-0.195503
-0.204095
-0.191817
-0.143041
-0.097001
-0.066882
-0.039831
-0.004679
0.027082
0.066293
0.094871
0.115711
0.111783
0.079069
0.046753
0.004798
-0.032252
-0.078773
-0.114297
-0.132031
-0.152565
-0.167461
-0.159839
-0.129911
-0.095630
-0.057584
-0.006857
0.056493
0.072307
0.103055
0.126166
0.116519
0.096144
0.091737
0.078569
0.028305
0.006575
-0.034438
-0.093358
-0.144280
-0.186626
-0.122036
-0.120307
-0.119304
-0.089320
-0.036432
-0.013734
0.025570
0.065850
0.102655
0.128334
0.143467
0.132860
0.111403
0.085493
0.069833
0.034209
-0.005574
-0.071743
-0.105651
-0.133428
-0.140344
-0.130881
-0.105324
-0.067166
-0.028361
0.016846
0.062306
0.096127
0.113735
0.133420
0.140691
0.118521
0.107172
0.055755
0.004294
-0.027357
-0.066705
-0.100443
-0.127585
-0.147285
-0.171276
-0.183120
-0.140824
-0.082945
-0.063520
-0.045298
-0.026611
0.030655
0.094489
0.099341
0.108979
0.101025
0.082540
0.022619
0.005972
-0.052375
-0.098500
-0.135146
-0.179089
-0.190418
-0.196279
-0.191185
-0.149951
-0.127283
-0.104804
-0.054233
-0.018254
0.012245
0.039356
0.053848
0.069075
0.068649
0.048745
0.009620
-0.035158
-0.082538
-0.131947
-0.177812
-0.210820
-0.170659
-0.159055
-0.167297
-0.195291
-0.166299
-0.094863
-0.044150
-0.031782
0.023998
0.086829
0.105568
0.091552
0.061652
0.036976
0.005848
-0.040298
-0.073395
-0.117412
-0.153326
-0.192087
-0.211114
-0.230850
-0.223931
-0.199184
-0.154402
-0.105861
-0.065037
-0.012609
0.028281
0.066129
0.072899
0.080647
0.066552
0.048338
0.016234
-0.029728
-0.079271
-0.123349
-0.163679
-0.191636
-0.220656
-0.216628
-0.206626
-0.178176
-0.156141
-0.115209
-0.084602
-0.053243
-0.004866
0.033683
0.065527
0.066669
0.072128
0.053660
0.017859
-0.026406
-0.054075
-0.095459
-0.104195
-0.132726
-0.146884
-0.128675
-0.100371
-0.075211
-0.027352
0.032348
0.076841
0.138104
0.193845
0.253154
0.295780
0.332574
0.359035
0.352050
0.355306
0.341210
0.325713
0.298714
0.295206
0.293090
0.299982
0.329070
0.380513
0.432565
0.497746
0.569608
0.644532
0.725522
0.788128
0.829001
0.837012
0.848098
0.815368
0.771652
0.726562
0.653676
0.585072
0.466614
0.355439
0.256751
0.176528
0.124750
0.069184
0.057579
0.051897
0.067180
0.087980
0.114217
0.152607
0.167457
0.185438
0.177399
0.165201
0.131620
0.107479
0.060352
0.009337
-0.038175
-0.090132
-0.106846
-0.128269
-0.123156
-0.110791
-0.106012
-0.096884
-0.047000
0.009299
0.056097
0.094203
0.098661
0.131635
0.138802
0.126439
0.088546
0.050732
0.020446
-0.026272
-0.074300
-0.129376
-0.156603
-0.148316
-0.164683
-0.141907
-0.120774
-0.111538
-0.080589
-0.036172
0.006916
0.047505
0.076871
0.104912
0.124249
0.107862
0.107100
0.052292
0.006391
-0.030155
-0.076961
-0.120008
-0.142722
-0.176649
-0.172357
-0.151876
-0.143006
-0.114852
-0.074700
-0.032717
0.010871
0.059274
0.089337
0.106484
0.112136
0.107467
0.082165
0.069440
0.031454
-0.025236
-0.064692
-0.098093
-0.126694
-0.143685
-0.159877
-0.148899
-0.119010
-0.095842
-0.057622
-0.005144
0.036544
0.069772
0.096829
0.119984
0.126737
0.128771
0.119659
0.081183
0.042573
-0.002146
-0.040748
-0.091689
-0.126648
-0.145287
-0.147131
-0.131016
-0.095045
-0.073070
-0.038468
0.014949
0.062984
0.108618
0.141779
0.140765
0.147049
0.142142
0.117225
0.080782
0.066588
0.031704
-0.027901
-0.081809
-0.090909
-0.092726
-0.102371
-0.094672
-0.073034
-0.041893
-0.018996
0.056553
0.107109
0.150334
0.164617
0.194762
0.232924
0.193107
0.190864
0.123232
0.076774
0.032625
-0.020616
-0.035488
-0.047269
-0.071182
-0.067052
-0.051610
-0.037246
-0.026912
0.029925
0.082790
0.124466
0.174221
0.199170
0.208633
0.214072
0.198066
0.173744
0.135661
0.130124
0.086666
0.036390
-0.005966
-0.026679
-0.054297
-0.060194
-0.067552
-0.053860
-0.006591
0.040119
0.073944
0.129310
0.162387
0.183480
0.204124
0.225104
0.213527
0.190124
0.154695
0.108622
0.064177
0.022618
-0.021247
-0.043606
-0.061084
-0.076155
-0.070567
-0.053617
-0.011121
0.024697
0.074016
0.115242
0.157055
0.178443
0.176369
0.178922
0.192671
0.179491
0.145841
0.104802
0.052558
-0.006429
-0.047947
-0.080316
-0.081284
-0.093553
-0.090185
-0.066579
-0.032029
0.009708
0.056077
0.090238
0.128054
0.162209
0.177661
0.172585
0.165894
0.149492
0.108911
0.069247
0.020634
-0.017986
-0.058932
-0.099447
-0.118094
-0.127314
-0.121772
-0.098715
-0.077046
-0.044911
0.011566
0.050927
0.103489
0.129118
0.149421
0.139403
0.125494
0.075091
0.065425
0.016604
0.000878
-0.052740
-0.103393
-0.125948
-0.132043
-0.139581
-0.136193
-0.121670
-0.061325
-0.023936
0.010988
0.031181
0.073859
0.105670
0.152601
0.159560
0.146878
0.114490
0.071879
0.020000
-0.030464
-0.067248
-0.092611
-0.136127
-0.155817
-0.165421
-0.141417
-0.120081
-0.094494
-0.051587
-0.000784
0.013974
0.046417
0.100411
0.110741
0.101556
0.108489
0.108201
0.087184
0.031580
0.002932
-0.062925
-0.109888
-0.113900
-0.128464
-0.147041
-0.147499
-0.124803
-0.095889
-0.052323
-0.016562
0.029813
0.068235
0.085818
0.105455
0.122278
0.116617
0.101418
0.066935
0.030131
-0.006170
-0.054126
-0.092167
-0.121392
-0.139502
-0.149820
-0.151412
-0.134104
-0.086733
-0.042060
-0.003613
0.047084
0.088642
0.102229
0.129190
0.136080
0.112068
0.105032
0.070349
0.023123
-0.006947
-0.064510
-0.094483
-0.128598
-0.148249
-0.157345
-0.167778
-0.124367
-0.069771
-0.030532
-0.009699
0.048388
0.075003
0.102026
0.121598
0.125316
0.132556
0.105258
0.067142
0.011157
-0.016896
-0.056621
-0.095193
-0.139334
-0.150220
-0.141334
-0.134127
-0.129747
-0.103609
-0.055533
-0.007779
0.024782
0.078170
0.112039
0.140958
0.138861
0.138636
0.105350
0.080359
0.041167
-0.021200
-0.076915
-0.107441
-0.149010
-0.178587
-0.171630
-0.150792
-0.128785
-0.103423
-0.072396
-0.011045
0.048550
0.067728
0.109330
0.116764
0.105943
0.091911
0.093294
0.034055
0.005090
-0.016843
-0.046252
-0.087316
-0.121725
-0.169472
-0.178266
-0.161051
-0.151285
-0.093715
-0.064323
-0.034422
0.008586
0.051719
0.087754
0.094420
0.108966
0.094820
0.074826
0.035398
0.003032
-0.040663
-0.075067
-0.129210
-0.130818
-0.157571
-0.181908
-0.181338
-0.158272
-0.124761
-0.054392
-0.009626
0.030779
0.059853
0.102383
0.117133
0.104209
0.088228
0.062511
0.032706
0.008325
-0.018009
-0.061925
-0.102027
-0.150338
-0.182517
-0.179409
-0.181159
-0.151713
-0.125147
-0.074495
-0.030146
0.015397
0.065426
0.101350
0.121959
0.140462
0.124988
0.096438
0.069934
0.019597
-0.033311
-0.072846
-0.112692
-0.139487
-0.149933
-0.140657
-0.140882
-0.133500
-0.095060
-0.038530
0.017941
0.049568
0.088615
0.125545
0.148976
0.153399
0.145614
0.123875
0.094458
0.056312
-0.000579
-0.055554
-0.105372
-0.133438
-0.145382
-0.137927
-0.111087
-0.109637
-0.081037
-0.064302
-0.003087
0.043678
0.083876
0.113043
0.130973
0.133894
0.149669
0.133635
0.106927
0.069959
0.038790
-0.004648
-0.062477
-0.096354
-0.121953
-0.126172
-0.122308
-0.101547
-0.080784
-0.043211
0.002307
0.046659
0.090972
0.122404
0.140984
0.139414
0.124822
0.094321
0.060535
0.016904
-0.021235
-0.049460
-0.103068
-0.148475
-0.162849
-0.181090
-0.156471
-0.110526
-0.096944
-0.071549
-0.029100
0.018801
0.033750
0.047781
0.072024
0.074947
0.097519
0.092590
0.065512
0.018858
-0.030671
-0.101827
-0.137193
-0.149314
-0.188094
-0.199983
-0.189813
-0.162592
-0.128372
-0.106594
-0.053573
0.001673
0.039960
0.081487
0.050862
0.077669
0.076938
0.069232
0.031221
-0.012350
-0.061576
-0.108025
-0.144124
-0.166455
-0.179289
-0.190962
-0.189820
-0.184750
-0.155624
-0.104284
-0.062329
-0.031384
0.015231
0.052281
0.064567
0.094311
0.108995
0.081687
0.030557
-0.016375
-0.059450
-0.113700
-0.155847
-0.183148
-0.185457
-0.199918
-0.200741
-0.179705
-0.131887
-0.105128
-0.064036
-0.033126
0.015269
0.061341
0.077312
0.079248
0.067930
0.049817
0.014858
-0.019562
-0.069524
-0.111175
-0.155973
-0.174581
-0.185041
-0.204061
-0.202136
-0.197329
-0.184522
-0.127330
-0.068140
-0.015635
0.021545
0.042712
0.056928
0.093365
0.108757
0.101924
0.071164
0.039654
0.001932
-0.009776
-0.028755
-0.010637
-0.029725
-0.075678
-0.067436
-0.019669
0.076663
0.123880
0.184816
0.252955
0.349830
0.432007
0.490860
0.496497
0.492954
0.513577
0.514857
0.515484
0.512023
0.502467
0.485209
0.480927
0.508494
0.532514
0.577719
0.637880
0.639612
0.690979
0.747113
0.763356
0.795207
0.807886
0.787703
0.760831
0.694890
0.583149
0.526069
0.420677
0.311729
0.213383
0.122324
0.040342
-0.016834
-0.042347
-0.022656
-0.006983
0.023969
0.049110
0.070860
0.122132
0.143670
0.190744
0.191334
0.197836
0.196186
0.159751
0.116093
0.081864
0.027011
-0.007276
-0.046367
-0.096576
-0.135880
-0.151684
-0.149169
-0.133661
-0.108765
-0.057941
0.004729
0.048197
0.066568
0.117541
0.123263
0.130284
0.143595
0.084834
0.058599
0.025028
-0.017750
-0.067276
-0.106873
-0.139942
-0.149859
-0.156579
-0.152691
-0.133644
-0.110054
-0.081905
-0.021033
0.020476
0.058269
0.086584
0.110077
0.116881
0.109655
0.093012
0.057932
0.008447
-0.029348
-0.059096
-0.112166
-0.141634
-0.162123
-0.158341
-0.153309
-0.125420
-0.093688
-0.051660
-0.008112
0.030276
0.066207
0.094838
0.108693
0.119381
0.106496
0.103433
0.066737
0.031609
0.001076
-0.041343
-0.101144
-0.128647
-0.157385
-0.147987
-0.122511
-0.094654
-0.078280
-0.046203
-0.002033
0.037088
0.075835
0.111024
0.123844
0.136346
0.134373
0.125970
0.098339
0.108031
0.038422
-0.020571
-0.072414
-0.109067
-0.110267
-0.129273
-0.125241
-0.078114
-0.049066
-0.027588
0.023075
0.066220
0.125081
0.177047
0.184395
0.181862
0.167624
0.156437
0.136916
0.125171
0.052929
-0.019545
-0.054803
-0.090421
-0.074772
-0.101501
-0.059071
-0.066465
-0.048116
0.001382
0.051241
0.092787
0.148400
0.175662
0.196394
0.196211
0.205778
0.211776
0.164734
0.105688
0.054570
0.018244
-0.012257
-0.045682
-0.055427
-0.062628
-0.058100
-0.037881
-0.003339
0.048246
0.090223
0.118672
0.157948
0.192512
0.220644
0.224109
0.216993
0.209380
0.169296
0.120482
0.079340
0.035616
-0.009156
-0.029617
-0.054847
-0.057737
-0.045903
-0.018822
0.006308
0.042056
0.080941
0.128388
0.162044
0.201493
0.227154
0.228092
0.200045
0.180786
0.151720
0.123816
0.067801
0.013928
-0.013029
-0.043553
-0.069716
-0.082807
-0.085026
-0.068039
-0.026376
0.027762
0.089790
0.137175
0.160056
0.183601
0.196223
0.187320
0.185136
0.162441
0.145652
0.106649
0.057085
0.012232
-0.028085
-0.079331
-0.112858
-0.108839
-0.084933
-0.067615
-0.017262
0.008352
0.044904
0.106096
0.143853
0.156209
0.173468
0.185883
0.170783
0.148654
0.115419
0.078478
0.030944
-0.012570
-0.066418
-0.103654
-0.132036
-0.116317
-0.113930
-0.091373
-0.087423
-0.031518
0.014400
0.069137
0.116908
0.152910
0.164799
0.159248
0.151153
0.121962
0.099271
0.040825
-0.016553
-0.056122
-0.086777
-0.111829
-0.138796
-0.147123
-0.136879
-0.122771
-0.092313
-0.038359
0.017249
0.044540
0.085133
0.116640
0.126320
0.136571
0.120210
0.107569
0.080079
0.031899
-0.009442
-0.052817
-0.098721
-0.123057
-0.130678
-0.142807
-0.128052
-0.107105
-0.103354
-0.054043
0.018181
0.049749
0.085469
0.123679
0.146870
0.161593
0.132449
0.112094
0.086659
0.042081
-0.011673
-0.044121
-0.077796
-0.111264
-0.136365
-0.151054
-0.131321
-0.103573
-0.069369
-0.032181
-0.001278
0.054857
0.117477
0.140475
0.147690
0.153616
0.149971
0.113535
0.069361
0.015202
-0.039610
-0.033256
-0.059149
-0.078720
-0.122755
-0.112016
-0.117575
-0.096906
-0.079444
-0.036931
0.018066
0.057588
0.097443
0.123570
0.131008
0.173039
0.169928
0.134911
0.095599
0.041199
-0.007702
-0.045141
-0.081356
-0.123127
-0.139259
-0.137789
-0.126794
-0.108992
-0.081117
-0.045298
0.005261
0.042116
0.080728
0.117225
0.137961
0.137729
0.139324
0.118905
0.084384
0.044272
-0.017602
-0.054723
-0.083675
-0.120994
-0.130471
-0.129239
-0.130599
-0.117526
-0.079045
-0.044901
-0.000952
0.041897
0.088892
0.118230
0.132776
0.136046
0.131809
0.112105
0.077623
0.023883
-0.022980
-0.062620
-0.087942
-0.128314
-0.143889
-0.151350
-0.141163
-0.146100
-0.121684
-0.079007
0.016757
0.040897
0.079420
0.123223
0.117978
0.114652
0.141426
0.133437
0.062735
0.031321
-0.023386
-0.069493
-0.111657
-0.144128
-0.143425
-0.142466
-0.131638
-0.113719
-0.087247
-0.049605
-0.008481
0.034876
0.064700
0.122809
0.152928
0.155633
0.134088
0.110670
0.071946
0.041774
-0.017744
-0.062254
-0.110332
-0.149227
-0.161966
-0.164982
-0.152431
-0.135314
-0.109300
-0.070226
-0.035024
0.029010
0.061654
0.083985
0.103427
0.131448
0.129420
0.104451
0.048399
0.012026
-0.009765
-0.051512
-0.092504
-0.135354
-0.155331
-0.154685
-0.144477
-0.126915
-0.104996
-0.062227
-0.003100
0.025395
0.064835
0.099363
0.123148
0.123378
0.116773
0.116085
0.095623
0.048794
-0.014134
-0.047966
-0.082784
-0.113155
-0.138946
-0.137937
-0.127755
-0.107123
-0.068487
-0.022549
0.025734
0.073809
0.107545
0.124118
0.137279
0.154388
0.164154
0.152930
0.121285
0.063406
-0.002265
-0.042929
-0.035387
-0.077517
-0.109076
-0.132696
-0.132243
-0.115813
-0.074802
-0.026957
0.030043
0.075798
0.116038
0.139994
0.156912
0.182424
0.193037
0.164805
0.108953
0.070765
0.022454
-0.025037
-0.054253
-0.067032
-0.076930
-0.099559
-0.111622
-0.095646
-0.053110
-0.010725
0.021849
0.031013
0.097172
0.141064
0.149340
0.150321
0.144523
0.124122
0.092026
0.051307
-0.001181
-0.054538
-0.110018
-0.141167
-0.154162
-0.160619
-0.156176
-0.148241
-0.101551
-0.057441
-0.025862
0.029384
0.067398
0.102591
0.112045
0.101477
0.090765
0.083553
0.053889
0.023047
-0.031793
-0.083273
-0.124376
-0.147667
-0.172876
-0.183991
-0.173430
-0.152056
-0.124130
-0.090160
-0.038295
0.000375
0.033324
0.056532
0.077444
0.097089
0.088990
0.074870
0.046937
0.009337
-0.053346
-0.108592
-0.153706
-0.163686
-0.160056
-0.177969
-0.181509
-0.159179
-0.142740
-0.100383
-0.046240
0.002633
0.033140
0.076037
0.088985
0.102974
0.104133
0.071540
0.033253
-0.015824
-0.078942
-0.121132
-0.143690
-0.174381
-0.167546
-0.184584
-0.182463
-0.176073
-0.139608
-0.090294
-0.041875
-0.005755
0.063307
0.108655
0.115810
0.092737
0.078295
0.058848
0.017192
-0.013988
-0.063618
-0.123697
-0.159198
-0.171322
-0.168727
-0.187085
-0.171962
-0.149079
-0.156134
-0.122649
-0.046302
-0.004420
0.038549
0.072091
0.090958
0.121123
0.119665
0.114256
0.107868
0.077889
0.038862
0.009616
-0.014400
-0.040637
-0.048345
-0.034509
-0.001398
0.038855
0.103136
0.184572
0.261241
0.334769
0.413207
0.480990
0.529554
0.572500
0.590532
0.590017
0.599197
0.615385
0.643882
0.653001
0.632717
0.604397
0.619759
0.639303
0.654489
0.666055
0.705770
0.716989
0.740153
0.770125
0.791201
0.804517
0.754025
0.681533
0.607759
0.537827
0.455375
0.363060
0.257854
0.154234
0.092254
0.039161
0.009157
0.001315
0.021349
0.023683
0.034813
0.081067
0.106022
0.132141
0.152015
0.177347
0.190094
0.204125
0.171650
0.147160
0.121700
0.058915
0.032636
-0.016909
-0.054340
-0.102297
-0.124852
-0.128319
-0.113530
-0.102540
-0.070277
-0.020812
0.019682
0.052645
0.089710
0.128622
0.145398
0.139525
0.137451
0.112089
0.091439
0.042766
-0.024056
-0.075540
-0.106201
-0.128814
-0.140766
-0.147391
-0.139924
-0.134613
-0.101427
-0.068646
-0.024436
0.009194
0.047037
0.088744
0.127773
0.139067
0.150271
0.137324
0.103216
0.053141
0.001856
-0.053938
-0.093828
-0.117517
-0.133952
-0.149441
-0.148601
-0.117629
-0.084827
-0.040910
0.002017
0.059912
0.100897
0.113831
0.136366
0.150687
0.132742
0.104340
0.077994
0.016359
-0.029464
-0.067073
-0.109418
-0.123902
-0.109131
-0.125947
-0.120924
-0.092134
-0.067675
-0.032003
0.015708
0.072691
0.103273
0.134317
0.144249
0.160559
0.147268
0.147241
0.107246
0.058754
0.019221
-0.022827
-0.070464
-0.107334
-0.100681
-0.113616
-0.115260
-0.090611
-0.059872
-0.006495
0.052938
0.111388
0.131870
0.165165
0.181639
0.179543
0.190072
0.167645
0.137515
0.099821
0.045344
-0.001523
-0.043548
-0.063133
-0.073686
-0.077835
-0.088361
-0.063743
-0.019621
0.037030
0.083983
0.121131
0.158924
0.192986
0.205010
0.216171
0.203558
0.189443
0.176586
0.135488
0.070146
0.028626
0.005591
-0.038433
-0.048193
-0.058814
-0.041170
-0.021534
-0.003076
0.052507
0.090340
0.143137
0.180950
0.210108
0.219176
0.227022
0.221612
0.186258
0.180010
0.149641
0.100832
0.030510
0.015821
-0.024903
-0.052979
-0.088723
-0.033560
0.006466
0.026944
0.053676
0.086476
0.139168
0.172526
0.201330
0.219899
0.216927
0.230817
0.211526
0.170111
0.122789
0.055973
0.010191
-0.023662
-0.049635
-0.066614
-0.068132
-0.057387
-0.044831
-0.017732
0.017279
0.049542
0.111544
0.153295
0.187329
0.204380
0.208612
0.207282
0.172746
0.133959
0.083567
0.043485
-0.008674
-0.051273
-0.078345
-0.101940
-0.103000
-0.104225
-0.073047
-0.043987
-0.001342
0.051998
0.099459
0.128153
0.166459
0.169691
0.175841
0.159557
0.128459
0.097567
0.038471
0.005709
-0.011203
-0.039627
-0.076200
-0.090503
-0.111584
-0.107533
-0.099275
-0.057288
-0.024912
-0.003194
0.050233
0.112834
0.135824
0.149782
0.151426
0.138082
0.111368
0.081143
0.037845
0.003183
-0.048769
-0.100957
-0.131158
-0.140826
-0.146689
-0.112475
-0.086666
-0.072168
-0.058672
-0.024213
0.037560
0.084013
0.125879
0.138265
0.143236
0.121639
0.102627
0.076682
0.040504
-0.005501
-0.052503
-0.083511
-0.123063
-0.131877
-0.152841
-0.137458
-0.111001
-0.085803
-0.061731
-0.007207
0.062395
0.124346
0.142765
0.157171
0.138286
0.130112
0.129436
0.089988
0.036115
-0.027894
-0.064368
-0.089794
-0.149589
-0.149653
-0.129653
-0.101142
-0.093599
-0.075797
-0.041821
0.011440
0.053877
0.104017
0.138434
0.138678
0.138281
0.133272
0.111162
0.092786
0.075094
0.031664
-0.053122
-0.082109
-0.115301
-0.141272
-0.146379
-0.150401
-0.129617
-0.079400
-0.044316
0.003867
0.050912
0.106859
0.140273
0.131391
0.158420
0.154729
0.119561
0.091089
0.040127
-0.005596
-0.050715
-0.062352
-0.111485
-0.139511
-0.157376
-0.137774
-0.102574
-0.072425
-0.038730
0.008607
0.050415
0.089380
0.128706
0.140151
0.158560
0.143002
0.116401
0.082529
0.039302
-0.017678
-0.056448
-0.092112
-0.124646
-0.145404
-0.149187
-0.136635
-0.112217
-0.089992
-0.046334
-0.003094
0.045084
0.083917
0.103235
0.121819
0.128771
0.119545
0.098084
0.080263
0.029437
-0.036770
-0.048290
-0.088827
-0.147313
-0.145580
-0.145795
-0.122633
-0.116152
-0.101401
-0.070866
-0.002628
0.033710
0.076293
0.104209
0.136934
0.141529
0.124436
0.086653
0.063106
0.033924
0.005569
-0.039719
-0.102551
-0.144388
-0.177269
-0.179370
-0.146245
-0.134143
-0.106880
-0.060312
-0.011916
0.026732
0.066161
0.091616
0.125473
0.127522
0.108217
0.080170
0.053070
0.009440
-0.020928
-0.085280
-0.125080
-0.186654
-0.177769
-0.135478
-0.142908
-0.122002
-0.115444
-0.071310
-0.029774
0.027927
0.075283
0.113461
0.134711
0.134892
0.117896
0.088957
0.054030
0.018268
-0.028276
-0.071448
-0.103651
-0.139495
-0.154296
-0.155945
-0.136908
-0.128529
-0.103575
-0.054997
-0.012248
0.036278
0.069294
0.107349
0.131168
0.139160
0.133231
0.111505
0.077239
0.037179
-0.014319
-0.065851
-0.089890
-0.104249
-0.122481
-0.155479
-0.133694
-0.094562
-0.060426
-0.028203
0.030283
0.060466
0.109398
0.138705
0.152046
0.152424
0.143514
0.131789
0.085610
0.047364
-0.001072
-0.058226
-0.093213
-0.123492
-0.108318
-0.092644
-0.081781
-0.060291
-0.041950
-0.030283
0.010023
0.078509
0.123408
0.172299
0.158628
0.156804
0.178010
0.152350
0.109480
0.070990
0.018129
-0.048739
-0.080285
-0.117890
-0.137808
-0.129142
-0.130374
-0.134697
-0.096515
-0.049705
-0.009770
0.042294
0.081621
0.113525
0.134593
0.128942
0.111036
0.105100
0.077670
0.030873
-0.021946
-0.071268
-0.112866
-0.154095
-0.170795
-0.163654
-0.158000
-0.143445
-0.120544
-0.082754
-0.036384
0.007523
0.052742
0.059010
0.077592
0.112251
0.118729
0.079786
0.037918
-0.009139
-0.048179
-0.107222
-0.153190
-0.178728
-0.184968
-0.180005
-0.186687
-0.189668
-0.141887
-0.107811
-0.066654
-0.004019
0.035376
0.081232
0.113746
0.109462
0.085965
0.059479
0.029529
-0.017789
-0.059757
-0.116201
-0.149499
-0.172227
-0.191627
-0.195343
-0.183017
-0.152615
-0.141836
-0.093850
-0.042434
0.008522
0.052136
0.071762
0.089136
0.090698
0.067131
0.047340
0.021273
-0.012486
-0.069739
-0.120679
-0.167094
-0.178135
-0.185914
-0.211842
-0.173846
-0.156724
-0.141770
-0.100534
-0.045136
0.001568
0.035863
0.066219
0.092711
0.097974
0.090036
0.066139
0.051860
-0.009510
-0.060451
-0.124744
-0.176920
-0.194276
-0.206955
-0.207713
-0.201812
-0.188517
-0.143080
-0.085568
-0.002658
0.048067
0.088725
0.122360
0.159864
0.181471
0.197857
0.185555
0.152136
0.136784
0.105275
0.068585
0.060522
0.064004
0.072563
0.131400
0.183886
0.221956
0.279734
0.347568
0.429735
0.513514
0.580917
0.637955
0.691785
0.747253
0.782394
0.785393
0.785046
0.780300
0.774475
0.725563
0.668073
0.643083
0.604627
0.597627
0.593599
0.586138
0.567742
0.544739
0.521142
0.521969
0.487522
0.470134
0.424211
0.378601
0.328233
0.297909
0.265026
0.180801
0.130393
0.080647
0.042345
-0.013438
-0.049186
-0.061244
-0.052838
-0.065487
-0.032503
0.010049
0.059904
0.102263
0.138750
0.163640
0.158339
0.161354
0.137518
0.116290
0.083122
0.041598
0.000643
-0.051037
-0.091744
-0.111893
-0.134487
-0.169163
-0.146277
-0.113995
-0.094751
-0.070742
-0.022309
0.034045
0.083075
0.105013
0.116581
0.122064
0.116972
0.098705
0.066513
0.010740
-0.030956
-0.072820
-0.115190
-0.137084
-0.158647
-0.162469
-0.145061
-0.128937
-0.092300
-0.048081
-0.017562
0.018689
0.062099
0.102274
0.135019
0.122208
0.109733
0.089874
0.063331
0.014403
-0.023580
-0.065153
-0.101336
-0.132258
-0.166349
-0.175288
-0.161226
-0.126006
-0.084309
-0.038362
-0.002279
0.046506
0.082414
0.120287
0.153917
0.147360
0.140499
0.116079
0.076520
0.023396
-0.034552
-0.078235
-0.110529
-0.113508
-0.131563
-0.154121
-0.119947
-0.107146
-0.047514
-0.004592
0.039636
0.083695
0.108818
0.130406
0.155994
0.165987
0.168565
0.128988
0.090652
0.063544
0.032147
-0.022696
-0.074768
-0.098860
-0.118409
-0.117416
-0.112193
-0.092153
-0.054081
-0.012539
0.047275
0.090058
0.116822
0.154371
0.170850
0.178862
0.176557
0.153277
0.126309
0.109804
0.088095
0.069029
-0.017274
-0.063669
-0.093047
-0.093174
-0.082901
-0.058446
-0.015673
0.037929
0.079965
0.125130
0.165960
0.192878
0.206270
0.220207
0.212529
0.187887
0.149115
0.109060
0.075822
0.035609
-0.005658
-0.031495
-0.048768
-0.054427
-0.039754
-0.028440
-0.003402
0.051144
0.089110
0.129448
0.170104
0.209549
0.226798
0.231233
0.228123
0.191948
0.161708
0.118171
0.065586
0.011640
-0.020260
-0.054871
-0.054272
-0.045451
-0.032835
-0.032352
-0.007584
0.038547
0.063453
0.127635
0.176371
0.201422
0.218035
0.202951
0.206873
0.177276
0.120867
0.055383
0.045481
-0.008477
-0.030919
-0.025615
-0.023741
-0.056384
-0.067400
-0.051116
-0.030694
0.016232
0.055367
0.097006
0.168995
0.208068
0.189832
0.184941
0.184431
0.156021
0.122036
0.077516
0.033200
-0.008602
-0.048727
-0.091258
-0.112284
-0.122733
-0.117372
-0.095086
-0.060906
-0.018570
0.022942
0.075964
0.122288
0.149702
0.154927
0.162702
0.150098
0.132244
0.103483
0.066500
0.021449
-0.025061
-0.075006
-0.117719
-0.133683
-0.129890
-0.133520
-0.116520
-0.063422
-0.041615
0.009923
0.054480
0.085201
0.118297
0.134752
0.133018
0.125112
0.107730
0.090427
0.041302
-0.014969
-0.071232
-0.097713
-0.124331
-0.159420
-0.164989
-0.144563
-0.126387
-0.099040
-0.053713
-0.018411
0.025287
0.065914
0.113947
0.146026
0.136392
0.120171
0.095214
0.075595
0.041241
-0.008001
-0.032603
-0.075771
-0.119659
-0.146583
-0.147064
-0.123415
-0.112917
-0.087488
-0.036891
0.010282
0.055104
0.090712
0.118160
0.140063
0.141326
0.144820
0.101797
0.066634
0.020240
-0.003628
-0.047490
-0.087926
-0.108313
-0.104176
-0.107221
-0.117951
-0.108933
-0.091073
-0.046765
0.010707
0.054380
0.105329
0.138570
0.163892
0.160351
0.133471
0.106639
0.062965
0.033780
0.002229
-0.061875
-0.095411
-0.127858
-0.156033
-0.151823
-0.134261
-0.118901
-0.072909
-0.029942
0.018552
0.071927
0.108159
0.115530
0.155120
0.152902
0.150883
0.122039
0.082067
0.047002
0.010806
-0.031478
-0.076273
-0.110013
-0.151645
-0.154973
-0.139730
-0.114205
-0.083824
-0.050838
-0.006533
0.041255
0.086356
0.114819
0.131408
0.146540
0.138530
0.109150
0.072867
0.034540
0.004113
-0.037524
-0.087771
-0.107738
-0.139345
-0.145055
-0.144143
-0.113331
-0.084959
-0.043419
-0.003867
0.036774
0.067072
0.103720
0.129897
0.132512
0.125994
0.129366
0.096298
0.045359
-0.015111
-0.063688
-0.103834
-0.131426
-0.148543
-0.158909
-0.138784
-0.095532
-0.062106
-0.038612
-0.008675
0.046719
0.092425
0.118286
0.127142
0.113405
0.096075
0.089462
0.063163
0.029319
-0.015405
-0.084325
-0.126422
-0.134452
-0.133616
-0.149178
-0.166695
-0.137191
-0.090141
-0.052866
-0.002367
0.034652
0.063704
0.095396
0.123684
0.128654
0.109392
0.087221
0.049647
0.009309
-0.023566
-0.080880
-0.113806
-0.140562
-0.160354
-0.151991
-0.152431
-0.145804
-0.098856
-0.055337
0.006684
0.034131
0.074271
0.103226
0.143276
0.128562
0.101035
0.075589
0.060161
0.035468
-0.029251
-0.084041
-0.127646
-0.131052
-0.132253
-0.152751
-0.157829
-0.125521
-0.105026
-0.053658
0.008618
0.056179
0.081807
0.112145
0.131373
0.153987
0.148164
0.124640
0.091472
0.047520
0.006842
-0.036924
-0.080086
-0.122142
-0.142857
-0.143509
-0.129049
-0.100682
-0.074950
-0.037799
0.018323
0.059667
0.090043
0.113017
0.134024
0.159187
0.136432
0.114582
0.078449
0.029660
-0.018393
-0.067538
-0.105521
-0.105627
-0.090232
-0.052741
-0.069552
-0.063891
-0.041173
-0.008559
0.040888
0.089415
0.135372
0.154357
0.161812
0.166452
0.154386
0.138720
0.104186
0.048466
-0.001557
-0.031283
-0.081154
-0.126793
-0.133609
-0.141750
-0.142380
-0.136982
-0.108953
-0.028450
0.027738
0.071707
0.091681
0.103689
0.112794
0.116434
0.108691
0.093981
0.064604
0.019844
-0.032629
-0.093522
-0.120604
-0.159472
-0.172151
-0.176111
-0.175591
-0.157048
-0.116328
-0.075734
-0.024813
0.006919
0.048134
0.078223
0.101983
0.112222
0.101360
0.077706
0.044336
-0.010023
-0.040549
-0.091560
-0.136849
-0.182926
-0.210010
-0.206162
-0.192873
-0.168864
-0.136890
-0.095547
-0.058843
-0.024343
0.033970
0.060545
0.087592
0.104972
0.089975
0.085750
0.062254
0.007663
-0.049193
-0.092253
-0.123607
-0.166238
-0.202088
-0.208423
-0.199933
-0.172818
-0.132583
-0.099735
-0.053731
0.002525
0.062979
0.088991
0.087541
0.093601
0.072613
0.063571
0.024267
-0.003989
-0.051906
-0.108025
-0.150293
-0.169360
-0.185615
-0.166596
-0.136950
-0.146678
-0.148985
-0.098569
-0.055833
-0.011448
0.043857
0.050601
0.089876
0.088997
0.074225
0.041819
0.010587
-0.031612
-0.073357
-0.105300
-0.132085
-0.157931
-0.189924
-0.198215
-0.181062
-0.146151
-0.068636
-0.033863
0.020077
0.097506
0.151837
0.186332
0.214873
0.234815
0.222013
0.231899
0.209931
0.189662
0.162785
0.143129
0.117355
0.118058
0.155370
0.180291
0.211590
0.232720
0.305888
0.402384
0.454039
0.521751
0.608104
0.668237
0.733935
0.792851
0.814680
0.824312
0.802443
0.741560
0.697146
0.656487
0.600287
0.551818
0.522273
0.473941
0.445130
0.386894
0.377018
0.347902
0.339128
0.328609
0.322242
0.292926
0.287731
0.263092
0.246260
0.216529
0.167453
0.114911
0.085312
0.035684
-0.026512
-0.075945
-0.092606
-0.094577
-0.083399
-0.065471
-0.042435
-0.002937
0.027331
0.064171
0.103932
0.131411
0.156736
0.157959
0.149959
0.133379
0.093214
0.041977
0.002578
-0.055631
-0.088770
-0.126362
-0.153556
-0.158782
-0.158606
-0.130826
-0.092707
-0.058198
-0.001654
0.033938
0.067013
0.090930
0.108921
0.114282
0.094075
0.075093
0.067161
0.016372
-0.023184
-0.058478
-0.113199
-0.146558
-0.158260
-0.165762
-0.165533
-0.137592
-0.122209
-0.077654
-0.028658
0.040459
0.078947
0.107399
0.115151
0.124717
0.121415
0.106738
0.069841
0.022145
-0.023745
-0.053984
-0.107314
-0.141069
-0.184176
-0.147801
-0.134797
-0.123249
-0.090372
-0.052024
-0.013311
0.050392
0.090551
0.114934
0.140649
0.154867
0.136287
0.089748
0.076774
0.032006
-0.024506
-0.092070
-0.124968
-0.131953
-0.114226
-0.124679
-0.123547
-0.099196
-0.077053
-0.043342
0.002278
0.047435
0.099674
0.140667
0.169977
0.176055
0.159038
0.125103
0.095436
0.051986
0.006955
-0.034101
-0.041806
-0.078454
-0.128481
-0.115761
-0.100238
-0.062620
-0.042484
-0.022096
0.026897
0.081500
0.136345
0.150226
0.185520
0.200099
0.186735
0.155995
0.119342
0.078114
0.035307
0.001831
-0.049148
-0.077293
-0.077612
-0.094988
-0.072288
-0.051345
-0.016068
0.027046
0.062488
0.107541
0.145938
0.187555
0.207435
0.226496
0.216866
0.181035
0.161231
0.112385
0.053963
0.039891
0.004771
-0.056978
-0.069253
-0.071486
-0.056050
-0.029824
-0.002758
0.036268
0.078269
0.128854
0.164658
0.193968
0.210750
0.219114
0.213023
0.176772
0.145796
0.109365
0.071288
0.023116
-0.027861
-0.069381
-0.082190
-0.080086
-0.069024
-0.045731
-0.012682
0.027099
0.066779
0.122311
0.154607
0.189359
0.212076
0.217610
0.190905
0.160107
0.141340
0.101978
0.048554
0.006177
-0.060512
-0.072318
-0.093212
-0.111695
-0.103435
-0.079535
-0.046379
-0.000475
0.051924
0.114547
0.151696
0.162565
0.172382
0.184835
0.171300
0.166831
0.127211
0.067107
0.020995
-0.018824
-0.068778
-0.099993
-0.138538
-0.148841
-0.140028
-0.096830
-0.081699
-0.027527
0.032836
0.083580
0.111558
0.144711
0.163476
0.173731
0.156614
0.132808
0.087530
0.062948
0.004892
-0.053287
-0.114292
-0.144167
-0.144704
-0.129042
-0.118592
-0.102497
-0.097354
-0.060480
-0.001723
0.051569
0.079669
0.089493
0.133120
0.140426
0.131666
0.104826
0.064852
0.036984
-0.014505
-0.054480
-0.119914
-0.126285
-0.129412
-0.138248
-0.141346
-0.120532
-0.109674
-0.084236
-0.022113
0.032176
0.063762
0.082477
0.103223
0.139763
0.106378
0.065397
0.089805
0.049875
-0.004835
-0.052102
-0.085807
-0.128827
-0.153054
-0.156940
-0.140866
-0.136007
-0.094607
-0.041750
-0.017178
0.043414
0.082848
0.120371
0.152096
0.133302
0.108982
0.100732
0.074643
0.028438
-0.012975
-0.064309
-0.113270
-0.142662
-0.158653
-0.167197
-0.152626
-0.122816
-0.077978
-0.052120
-0.011632
0.053232
0.105791
0.115711
0.131346
0.148309
0.167556
0.127625
0.064850
0.025298
-0.020491
-0.065009
-0.107378
-0.122951
-0.121753
-0.132734
-0.142853
-0.120622
-0.085989
-0.046789
0.000007
0.037488
0.064656
0.119369
0.149705
0.166952
0.144621
0.112193
0.072865
0.033905
-0.015137
-0.062086
-0.104618
-0.139135
-0.167598
-0.168103
-0.151403
-0.111557
-0.096157
-0.056553
-0.002022
0.038855
0.076372
0.112629
0.122909
0.127033
0.112760
0.105604
0.080930
0.046224
-0.013812
-0.054159
-0.108812
-0.138741
-0.158999
-0.171799
-0.176971
-0.151474
-0.106246
-0.066919
-0.025895
0.024241
0.079737
0.106983
0.102429
0.114231
0.110045
0.090910
0.050195
0.010190
-0.026627
-0.076649
-0.109929
-0.125986
-0.145492
-0.164100
-0.160468
-0.145545
-0.105066
-0.067942
-0.026128
0.025501
0.067066
0.097844
0.117110
0.136898
0.114114
0.077650
0.049496
0.009118
-0.036426
-0.088717
-0.132973
-0.151686
-0.173244
-0.177257
-0.176081
-0.148693
-0.113071
-0.070614
-0.032144
0.022942
0.057206
0.077951
0.098106
0.101668
0.095091
0.105933
0.079426
0.017048
-0.026938
-0.078995
-0.118632
-0.155910
-0.191608
-0.206177
-0.180552
-0.165933
-0.128003
-0.071930
-0.017365
0.031980
0.074782
0.093243
0.109425
0.123211
0.113877
0.086799
0.062625
0.030401
-0.018699
-0.087085
-0.129065
-0.153231
-0.157795
-0.138890
-0.146847
-0.147156
-0.104883
-0.066258
-0.017906
0.024847
0.054968
0.095734
0.121923
0.146706
0.146473
0.125400
0.117757
0.053819
-0.021104
-0.051102
-0.088106
-0.131929
-0.153962
-0.156712
-0.155680
-0.124705
-0.093705
-0.048642
-0.000282
0.040052
0.089458
0.116082
0.133501
0.155167
0.137596
0.130461
0.103972
0.053093
0.009193
-0.032633
-0.060203
-0.083869
-0.114064
-0.128156
-0.128170
-0.100066
-0.065085
-0.028716
0.014524
0.045430
0.080926
0.108598
0.128141
0.135107
0.121501
0.089480
0.052444
0.003815
-0.043603
-0.078031
-0.113308
-0.154028
-0.179673
-0.176271
-0.164653
-0.145688
-0.098655
-0.072044
-0.027860
0.017984
0.052403
0.083537
0.094804
0.094914
0.077396
0.046553
0.021909
-0.017029
-0.071549
-0.110653
-0.159805
-0.201968
-0.236490
-0.218718
-0.203784
-0.179546
-0.132958
-0.096909
-0.046016
-0.001230
0.041203
0.079140
0.087837
0.082110
0.059618
0.037375
0.008494
-0.046420
-0.096477
-0.122929
-0.164721
-0.193675
-0.190545
-0.214664
-0.206851
-0.191806
-0.175096
-0.119760
-0.081858
-0.027006
0.029200
0.061016
0.070477
0.094142
0.097299
0.059519
0.001523
-0.045725
-0.079972
-0.110097
-0.159859
-0.195814
-0.217064
-0.235802
-0.210946
-0.187948
-0.157988
-0.115225
-0.074474
-0.023087
0.019827
0.047121
0.072457
0.078273
0.053419
0.042810
0.011469
-0.027481
-0.086836
-0.123331
-0.158565
-0.187485
-0.217563
-0.218800
-0.208886
-0.191702
-0.165478
-0.133799
-0.088912
-0.039871
0.010936
0.050299
0.070421
0.105025
0.104378
0.086724
0.064767
0.032099
-0.003721
-0.032378
-0.072899
-0.070561
-0.065381
-0.069662
-0.055204
-0.019849
0.025339
0.078180
0.146190
0.241335
0.346456
0.385002
0.408912
0.473281
0.482536
0.491055
0.494786
0.480493
0.463073
0.461330
0.462210
0.456763
0.458226
0.499370
0.554716
0.616025
0.650459
0.688116
0.734266
0.780126
0.821821
0.822113
0.814978
0.787991
0.723999
0.618457
0.515467
0.391404
0.298738
0.232082
0.138188
0.073768
0.001488
-0.037567
-0.052635
-0.045619
-0.022981
0.021727
0.073338
0.111901
0.138166
0.159527
0.171747
0.184162
0.156969
0.117958
0.101858
0.062514
0.003787
-0.045495
-0.089108
-0.121249
-0.141595
-0.165357
-0.159470
-0.143656
-0.098720
-0.031623
0.011028
0.031444
0.063453
0.090979
0.104280
0.112957
0.107318
0.077041
0.048774
0.008201
-0.042034
-0.091758
-0.132585
-0.170230
-0.189505
-0.198656
-0.179202
-0.156740
-0.128427
-0.094524
-0.043981
0.011317
0.044750
0.077294
0.106987
0.113965
0.094438
0.071011
0.046338
0.003913
-0.044589
-0.073302
-0.100059
-0.134678
-0.166161
-0.183983
-0.175367
-0.158060
-0.116927
-0.068538
-0.039960
0.002279
0.047417
0.085130
0.098849
0.103625
0.079850
0.061053
0.051523
0.025639
-0.030293
-0.096875
-0.151434
-0.180751
-0.161595
-0.167127
-0.179228
-0.138726
-0.085442
-0.023838
0.031752
0.075262
0.111747
0.133774
0.132682
0.150179
0.130155
0.097927
0.082769
0.018443
-0.018314
-0.054798
-0.086103
-0.111516
-0.144476
-0.164986
-0.147351
-0.120370
-0.080579
-0.045351
0.008332
0.060759
0.107965
0.139375
0.160101
0.168051
0.161178
0.133844
0.102100
0.063013
0.024797
-0.023442
-0.066982
-0.084755
-0.109869
-0.127309
-0.115094
-0.106931
-0.059051
-0.009898
0.019362
0.058257
0.130751
0.176291
0.177254
0.187806
0.179422
0.174749
0.140945
0.087811
0.045865
-0.003844
-0.046146
-0.068548
-0.087317
-0.109286
-0.089728
-0.061402
-0.025903
0.011888
0.059427
0.111944
0.147496
0.167239
0.198532
0.211036
0.197035
0.177168
0.143133
0.095335
0.049702
0.015693
-0.031659
-0.065834
-0.078645
-0.080144
-0.066431
-0.063614
-0.026818
0.009485
0.060809
0.107595
0.140361
0.162800
0.184747
0.188378
0.192433
0.166547
0.106598
0.056530
0.030090
-0.015818
-0.072127
-0.085555
-0.097359
-0.113079
-0.104243
-0.084753
-0.020224
0.021622
0.047096
0.081123
0.111683
0.141786
0.164820
0.166331
0.147918
0.146246
0.115489
0.064758
0.011357
-0.037645
-0.077226
-0.124759
-0.138843
-0.133033
-0.117932
-0.109579
-0.083502
-0.042865
0.007624
0.076648
0.120167
0.141570
0.154462
0.157927
0.151639
0.138801
0.101256
0.038577
-0.020627
-0.051507
-0.090662
-0.129628
-0.157703
-0.172618
-0.152867
-0.117934
-0.099142
-0.065936
-0.017737
0.017653
0.060252
0.088672
0.140987
0.147805
0.108921
0.076048
0.067297
0.011277
-0.027361
-0.067665
-0.115921
-0.151584
-0.171538
-0.179822
-0.172322
-0.159970
-0.127534
-0.078178
-0.029900
0.004884
0.048151
0.076881
0.109183
0.104624
0.105042
0.061901
0.057015
0.025859
-0.041527
-0.085428
-0.117515
-0.155198
-0.187237
-0.195104
-0.171956
-0.136950
-0.113330
-0.072903
-0.032221
0.024179
0.064681
0.092345
0.130288
0.142396
0.122478
0.093391
0.052882
-0.001984
-0.061554
-0.076688
-0.109110
-0.146176
-0.160819
-0.164121
-0.155784
-0.144851
-0.125103
-0.081517
-0.022953
0.043323
0.074166
0.110059
0.123494
0.126994
0.114122
0.106244
0.072672
0.025630
-0.012858
-0.077409
-0.113441
-0.155532
-0.171452
-0.172780
-0.156014
-0.125057
-0.088287
-0.043918
-0.012177
0.023298
0.070252
0.101652
0.130202
0.135777
0.126473
0.096931
0.061914
0.032585
-0.024701
-0.080071
-0.121303
-0.161018
-0.176194
-0.176672
-0.163500
-0.133441
-0.114931
-0.063888
-0.018737
0.015731
0.056340
0.100265
0.137903
0.147718
0.142929
0.101616
0.063780
0.020745
-0.024467
-0.072766
-0.104867
-0.155694
-0.186514
-0.172509
-0.169012
-0.138469
-0.112625
-0.075805
-0.017620
0.024522
0.059336
0.092428
0.108067
0.115351
0.110115
0.090614
0.050663
0.013463
-0.037134
-0.090723
-0.136385
-0.169990
-0.175186
-0.173681
-0.162385
-0.137696
-0.116373
-0.091433
-0.038776
0.005614
0.042556
0.081551
0.098191
0.099875
0.088025
0.056025
0.022984
-0.007246
-0.043364
-0.082202
-0.131986
-0.167391
-0.182776
-0.177630
-0.179468
-0.160891
-0.127475
-0.081330
-0.034009
0.005395
0.048155
0.083245
0.093937
0.099184
0.094131
0.066672
0.034243
0.005060
-0.057579
-0.102309
-0.146169
-0.173247
-0.202813
-0.199827
-0.197710
-0.168589
-0.130965
-0.086616
-0.036873
-0.007497
0.019315
0.112670
0.115704
0.099908
0.084852
0.051650
0.035578
-0.009690
-0.041845
-0.090173
-0.129902
-0.176261
-0.187594
-0.199647
-0.189375
-0.159234
-0.139869
-0.073939
-0.032605
0.012323
0.048150
0.083396
0.115229
0.121669
0.113239
0.080372
0.043408
0.006815
-0.021014
-0.062015
-0.097286
-0.136219
-0.171139
-0.164162
-0.155890
-0.139078
-0.098343
-0.060786
-0.017354
0.025801
0.071673
0.114174
0.143499
0.148435
0.137986
0.088397
0.044744
-0.010116
-0.055913
-0.074280
-0.098164
-0.134456
-0.162019
-0.165093
-0.146498
-0.120097
-0.087329
-0.036439
0.013174
0.055005
0.108271
0.143576
0.150730
0.151960
0.138830
0.119612
0.077586
0.038634
0.009101
-0.035052
-0.074461
-0.116598
-0.143647
-0.167436
-0.169953
-0.149805
-0.108662
-0.076712
-0.016010
0.051288
0.071743
0.095058
0.108830
0.111012
0.106164
0.082722
0.044102
-0.003869
-0.059516
-0.122153
-0.144627
-0.157031
-0.180678
-0.196647
-0.199284
-0.186255
-0.147500
-0.096744
-0.052977
-0.002810
0.044257
0.083893
0.101838
0.093134
0.078240
0.059068
0.023009
-0.032920
-0.093595
-0.142695
-0.176251
-0.209854
-0.229323
-0.249022
-0.211684
-0.195420
-0.153226
-0.116475
-0.088139
-0.047130
0.013943
0.046819
0.065572
0.065370
0.061266
0.041080
0.014041
-0.033604
-0.081144
-0.138701
-0.153943
-0.194456
-0.218726
-0.234776
-0.227886
-0.200144
-0.172433
-0.140119
-0.088412
-0.017634
0.011265
0.046576
0.071747
0.076057
0.062864
0.035399
-0.001431
-0.043415
-0.081562
-0.126302
-0.167700
-0.201748
-0.219430
-0.233213
-0.215648
-0.192994
-0.160972
-0.128011
-0.097006
-0.030198
0.026609
0.036105
0.038738
0.053020
0.054029
0.048369
0.019854
-0.035138
-0.082117
-0.123622
-0.171243
-0.217935
-0.229742
-0.226725
-0.226383
-0.198652
-0.157490
-0.110504
-0.070287
-0.010065
0.053278
0.084693
0.112806
0.124402
0.123121
0.139732
0.118308
0.096985
0.063746
0.031008
0.003418
-0.015248
-0.020827
-0.012078
0.027670
0.065546
0.141954
0.270075
0.338406
0.408914
0.456422
0.515407
0.576695
0.604159
0.622553
0.634555
0.664574
0.663829
0.635011
0.610885
0.602450
0.618999
0.598597
0.580657
0.600259
0.604715
0.623984
0.637805
0.656100
0.672399
0.652812
0.611436
0.552185
0.501095
0.440660
0.356523
0.265538
0.185338
0.101503
0.037542
-0.016359
-0.051917
-0.070797
-0.091721
-0.093218
-0.085301
-0.052523
-0.005183
0.033408
0.078930
0.114788
0.136810
0.156000
0.165283
0.146318
0.103373
0.070087
0.027948
-0.012074
-0.064055
-0.108403
-0.147199
-0.167729
-0.177050
-0.171132
-0.152071
-0.115743
-0.071685
-0.031931
0.014208
0.047839
0.073349
0.094460
0.098837
0.088484
0.063235
0.036016
-0.006123
-0.062721
-0.108939
-0.148793
-0.173481
-0.199429
-0.203827
-0.188808
-0.174363
-0.132308
-0.078871
-0.034967
0.021848
0.049713
0.089796
0.114229
0.125010
0.101623
0.075356
0.034881
-0.016355
-0.061089
-0.104762
-0.145142
-0.178974
-0.181840
-0.181782
-0.170126
-0.154901
-0.135407
-0.056141
-0.032300
0.003256
0.046974
0.088338
0.099884
0.101008
0.085671
0.091971
0.071453
0.014927
-0.020592
-0.066980
-0.128557
-0.155392
-0.152280
-0.159726
-0.164169
-0.136210
-0.098484
-0.064584
-0.032088
0.024781
0.070476
0.115486
0.132604
0.131646
0.122972
0.096849
0.066334
0.019488
-0.008832
-0.048973
-0.092866
-0.130650
-0.148341
-0.158066
-0.150765
-0.115888
-0.076353
-0.042625
0.005668
0.075864
0.105061
0.124411
0.151334
0.161397
0.142480
0.143647
0.114464
0.074985
0.028630
-0.029150
-0.078673
-0.098974
-0.116767
-0.125989
-0.113211
-0.085144
-0.043404
-0.008396
0.033666
0.077839
0.122671
0.149088
0.167116
0.188397
0.191070
0.169515
0.135111
0.092163
0.042157
-0.008869
-0.041896
-0.087426
-0.092562
-0.093878
-0.085219
-0.072581
-0.034701
-0.003086
0.048295
0.107292
0.146466
0.179560
0.192398
0.199358
0.185735
0.157899
0.122696
0.083867
0.030993
-0.012927
-0.050945
-0.081855
-0.105611
-0.103101
-0.102876
-0.067840
-0.046592
0.003940
0.041018
0.092347
0.136526
0.159462
0.181564
0.195059
0.194199
0.159571
0.120015
0.056949
0.001180
-0.067094
-0.047425
-0.089380
-0.118585
-0.128497
-0.121959
-0.079475
-0.058697
-0.022248
0.015593
0.065927
0.118511
0.147734
0.159547
0.164434
0.159431
0.133884
0.093530
0.045780
-0.007011
-0.057932
-0.110401
-0.116633
-0.090957
-0.115061
-0.142311
-0.130761
-0.089773
-0.053027
-0.004060
0.043684
0.073086
0.107510
0.132367
0.141242
0.121899
0.078809
0.056165
0.022308
-0.026572
-0.065096
-0.101270
-0.142785
-0.151262
-0.153459
-0.158854
-0.144439
-0.138642
-0.075278
-0.025867
0.010462
0.054473
0.081431
0.097370
0.092595
0.091022
0.069464
0.037845
0.004083
-0.044907
-0.100126
-0.123964
-0.167859
-0.186096
-0.187622
-0.175123
-0.156775
-0.135135
-0.058776
-0.020169
0.020781
0.054678
0.080851
0.092555
0.102941
0.108134
0.097348
0.068666
0.018503
-0.034050
-0.081101
-0.135292
-0.164888
-0.189732
-0.211723
-0.177601
-0.144095
-0.120234
-0.083426
-0.020942
0.039840
0.060346
0.101063
0.107601
0.118031
0.111192
0.074160
0.068585
0.030463
-0.026730
-0.079073
-0.130820
-0.171397
-0.186686
-0.182259
-0.165110
-0.122303
-0.088287
-0.042313
-0.020086
0.015320
0.055719
0.109418
0.119230
0.121347
0.113727
0.094234
0.073657
0.045791
-0.030452
-0.087874
-0.117379
-0.150781
-0.163652
-0.169676
-0.157438
-0.138745
-0.115572
-0.073388
-0.030024
0.017282
0.065239
0.108439
0.129284
0.129505
0.111838
0.072583
0.022536
-0.010212
-0.036912
-0.064032
-0.099975
-0.146194
-0.164185
-0.176149
-0.165085
-0.137012
-0.096715
-0.060937
-0.014056
0.011753
0.053268
0.086697
0.111441
0.121853
0.109887
0.079504
0.053339
0.007425
-0.042067
-0.082013
-0.122123
-0.154327
-0.175242
-0.177852
-0.159549
-0.148413
-0.103978
-0.069930
-0.026406
0.020007
0.054967
0.081568
0.102719
0.125761
0.102904
0.070684
0.033657
-0.005255
-0.047657
-0.087310
-0.134030
-0.175966
-0.192598
-0.195573
-0.178623
-0.145950
-0.129596
-0.087274
-0.030361
0.007431
0.046878
0.084638
0.111502
0.115239
0.107049
0.067142
0.040959
-0.011047
-0.046745
-0.087390
-0.150302
-0.179493
-0.209474
-0.224149
-0.210465
-0.168403
-0.128622
-0.099218
-0.043602
0.001871
0.036789
0.055280
0.108224
0.100868
0.086140
0.076980
0.033491
-0.013811
-0.062337
-0.096099
-0.126531
-0.159844
-0.230832
-0.253107
-0.202543
-0.174919
-0.126867
-0.072198
-0.035868
0.011388
0.061119
0.080025
0.093312
0.120902
0.096919
0.053483
0.008062
-0.046456
-0.080919
-0.109657
-0.129754
-0.173060
-0.193011
-0.203876
-0.201113
-0.174881
-0.138948
-0.101976
-0.052884
0.014041
0.050725
0.062712
0.081970
0.079134
0.083747
0.050619
0.007175
-0.034016
-0.070474
-0.121415
-0.163890
-0.189229
-0.199786
-0.209902
-0.198215
-0.167624
-0.137437
-0.097393
-0.048741
0.006850
0.052915
0.087391
0.109945
0.105591
0.097953
0.092281
0.044972
-0.002301
-0.030606
-0.090765
-0.145719
-0.172772
-0.160496
-0.173502
-0.169937
-0.149305
-0.100610
-0.067795
-0.013578
0.022242
0.068139
0.104706
0.128439
0.139630
0.117358
0.098502
0.069266
0.015130
-0.034200
-0.077411
-0.123491
-0.161901
-0.188635
-0.187682
-0.163455
-0.144326
-0.104781
-0.037998
0.001214
0.056151
0.101930
0.127639
0.143323
0.147226
0.131897
0.102657
0.086343
0.037726
-0.003751
-0.058279
-0.092182
-0.135883
-0.167864
-0.179882
-0.170195
-0.149150
-0.119450
-0.089616
-0.035667
-0.003845
0.052048
0.086813
0.107494
0.100521
0.088572
0.061543
0.027545
-0.011880
-0.062903
-0.106145
-0.136602
-0.167739
-0.198340
-0.206227
-0.194732
-0.165569
-0.136955
-0.099239
-0.056681
-0.002427
0.030329
0.046974
0.056873
0.060815
0.054535
0.041912
0.034438
-0.015055
-0.079180
-0.133026
-0.180921
-0.210276
-0.236839
-0.229147
-0.228710
-0.214622
-0.178849
-0.139062
-0.084751
-0.027426
0.019465
0.042578
0.084058
0.092414
0.070153
0.035270
-0.002301
-0.049373
-0.095470
-0.149912
-0.197504
-0.227095
-0.243012
-0.248804
-0.233598
-0.197594
-0.168748
-0.108838
-0.037542
-0.004129
0.013750
0.036413
0.060977
0.064120
0.049113
0.040364
0.002530
-0.051312
-0.093282
-0.132444
-0.173314
-0.201074
-0.227775
-0.239792
-0.233839
-0.211865
-0.174999
-0.119137
-0.073535
-0.035934
-0.010476
-0.004297
0.050560
0.082000
0.064706
0.033188
-0.007153
-0.048881
-0.073325
-0.121678
-0.173410
-0.203230
-0.220754
-0.237496
-0.235268
-0.228879
-0.170662
-0.096431
-0.067551
-0.035829
0.038989
0.078914
0.110911
0.121320
0.125792
0.118954
0.109955
0.078278
0.043975
0.016073
-0.010981
-0.034325
-0.026635
-0.012181
0.032730
0.079299
0.143852
0.209589
0.315264
0.397436
0.462313
0.522818
0.571956
0.590241
0.613538
0.638616
0.651191
0.637682
0.619230
0.620605
0.594776
0.599029
0.631610
0.618407
0.597246
0.549237
0.590607
0.647347
0.671419
0.663413
0.622527
0.581517
0.533161
0.475199
0.422320
0.339470
0.256487
0.148724
0.085111
0.043143
-0.011595
-0.049909
-0.071769
-0.054876
-0.059495
-0.069396
-0.030327
0.009697
0.040990
0.070502
0.097319
0.127238
0.156573
0.158428
0.137488
0.105185
0.076262
0.027076
-0.021891
-0.050935
-0.107371
-0.189001
-0.171327
-0.168486
-0.153721
-0.138503
-0.123460
-0.076634
-0.042422
-0.006981
0.045795
0.085631
0.116083
0.114439
0.090160
0.067904
0.037984
-0.015510
-0.053013
-0.095659
-0.142189
-0.175575
-0.197827
-0.205482
-0.186601
-0.170008
-0.131396
-0.087360
-0.054636
-0.000452
0.035964
0.076438
0.100782
0.097102
0.080102
0.061904
0.043314
-0.003234
-0.047398
-0.098856
-0.136514
-0.166426
-0.196507
-0.197121
-0.187163
-0.148749
-0.097076
-0.070480
-0.035183
0.004031
0.052033
0.076008
0.098994
0.118846
0.119455
0.088977
0.047797
0.018012
-0.034391
-0.093250
-0.129164
-0.156952
-0.190480
-0.177015
-0.157516
-0.139314
-0.107573
-0.047662
-0.003356
0.030433
0.070722
0.090462
0.121264
0.141703
0.137788
0.117477
0.086228
0.035573
-0.021212
-0.067068
-0.090292
-0.120546
-0.161204
-0.161444
-0.143761
-0.131849
-0.089743
-0.044364
0.010965
0.064966
0.102663
0.138962
0.173303
0.167655
0.166019
0.139128
0.086187
0.068312
0.018365
-0.020520
-0.076846
-0.109291
-0.134438
-0.126058
-0.106960
-0.080896
-0.044581
-0.001492
0.034776
0.083386
0.137802
0.175641
0.195263
0.194792
0.193462
0.159795
0.120168
0.068012
0.012248
-0.020015
-0.018777
-0.025684
-0.056353
-0.084181
-0.103471
-0.073431
-0.036732
0.015647
0.055193
0.102182
0.148693
0.175714
0.210015
0.207074
