-0.026565
0.003111
0.044691
0.079919
0.104965
0.124272
0.118530
0.101505
0.066924
0.031108
-0.018413
-0.055138
-0.078400
-0.125126
-0.156455
-0.167346
-0.161603
-0.139825
-0.106152
-0.067798
-0.025063
0.023204
0.057602
0.099162
0.119366
0.121461
0.115368
0.100211
0.082226
0.038379
-0.014688
-0.057100
-0.087249
-0.124583
-0.138961
-0.144060
-0.155057
-0.135419
-0.104912
-0.068396
-0.032591
0.003834
0.040510
0.083331
0.114805
0.124617
0.114745
0.091447
0.057254
0.014795
-0.009964
-0.051739
-0.096199
-0.140466
-0.157312
-0.161565
-0.159052
-0.140089
-0.097816
-0.059626
-0.013228
0.027052
0.064301
0.111118
0.128329
0.136115
0.129768
0.102048
0.074819
0.036961
-0.019815
-0.069476
-0.106915
-0.158736
-0.174059
-0.176076
-0.167401
-0.143749
-0.111896
-0.077689
-0.019692
0.017972
0.053339
0.088531
0.099449
0.108176
0.111550
0.097040
0.063143
0.018202
-0.027038
-0.071891
-0.116746
-0.161418
-0.181815
-0.184199
-0.174118
-0.146052
-0.131403
-0.100086
-0.038659
0.002743
0.048126
0.083121
0.097425
0.106261
0.106639
0.076634
0.047059
0.017488
-0.029432
-0.080055
-0.115070
-0.153273
-0.190378
-0.195260
-0.174195
-0.159048
-0.121822
-0.090000
-0.042960
0.011182
0.048422
0.080961
0.097619
0.108301
0.103961
0.094993
0.062409
0.006768
-0.046020
-0.078695
-0.122693
-0.159334
-0.175560
-0.212122
-0.207399
-0.177069
-0.135318
-0.102293
-0.064491
-0.026824
0.024384
0.076526
0.096329
0.103145
0.094269
0.059678
0.027267
-0.002039
-0.034507
-0.085179
-0.121322
-0.147359
-0.171452
-0.181805
-0.178525
-0.157578
-0.121856
-0.080202
-0.033245
-0.009657
0.022860
0.070351
0.099932
0.109941
0.093192
0.060871
0.025595
0.001361
-0.041803
-0.085234
-0.119130
-0.154730
-0.186265
-0.200122
-0.189455
-0.171745
-0.132132
-0.097566
-0.048018
-0.007111
0.042985
0.071114
0.094297
0.096679
0.084915
0.066939
0.031119
-0.010909
-0.064632
-0.113133
-0.133622
-0.157291
-0.183258
-0.206578
-0.204585
-0.171891
-0.136313
-0.103896
-0.062512
-0.007287
0.032831
0.068218
0.095205
0.114342
0.092796
0.070585
0.039391
-0.002325
-0.059030
-0.086064
-0.127092
-0.181743
-0.216307
-0.217901
-0.202575
-0.170305
-0.135795
-0.100576
-0.058105
-0.007255
0.040642
0.069687
0.084652
0.103482
0.100957
0.081830
0.055065
0.016101
-0.049181
-0.096685
-0.134166
-0.177105
-0.192772
-0.203208
-0.185725
-0.169812
-0.150372
-0.095463
-0.040893
0.010753
0.051913
0.087274
0.102541
0.105055
0.105950
0.103582
0.071865
0.036002
-0.011253
-0.056838
-0.096842
-0.129654
-0.148171
-0.157601
-0.150556
-0.140208
-0.109028
-0.073006
-0.021891
0.012949
0.067457
0.099321
0.127557
0.130455
0.121637
0.104209
0.073143
0.061321
0.005103
-0.053330
-0.090100
-0.131162
-0.154714
-0.162473
-0.153619
-0.153830
-0.107968
-0.050553
0.007689
0.053488
0.094976
0.136068
0.156851
0.167259
0.157415
0.135563
0.103205
0.067036
0.014531
-0.033839
-0.083095
-0.121647
-0.150606
-0.170226
-0.162713
-0.149788
-0.107712
-0.065049
-0.014819
0.021557
0.057609
0.091472
0.121817
0.125729
0.122790
0.098413
0.051007
0.012736
-0.037296
-0.075628
-0.118061
-0.164332
-0.186084
-0.196769
-0.200322
-0.186522
-0.154973
-0.110742
-0.065585
-0.006413
0.036299
0.083140
0.096950
0.096169
0.087486
0.072282
0.029203
-0.003561
-0.056644
-0.097349
-0.147054
-0.186646
-0.211357
-0.213043
-0.203556
-0.180601
-0.149355
-0.128695
-0.076449
-0.044415
-0.002257
0.037626
0.057090
0.056464
0.058591
0.028410
0.002024
-0.039087
-0.062788
-0.110593
-0.138960
-0.186162
-0.222060
-0.222884
-0.218267
-0.207148
-0.184033
-0.132684
-0.079294
-0.025064
0.025841
0.061998
0.073047
0.071133
0.066406
0.034945
0.006686
-0.016144
-0.061115
-0.104476
-0.139526
-0.174127
-0.199432
-0.206356
-0.213267
-0.194297
-0.156113
-0.118984
-0.074127
-0.032370
0.008975
0.053957
0.076240
0.064743
0.048425
0.031737
0.020047
-0.016000
-0.064126
-0.120115
-0.166828
-0.200191
-0.217306
-0.229755
-0.217048
-0.204101
-0.185541
-0.148039
-0.092466
-0.047573
-0.010250
0.035234
0.052123
0.053859
0.066740
0.053834
0.034996
0.018979
-0.023640
-0.065179
-0.085777
-0.113049
-0.128296
-0.119689
-0.112758
-0.087368
-0.041953
0.018489
0.083700
0.150339
0.216103
0.277179
0.329687
0.373254
0.407343
0.429200
0.440290
0.434109
0.419147
0.407806
0.415299
0.428152
0.448407
0.477075
0.522568
0.582781
0.635066
0.696338
0.727972
0.773791
0.815452
0.841328
0.839320
0.825778
0.800904
0.754541
0.673548
0.568087
0.458731
0.364080
0.264967
0.175351
0.090756
0.041382
0.002995
-0.012462
0.008067
0.048617
0.086693
0.149340
0.180076
0.193177
0.199849
0.208261
0.194277
0.159439
0.123827
0.081804
0.029962
-0.022361
-0.066807
-0.092188
-0.117114
-0.129311
-0.132398
-0.126466
-0.103035
-0.071470
-0.010352
0.035271
0.064411
0.098397
0.127427
0.129253
0.122982
0.098218
0.069283
0.038426
-0.026661
-0.073875
-0.104354
-0.144638
-0.168077
-0.188174
-0.188434
-0.168033
-0.148269
-0.098723
-0.043429
0.000070
0.036371
0.095514
0.134799
0.134867
0.124580
0.103977
0.058352
0.022171
-0.033672
-0.077106
-0.117985
-0.157561
-0.180487
-0.190012
-0.186079
-0.173368
-0.135320
-0.101582
-0.046218
0.002881
0.041683
0.069807
0.112531
0.120107
0.121526
0.104803
0.071020
0.041872
0.010452
-0.041316
-0.075799
-0.110227
-0.149088
-0.160343
-0.158374
-0.141012
-0.111433
-0.060385
-0.006404
0.045102
0.078512
0.106990
0.137970
0.138486
0.138820
0.124727
0.085877
0.043441
-0.003003
-0.052073
-0.086435
-0.117300
-0.139665
-0.154581
-0.153490
-0.139569
-0.093063
-0.047781
0.005842
0.061361
0.107114
0.134144
0.166552
0.181340
0.167815
0.155653
0.132389
0.083297
0.022529
-0.007957
-0.047307
-0.089047
-0.111235
-0.117151
-0.114096
-0.099069
-0.055964
-0.017175
0.024546
0.073647
0.127695
0.176359
0.199172
0.215215
0.204432
0.188781
0.154432
0.126401
0.078363
0.017014
-0.028810
-0.060107
-0.083755
-0.086972
-0.078375
-0.051159
-0.013494
0.023861
0.076659
0.126861
0.179727
0.207691
0.228596
0.233431
0.222454
0.192276
0.162464
0.125139
0.085009
0.028992
-0.014652
-0.053871
-0.064045
-0.068475
-0.062280
-0.042155
-0.011029
0.026464
0.072219
0.123682
0.162200
0.205178
0.218418
0.220071
0.202306
0.181862
0.154862
0.122004
0.072763
0.030636
-0.019612
-0.059947
-0.091182
-0.089210
-0.083920
-0.061237
-0.032635
-0.010210
0.037270
0.090789
0.142114
0.178302
0.196555
0.199669
0.194736
0.179874
0.128841
0.079302
0.040144
-0.012220
-0.052811
-0.072452
-0.093685
-0.096504
-0.096858
-0.088243
-0.061047
-0.016845
0.029667
0.060808
0.096875
0.135863
0.152158
0.144117
0.135771
0.133474
0.089739
0.054304
0.004881
-0.032752
-0.074928
-0.116284
-0.146603
-0.156655
-0.163988
-0.144704
-0.102810
-0.071241
-0.024380
0.012002
0.054356
0.093048
0.122342
0.131651
0.128670
0.096486
0.057441
0.017292
-0.020203
-0.064685
-0.102872
-0.134606
-0.153767
-0.157934
-0.170430
-0.161097
-0.126471
-0.084497
-0.056118
0.000060
0.047868
0.074258
0.097170
0.098816
0.080641
0.071528
0.035399
0.003586
-0.034012
-0.070797
-0.123812
-0.158139
-0.183425
-0.187561
-0.177197
-0.159398
-0.112502
-0.076956
-0.041536
0.001910
0.042597
0.077486
0.103072
0.102308
0.094758
0.074127
0.045982
0.014526
-0.026878
-0.067788
-0.112130
-0.162505
-0.211366
-0.219375
-0.192457
-0.160190
-0.140831
-0.093051
-0.040611
-0.000793
0.043439
0.073341
0.094792
0.103404
0.100629
0.081861
0.029951
-0.012471
-0.050564
-0.119094
-0.160148
-0.143243
-0.159239
-0.175212
-0.193953
-0.186140
-0.152607
-0.113780
-0.050915
-0.001533
0.039450
0.086240
0.111505
0.114314
0.108541
0.094403
0.069299
0.029022
-0.021600
-0.062172
-0.096385
-0.136937
-0.150135
-0.162439
-0.158705
-0.145416
-0.121192
-0.084174
-0.034035
0.017749
0.070420
0.085759
0.113518
0.115035
0.115266
0.100358
0.064823
0.037435
-0.003347
-0.053785
-0.108060
-0.155765
-0.187841
-0.188890
-0.184215
-0.171502
-0.148636
-0.101841
-0.049492
0.009387
0.063768
0.127921
0.136145
0.122241
0.100583
0.077795
0.043854
0.039510
0.005402
-0.056987
-0.100502
-0.151300
-0.195461
-0.183676
-0.173040
-0.130452
-0.101475
-0.093470
-0.036651
-0.003105
0.038707
0.071843
0.101821
0.113970
0.104137
0.068174
0.041786
0.006772
-0.046605
-0.107551
-0.152807
-0.160661
-0.176606
-0.182411
-0.192798
-0.169698
-0.144983
-0.099442
-0.041008
0.001185
0.046460
0.076392
0.095931
0.099982
0.091398
0.077669
0.038512
0.010152
-0.055834
-0.110688
-0.137890
-0.171592
-0.205867
-0.223727
-0.215924
-0.208483
-0.139942
-0.084286
-0.028753
0.012645
0.062126
0.104576
0.129135
0.131640
0.123402
0.102369
0.056779
0.004306
-0.053091
-0.078866
-0.120916
-0.151324
-0.169890
-0.179874
-0.172669
-0.157242
-0.134593
-0.092115
-0.049089
0.010758
0.043074
0.068293
0.080695
0.085711
0.090132
0.054788
0.020546
0.001755
-0.052386
-0.089040
-0.139125
-0.187452
-0.214566
-0.196352
-0.192511
-0.185787
-0.154665
-0.123643
-0.077619
-0.008788
0.048521
0.080600
0.102071
0.103676
0.094577
0.076924
0.034930
0.003574
-0.050639
-0.093208
-0.135114
-0.165372
-0.186922
-0.203665
-0.199977
-0.180652
-0.146398
-0.106076
-0.065015
-0.018652
0.038934
0.079045
0.073331
0.077883
0.078036
0.050567
0.030157
0.010549
-0.035674
-0.090575
-0.139746
-0.176416
-0.189604
-0.198053
-0.199043
-0.174368
-0.150808
-0.104810
-0.061752
-0.028220
0.012818
0.049019
0.076961
0.073242
0.063777
0.032938
0.010872
-0.012060
-0.085975
-0.114641
-0.143389
-0.163196
-0.172719
-0.177281
-0.189013
-0.183577
-0.142755
-0.091783
-0.049052
-0.013148
0.023155
0.069336
0.103951
0.098288
0.100213
0.085518
0.044865
-0.000999
-0.058839
-0.109228
-0.155627
-0.188191
-0.200410
-0.205217
-0.200586
-0.176570
-0.149164
-0.110703
-0.066286
-0.034113
-0.006788
0.036685
0.069102
0.096423
0.087369
0.063047
0.020335
-0.013357
-0.033977
-0.086411
-0.132648
-0.153684
-0.188096
-0.199976
-0.172340
-0.160014
-0.131202
-0.098370
-0.055715
-0.017661
0.014587
0.054433
0.071162
0.086979
0.090992
0.065979
0.036850
-0.015720
-0.071477
-0.109811
-0.141680
-0.179292
-0.176759
-0.175427
-0.169387
-0.149923
-0.116219
-0.091391
-0.049618
-0.015923
0.034956
0.090589
0.111769
0.107032
0.097999
0.076707
0.043965
-0.005084
-0.037450
-0.078928
-0.117570
-0.151254
-0.169690
-0.156696
-0.131781
-0.128470
-0.118425
-0.089331
-0.054012
-0.003794
0.037559
0.089325
0.129401
0.141692
0.136507
0.104999
0.073530
0.038250
0.001458
-0.044342
-0.084040
-0.117431
-0.131452
-0.133523
-0.141668
-0.089677
-0.047586
-0.034008
-0.014034
0.048901
0.096899
0.127942
0.155671
0.168755
0.141897
0.106768
0.078626
0.047987
0.010687
-0.073050
-0.125963
-0.138990
-0.147286
-0.161624
-0.167370
-0.136297
-0.107241
-0.070489
-0.034933
0.005220
0.043902
0.062376
0.083856
0.091238
0.083660
0.067233
0.042236
0.014347
-0.024058
-0.067563
-0.102115
-0.148463
-0.176029
-0.190251
-0.176191
-0.176592
-0.154732
-0.119298
-0.070123
-0.031043
0.000680
0.033402
0.071746
0.078153
0.082782
0.067744
0.032721
0.004963
-0.035429
-0.096894
-0.171344
-0.193029
-0.215846
-0.220744
-0.217635
-0.215006
-0.184156
-0.148919
-0.066376
-0.023782
0.024769
0.027258
0.047716
0.048869
0.053747
0.025988
0.007762
-0.011938
-0.066453
-0.105805
-0.133898
-0.173168
-0.197050
-0.212187
-0.195279
-0.176900
-0.160459
-0.126453
-0.068167
-0.019606
0.014965
0.049615
0.083361
0.100864
0.089368
0.061107
0.029669
-0.004002
-0.064335
-0.114241
-0.168967
-0.205775
-0.221383
-0.225937
-0.218818
-0.214087
-0.175170
-0.114296
-0.049570
0.006917
0.049941
0.068630
0.088569
0.084472
0.069406
0.041237
0.010441
-0.022108
-0.080064
-0.134759
-0.179746
-0.209546
-0.221774
-0.215356
-0.206923
-0.193568
-0.183665
-0.141283
-0.077616
-0.019726
0.039209
0.081989
0.114396
0.124373
0.126639
0.131096
0.107398
0.081662
0.048258
0.009668
-0.019665
-0.028715
-0.047417
-0.036007
0.007686
0.043823
0.093981
0.182973
0.261899
0.334500
0.396040
0.471706
0.567822
0.598964
0.627526
0.624142
0.617110
0.639420
0.631967
0.610970
0.593589
0.603144
0.608584
0.611121
0.618914
0.620742
0.610762
0.643007
0.679059
0.699728
0.704394
0.688179
0.634464
0.587034
0.520729
0.447351
0.377369
0.293719
0.197851
0.113504
0.045086
-0.007136
-0.049252
-0.076791
-0.073998
-0.052504
-0.006059
0.043954
0.090644
0.119716
0.133750
0.163544
0.187437
0.197152
0.193154
0.170766
0.131760
0.084203
0.024012
-0.024612
-0.075058
-0.120333
-0.146986
-0.154853
-0.139457
-0.123423
-0.092821
-0.050179
-0.008419
0.031633
0.091454
0.126739
0.130462
0.130164
0.125071
0.111973
0.097064
0.051525
-0.005548
-0.056247
-0.104917
-0.152959
-0.176908
-0.184856
-0.176935
-0.154911
-0.113609
-0.069483
-0.007551
0.037117
0.071464
0.106793
0.136349
0.131787
0.114334
0.086567
0.087489
0.072966
0.008726
-0.057465
-0.103684
-0.131989
-0.164230
-0.182813
-0.171503
-0.141581
-0.103090
-0.080602
-0.037892
0.025659
0.070810
0.114012
0.133818
0.145526
0.142928
0.119485
0.089268
0.045094
0.003927
-0.039317
-0.087592
-0.119487
-0.145270
-0.147620
-0.141141
-0.116878
-0.091891
-0.050638
0.001770
0.034073
0.084846
0.104751
0.133989
0.151354
0.158564
0.131885
0.110309
0.075134
0.016085
-0.028335
-0.072932
-0.101702
-0.090302
-0.097804
-0.110887
-0.091320
-0.046412
-0.003343
0.039793
0.072434
0.136325
0.172422
0.201059
0.210672
0.198782
0.181617
0.147731
0.114192
0.079151
0.030485
-0.008205
-0.045257
-0.060449
-0.073464
-0.072394
-0.049543
-0.035613
0.033507
0.069833
0.116188
0.163005
0.191540
0.217785
0.233168
0.233440
0.219238
0.175236
0.124205
0.098686
0.056122
0.009841
-0.030952
-0.045291
-0.061501
-0.060025
-0.034558
-0.002103
0.028249
0.087167
0.141749
0.182975
0.201793
0.223790
0.232839
0.225295
0.201852
0.183168
0.158700
0.116289
0.071502
0.018811
-0.024748
-0.047850
-0.056283
-0.062574
-0.035460
-0.009025
0.035516
0.077223
0.111645
0.171831
0.215371
0.222947
0.222115
0.218535
0.209989
0.194712
0.142823
0.098171
0.062847
0.012106
-0.036663
-0.057258
-0.047621
-0.071226
-0.040928
-0.009412
0.023515
0.071295
0.125482
0.164748
0.198453
0.223375
0.236879
0.230975
0.216367
0.169429
0.124768
0.084163
0.024372
-0.022321
-0.063956
-0.092440
-0.100802
-0.089751
-0.080130
-0.054019
-0.002737
0.036349
0.079072
0.121299
0.147597
0.166953
0.170985
0.162515
0.127631
0.089196
0.067635
0.009156
-0.046756
-0.087675
-0.115102
-0.128100
-0.138413
-0.144578
-0.133635
-0.106422
-0.049486
0.004648
0.044795
0.093321
0.117153
0.150442
0.161781
0.149704
0.121327
0.083860
0.036863
-0.006161
-0.048043
-0.089417
-0.122928
-0.149198
-0.174730
-0.166575
-0.151558
-0.127961
-0.067815
-0.022512
0.022983
0.068035
0.108399
0.114120
0.130293
0.107277
0.083766
0.049736
0.005549
-0.031493
-0.062816
-0.084629
-0.121287
-0.159885
-0.168291
-0.172774
-0.157348
-0.115861
-0.063004
-0.013449
0.019189
0.050236
0.076821
0.103740
0.113017
0.112929
0.090916
0.070154
0.018946
-0.022619
-0.058485
-0.091221
-0.115611
-0.137084
-0.160653
-0.162486
-0.131171
-0.104749
-0.062922
-0.007094
0.047381
0.084890
0.108130
0.123756
0.135566
0.118895
0.102896
0.070122
0.036971
-0.011291
-0.061608
-0.114385
-0.141936
-0.171998
-0.186729
-0.171073
-0.151210
-0.119621
-0.078345
-0.036691
0.012000
0.102075
0.138105
0.159642
0.153890
0.144895
0.139525
0.099471
0.039045
-0.005250
-0.058022
-0.098447
-0.148953
-0.174438
-0.177981
-0.148496
-0.127586
-0.098209
-0.071901
-0.015032
0.054984
0.096876
0.109017
0.136860
0.159012
0.144871
0.119924
0.096003
0.052855
-0.002479
-0.050095
-0.106334
-0.133539
-0.165077
-0.177689
-0.170009
-0.132802
-0.093000
-0.058065
-0.015248
0.027376
0.072219
0.110080
0.147621
0.150246
0.140372
0.129970
0.094443
0.047845
0.004768
-0.047273
-0.099122
-0.137579
-0.157634
-0.168996
-0.154109
-0.125545
-0.104884
-0.067419
-0.010353
0.029604
0.076606
0.114502
0.137608
0.139669
0.122224
0.096275
0.067753
0.017834
-0.026475
-0.075205
-0.128418
-0.170630
-0.179030
-0.184086
-0.182201
-0.158144
-0.133681
-0.072619
-0.013531
0.028975
0.081519
0.110430
0.112657
0.124053
0.126857
0.110570
0.086542
0.047810
-0.001991
-0.056823
-0.098820
-0.138606
-0.166133
-0.176066
-0.163151
-0.134633
-0.094075
-0.053222
-0.014985
0.032404
0.080671
0.110620
0.137639
0.144863
0.147333
0.130070
0.086911
0.012911
-0.031033
-0.062892
-0.108883
-0.158403
-0.172715
-0.175218
-0.174591
-0.156140
-0.132256
-0.080346
-0.041684
0.012761
0.056234
0.098323
0.125523
0.138175
0.128752
0.111191
0.071981
0.028549
-0.018183
-0.059439
-0.102205
-0.134169
-0.156506
-0.162288
-0.165251
-0.148285
-0.109852
-0.072074
-0.032485
0.003641
0.050403
0.091261
0.124484
0.129051
0.107874
0.073976
0.044831
-0.005673
-0.060486
-0.095089
-0.131025
-0.136399
-0.169183
-0.171080
-0.179420
-0.146424
-0.108150
-0.072124
-0.032734
0.004389
0.047664
0.088602
0.116199
0.132139
0.130044
0.104852
0.077429
0.036258
-0.015221
-0.066192
-0.120413
-0.149497
-0.164668
-0.171327
-0.169529
-0.153666
-0.116035
-0.070212
-0.026386
0.015208
0.069731
0.116062
0.135203
0.121619
0.113405
0.111211
0.078322
0.028050
-0.019041
-0.062031
-0.102279
-0.136007
-0.161226
-0.176334
-0.163372
-0.134481
-0.106433
-0.052870
-0.002619
0.028089
0.057400
0.090719
0.104782
0.109625
0.097411
0.076210
0.051837
0.012015
-0.030546
-0.069333
-0.112155
-0.144978
-0.158214
-0.174283
-0.186658
-0.173780
-0.126273
-0.073046
-0.017162
0.028748
0.080936
0.098967
0.119965
0.118205
0.110513
0.098545
0.067156
0.032078
-0.013729
-0.066292
-0.104261
-0.137498
-0.154012
-0.168684
-0.160308
-0.134704
-0.106067
-0.060676
-0.021688
0.023746
0.063006
0.093610
0.122260
0.128833
0.114868
0.089472
0.053540
0.012082
-0.024878
-0.071323
-0.113100
-0.130560
-0.136053
-0.143008
-0.152650
-0.150459
-0.114753
-0.060533
-0.028242
0.021665
0.084076
0.126063
0.149815
0.140939
0.109269
0.104723
0.094610
0.051660
0.004423
-0.040840
-0.080727
-0.111475
-0.123421
-0.113956
-0.109778
-0.098860
-0.072838
-0.044778
-0.005384
0.059620
0.106211
0.131618
0.143840
0.152177
0.133645
0.123609
0.105304
0.059056
0.011563
-0.032900
-0.095782
-0.110712
-0.119679
-0.122848
-0.114944
-0.092466
-0.053113
-0.008406
0.042878
0.079844
0.125101
0.159546
0.191347
0.202022
0.196349
0.165225
0.141677
0.113117
0.055254
0.008741
-0.038039
-0.078500
-0.109901
-0.121389
-0.126021
-0.105412
-0.078217
-0.044784
-0.005903
0.032768
0.075383
0.135489
0.171749
0.174079
0.173775
0.140277
0.099503
0.063163
0.023294
-0.026480
-0.078073
-0.116834
-0.146121
-0.170740
-0.171253
-0.149102
-0.121546
-0.073021
-0.031734
0.019138
0.053312
0.082250
0.121208
0.138266
0.154890
0.127885
0.087117
0.029089
-0.020931
-0.069780
-0.120516
-0.159084
-0.180339
-0.201164
-0.177637
-0.154796
-0.141998
-0.089077
-0.038631
0.012251
0.056259
0.075185
0.096593
0.112879
0.108346
0.076522
0.047389
-0.000465
-0.045362
-0.084779
-0.116893
-0.150791
-0.180277
-0.191401
-0.192070
-0.167145
-0.144144
-0.109471
-0.051460
0.007449
0.046591
0.076837
0.098904
0.119532
0.113267
0.077340
0.056383
0.015286
-0.024392
-0.078468
-0.141811
-0.169242
-0.186712
-0.187120
-0.197315
-0.170579
-0.132431
-0.078019
-0.042899
-0.000874
0.056467
0.072166
0.114361
0.131574
0.131143
0.113207
0.089208
0.027904
-0.025208
-0.074354
-0.130696
-0.167826
-0.190491
-0.195146
-0.175875
-0.167493
-0.144208
-0.096952
-0.038895
-0.000233
0.059375
0.099414
0.120894
0.124094
0.127475
0.107341
0.086461
0.048810
-0.008522
-0.038853
-0.050958
-0.074340
-0.083637
-0.085459
-0.068778
-0.051531
-0.003315
0.072984
0.137011
0.206987
0.295039
0.340175
0.382122
0.419106
0.464139
0.481921
0.485637
0.457951
0.457925
0.437333
0.429454
0.436145
0.447896
0.470012
0.516616
0.577729
0.633864
0.691968
0.754375
0.780535
0.818245
0.853072
0.853978
0.844964
0.800289
0.740374
0.648002
0.533461
0.421406
0.345413
0.305334
0.210215
0.105398
0.036772
0.015048
0.007010
0.041082
0.087056
0.132755
0.165202
0.194781
0.223276
0.243568
0.240291
0.232309
0.191942
0.133653
0.088413
0.055292
0.003617
-0.051189
-0.085591
-0.103507
-0.101896
-0.104462
-0.086302
-0.060637
-0.013919
0.039618
0.077981
0.134681
0.166957
0.192935
0.197104
0.186782
0.156566
0.119591
0.069136
0.025709
-0.025753
-0.076508
-0.119589
-0.146448
-0.161548
-0.138100
-0.105795
-0.071449
-0.037318
-0.000432
0.034548
0.083888
0.121731
0.158298
0.155915
0.134580
0.109322
0.095589
0.063103
0.023805
-0.029625
-0.089423
-0.119804
-0.142001
-0.152318
-0.140234
-0.117533
-0.092702
-0.050348
-0.006103
0.033779
0.103973
0.141369
0.147272
0.152991
0.146408
0.130922
0.108228
0.067062
0.013354
-0.026672
-0.070170
-0.095216
-0.107167
-0.119064
-0.112072
-0.097251
-0.069897
-0.025013
0.010989
0.056336
0.094901
0.136073
0.159206
0.165891
0.160593
0.136326
0.118454
0.071377
0.020645
-0.017004
-0.063169
-0.098522
-0.116632
-0.125424
-0.111844
-0.106811
-0.072664
-0.029711
0.028711
0.079418
0.125024
0.166046
0.190986
0.218805
0.211567
0.178776
0.169738
0.137559
0.079260
0.039945
-0.010689
-0.029145
-0.041359
-0.070207
-0.067453
-0.038496
-0.017830
0.025093
0.083788
0.131303
0.182905
0.218643
0.231106
0.238185
0.227984
0.209051
0.189345
0.130461
0.093428
0.063590
0.031864
-0.007462
-0.043704
-0.051439
-0.015930
0.006512
0.035557
0.075221
0.109621
0.145165
0.189215
0.223424
0.238946
0.261563
0.264417
0.235806
0.196942
0.155805
0.113121
0.072417
0.026990
-0.002168
-0.018514
-0.025229
-0.024791
-0.020576
0.007627
0.049670
0.104659
0.154964
0.188483
0.221022
0.245478
0.251814
0.248160
0.214017
0.191582
0.161689
0.120934
0.066207
0.017339
-0.023868
-0.050142
-0.067966
-0.071863
-0.049134
-0.039794
0.043563
0.100981
0.125909
0.166661
0.205863
0.222651
0.226478
0.219322
0.193987
0.160801
0.121380
0.073317
0.030051
-0.008033
-0.055427
-0.079162
-0.088304
-0.088285
-0.065034
-0.044053
-0.006532
0.041427
0.092861
0.146822
0.186026
0.213391
0.211809
0.199458
0.174293
0.141654
0.098524
0.044824
0.001955
-0.037607
-0.079758
-0.111490
-0.135377
-0.125172
-0.117217
-0.078235
-0.023355
0.028520
0.049432
0.059782
0.095397
0.129916
0.150457
0.143043
0.114497
0.078532
0.037846
-0.003195
-0.041211
-0.078525
-0.117242
-0.133643
-0.138110
-0.139639
-0.124400
-0.103730
-0.071795
-0.046662
-0.000749
0.082262
0.114055
0.144225
0.138591
0.143545
0.131373
0.083211
0.043763
-0.003832
-0.055524
-0.107921
-0.150000
-0.177797
-0.185746
-0.178884
-0.161907
-0.131868
-0.077357
-0.046361
0.014794
0.075959
0.099294
0.118476
0.120059
0.122940
0.089061
0.058162
0.009555
-0.031604
-0.078379
-0.120041
-0.138832
-0.144657
-0.161584
-0.149502
-0.130396
-0.112542
-0.076942
-0.031053
0.022935
0.067534
0.105440
0.121476
0.120017
0.114857
0.109917
0.078487
0.039739
-0.005602
-0.047615
-0.097484
-0.155353
-0.163462
-0.171536
-0.161828
-0.133527
-0.118932
-0.071838
-0.018396
0.016055
0.053348
0.089163
0.124818
0.111111
0.132147
0.111523
0.083219
0.035217
-0.010644
-0.051175
-0.075944
-0.123616
-0.148548
-0.164254
-0.153992
-0.119518
-0.095906
-0.048032
-0.014639
0.018498
0.062856
0.108901
0.154143
0.152324
0.141267
0.114983
0.093655
0.044319
-0.012939
-0.063621
-0.107829
-0.142080
-0.153297
-0.166312
-0.163844
-0.141096
-0.111005
-0.050804
0.012735
0.033812
0.060239
0.109282
0.127016
0.136244
0.136031
0.109674
0.086381
0.038912
0.002305
-0.041538
-0.114439
-0.156396
-0.184568
-0.185521
-0.174742
-0.153311
-0.118936
-0.071612
-0.022320
0.014698
0.046008
0.079363
0.102700
0.122857
0.112988
0.100020
0.100277
0.051070
-0.022317
-0.074029
-0.108181
-0.158161
-0.178004
-0.191258
-0.176458
-0.147657
-0.122817
-0.086569
-0.034659
0.012866
0.058734
0.083601
0.109287
0.124139
0.106337
0.071234
0.042734
0.014699
-0.013440
-0.076051
-0.127930
-0.162507
-0.181933
-0.186791
-0.181890
-0.157069
-0.123392
-0.070106
-0.020991
0.020261
0.050727
0.091023
0.108786
0.113525
0.097650
0.083878
0.059495
0.004788
-0.047452
-0.094246
-0.141500
-0.183293
-0.219891
-0.217034
-0.198988
-0.162999
-0.128175
-0.073262
-0.022678
0.012801
0.056199
0.089175
0.109968
0.118255
0.104323
0.068341
0.049297
0.000446
-0.037757
-0.082411
-0.126457
-0.158667
-0.172176
-0.185092
-0.185709
-0.153293
-0.115299
-0.083357
-0.038070
0.000065
0.048544
0.077398
0.097692
0.111266
0.098604
0.061586
0.045854
0.005669
-0.043077
-0.086519
-0.134451
-0.172998
-0.195961
-0.191942
-0.180750
-0.161364
-0.127867
-0.096875
-0.052805
-0.022911
0.023101
0.041824
0.087802
0.095830
0.084549
0.061467
0.044679
0.016798
-0.053759
-0.104723
-0.124063
-0.156164
-0.182134
-0.193938
-0.190173
-0.174763
-0.147277
-0.097921
-0.030901
0.015546
0.044827
0.077890
0.104320
0.106473
0.107957
0.083089
0.040394
-0.006094
-0.053318
-0.085911
-0.135484
-0.179465
-0.201608
-0.203809
-0.185988
-0.164076
-0.143337
-0.095111
-0.067166
-0.012668
0.029175
0.073360
0.095181
0.099713
0.086534
0.049099
0.019930
-0.014174
-0.062138
-0.105531
-0.133626
-0.172517
-0.195755
-0.210535
-0.201294
-0.183707
-0.147584
-0.085177
-0.021983
0.014884
0.039899
0.066565
0.115118
0.125106
0.109776
0.082307
0.066309
0.026767
-0.024405
-0.081915
-0.114207
-0.127536
-0.154395
-0.166655
-0.150104
-0.120848
-0.102870
-0.060694
-0.012370
0.028865
0.075059
0.102954
0.118758
0.110788
0.093302
0.067386
0.043885
0.001572
-0.021603
-0.046607
-0.089054
-0.139979
-0.157214
-0.161694
-0.162779
-0.137524
-0.113917
-0.055176
-0.001222
0.045654
0.093141
0.122421
0.139631
0.153261
0.144007
0.124358
0.088733
0.044534
0.030820
-0.036130
-0.087113
-0.152196
-0.165404
-0.159433
-0.166511
-0.129728
-0.085024
-0.010334
0.017267
0.041588
0.083392
0.099496
0.116087
0.130216
0.123144
0.093217
0.059363
0.015982
-0.043916
-0.081102
-0.124577
-0.157569
-0.184412
-0.190510
-0.189522
-0.175424
-0.156525
-0.110158
-0.059204
-0.010672
0.017401
0.076591
0.099164
0.097174
0.084290
0.056555
0.023235
-0.026356
-0.060297
-0.106501
-0.142545
-0.183326
-0.212006
-0.226881
-0.226106
-0.202027
-0.179485
-0.143203
-0.094378
-0.045703
-0.000449
0.032193
0.063422
0.072864
0.061388
0.023093
0.004320
-0.030341
-0.062279
-0.111399
-0.164016
-0.201312
-0.204659
-0.202095
-0.207037
-0.197333
-0.177163
-0.137534
-0.079502
-0.037021
-0.001084
0.032775
0.076073
0.092531
0.073367
0.040326
0.027049
-0.008095
-0.043471
-0.120210
-0.158646
-0.187023
-0.198008
-0.211664
-0.227843
-0.232094
-0.191532
-0.132408
-0.088377
-0.033760
0.013124
0.040273
0.058164
0.072756
0.074619
0.053467
0.021748
-0.014594
-0.069594
-0.123692
-0.176660
-0.206558
-0.227049
-0.222900
-0.197083
-0.188817
-0.180239
-0.138277
-0.094035
-0.059416
-0.027329
0.000034
0.041861
0.072001
0.066818
0.042567
0.021019
0.000149
-0.032179
-0.073983
-0.101633
-0.109436
-0.131086
-0.120300
-0.099140
-0.073339
-0.035882
0.023508
0.097211
0.160725
0.211127
0.294227
0.333295
0.372796
0.399636
0.415486
0.422859
0.411111
0.382983
0.376155
0.340343
0.356549
0.384792
0.415317
0.460478
0.504198
0.572145
0.650544
0.722161
0.765092
0.794806
0.832318
0.842007
0.830394
0.807565
0.763588
0.704329
0.609468
0.498400
0.389850
0.307896
0.218002
0.138321
0.070689
0.021313
0.005662
0.008122
0.052587
0.095673
0.125801
0.144560
0.167335
0.191640
0.185253
0.169605
0.152769
0.130934
0.086142
0.035134
-0.016083
-0.076500
-0.110669
-0.123783
-0.132628
-0.124910
-0.100495
-0.085434
-0.048273
-0.002399
0.047860
0.087815
0.123278
0.135927
0.141662
0.130073
0.123241
0.079966
0.029956
-0.014003
-0.066980
-0.108205
-0.155007
-0.176569
-0.187060
-0.183267
-0.159877
-0.121759
-0.062914
-0.056992
-0.033791
0.046717
0.100558
0.134091
0.164210
0.177407
0.138452
0.106028
0.048623
-0.009921
-0.065730
-0.109436
-0.151122
-0.180149
-0.190066
-0.175491
-0.154926
-0.101355
-0.055110
-0.022306
0.008799
0.049176
0.090756
0.120605
0.141058
0.125972
0.104100
0.074319
0.036878
0.002183
-0.048044
-0.086596
-0.137376
-0.159658
-0.164985
-0.159568
-0.130439
-0.097219
-0.055003
-0.009934
0.041129
0.101910
0.131395
0.156501
0.147083
0.142111
0.124339
0.092823
0.040560
0.009299
-0.035723
-0.070976
-0.110817
-0.133526
-0.138149
-0.114068
-0.100255
-0.091083
-0.025467
0.035200
0.068623
0.112829
0.146773
0.171416
0.170728
0.163558
0.150140
0.121039
0.074821
0.029316
-0.001572
-0.043353
-0.088081
-0.116920
-0.118530
-0.109458
-0.078224
-0.015145
0.057442
0.113668
0.155385
0.179659
0.197183
0.209970
0.213228
0.210654
0.196138
0.171324
0.115615
0.072322
0.020326
-0.023947
-0.053408
-0.073147
-0.078952
-0.063183
-0.022704
0.002756
0.035386
0.087969
0.166718
0.196793
0.208183
0.227170
0.233759
0.221869
0.186205
0.179990
0.157893
0.107194
0.043294
-0.008784
-0.042372
-0.054202
-0.050835
-0.031993
-0.033706
-0.024743
0.033045
0.088142
0.138030
0.187330
0.208330
0.229211
0.242855
0.241822
0.192717
0.163715
0.146390
0.106547
0.058165
0.010628
-0.027748
-0.058095
-0.076406
-0.070964
-0.055536
-0.025358
0.009779
0.055646
0.108176
0.151462
0.197998
0.221660
0.218841
0.202078
0.199038
0.155062
0.100144
0.064856
0.007110
-0.049196
-0.064672
-0.084654
-0.100430
-0.095500
-0.075166
-0.046156
-0.001669
0.046630
0.090792
0.129960
0.160478
0.171876
0.179425
0.171115
0.153427
0.123186
0.066778
0.029835
-0.015770
-0.070071
-0.114487
-0.132804
-0.129076
-0.118698
-0.107068
-0.091001
-0.040998
0.003830
0.028884
0.070099
0.113141
0.127260
0.127450
0.122832
0.098390
0.078705
0.053627
-0.015826
-0.073140
-0.109726
-0.097986
-0.127177
-0.157574
-0.156053
-0.138120
-0.108203
-0.074219
-0.029840
0.008976
0.047269
0.073852
0.093265
0.100031
0.103242
0.081119
0.063482
0.013166
-0.045228
-0.110027
-0.148248
-0.176790
-0.176579
-0.168962
-0.179800
-0.180496
-0.151295
-0.099716
-0.064118
-0.010467
0.045134
0.085884
0.102944
0.096076
0.107792
0.103689
0.054149
0.015283
-0.043686
-0.085157
-0.121222
-0.154704
-0.171162
-0.176819
-0.185391
-0.169710
-0.146777
-0.108880
-0.065266
-0.019169
0.032458
0.069561
0.116132
0.123182
0.140485
0.117102
0.081766
0.023616
-0.015642
-0.057587
-0.101461
-0.151095
-0.166900
-0.173459
-0.174649
-0.155589
-0.123702
-0.086148
-0.041264
-0.012769
0.025086
0.054941
0.084279
0.112925
0.122516
0.112877
0.090259
0.026901
-0.012960
-0.069024
-0.112848
-0.141032
-0.175258
-0.173197
-0.171959
-0.166748
-0.143609
-0.076811
-0.023940
-0.001616
0.026637
0.067707
0.097414
0.110705
0.105550
0.098371
0.064527
0.009806
-0.037770
-0.072392
-0.113273
-0.141313
-0.176134
-0.179615
-0.180538
-0.163162
-0.158176
-0.104610
-0.016166
0.042426
0.089014
0.113082
0.123717
0.133407
0.139783
0.118649
0.077829
0.033394
-0.012312
-0.065598
-0.113729
-0.154429
-0.162552
-0.174455
-0.177408
-0.160451
-0.130280
-0.091936
-0.048112
0.013770
0.055639
0.089352
0.105006
0.118655
0.116285
0.103497
0.073298
0.025954
-0.023647
-0.070584
-0.122132
-0.153751
-0.178631
-0.184424
-0.179117
-0.162668
-0.146504
-0.104300
-0.059770
-0.014907
0.023386
0.071151
0.107516
0.107906
0.093743
0.074242
0.046601
0.007904
-0.029840
-0.089709
-0.137554
-0.176961
-0.188541
-0.188993
-0.188296
-0.180011
-0.159332
-0.104380
-0.060578
-0.031557
-0.000502
0.041017
0.062556
0.091345
0.103761
0.107184
0.070086
0.018487
-0.035383
-0.076234
-0.120715
-0.160369
-0.199286
-0.198655
-0.184893
-0.177186
-0.149598
-0.101843
-0.053506
-0.002058
0.027496
0.061965
0.097508
0.114575
0.097576
0.070650
0.062551
0.009198
-0.050524
-0.079893
-0.116983
-0.158222
-0.183710
-0.203991
-0.202588
-0.158031
-0.115522
-0.095018
-0.069126
-0.030508
0.013980
0.048555
0.082571
0.092084
0.082934
0.091740
0.061235
-0.000486
-0.048722
-0.086945
-0.124577
-0.157958
-0.189848
-0.210931
-0.205345
-0.186236
-0.157132
-0.113187
-0.076994
-0.029392
0.012302
0.053777
0.069541
0.104370
0.118466
0.096843
0.055042
0.001799
-0.037042
-0.084526
-0.119229
-0.174922
-0.212852
-0.229725
-0.221149
-0.199750
-0.165431
-0.131131
-0.096856
-0.050101
0.019891
0.114712
0.128572
0.115351
0.100629
0.076583
0.043176
-0.003204
-0.044353
-0.087680
-0.128230
-0.163117
-0.195096
-0.192209
-0.181918
-0.145471
-0.114685
-0.074313
-0.036124
0.014886
0.060090
0.088871
0.112288
0.141682
0.134296
0.112450
0.073583
0.022835
-0.027049
-0.076147
-0.117544
-0.158729
-0.178412
-0.190377
-0.178391
-0.158411
-0.130388
-0.079421
-0.017073
0.025595
0.070942
0.102106
0.115441
0.138941
0.143490
0.119312
0.094440
0.051820
0.005360
-0.046595
-0.089139
-0.132397
-0.146087
-0.150848
-0.141792
-0.128833
-0.103680
-0.069875
-0.017787
0.054154
0.097162
0.126091
0.149314
0.149195
0.136811
0.120120
0.092802
0.035311
-0.020428
-0.070739
-0.118093
-0.162814
-0.175035
-0.162398
-0.173665
-0.153161
-0.132098
-0.095951
-0.042600
0.002818
0.042396
0.070059
0.105980
0.112821
0.102248
0.074488
0.034554
0.005569
-0.044464
-0.112209
-0.153332
-0.194162
-0.219978
-0.226494
-0.219493
-0.200848
-0.162296
-0.111935
-0.064966
-0.026081
0.013496
0.064046
0.109839
0.101715
0.062700
0.045898
0.003888
-0.030350
-0.070856
-0.135668
-0.180286
-0.200367
-0.220794
-0.229313
-0.226695
-0.205125
-0.180072
-0.142387
-0.099146
-0.046902
-0.014118
0.025481
0.071032
0.073842
0.047412
0.043423
0.031957
-0.013577
-0.072416
-0.114773
-0.163416
-0.203693
-0.221579
-0.238786
-0.233255
-0.209449
-0.165792
-0.122735
-0.078791
-0.043486
-0.014899
0.017099
0.054015
0.068425
0.058992
0.036664
0.006120
-0.037578
-0.072153
-0.129686
-0.178381
-0.219074
-0.218004
-0.221292
-0.231120
-0.214775
-0.186921
-0.135443
-0.088808
-0.045333
-0.007803
0.014811
0.047827
0.048171
0.031965
0.020935
0.003849
-0.046981
-0.093429
-0.127886
-0.158414
-0.178525
-0.190966
-0.213827
-0.211818
-0.183540
-0.149502
-0.090302
-0.023187
0.038971
0.095907
0.138969
0.183265
0.215331
0.205405
0.188196
0.170672
0.131191
0.110444
0.092536
0.066812
0.061231
0.079207
0.106983
0.152188
0.196716
0.248715
0.332273
0.419400
0.484747
0.544442
0.612196
0.692422
0.745243
0.757534
0.761393
0.756636
0.737636
0.709662
0.646899
0.594596
0.530401
0.495646
0.486901
0.474685
0.457580
0.428241
0.390253
0.406794
0.385122
0.376392
0.372557
0.340153
0.298497
0.249653
0.196269
0.131645
0.081781
0.039125
0.007093
-0.041564
-0.082308
-0.100839
-0.116933
-0.118530
-0.127741
-0.092442
-0.054714
0.004261
0.070923
0.107581
0.119330
0.140979
0.156332
0.153373
0.113936
0.084715
0.029725
-0.025868
-0.066569
-0.098126
-0.134919
-0.149649
-0.166531
-0.166392
-0.159349
-0.137115
-0.086568
-0.033380
0.019420
0.061922
0.089419
0.109870
0.111947
0.108744
0.096664
0.065571
0.007801
-0.035199
-0.060495
-0.106186
-0.143633
-0.167642
-0.187796
-0.192083
-0.166715
-0.130790
-0.095739
-0.053945
-0.005419
0.061855
0.123849
0.121997
0.095701
0.089737
0.071144
0.043629
0.003059
-0.018694
-0.063918
-0.128402
-0.163692
-0.145649
-0.138203
-0.159178
-0.111736
-0.089492
-0.064964
-0.032415
0.021988
0.061799
0.096221
0.116901
0.127922
0.126774
0.099503
0.062374
0.027759
-0.007942
-0.046166
-0.080281
-0.122517
-0.151628
-0.156046
-0.149530
-0.124535
-0.099052
-0.049610
-0.001914
0.041922
0.072615
0.114993
0.150255
0.157917
0.165826
0.140478
0.108379
0.069312
0.023769
-0.028645
-0.061057
-0.089524
-0.114383
-0.133226
-0.137722
-0.124202
-0.090874
-0.048358
0.024546
0.077530
0.140402
0.160337
0.178395
0.179531
0.165741
0.152369
0.127990
0.082635
0.048795
0.005145
-0.036414
-0.066337
-0.094241
-0.093910
-0.085503
-0.063824
-0.039556
-0.000293
0.047872
0.092363
0.140065
0.190101
0.221140
0.220859
0.208813
0.179590
0.158470
0.116856
0.070150
0.036688
0.007193
-0.019347
-0.037324
-0.041080
-0.044375
-0.024739
0.005745
0.041989
0.090855
0.135018
0.171075
0.206298
0.226960
0.236364
0.218458
0.198568
0.166716
0.125186
0.083815
0.042432
-0.005370
-0.052158
-0.068665
-0.078390
-0.078705
-0.071874
-0.028034
0.002756
0.061408
0.104525
0.142832
0.179496
0.203542
0.207694
0.199505
0.181981
0.169370
0.117493
0.063461
0.011285
-0.040082
-0.085387
-0.103119
-0.106121
-0.102578
-0.085986
-0.055762
-0.010810
0.038842
0.093809
0.131581
0.160978
0.174912
0.178605
0.169144
0.157720
0.125444
0.088335
0.017290
-0.041912
-0.071945
-0.097792
-0.136300
-0.159345
-0.173315
-0.148507
-0.109822
-0.062856
0.009195
0.052932
0.081977
0.113256
0.127791
0.138845
0.126643
0.103726
0.067827
0.035474
-0.000207
-0.065885
-0.129562
-0.135447
-0.154473
-0.164665
-0.183781
-0.136647
-0.102088
-0.065228
-0.025827
0.020714
0.055084
0.095425
0.114125
0.125339
0.111355
0.094115
0.057876
0.014407
-0.037048
-0.079457
-0.123302
-0.157221
-0.182860
-0.192406
-0.188939
-0.162955
-0.143905
-0.100051
-0.057770
-0.004736
0.036433
0.075983
0.098575
0.096329
0.087765
0.075244
0.043966
0.000410
-0.048748
-0.090637
-0.135568
-0.175564
-0.192688
-0.198215
-0.197923
-0.191498
-0.164241
-0.122798
-0.080231
-0.032687
0.014930
0.047923
0.075956
0.095293
0.089880
0.085427
0.060960
0.006854
-0.045529
-0.095956
-0.144592
-0.169350
-0.173725
-0.194260
-0.206230
-0.198353
-0.165779
-0.114318
-0.055436
-0.006501
0.037266
0.092364
0.128735
0.130263
0.111447
0.079062
0.050641
0.020122
-0.029515
-0.076012
-0.121882
-0.165925
-0.189984
-0.201055
-0.203804
-0.203333
-0.146078
-0.091843
-0.053115
-0.004446
0.034312
0.088238
0.112894
0.103125
0.104514
0.092503
0.064864
0.023718
-0.025251
-0.072128
-0.111482
-0.148050
-0.175236
-0.193059
-0.184923
-0.165362
-0.131093
-0.093800
-0.042255
-0.001417
0.025059
0.079869
0.118950
0.122415
0.109952
0.098780
0.052599
0.002936
-0.048078
-0.084984
-0.129238
-0.161974
-0.183923
-0.188297
-0.184230
-0.164955
-0.141612
-0.106562
-0.042559
0.000293
0.036800
0.068474
0.082763
0.094271
0.101469
0.085042
0.049666
0.003074
-0.039253
-0.096549
-0.146009
-0.195691
-0.218819
-0.218175
-0.197242
-0.167268
-0.120933
-0.086410
-0.053630
-0.013112
0.035225
0.076049
0.094983
0.088840
0.086013
0.076418
0.035476
-0.026977
-0.083377
-0.115250
-0.152173
-0.174230
-0.162017
-0.183296
-0.187763
-0.180519
-0.136675
-0.087736
-0.052340
-0.014165
0.035354
0.088688
0.097769
0.092013
0.081331
0.074794
0.045000
-0.017357
-0.073276
-0.094686
-0.125704
-0.179697
-0.193824
-0.203847
-0.197766
-0.200498
-0.160609
-0.116660
-0.069570
-0.020851
0.018137
0.074609
0.105739
0.109558
0.097011
0.072751
0.025565
-0.008901
-0.059814
-0.107387
-0.143795
-0.169072
-0.200818
-0.221251
-0.220724
-0.196157
-0.151348
-0.104451
-0.057970
-0.017063
0.028643
0.064307
0.092848
0.096457
0.089770
0.063786
0.026339
-0.028350
-0.065447
-0.108044
-0.149953
-0.195527
-0.228594
-0.243601
-0.224255
-0.202032
-0.161375
-0.124544
-0.074087
-0.024811
0.020795
0.043562
0.069099
0.089834
0.090367
0.061692
0.017821
-0.033353
-0.070866
-0.121611
-0.166212
-0.197651
-0.218468
-0.240828
-0.232954
-0.210136
-0.179942
-0.124186
-0.065370
-0.024622
0.025559
0.058831
0.079867
0.080238
0.076977
0.080494
0.040813
-0.009510
-0.056722
-0.113784
-0.159702
-0.192473
-0.212788
-0.213397
-0.207547
-0.190686
-0.164175
-0.102041
-0.058773
-0.001977
0.029234
0.067104
0.092234
0.085142
0.082057
0.066018
0.032180
0.016691
-0.015391
-0.082082
-0.116290
-0.138218
-0.166091
-0.171978
-0.167191
-0.151635
-0.110742
-0.067627
-0.032310
0.011351
0.057946
0.092771
0.112434
0.122118
0.102519
0.068846
0.035989
-0.017762
-0.043325
-0.077097
-0.109129
-0.138881
-0.166529
-0.184946
-0.163911
-0.149131
-0.126393
-0.094443
-0.047913
0.013479
0.061945
0.100756
0.116353
0.121071
0.116436
0.103524
0.083143
0.041086
0.002102
-0.052985
-0.092632
-0.138915
-0.163060
-0.183058
-0.169540
-0.150085
-0.123099
-0.088124
-0.035277
0.009733
0.046129
0.075701
0.101182
0.109694
0.102005
0.066316
0.025563
-0.008135
-0.050024
-0.097049
-0.154957
-0.191565
-0.200377
-0.207778
-0.208625
-0.198407
-0.169239
-0.128387
-0.065281
-0.024808
0.019260
0.057008
0.074632
0.074958
0.058531
0.043175
0.004847
-0.028692
-0.062716
-0.111956
-0.155457
-0.204339
-0.230715
-0.259372
-0.224915
-0.218714
-0.191459
-0.160106
-0.118218
-0.059932
-0.005893
0.038985
0.053458
0.062508
0.052093
0.032790
-0.010232
-0.032411
-0.083733
-0.135344
-0.174812
-0.210857
-0.235181
-0.247916
-0.249102
-0.236350
-0.207595
-0.152034
-0.109674
-0.065330
-0.018805
0.011260
0.039923
0.042374
0.043602
0.033117
-0.002564
-0.046621
-0.083931
-0.140701
-0.190875
-0.218173
-0.237250
-0.251513
-0.254762
-0.243453
-0.212353
-0.164499
-0.119912
-0.069461
-0.016063
0.027189
0.052319
0.063540
0.055673
0.026492
-0.005296
-0.044127
-0.079431
-0.134991
-0.182267
-0.221200
-0.248681
-0.254686
-0.256230
-0.240849
-0.213200
-0.167542
-0.113571
-0.072017
-0.011228
0.038386
0.074419
0.062922
0.043838
0.017110
-0.010258
-0.020275
-0.031642
-0.063520
-0.081783
-0.119222
-0.129408
-0.109369
-0.088875
-0.087356
-0.043099
0.030903
0.097337
0.169429
0.234569
0.298956
0.346229
0.408332
0.449022
0.452355
0.433707
0.426849
0.407538
0.385845
0.383080
0.392889
0.409969
0.444541
0.493093
0.547979
0.595753
0.650661
0.687425
0.741542
0.774049
0.784831
0.789364
0.775963
0.739280
0.687544
0.593998
0.471391
0.370969
0.260968
0.174262
0.097501
0.030211
-0.030965
-0.056877
-0.053361
-0.042283
-0.000897
0.051610
0.110920
0.134057
0.162277
0.182022
0.180996
0.162041
0.138472
0.091859
0.058812
0.006447
-0.034500
-0.077294
-0.125702
-0.166760
-0.182418
-0.174789
-0.157421
-0.118240
-0.067135
-0.023448
0.020991
0.060919
0.083583
0.095493
0.114870
0.098900
0.086132
0.050943
0.014486
-0.031029
-0.094777
-0.151108
-0.179663
-0.214162
-0.218390
-0.197970
-0.183126
-0.147935
-0.110248
-0.068108
-0.017083
0.038301
0.067367
0.084634
0.095082
0.092005
0.069756
0.021520
-0.008930
-0.056730
-0.119948
-0.162936
-0.168892
-0.190003
-0.209738
-0.194987
-0.183986
-0.148531
-0.083050
-0.035483
0.001305
0.041231
0.077959
0.102134
0.107831
0.106878
0.084941
0.044246
-0.000313
-0.041849
-0.079166
-0.123398
-0.161233
-0.177708
-0.181985
-0.175701
-0.166195
-0.133568
-0.096950
-0.038898
0.018843
0.072188
0.111994
0.131507
0.143073
0.133268
0.106632
0.062259
0.016207
-0.023694
-0.073586
-0.104314
-0.134548
-0.158721
-0.156762
-0.142234
-0.129204
-0.103633
-0.058216
-0.010648
0.038156
0.082828
0.125246
0.152473
0.146980
0.147236
0.144069
0.109232
0.061227
0.010731
-0.018177
-0.055604
-0.094605
-0.146533
-0.119701
-0.110325
-0.096470
-0.048603
-0.000642
0.041037
0.081768
0.111295
0.146507
0.188172
0.196842
0.188574
0.163972
0.133466
0.098653
0.055885
0.005566
-0.044696
-0.094101
-0.121016
-0.119467
-0.094033
-0.063206
-0.032996
0.018621
0.058548
0.121595
0.158216
0.176580
0.191144
0.200593
0.195105
0.183013
0.142562
0.095533
0.054659
0.012412
-0.050263
-0.086343
-0.110314
-0.100714
-0.072109
-0.052369
-0.022403
0.025883
0.056979
0.106601
0.149816
0.181039
0.197838
0.210342
0.201916
0.171634
0.137516
0.102542
0.068005
0.019604
-0.027920
-0.056804
-0.082088
-0.094868
-0.093934
-0.081874
-0.040899
-0.009992
0.042124
0.103036
0.143458
0.173695
0.185969
0.184482
0.165254
0.147192
0.119949
0.090128
0.048615
0.003275
-0.062447
-0.100004
-0.130606
-0.136471
-0.110806
-0.100420
-0.072444
-0.027856
0.000149
0.056113
0.099084
0.131106
0.150620
0.150440
0.138489
0.119638
0.084457
0.035876
-0.018886
-0.079293
-0.133854
-0.160833
-0.192633
-0.237753
-0.227234
-0.160273
-0.086258
-0.081548
-0.035729
0.002321
0.046746
0.083352
0.102962
0.111711
0.094252
0.077703
0.038595
0.001368
-0.041412
-0.100073
-0.152094
-0.184353
-0.203765
-0.190764
-0.180454
-0.179494
-0.152241
-0.114390
-0.063792
-0.011076
0.031230
0.061918
0.081259
0.103235
0.082975
0.061754
0.033033
-0.016126
-0.057982
-0.103967
-0.142191
-0.176359
-0.193679
-0.201586
-0.203958
-0.196828
-0.153751
-0.102929
-0.061523
-0.021450
0.003445
0.059475
0.085267
0.072060
0.057391
0.054539
0.034136
-0.009396
-0.067636
-0.120451
-0.158380
-0.191439
-0.209916
-0.216804
-0.209378
-0.203310
-0.173165
-0.124005
-0.059552
-0.004688
0.015615
0.050985
0.073529
0.086388
0.085793
0.077029
0.041394
0.003984
-0.049514
-0.106528
-0.159109
-0.196121
-0.217990
-0.216872
-0.201031
-0.200431
-0.167878
-0.130382
-0.073664
-0.014883
0.015879
0.033496
0.050113
0.070134
0.085196
0.067190
0.011958
-0.026616
-0.058366
-0.109268
-0.159141
-0.174326
-0.184889
-0.196245
-0.179706
-0.156117
-0.125581
-0.092507
-0.049113
-0.005583
0.031082
0.086463
0.112611
0.096169
0.083307
0.078480
0.040086
-0.012154
-0.038535
-0.079287
-0.135552
-0.165488
-0.164450
-0.177857
-0.192225
-0.182521
-0.158464
-0.122962
-0.048427
0.015159
0.036260
0.052049
0.074783
0.080982
0.072356
0.049885
0.043791
0.020785
-0.028874
-0.086181
-0.130351
-0.175502
-0.215577
-0.220127
-0.199660
-0.181068
-0.162106
-0.120031
-0.079438
-0.020444
0.037672
0.073506
0.094127
0.093613
0.085724
0.061334
0.019583
-0.012937
-0.065974
-0.113672
-0.152938
-0.182303
-0.198884
-0.196228
-0.199359
-0.191168
-0.156199
-0.106685
-0.074776
-0.040469
0.007888
0.049533
0.068977
0.070848
0.084513
0.066476
0.044137
0.005109
-0.044331
-0.105714
-0.167899
-0.187485
-0.201639
-0.212990
-0.206836
-0.195406
-0.156015
-0.102483
-0.066428
-0.015467
0.034988
0.076683
0.083572
0.080454
0.074037
0.071675
0.039063
-0.013357
-0.066734
-0.107950
-0.151177
-0.181617
-0.215030
-0.221297
-0.218572
-0.210561
-0.192714
-0.155295
-0.117876
-0.058693
-0.003909
0.066345
0.073929
0.080367
0.081130
0.058281
0.031017
-0.021634
-0.066608
-0.116171
-0.167292
-0.207779
-0.195928
-0.195210
-0.213030
-0.207674
-0.175243
-0.134015
-0.094509
-0.051866
-0.018218
0.032693
0.053978
0.067558
0.065232
0.071214
0.025255
-0.025001
-0.063494
-0.112378
-0.164248
-0.190952
-0.204680
-0.208244
-0.212541
-0.204238
-0.156193
-0.119045
-0.079663
-0.029477
0.016730
0.050465
0.072237
0.082097
0.076398
0.052752
0.009976
-0.032711
-0.080747
-0.121251
-0.161811
-0.184702
-0.214239
-0.245249
-0.235767
-0.212725
-0.169678
-0.120132
-0.067243
-0.021402
0.022973
0.050463
0.069354
0.075929
0.072041
0.053269
0.019673
-0.019559
-0.079509
-0.139596
-0.152775
-0.170224
-0.191540
-0.191976
-0.209494
-0.194289
-0.136298
-0.092600
-0.034513
0.009767
0.056855
0.087282
0.119407
0.122379
0.124535
0.111610
0.067570
0.041187
-0.006541
-0.080128
-0.131187
-0.171845
-0.205915
-0.211667
-0.196699
-0.160661
-0.105644
-0.072849
-0.043065
0.007384
0.060836
0.108876
0.141366
0.140233
0.132104
0.111931
0.078962
0.041017
-0.009679
-0.059301
-0.106220
-0.147290
-0.179241
-0.198135
-0.172692
-0.151140
-0.126747
-0.094522
-0.052498
0.009589
0.054922
0.088519
0.101402
0.118927
0.105704
0.094290
0.051504
-0.002817
-0.044691
-0.094840
-0.134180
-0.170232
-0.202739
-0.232915
-0.229999
-0.223753
-0.154206
-0.098253
-0.072872
-0.023094
0.017747
0.042874
0.066036
0.074641
0.074770
0.065838
0.028783
-0.023486
-0.084989
-0.125137
-0.176461
-0.206710
-0.227715
-0.235814
-0.240278
-0.234634
-0.191204
-0.130000
-0.097248
-0.050492
-0.017861
0.014763
0.026938
0.038549
0.039755
0.024515
-0.004289
-0.033155
-0.074263
-0.138150
-0.190567
-0.221166
-0.241059
-0.253632
-0.258477
-0.227599
-0.174031
-0.139536
-0.096755
-0.063960
-0.011858
0.025674
0.040477
0.045616
0.046983
0.041462
-0.004853
-0.048042
-0.104144
-0.152465
-0.204471
-0.238662
-0.240770
-0.243211
-0.248635
-0.232625
-0.201697
-0.159439
-0.114511
-0.063299
-0.017781
0.016830
0.031482
0.043675
0.033994
0.019650
-0.014056
-0.056093
-0.099702
-0.149493
-0.204447
-0.243210
-0.258399
-0.250774
-0.241119
-0.196071
-0.173279
-0.150382
-0.128445
-0.081678
-0.018050
0.006848
0.039488
0.049062
0.032265
0.012357
-0.017911
-0.052351
-0.101017
-0.136480
-0.161643
-0.180436
-0.196740
-0.182447
-0.150129
-0.121550
-0.073852
-0.027741
0.032706
0.089638
0.157569
0.208092
0.240482
0.280096
0.303513
0.318863
0.314639
0.314163
0.296762
0.277596
0.264427
0.272092
0.268678
0.288466
0.327889
0.380101
0.466599
0.541033
0.616426
0.697999
0.770357
0.821870
0.829486
0.839627
0.851219
0.801371
0.754411
0.682822
0.606353
0.516559
0.413524
0.310184
0.223838
0.167901
0.138532
0.114703
0.106061
0.081306
0.100551
0.146026
0.180185
0.195538
0.215842
0.215570
0.180054
0.169883
0.127591
0.076695
0.016731
-0.041253
-0.091112
-0.117756
-0.135432
-0.146447
-0.145405
-0.143062
-0.118940
-0.069791
-0.029506
0.033665
0.072012
0.101405
0.104700
0.118590
0.095522
0.071111
0.035471
0.059115
0.011323
-0.068338
-0.130909
-0.165352
-0.186197
-0.194350
-0.181055
-0.165546
-0.143928
-0.104550
-0.043263
0.028073
0.069431
0.082175
0.097852
0.112862
0.112597
0.083565
0.039751
-0.005504
-0.046833
-0.094912
-0.141587
-0.165530
-0.184714
-0.181387
-0.171987
-0.173982
-0.154884
-0.102169
-0.049339
-0.000650
0.049142
0.075879
0.095031
0.109752
0.103889
0.084419
0.051888
0.010480
-0.032786
-0.075298
-0.123719
-0.146860
-0.179032
-0.185739
-0.155365
-0.141901
-0.123991
-0.091124
-0.017270
0.025442
0.069506
0.094976
0.108679
0.119835
0.120979
0.105397
0.075230
0.035491
-0.013388
-0.060183
-0.108407
-0.122361
-0.141723
-0.140981
-0.142073
-0.136565
-0.102953
-0.061292
-0.009578
0.036971
0.056391
0.120214
0.153020
0.149737
0.139922
0.134596
0.097780
0.055308
0.012497
-0.038401
-0.084127
-0.101048
-0.110649
-0.120336
-0.120847
-0.101138
-0.054156
0.008397
0.050595
0.087120
0.140693
0.179579
0.205988
0.219197
0.201742
0.184128
0.145018
0.097767
0.078183
0.026653
-0.032189
-0.066996
-0.090200
-0.094648
-0.080381
-0.060751
-0.023868
0.018477
0.065902
0.098161
0.146178
0.186059
0.200605
0.217647
0.218820
0.186585
0.153926
0.109746
0.065708
0.016732
-0.019302
-0.042232
-0.052396
-0.058245
-0.063952
-0.060372
-0.023942
0.020251
0.076800
0.114528
0.159384
0.185276
0.207396
0.219119
0.212592
0.200863
0.162939
0.117434
0.069698
0.024984
-0.023556
-0.063566
-0.081023
-0.090001
-0.088412
-0.070254
-0.035807
0.007514
0.055091
0.105802
0.153214
0.185863
0.195033
0.204885
0.193423
0.184654
0.141310
0.112317
0.072671
0.020381
-0.023216
-0.057455
-0.094391
-0.111791
-0.106670
-0.095780
-0.064826
-0.023913
0.018036
0.053650
0.101769
0.135996
0.164745
0.187971
0.180603
0.161328
0.121756
0.065977
0.018426
-0.039562
-0.084693
-0.119354
-0.150954
-0.160880
-0.162238
-0.143059
-0.117923
-0.084588
-0.041799
0.031588
0.072824
0.100420
0.114536
0.106335
0.134580
0.115985
0.074173
0.028829
-0.030074
-0.078417
-0.120718
-0.162197
-0.190260
-0.207337
-0.196910
-0.176423
-0.146934
-0.112581
-0.068078
-0.005447
0.060211
0.102214
0.120452
0.125137
0.126241
0.103212
0.059714
0.009897
-0.044278
-0.095336
-0.137660
-0.168814
-0.195211
-0.208182
-0.198686
-0.178538
-0.152527
-0.114218
-0.052563
-0.004053
0.033104
0.067637
0.095550
0.109130
0.097695
0.069450
0.039970
-0.000918
-0.031552
-0.071123
-0.144454
-0.172060
-0.184695
-0.198543
-0.196629
-0.182316
-0.144772
-0.101096
-0.068845
0.005266
0.059775
0.090205
0.102493
0.115851
0.102402
0.081161
0.039114
0.000610
-0.041057
-0.098577
-0.150361
-0.190624
-0.200841
-0.204887
-0.197828
-0.180418
-0.147265
-0.098982
-0.045316
-0.021057
0.052484
0.093902
0.107368
0.108125
0.088981
0.068941
0.049631
0.000270
-0.037824
-0.090300
-0.147360
-0.183259
-0.182038
-0.184497
-0.192833
-0.168313
-0.140710
-0.093563
-0.037659
0.019316
0.068917
0.101688
0.107842
0.118763
0.106516
0.073415
0.042245
-0.003375
-0.052297
-0.091238
-0.111424
-0.140375
-0.170035
-0.194012
-0.189951
-0.171585
-0.119195
-0.074633
-0.026429
0.019650
0.064664
0.081056
0.095029
0.108045
0.109202
0.104354
0.062085
0.010899
-0.028546
-0.076287
-0.125588
-0.152699
-0.176255
-0.185177
-0.188365
-0.168132
-0.117921
-0.070407
-0.037824
0.010541
0.048282
0.088078
0.122637
0.127883
0.110903
0.094675
0.066356
0.019320
-0.029858
-0.083750
-0.135091
-0.183337
-0.198275
-0.196111
-0.185157
-0.170628
-0.133362
-0.104169
-0.017327
0.027433
0.076346
0.097123
0.107543
0.108742
0.098148
0.070419
0.035356
-0.000020
-0.056453
-0.104111
-0.152753
-0.177537
-0.186464
-0.202401
-0.194629
-0.166440
-0.133731
-0.098319
-0.053083
-0.005701
0.044595
0.070286
0.090391
0.108418
0.095744
0.079208
0.036561
-0.009506
-0.043036
-0.098774
-0.146621
-0.177659
-0.197165
-0.207343
-0.186296
-0.147394
-0.111663
-0.078834
-0.043834
-0.002425
0.041052
0.074137
0.095178
0.116660
0.100947
0.075846
0.029391
-0.014446
-0.049077
-0.095781
-0.141068
-0.173400
-0.205007
-0.210896
-0.182578
-0.163329
-0.122484
-0.083726
-0.030512
0.007265
0.049957
0.081580
0.096602
0.096266
0.088394
0.076259
0.033578
-0.016022
-0.051671
-0.102791
-0.159448
-0.185482
-0.201810
-0.191680
-0.185910
-0.161987
-0.139499
-0.100762
-0.060886
-0.022948
0.020399
0.051696
0.069782
0.096372
0.092670
0.071420
0.030937
-0.002926
-0.049743
-0.093547
-0.137391
-0.172616
-0.179844
-0.186913
-0.176267
-0.162523
-0.146634
-0.112939
-0.064126
-0.018436
0.027934
0.056999
0.081195
0.090597
0.087580
0.067116
0.027852
-0.014498
-0.074364
-0.100568
-0.150985
-0.168315
-0.178467
-0.196958
-0.194892
-0.165496
-0.127031
-0.095409
-0.045228
-0.008848
0.030931
0.053913
0.065478
0.068585
0.070833
0.063290
0.040591
-0.013823
-0.057623
-0.100225
-0.143552
-0.168480
-0.186000
-0.195145
-0.184449
-0.156905
-0.130982
-0.087500
-0.042961
0.009600
0.054603
0.077877
0.097200
0.104037
0.097336
0.085264
0.053178
0.020713
-0.034326
-0.072447
-0.118889
-0.151124
-0.172437
-0.169698
-0.166921
-0.150414
-0.110875
-0.062207
-0.015241
0.031303
0.077667
0.106715
0.110846
0.110801
0.104439
0.102280
0.084485
0.051877
-0.004007
-0.054662
-0.099477
-0.122017
-0.145336
-0.159652
-0.151524
-0.137064
-0.102856
-0.065853
-0.013121
0.032084
0.080909
0.106207
0.130491
0.142757
0.146956
0.125761
0.068929
0.038425
-0.011423
-0.050766
-0.095108
-0.124285
-0.142121
-0.143375
-0.144731
-0.145011
-0.071230
-0.026768
-0.003940
0.039992
0.069943
0.098617
0.133674
0.131678
0.112131
0.086809
0.048749
0.014731
-0.033641
-0.075782
-0.118632
-0.145690
-0.173316
-0.181087
-0.176516
-0.161954
-0.133374
-0.097876
-0.051889
-0.006139
0.046007
0.080357
0.103108
0.114190
0.111604
0.082585
0.051768
0.006508
-0.043082
-0.092793
-0.147198
-0.181058
-0.203346
-0.210413
-0.224538
-0.206219
-0.166318
-0.120660
-0.072218
-0.041587
-0.002698
0.048643
0.078237
0.094801
0.088982
0.073768
0.031681
-0.016255
-0.063913
-0.110919
-0.151033
-0.183080
-0.213391
-0.217782
-0.217019
-0.199016
-0.159621
-0.112764
-0.059560
-0.028063
0.017874
0.041601
0.067077
0.077848
0.077674
0.059968
0.028135
-0.020801
-0.079927
-0.119693
-0.169811
-0.210538
-0.235516
-0.232658
-0.216422
-0.214980
-0.184008
-0.134452
-0.088209
-0.044198
0.011616
0.057774
0.087974
0.089581
0.067859
0.036367
0.005781
-0.037190
-0.043594
-0.091129
-0.156434
-0.196509
-0.220620
-0.233798
-0.234992
-0.187413
-0.141631
-0.108338
-0.056065
-0.000984
0.028618
0.061173
0.067525
0.057334
0.058874
0.054978
0.027462
-0.015310
-0.066320
-0.109633
-0.140111
-0.160942
-0.172390
-0.164675
-0.130260
-0.101796
-0.064833
-0.013674
0.044846
0.103215
0.169206
0.231092
0.284609
0.305922
0.315340
0.320769
0.305750
0.304612
0.291265
0.271874
0.268910
0.273549
0.292669
0.302669
0.348964
0.398610
0.474594
0.555915
0.639459
0.731156
0.804508
0.859383
0.889145
0.884342
0.875150
0.850537
0.786460
0.728570
0.646587
0.581051
0.499415
0.397163
0.312925
0.247079
0.188775
0.163318
0.138914
0.141640
0.150095
0.186135
0.214086
0.231691
0.244817
0.253604
0.243351
0.212916
0.163035
0.111247
0.066795
0.004329
-0.034814
-0.085663
-0.121370
-0.126845
-0.120530
-0.113140
-0.074144
-0.036444
0.003308
0.038973
0.080679
0.114956
0.142504
0.140699
0.136385
0.135870
0.108735
0.052233
-0.011607
-0.070886
-0.109536
-0.157146
-0.180004
-0.180137
-0.171020
-0.123602
-0.089991
-0.042722
-0.006589
0.029355
0.080436
0.104378
0.119836
0.136460
0.130251
0.111212
0.077914
0.045408
0.003316
-0.060490
-0.108023
-0.136270
-0.157039
-0.166208
-0.168996
-0.143362
-0.111618
-0.076068
-0.018753
0.018861
0.078773
0.116632
0.127784
0.133358
0.140225
0.125237
0.091262
0.029875
-0.019623
-0.047121
-0.090306
-0.125633
-0.147588
-0.164961
-0.152795
-0.127795
-0.097816
-0.068811
-0.016860
0.060934
0.128666
0.125549
0.135452
0.153610
0.146436
0.123067
0.077964
0.041761
0.004721
-0.035451
-0.074395
-0.108695
-0.124770
-0.128812
-0.115796
-0.103535
-0.066806
-0.029075
0.012833
0.069542
0.111278
0.140876
0.163150
0.163350
0.158159
0.133967
0.117360
0.073687
0.025571
-0.024465
-0.056801
-0.085325
-0.114542
-0.122296
-0.102482
-0.067330
-0.022878
0.014463
0.064746
0.101143
0.143869
0.190731
0.229034
0.219971
0.195210
0.170525
0.155698
0.122839
0.087788
0.032197
-0.006882
-0.033658
-0.060996
-0.051010
-0.026566
-0.008304
-0.012040
0.033123
0.087185
0.132521
0.156920
0.196877
0.218376
0.238574
0.224989
0.201098
0.182791
0.136438
0.089355
0.040998
-0.004424
-0.041525
-0.030009
-0.026372
-0.031538
-0.022397
-0.000832
0.043498
0.081740
0.108216
0.175645
0.227541
0.251170
0.243264
0.248139
0.234177
0.198593
0.152313
0.090059
0.025537
-0.017993
-0.046785
-0.055945
-0.062526
-0.059527
-0.046761
-0.015835
0.026514
0.081949
0.124134
0.175726
0.222828
0.259465
0.262758
0.232121
0.203973
0.167612
0.117873
0.056797
0.015002
-0.022933
-0.054165
-0.077120
-0.089745
-0.075914
-0.068923
-0.049412
-0.018005
0.031041
0.074612
0.118271
0.155063
0.181246
0.186038
0.193158
0.163416
0.121596
0.075920
0.023904
-0.018035
-0.062596
-0.093525
-0.117736
-0.112386
-0.100801
-0.102684
-0.103375
-0.049064
0.005998
0.048947
0.085830
0.114459
0.133332
0.129559
0.122104
0.106111
0.069735
0.027680
-0.003392
-0.052538
-0.104127
-0.131219
-0.133062
-0.155617
-0.175333
-0.164317
-0.132558
-0.080969
-0.041872
0.022993
0.082134
0.126119
0.142432
0.142675
0.130882
0.101809
0.073482
0.027132
-0.012729
-0.067235
-0.115039
-0.141693
-0.156252
-0.175676
-0.168931
-0.130339
-0.130541
-0.076854
-0.031102
0.008389
0.050297
0.077984
0.092315
0.103282
0.114819
0.114713
0.073216
0.028761
-0.025719
-0.073716
-0.125055
-0.161807
-0.185672
-0.186000
-0.180422
-0.145453
-0.120259
-0.083882
-0.016745
0.033491
0.080000
0.100070
0.113273
0.119180
0.117321
0.093721
0.072106
0.026510
-0.023710
-0.065701
-0.102870
-0.135339
-0.183391
-0.206497
-0.174905
-0.163531
-0.129661
-0.087441
-0.038318
0.003358
0.060645
0.102945
0.128812
0.132810
0.125689
0.086483
0.058944
0.035326
-0.013251
-0.064312
-0.124886
-0.155870
-0.174549
-0.200760
-0.173671
-0.123014
-0.106129
-0.073075
-0.030433
0.012220
0.060990
0.113572
0.128110
0.132364
0.145438
0.118235
0.081338
0.036736
-0.013340
-0.069179
-0.108951
-0.151347
-0.170572
-0.183699
-0.179201
-0.161381
-0.116737
-0.073401
-0.013235
0.027906
0.065541
0.095924
0.114871
0.142382
0.157395
0.125785
0.079147
0.049190
-0.003330
-0.058061
-0.115917
-0.143630
-0.165040
-0.167521
-0.162827
-0.147539
-0.103917
-0.074829
-0.027340
0.009770
0.052240
0.084687
0.115073
0.147159
0.145868
0.112649
0.069736
0.034701
-0.020544
-0.075915
-0.119149
-0.146470
-0.156958
-0.165750
-0.168680
-0.148336
-0.127204
-0.085282
-0.033517
0.014859
0.056096
0.092744
0.116034
0.119285
0.125772
0.111668
0.075972
0.037096
-0.019387
-0.063546
-0.109973
-0.148801
-0.170703
-0.162102
-0.164364
-0.151794
-0.125807
-0.081694
-0.027272
0.015081
0.046124
0.075622
0.099976
0.117405
0.108969
0.089665
0.069476
0.021456
-0.058806
-0.102624
-0.128981
-0.161922
-0.171378
-0.188352
-0.166073
-0.166926
-0.147615
-0.099887
-0.047471
-0.001339
0.047824
0.083247
0.104424
0.114573
0.099992
0.082488
0.052777
0.029735
-0.024508
-0.073654
-0.110148
-0.141816
-0.166218
-0.178091
-0.179671
-0.165555
-0.133980
-0.080088
-0.043679
0.010829
0.052845
0.086936
0.114264
0.120814
0.105366
0.070806
0.033000
-0.001479
-0.035532
-0.075146
-0.112761
-0.147923
-0.164457
-0.161654
-0.169477
-0.172662
-0.143649
-0.098596
-0.037714
0.003504
0.044350
0.083843
0.110086
0.114718
0.110963
0.105791
0.073125
0.025929
-0.030630
-0.084749
-0.129304
-0.162134
-0.190710
-0.196955
-0.189680
-0.180111
-0.142589
-0.102582
-0.041290
0.017913
0.057004
0.092050
0.107605
0.119681
0.114636
0.077667
0.026864
-0.010813
-0.040289
-0.083945
-0.141187
-0.190311
-0.212025
-0.205331
-0.187117
-0.163221
-0.143113
-0.100402
-0.035006
0.010468
0.051133
0.084296
0.104448
0.111681
0.112642
0.089460
0.054569
0.014788
-0.036933
-0.083396
-0.125124
-0.162530
-0.187252
-0.194709
-0.189602
-0.174247
-0.143502
-0.111147
-0.061877
-0.003274
0.060802
0.081597
0.098192
0.115273
0.133703
0.112887
0.092711
0.063322
-0.004713
-0.047726
-0.096605
-0.133717
-0.150173
-0.156263
-0.150208
-0.129440
-0.093535
-0.055286
0.009687
0.047882
0.094046
0.125782
0.132988
0.136827
0.142678
0.126418
0.100088
0.055899
-0.002673
-0.032794
-0.078863
-0.132946
-0.157820
-0.164644
-0.151040
-0.130668
-0.089403
-0.038759
0.008568
0.032285
0.079943
0.151019
0.171671
0.186961
0.180153
0.150089
0.111966
0.075065
0.016860
-0.031926
-0.073075
-0.103122
-0.120497
-0.126530
-0.117476
-0.103371
-0.059930
-0.028326
0.010413
0.056274
0.092738
0.119223
0.130688
0.145135
0.133966
0.109430
0.074275
0.016574
-0.023962
-0.055978
-0.099626
-0.124602
-0.164469
-0.166968
-0.152914
-0.139236
-0.122425
-0.079923
-0.013675
0.022677
0.056936
0.091851
0.127127
0.133615
0.125613
0.103706
0.068075
0.013710
-0.061486
-0.096793
-0.133231
-0.165979
-0.188629
-0.203484
-0.196286
-0.164434
-0.153041
-0.120394
-0.056622
-0.007520
0.039398
0.063256
0.082236
0.089101
0.080267
0.061275
0.020457
-0.021274
-0.073213
-0.131705
-0.167763
-0.198478
-0.213378
-0.219080
-0.196947
-0.177499
-0.142865
-0.113257
-0.067277
-0.032692
0.013459
0.052876
0.098771
0.110397
0.103736
0.080923
0.039180
-0.004622
-0.055098
-0.097523
-0.138980
-0.176413
-0.200194
-0.210404
-0.203186
-0.183583
-0.142885
-0.113179
-0.067786
-0.017578
0.023739
0.061200
0.080417
0.078869
0.076321
0.059602
0.032807
-0.009508
-0.055870
-0.094666
-0.135094
-0.177912
-0.195568
-0.203089
-0.195104
-0.177362
-0.133252
-0.100804
-0.060674
-0.031707
0.019477
0.046414
0.070012
0.077170
0.078834
0.060427
0.021989
-0.023387
-0.067672
-0.104918
-0.130068
-0.141892
-0.154652
-0.146296
-0.138261
-0.100138
-0.060281
-0.007901
0.061574
0.115724
0.164210
0.224796
0.255868
0.292981
0.321726
0.343079
0.336570
0.329578
0.296293
0.293875
0.275379
0.267862
0.286636
0.305831
0.333452
0.385628
0.451452
0.548493
0.636477
0.723269
0.797498
0.871613
0.884944
0.878346
0.866900
0.839603
0.799026
0.744023
0.679635
0.607301
0.531456
0.426727
0.336969
0.269308
0.216052
0.213178
0.197253
0.181985
0.181401
0.189643
0.222107
0.254448
0.262653
0.267134
0.249977
0.223658
0.170072
0.115391
0.062691
0.027145
-0.027131
-0.074874
-0.091366
-0.102835
-0.102022
-0.088049
-0.067944
-0.048102
0.004912
0.054425
0.088412
0.135401
0.144077
0.188680
0.187683
0.148383
0.113463
0.071813
0.011753
-0.040747
-0.089931
-0.130113
-0.158259
-0.186557
-0.175567
-0.121987
-0.072375
-0.058086
0.004386
0.035909
0.077869
0.121610
0.144206
0.153501
0.144833
0.118904
0.091189
0.055597
0.006269
-0.056711
-0.097724
-0.130063
-0.153589
-0.163596
-0.159915
-0.127421
-0.090618
-0.042249
0.003037
0.044110
0.091487
0.119961
0.155994
0.165218
0.163950
0.141975
0.099444
0.065812
0.007769
-0.046799
-0.083939
-0.117619
-0.135136
-0.136030
-0.131676
-0.109980
-0.081756
-0.028373
0.020878
0.070186
0.106489
0.143474
0.167191
0.171126
0.164327
0.145624
0.108306
0.066987
0.018174
-0.025446
-0.048864
-0.077002
-0.099337
-0.096256
-0.099126
-0.096520
-0.068388
-0.026063
0.020719
0.068663
0.112568
0.162275
0.183075
0.205455
0.199519
0.190366
0.160230
0.122053
0.075955
0.017502
-0.018965
-0.049257
-0.069490
-0.087788
-0.088562
-0.065505
-0.016282
0.023329
0.066440
0.118843
0.165130
0.199425
0.223502
0.228424
0.235103
0.215596
0.182738
0.135480
0.073040
0.010842
-0.002907
-0.048800
-0.079903
-0.068268
-0.055193
-0.028017
0.008112
0.040078
0.091500
0.143186
0.186431
0.225872
0.256956
0.273025
0.277993
0.255617
0.233042
0.189609
0.134291
0.076160
0.026337
-0.008114
-0.037282
-0.038134
-0.034291
-0.010501
0.027848
0.055002
0.107561
0.145673
0.197457
0.232996
0.263367
0.293044
0.285973
0.255765
0.213688
0.174106
0.122844
0.063720
0.025809
-0.007027
-0.037397
-0.050363
-0.060587
-0.039996
0.003719
0.039414
0.090054
0.142772
0.186926
0.205403
0.239712
0.248149
0.253329
0.229855
0.196449
0.150696
0.101519
0.046887
-0.000519
-0.043410
-0.059491
-0.069121
-0.067559
-0.049311
-0.028716
-0.001819
0.045621
0.099914
0.150965
0.186500
0.210181
0.219249
0.213955
0.186719
0.147264
0.120488
0.066266
0.016806
-0.039276
-0.082632
-0.112306
-0.124760
-0.124472
-0.100089
-0.073660
-0.046975
0.005486
0.062268
0.112581
0.160730
0.160163
0.179807
0.210951
0.175232
0.128130
0.064033
0.005059
-0.044113
-0.081588
-0.115645
-0.130814
-0.142732
-0.143720
-0.133764
-0.105747
-0.065182
-0.012504
0.025196
0.074856
0.117627
0.157598
0.161913
0.165699
0.130270
0.100188
0.056514
-0.000440
-0.057104
-0.094312
-0.135351
-0.156671
-0.169437
-0.174185
-0.139219
-0.105232
-0.061762
-0.018182
0.032832
0.066893
0.107497
0.131855
0.143710
0.147458
0.119745
0.073473
0.024284
-0.037503
-0.083173
-0.114906
-0.138700
-0.162881
-0.153165
-0.159393
-0.134401
-0.107251
-0.079171
-0.016632
0.049025
0.091630
0.117588
0.141670
0.139127
0.147339
0.124024
0.082859
0.039109
-0.015145
-0.044667
-0.087816
-0.132609
-0.163863
-0.176953
-0.163979
-0.140142
-0.114187
-0.072334
-0.020199
0.050369
0.093769
0.138687
0.174015
0.171163
0.142975
0.127093
0.104556
0.045563
-0.018619
-0.067015
-0.098247
-0.120246
-0.143754
-0.159584
-0.141218
-0.110125
-0.076652
-0.041228
0.008639
0.048450
0.087164
0.124137
0.149505
0.162831
0.155191
0.138611
0.092903
0.049826
0.002154
-0.056099
-0.099708
-0.129833
-0.152089
-0.149143
-0.160032
-0.140116
-0.102544
-0.052275
-0.004789
0.043535
0.071762
0.113491
0.136815
0.139899
0.140321
0.119641
0.086188
0.036731
-0.011358
-0.065069
-0.105378
-0.136590
-0.157335
-0.163925
-0.155017
-0.119334
-0.087551
-0.049296
0.006333
0.036146
0.064086
0.116135
0.146829
0.158483
0.155839
0.125647
0.089587
0.029617
-0.016367
-0.044921
-0.078016
-0.111667
-0.126981
-0.136736
-0.145501
-0.122051
-0.097351
-0.047387
0.004993
0.057016
0.090849
0.117913
0.143719
0.145032
0.145449
0.114370
0.083900
0.035541
-0.018618
-0.070291
-0.117906
-0.147404
-0.162250
-0.162637
-0.150827
-0.114224
-0.079987
-0.044107
0.006100
0.044667
0.077854
0.105144
0.139986
0.153608
0.140407
0.112299
0.074436
0.026891
-0.010127
-0.047274
-0.095424
-0.122147
-0.151449
-0.170881
-0.170738
-0.123450
-0.095663
-0.045703
0.000374
0.026067
0.058411
0.090013
0.116543
0.119037
0.121616
0.110201
0.071819
0.025888
-0.024139
-0.071042
-0.103243
-0.133503
-0.159491
-0.170979
-0.171309
-0.141420
-0.103338
-0.059981
-0.015215
0.021741
0.050643
0.098860
0.131567
0.142178
0.136352
0.108488
0.070755
0.023397
-0.018162
-0.063612
-0.098338
-0.138471
-0.162946
-0.168992
-0.165836
-0.151953
-0.115358
-0.071506
-0.029099
0.023798
0.068446
0.100053
0.126547
0.135225
0.129491
0.104057
0.079164
0.041510
-0.011917
-0.060124
-0.104100
-0.134248
-0.144972
-0.143804
-0.144758
-0.152608
-0.126467
-0.080106
-0.031556
0.018602
0.063101
0.095080
0.109243
0.113745
0.116960
0.090017
0.064191
0.026757
-0.011037
-0.055534
-0.106379
-0.155123
-0.184033
-0.183736
-0.146934
-0.119815
-0.105699
-0.082188
-0.005349
0.039688
0.068852
0.097083
0.114099
0.124971
0.123124
0.102682
0.059097
0.030234
-0.012644
-0.073851
-0.106716
-0.124179
-0.137860
-0.150345
-0.149833
-0.121063
-0.090433
-0.053397
-0.022333
0.023491
0.073985
0.119646
0.159908
0.165657
0.154251
0.120723
0.090355
0.057780
0.016867
-0.027296
-0.082369
-0.097193
-0.105692
-0.118762
-0.110202
-0.097781
-0.068129
-0.021025
0.018114
0.064187
0.095650
0.132211
0.166049
0.177789
0.161987
0.125110
0.100013
0.055790
0.006832
-0.045745
-0.067798
-0.086244
-0.115455
-0.133056
-0.124008
-0.088806
-0.034625
0.001975
0.029173
0.075569
0.115215
0.158413
0.185846
0.186010
0.197926
0.170259
0.115428
0.070094
0.011119
-0.040078
-0.083452
-0.125019
-0.138940
-0.144011
-0.149661
-0.138791
-0.111295
-0.065338
-0.009204
0.030057
0.070718
0.117328
0.151551
0.170847
0.164766
0.119742
0.088656
0.041363
-0.011155
-0.052832
-0.094518
-0.131905
-0.150047
-0.164769
-0.167811
-0.151582
-0.124965
-0.092094
-0.040285
0.015755
0.066415
0.094928
0.121527
0.138402
0.121256
0.097513
0.060531
0.010813
-0.021237
-0.075496
-0.125387
-0.155482
-0.181184
-0.189577
-0.187596
-0.165247
-0.133708
-0.111722
-0.058934
-0.005638
0.043494
0.075250
0.094763
0.095801
0.110875
0.096553
0.066450
0.012794
-0.037119
-0.071923
-0.109345
-0.154977
-0.177121
-0.180951
-0.183121
-0.164881
-0.127371
-0.099327
-0.048430
-0.001789
0.034332
0.068504
0.099711
0.109188
0.092280
0.067320
0.050697
0.011052
-0.043534
-0.099979
-0.138098
-0.164912
-0.176858
-0.192941
-0.191040
-0.170677
-0.145116
-0.095188
-0.033956
-0.001498
0.038632
0.079799
0.104925
0.096249
0.119666
0.109638
0.064338
0.010719
-0.051972
-0.101616
-0.136170
-0.185976
-0.215533
-0.223343
-0.210822
-0.192666
-0.160353
-0.101971
-0.035657
0.015656
0.056989
0.113456
0.163399
0.185484
0.204390
0.194260
0.160636
0.115255
0.079173
0.039457
0.018551
0.005100
-0.006245
0.013834
0.039829
0.094351
0.146970
0.217426
0.309430
0.393539
0.473890
0.533843
0.595425
0.625629
0.648290
0.661334
0.660214
0.656754
0.649314
0.656550
0.642441
0.617317
0.596467
0.572213
0.564465
0.587899
0.606403
0.649728
0.656736
0.648289
0.628152
0.583674
0.582609
0.545370
0.510095
0.430150
0.337333
0.253434
0.168640
0.086865
0.030047
-0.023067
-0.047328
-0.043278
-0.057887
-0.040032
-0.018541
0.018542
0.062002
0.112957
0.153340
0.177831
0.188609
0.197996
0.193795
0.168281
0.143178
0.111894
0.048997
-0.008550
-0.063139
-0.104934
-0.130565
-0.127710
-0.126983
-0.107315
-0.072773
-0.035862
0.007494
0.059249
0.095491
0.130578
0.158286
0.156309
0.157204
0.126777
0.094207
0.054426
-0.006052
-0.044328
-0.090018
-0.131101
-0.163972
-0.167435
-0.150397
-0.111193
-0.081467
-0.037324
0.010424
0.059637
0.100027
0.129182
0.147605
0.166298
0.166272
0.123282
0.090472
0.064302
0.027622
-0.014858
-0.081944
-0.113844
-0.135893
-0.138505
-0.134646
-0.099631
-0.059724
-0.025075
0.023850
0.066241
0.110473
0.143963
0.161224
0.171198
0.167062
0.148112
0.136884
0.097629
0.041723
-0.013692
-0.049165
-0.076119
-0.104280
-0.120356
-0.114554
-0.071447
-0.039145
-0.020171
0.019836
0.073614
0.112528
0.154697
0.168582
0.169012
0.168216
0.141968
0.126675
0.097116
0.060824
0.016413
-0.034304
-0.066132
-0.086411
-0.080943
-0.076814
-0.055641
-0.012812
0.041490
0.081435
0.127601
0.160077
0.193803
0.209382
0.224059
0.229699
0.205582
0.179985
0.136675
0.086732
0.036096
-0.002322
-0.034626
-0.056869
-0.073207
-0.071692
-0.043579
-0.013889
0.035252
0.087416
0.136299
0.161824
0.198450
0.224872
0.249011
0.248003
0.209514
0.193331
0.175798
0.133309
0.078682
0.030069
0.013222
-0.014757
-0.036286
-0.031712
-0.014244
0.037466
0.094626
0.134697
0.189477
0.247725
0.264045
0.269888
0.278416
0.281936
0.248013
0.210230
0.174428
0.135127
0.076528
0.031290
0.005140
-0.019271
-0.028748
-0.030612
-0.004495
0.046262
0.092762
0.131052
0.169287
0.200486
0.223590
0.244630
0.266791
0.285009
0.259038
0.221671
0.187428
0.112388
0.049003
0.015340
-0.014493
-0.039964
-0.040284
-0.048966
-0.017776
0.025529
0.056521
0.103939
0.149170
0.180310
0.213888
0.239920
0.248262
0.228706
0.203910
0.166546
0.128819
0.073828
0.029668
-0.007652
-0.047033
-0.071523
-0.085730
-0.081484
-0.059049
-0.028247
0.012600
0.061078
0.095447
0.135755
0.160289
0.184152
0.196266
0.192726
0.166244
0.122724
0.085426
0.040158
-0.017698
-0.068293
-0.102757
-0.126040
-0.130575
-0.125281
-0.106469
-0.072703
-0.031689
0.010264
0.069963
0.110675
0.148614
0.164279
0.163993
0.155997
0.124592
0.091845
0.039021
-0.006584
-0.062865
-0.090513
-0.126692
-0.159995
-0.160225
-0.147847
-0.128019
-0.093421
-0.043894
0.001016
0.051918
0.096709
0.126046
0.144226
0.148619
0.143041
0.115694
0.073424
0.035203
-0.000885
-0.057682
-0.107370
-0.145415
-0.159369
-0.171059
-0.162624
-0.136660
-0.090273
-0.039490
-0.004153
0.035985
0.071072
0.102995
0.119382
0.130250
0.139917
0.110633
0.083953
0.023124
0.008106
-0.039860
-0.083489
-0.120332
-0.138637
-0.145565
-0.145338
-0.121455
-0.087989
-0.052142
-0.009907
0.029150
0.070396
0.106704
0.126521
0.131572
0.130108
0.129756
0.098369
0.060609
0.010942
-0.037450
-0.078389
-0.111383
-0.150911
-0.163434
-0.149284
-0.111540
-0.089882
-0.059498
-0.013488
0.036462
0.083582
0.114082
0.150655
0.160459
0.138581
0.111493
0.078390
0.037141
-0.008628
-0.053635
-0.095210
-0.132101
-0.151079
-0.153250
-0.142299
-0.135901
-0.089784
-0.044656
-0.000904
0.054451
0.099170
0.123704
0.145099
0.157793
0.151763
0.132489
0.096684
0.053215
0.002329
-0.042014
-0.095167
-0.126376
-0.146874
-0.166833
-0.145937
-0.102467
-0.066737
-0.036897
0.004140
0.046923
0.083812
0.127694
0.139417
0.164973
0.159686
0.134723
0.097528
0.058069
0.001221
-0.046218
-0.084376
-0.121685
-0.146814
-0.169092
-0.129883
-0.110761
-0.091260
-0.061766
-0.012188
0.035441
0.078153
0.113442
0.131202
0.147308
0.149009
0.126461
0.089639
0.042018
-0.005261
-0.051808
-0.093435
-0.121334
-0.144705
-0.160933
-0.156191
-0.139663
-0.110180
-0.049261
-0.007365
0.025792
0.063299
0.102064
0.120583
0.128915
0.126668
0.103304
0.071348
0.028804
-0.011522
-0.050795
-0.095331
-0.137968
-0.168200
-0.162157
-0.162722
-0.138945
-0.102689
-0.062233
-0.020508
0.026889
0.066289
0.104347
0.139175
0.141374
0.139591
0.116357
0.077980
0.019398
-0.014730
-0.062853
-0.108926
-0.141805
-0.174332
-0.178110
-0.163777
-0.153550
-0.115380
-0.072905
-0.036890
0.012725
0.055933
0.091477
0.111034
0.135742
0.140871
0.114994
0.078475
0.046756
-0.008662
-0.057419
-0.118857
-0.157921
-0.170312
-0.170936
-0.170265
-0.153654
-0.118244
-0.074230
-0.019248
0.034183
0.065714
0.101079
0.113872
0.114177
0.111258
0.076710
0.034972
0.022441
-0.004601
-0.045187
-0.086452
-0.137401
-0.164477
-0.151853
-0.136468
-0.134341
-0.107013
-0.068000
-0.030415
0.027791
0.059571
0.101230
0.129627
0.137819
0.130257
0.100302
0.066067
0.025845
-0.023415
-0.094491
-0.142077
-0.168422
-0.182467
-0.185068
-0.171450
-0.147143
-0.126946
-0.069923
-0.017181
0.037691
0.079797
0.117783
0.139699
0.146571
0.144328
0.124082
0.090137
0.044289
-0.010215
-0.065456
-0.100448
-0.133830
-0.155410
-0.156898
-0.154588
-0.136454
-0.087640
-0.043680
-0.005935
0.046378
0.099648
0.131752
0.169630
0.181946
0.164303
0.146547
0.111840
0.073565
0.018074
-0.035873
-0.090758
-0.120587
-0.149226
-0.147455
-0.155359
-0.136922
-0.096610
-0.041487
0.012071
0.056283
0.099829
0.145870
0.173970
0.184641
0.178573
0.158692
0.123939
0.080011
0.037928
-0.015466
-0.057227
-0.092664
-0.119778
-0.141559
-0.139025
-0.117426
-0.080010
-0.024945
0.030304
0.074451
0.102309
0.128779
0.144507
0.154562
0.145992
0.126943
0.090304
0.050730
-0.003358
-0.046091
-0.095204
-0.135326
-0.159795
-0.167052
-0.164848
-0.142690
-0.112214
-0.066002
-0.012956
0.027526
0.062269
0.094153
0.117789
0.133544
0.127868
0.100770
0.055572
0.016191
-0.022163
-0.079443
-0.121986
-0.156579
-0.174827
-0.185750
-0.181259
-0.159996
-0.128494
-0.086531
-0.063080
-0.018013
0.031723
0.068952
0.088620
0.089341
0.080767
0.077201
0.056875
-0.001812
-0.058744
-0.127604
-0.154827
-0.171259
-0.187014
-0.202250
-0.201962
-0.171438
-0.132096
-0.099452
-0.077453
-0.044563
0.039019
0.070273
0.093770
0.114191
0.099795
0.066663
0.048543
0.015227
-0.046914
-0.089860
-0.120619
-0.150884
-0.173163
-0.186759
-0.194764
-0.171388
-0.133919
-0.091181
-0.055016
-0.005674
0.039178
0.076480
0.097648
0.106755
0.093736
0.071165
0.043827
-0.004430
-0.057672
-0.098342
-0.148082
-0.172451
-0.183510
-0.195783
-0.196228
-0.180767
-0.144946
-0.103456
-0.060162
-0.015697
0.025573
0.063061
0.086668
0.093030
0.086551
0.066663
0.042229
-0.008289
-0.034151
-0.076420
-0.104931
-0.131965
-0.141929
-0.123242
-0.095851
-0.064875
-0.010142
0.048128
0.102177
0.153683
0.215457
0.263135
0.296051
0.348937
0.377444
0.372827
0.373673
0.359875
0.349659
0.328677
0.314439
0.293438
0.298205
0.321051
0.360643
0.413855
0.474542
0.565679
0.653322
0.723980
0.782357
0.816187
0.831992
0.842693
0.823458
0.802714
0.775684
0.721341
0.641724
0.530362
0.403308
0.298923
0.225862
0.165076
0.121484
0.099484
0.094053
0.104317
0.124235
0.148483
0.168930
0.185855
0.195151
0.199209
0.183914
0.166842
0.137550
0.074053
0.039320
-0.012584
-0.053633
-0.080037
-0.098660
-0.110653
-0.111359
-0.109936
-0.072349
-0.019234
0.030318
0.076123
0.122100
0.153146
0.155871
0.156769
0.154128
0.135001
0.091828
0.054647
0.006347
-0.042858
-0.083067
-0.119468
-0.147119
-0.162908
-0.159740
-0.131441
-0.104024
-0.065127
-0.021209
0.024684
0.080274
0.108233
0.132554
0.146985
0.122572
0.119404
0.086899
0.026285
-0.013229
-0.059393
-0.095887
-0.126355
-0.140905
-0.148841
-0.138323
-0.122623
-0.090596
-0.056720
-0.027461
0.031873
0.071716
0.108670
0.143265
0.165584
0.145267
0.127432
0.095305
0.061028
0.012992
-0.026085
-0.067816
-0.103253
-0.131635
-0.146937
-0.144301
-0.114181
-0.088240
-0.044698
-0.010504
0.043512
0.100677
0.148561
0.180346
0.193058
0.175184
0.147458
0.105943
0.061795
0.017766
-0.021146
-0.034359
-0.067078
-0.113317
-0.123271
-0.113391
-0.088819
-0.059287
-0.014119
0.028733
0.079066
0.130816
0.164232
0.190600
0.205297
0.202894
0.180912
0.142525
0.110904
0.063480
0.019700
-0.028055
-0.062201
-0.063712
-0.059178
-0.062074
-0.039981
-0.017316
0.004773
0.059338
0.124585
0.177335
0.217745
0.224743
0.233392
0.231571
0.210743
0.200497
0.155499
0.107777
0.056140
0.012555
-0.017741
-0.044325
-0.063688
-0.056199
-0.050262
-0.007771
0.030487
0.075282
0.140226
0.192925
0.223719
0.246543
0.260092
0.256821
0.233844
0.196745
0.134676
0.118234
0.073642
0.020012
-0.027358
-0.050966
-0.041349
-0.024873
0.006782
0.025339
0.068054
0.112121
0.150394
0.204286
0.240726
0.260422
0.267868
0.267534
0.250472
0.222595
0.161430
0.099151
0.044018
0.000955
-0.033858
-0.055869
-0.057583
-0.050331
-0.007471
0.019627
0.039661
0.103797
0.146760
0.178746
0.207975
0.241892
0.250065
0.244982
0.230361
0.188323
0.146359
0.107806
0.049615
0.005692
-0.032994
-0.071470
-0.059046
-0.061282
-0.041449
-0.013876
0.006518
0.057558
0.106665
0.135664
0.162928
0.185911
0.199401
0.198365
0.176019
0.158318
0.102101
0.045615
-0.007603
-0.047614
-0.095585
-0.118662
-0.104190
-0.109321
-0.108470
-0.081307
-0.036874
0.020496
0.072763
0.103472
0.134781
0.144790
0.146371
0.147260
0.129813
0.103836
0.054945
0.010587
-0.042816
-0.086163
-0.123543
-0.152183
-0.174219
-0.155657
-0.147798
-0.112306
-0.071981
-0.013665
0.027941
0.074259
0.116604
0.127272
0.128641
0.112396
0.083495
0.052424
0.015616
-0.032465
-0.084899
-0.114655
-0.138071
-0.149885
-0.174523
-0.169063
-0.150376
-0.122762
-0.084662
-0.044910
0.013182
0.057274
0.096316
0.118102
0.133881
0.144938
0.109535
0.082602
0.028419
-0.018365
-0.070435
-0.112888
-0.149939
-0.176943
-0.186813
-0.169042
-0.151512
-0.117536
-0.079619
-0.034950
0.016310
0.061650
0.096653
0.122273
0.141092
0.139288
0.124357
0.095368
0.052270
-0.009239
-0.070701
-0.133084
-0.158212
-0.173531
-0.174518
-0.164103
-0.143379
-0.117526
-0.062795
-0.017706
0.015250
0.049583
0.088835
0.112522
0.121991
0.132943
0.109074
0.089144
0.024660
-0.031102
-0.070971
-0.090088
-0.114940
-0.151583
-0.179963
-0.175251
-0.142835
-0.090343
-0.041014
-0.006734
0.021267
0.066830
0.111376
0.128191
0.152395
0.139257
0.125290
0.084477
0.025512
-0.022533
-0.054038
-0.094449
-0.131452
-0.151644
-0.164007
-0.165506
-0.143668
-0.106730
-0.052632
0.001699
0.049250
0.078876
0.109859
0.137323
0.155712
0.132731
0.106889
0.086791
0.041287
0.000202
-0.049676
-0.091856
-0.128474
-0.156460
-0.164207
-0.154538
-0.142604
-0.112442
-0.054370
-0.009013
0.019948
0.054295
0.083052
0.117106
0.126962
0.113100
0.089634
0.079339
0.037750
-0.014312
-0.063735
-0.103014
-0.141451
-0.169732
-0.184986
-0.168630
-0.139529
-0.111184
-0.072896
-0.015010
0.029103
0.058580
0.084301
0.102948
0.116331
0.134231
0.097906
0.053551
0.006463
-0.037021
-0.088291
-0.115922
-0.134993
-0.146918
-0.151156
-0.135730
-0.113231
-0.095259
-0.070439
-0.021604
0.039889
0.083446
0.100272
0.103983
0.124446
0.127049
0.096263
0.064940
0.017202
-0.031416
-0.060972
-0.096217
-0.132789
-0.160636
-0.187395
-0.188534
-0.157506
-0.132040
-0.067427
-0.019673
0.021827
0.046144
0.073916
0.103354
0.113687
0.107855
0.086672
0.069535
0.025674
-0.024477
-0.074912
-0.122180
-0.168527
-0.195133
-0.192182
-0.187447
-0.167853
-0.114026
-0.071708
-0.018709
0.025649
0.052892
0.087828
0.114560
0.127383
0.101706
0.080873
0.060997
0.016183
-0.021295
-0.077558
-0.123554
-0.165657
-0.179662
-0.194917
-0.185847
-0.173114
-0.140414
-0.083756
-0.030620
0.015018
0.048724
0.086400
0.123611
0.128678
0.107679
0.083582
0.052082
0.028308
0.001582
-0.043018
-0.090384
-0.138812
-0.156097
-0.174656
-0.166543
-0.130582
-0.102603
-0.055634
-0.004175
0.039472
0.078481
0.116338
0.148825
0.180236
0.181550
0.141508
0.109749
0.072665
0.012794
-0.037471
-0.069054
-0.110409
-0.146767
-0.156085
-0.141586
-0.115286
-0.075749
-0.039625
-0.003541
0.033073
0.081517
0.126829
0.157598
0.173842
0.165996
0.134857
0.093594
0.055368
0.037697
-0.010820
-0.069932
-0.096618
-0.127200
-0.137598
-0.142513
-0.133551
-0.102055
-0.041577
0.007532
0.067891
0.105534
0.140684
0.153311
0.162442
0.151505
0.129316
0.098401
0.043051
-0.015573
-0.074431
-0.115321
-0.148553
-0.171447
-0.185480
-0.182072
-0.160202
-0.127931
-0.075649
-0.042420
0.004518
0.050163
0.088385
0.118011
0.116625
0.096354
0.083931
0.062682
-0.002266
-0.047656
-0.078436
-0.116894
-0.154636
-0.185853
-0.198318
-0.196409
-0.175678
-0.136064
-0.088235
-0.047379
0.001731
0.041056
0.060012
0.111640
0.123638
0.083466
0.063937
0.036882
-0.009600
-0.052066
-0.104893
-0.135079
-0.179299
-0.199814
-0.217592
-0.203337
-0.182530
-0.147699
-0.103876
-0.062779
-0.012033
0.030866
0.062176
0.084622
0.089552
0.084572
0.063676
0.034117
-0.014673
-0.050820
-0.103657
-0.146901
-0.184402
-0.201168
-0.228632
-0.239201
-0.212933
-0.182222
-0.122461
-0.041308
0.014112
0.040330
0.086339
0.109894
0.113940
0.092744
0.055644
0.034001
-0.017214
-0.065407
-0.116083
-0.160153
-0.205850
-0.228219
-0.227923
-0.209871
-0.187308
-0.156849
-0.116443
-0.076167
-0.033694
0.021136
0.056809
0.087392
0.106771
0.094950
0.073953
0.045722
0.007521
-0.020337
-0.058030
-0.101905
-0.130155
-0.139458
-0.125613
-0.099461
-0.068675
-0.031251
0.036031
0.086882
0.131592
0.198577
0.248943
0.293152
0.341564
0.369179
0.368159
0.374712
0.351516
0.346438
0.315073
0.294668
0.299878
0.303987
0.310604
0.358212
0.419361
0.489519
0.579389
0.661954
0.741132
0.820582
0.868998
0.892167
0.896020
0.878689
0.826751
0.779787
0.719238
0.638094
0.546007
0.445575
0.340461
0.243998
0.170375
0.141111
0.098479
0.094328
0.097132
0.123378
0.138368
0.158872
0.192155
0.206343
0.200220
0.188625
0.152527
0.129521
0.099267
0.058024
0.007179
-0.037116
-0.075808
-0.101005
-0.109525
-0.104322
-0.084233
-0.061022
-0.013945
0.027873
0.077421
0.110856
0.134021
0.156341
0.164638
0.157765
0.137500
0.110546
0.065332
0.013160
-0.033945
-0.094780
-0.126887
-0.144272
-0.153395
-0.153188
-0.127078
-0.109406
-0.060949
-0.011626
0.048201
0.083118
0.111395
0.140481
0.161079
0.152111
0.110439
0.073591
0.029394
-0.021306
-0.074091
-0.113927
-0.141734
-0.146083
-0.155559
-0.142512
-0.114581
-0.085917
-0.044219
0.000336
0.043094
0.086802
0.110055
0.130041
0.144657
0.145471
0.134746
0.109573
0.066339
0.023584
-0.011884
-0.089543
-0.126783
-0.147269
-0.156745
-0.142736
-0.116242
-0.098361
-0.046000
-0.004160
0.047053
0.102386
0.126355
0.130445
0.175071
0.190515
0.166641
0.120143
0.076073
0.034736
-0.003642
-0.044204
-0.076236
-0.101522
-0.105821
-0.095191
-0.065854
-0.047812
0.001513
0.044312
0.086243
0.135861
0.162364
0.181995
0.200939
0.201826
0.189998
0.151484
0.090367
0.052894
0.009051
-0.029083
-0.058049
-0.076349
-0.099526
-0.092853
-0.066075
-0.040917
0.001448
0.049584
0.115276
0.181467
0.222503
0.239640
0.230285
0.228215
0.220131
0.200802
0.151123
0.082324
0.032552
-0.011213
-0.036467
-0.051987
-0.052295
-0.028650
-0.011682
0.003912
0.052535
0.094746
0.135595
0.184735
0.219135
0.241172
0.268199
0.278322
0.267045
0.228341
0.191852
0.141779
0.082771
0.032921
-0.003030
-0.020292
-0.031916
-0.019547
-0.003809
0.021411
0.068287
0.118925
0.157462
0.195503
0.229656
0.255184
0.267004
0.260124
0.235165
0.209749
0.158272
0.116702
0.067330
0.023852
-0.014663
-0.038328
-0.054983
-0.051050
-0.022284
-0.001281
0.039092
0.075152
0.108080
0.172142
0.203382
0.221849
0.241364
0.253688
0.230118
0.191127
0.148213
0.110059
0.064731
0.018160
-0.033492
-0.069931
-0.077542
-0.065212
-0.053463
-0.032334
0.018168
0.058543
0.105229
0.140191
0.173010
0.187476
0.204165
0.184235
0.157041
0.116472
0.063874
0.037990
-0.013248
-0.059538
-0.093030
-0.100115
-0.112788
-0.122102
-0.096257
-0.073054
-0.029165
0.018024
0.067343
0.107624
0.130175
0.150252
0.156585
0.153061
0.128541
0.116217
0.051504
-0.002489
-0.050828
-0.096500
-0.128971
-0.148444
-0.163330
-0.158199
-0.150135
-0.110690
-0.066848
-0.020367
0.032478
0.077443
0.116462
0.132886
0.143817
0.135709
0.119024
0.080190
0.033986
-0.022354
-0.063584
-0.110750
-0.136005
-0.158448
-0.159162
-0.165328
-0.146552
-0.118429
-0.072743
-0.025081
0.038047
0.087539
0.122710
0.147037
0.149348
0.125433
0.096313
0.063210
0.018600
-0.029174
-0.085847
-0.106030
-0.152621
-0.191109
-0.186082
-0.154640
-0.141628
-0.112266
-0.059392
-0.001615
0.040310
0.076381
0.110562
0.132969
0.148601
0.156720
0.125782
0.080605
0.029540
-0.019051
-0.059002
-0.103223
-0.147132
-0.175930
-0.175684
-0.156714
-0.135821
-0.105843
-0.056191
-0.003155
0.043417
0.072189
0.120667
0.150176
0.153790
0.146424
0.123894
0.098154
0.043283
-0.003161
-0.052551
-0.090897
-0.127384
-0.152639
-0.169656
-0.158100
-0.140812
-0.094080
-0.047497
-0.003007
0.036101
0.078340
0.116011
0.146008
0.167967
0.137122
0.118999
0.096560
0.061272
0.003145
-0.056087
-0.096112
-0.146901
-0.147535
-0.156545
-0.153555
-0.134322
-0.089316
-0.035319
0.007260
0.052376
0.085258
0.105997
0.144197
0.163762
0.150284
0.121416
0.106080
0.066623
-0.001567
-0.051864
-0.081304
-0.118330
-0.142307
-0.162861
-0.147378
-0.128927
-0.105056
-0.057561
-0.004990
0.042416
0.074816
0.104131
0.154866
0.175841
0.169133
0.135751
0.085234
0.037503
-0.008546
-0.056171
-0.096847
-0.103802
-0.125853
-0.162658
-0.159544
-0.137952
-0.098310
-0.051873
-0.007752
0.035873
0.085614
0.116994
0.144166
0.161850
0.148727
0.130836
0.103646
0.048608
0.012100
-0.038122
-0.101290
-0.139488
-0.161983
-0.175840
-0.161586
-0.149103
-0.120867
-0.066763
-0.014684
0.029095
0.083628
0.102943
0.112194
0.118791
0.126979
0.105131
0.065472
0.020117
-0.024233
-0.054228
-0.101680
-0.147146
-0.156875
-0.163219
-0.141983
-0.118418
-0.095251
-0.055728
-0.008669
0.030387
0.081266
0.114083
0.139147
0.154353
0.133014
0.120459
0.075680
0.026395
-0.028471
-0.069824
-0.109567
-0.148372
-0.154599
-0.172325
-0.179056
-0.172566
-0.139344
-0.094271
-0.037873
0.009569
0.066152
0.114310
0.150059
0.156131
0.140629
0.112504
0.075968
0.038566
0.002509
-0.061884
-0.109616
-0.144670
-0.150933
-0.166837
-0.147523
-0.123922
-0.101156
-0.070581
-0.018325
0.021069
0.067878
0.111337
0.132332
0.134540
0.160575
0.135647
0.094453
0.037573
-0.015483
-0.039642
-0.081642
-0.115763
-0.156508
-0.178208
-0.153806
-0.122277
-0.081406
-0.044478
-0.004342
0.049975
0.100972
0.127502
0.145168
0.154233
0.160205
0.139227
0.103441
0.055375
0.016073
-0.038407
-0.074998
-0.103546
-0.125045
-0.127887
-0.129303
-0.118705
-0.080349
-0.041859
0.008433
0.064448
0.113699
0.138691
0.164296
0.176157
0.162137
0.143794
0.112946
0.072209
0.024615
-0.015765
-0.066003
-0.116979
-0.126587
-0.106707
-0.097452
-0.084444
-0.059996
-0.029719
0.009718
0.063215
0.110650
0.154749
0.180672
0.197323
0.183242
0.158287
0.114606
0.044903
-0.003035
-0.033189
-0.070158
-0.093454
-0.116146
-0.150292
-0.141875
-0.124251
-0.088049
-0.042492
0.004345
0.033760
0.082547
0.115344
0.139521
0.147569
0.142568
0.123166
0.091060
0.044296
-0.010404
-0.066594
-0.106585
-0.146585
-0.181967
-0.192069
-0.187871
-0.160378
-0.132388
-0.099515
-0.064507
0.042377
0.093212
0.085130
0.088876
0.128624
0.110896
0.086337
0.059928
0.007427
-0.024793
-0.082665
-0.145016
-0.178157
-0.185681
-0.206013
-0.198616
-0.182512
-0.139733
-0.100153
-0.023965
0.021834
0.060088
0.085974
0.095707
0.105126
0.104897
0.081617
0.048402
0.013218
-0.041648
-0.088679
-0.131295
-0.168297
-0.193061
-0.202972
-0.198386
-0.168060
-0.146513
-0.094541
-0.048966
-0.000236
0.043300
0.082104
0.093426
0.111739
0.103984
0.085263
0.051813
0.001252
-0.044863
-0.096145
-0.153042
-0.189426
-0.212354
-0.219460
-0.208218
-0.170308
-0.135303
-0.091808
-0.042609
-0.004120
0.042391
0.074309
0.089370
0.093133
0.085661
0.078939
0.036902
-0.000978
-0.061269
-0.102216
-0.127725
-0.155428
-0.188182
-0.188872
-0.172182
-0.139091
-0.093576
-0.037660
0.031180
0.100419
0.165313
0.219970
0.236723
0.253109
0.247778
0.246322
0.231419
0.210809
0.174948
0.166002
0.159563
0.152479
0.167337
0.188561
0.212555
0.274724
0.345590
0.430858
0.502247
0.576937
0.655600
0.733865
0.808036
0.856070
0.890208
0.883510
0.874510
0.819568
0.751674
0.720128
0.650214
0.583786
0.541466
0.500167
0.494780
0.455269
0.412069
0.390621
0.365378
0.398147
0.388846
0.364984
0.333338
0.319404
0.297519
0.259684
0.217108
0.156649
0.109396
0.075445
0.035174
-0.026723
-0.066582
-0.097287
-0.097679
-0.070362
-0.025727
0.020246
0.052009
0.094998
0.157657
0.180707
0.180815
0.180112
0.167212
0.142051
0.113882
0.067436
0.024335
-0.023950
-0.078076
-0.124520
-0.140010
-0.160818
-0.140838
-0.117547
-0.092318
-0.038886
0.011586
0.056259
0.101712
0.140315
0.158587
0.155379
0.157246
0.145836
0.121905
0.077730
0.028763
-0.023199
-0.076493
-0.108968
-0.131141
-0.150098
-0.145396
-0.128454
-0.100240
-0.049806
-0.002244
0.050358
0.094300
0.122971
0.145735
0.159972
0.144963
0.124023
0.106840
0.065246
0.012435
-0.040583
-0.071089
-0.112671
-0.133566
-0.139073
-0.124294
-0.110903
-0.070762
-0.031075
0.017408
0.058563
0.100657
0.137978
0.169978
0.185756
0.183193
0.161062
0.121206
0.067667
0.013979
-0.030710
-0.081503
-0.116595
-0.128456
-0.149761
-0.129330
-0.101562
-0.071083
-0.024575
0.042264
0.103986
0.139694
0.172871
0.193959
0.210602
0.187212
0.162332
0.143837
0.105154
0.054581
0.010693
-0.036088
-0.089479
-0.090334
-0.100135
-0.081661
-0.043515
-0.004803
0.031220
0.073509
0.112382
0.152826
0.190207
0.217679
0.238784
0.239078
0.229642
0.190202
0.137941
0.095962
0.045586
0.003623
-0.019361
-0.030768
-0.036974
-0.025329
-0.013881
0.009148
0.057958
0.101075
0.162939
0.207428
0.249305
0.264601
0.277318
0.264960
0.253953
0.224171
0.172988
0.119487
0.081519
0.057957
0.017457
-0.005773
-0.032027
-0.019653
-0.001562
0.033533
0.081894
0.125023
0.167674
0.203122
0.244167
0.263037
0.275638
0.264914
0.241994
0.203544
0.172075
0.130687
0.083882
0.033457
0.003145
-0.018564
-0.032602
-0.024489
-0.000599
0.019214
0.059146
0.101308
0.144287
0.194888
0.223331
0.249128
0.267133
0.239439
0.206513
0.178657
0.142903
0.096802
0.060115
0.015951
-0.013421
-0.052353
-0.064950
-0.059741
-0.044906
-0.007362
0.043213
0.082077
0.110239
0.138696
0.156393
0.191080
0.218745
0.223284
0.182164
0.152130
0.112136
0.064059
0.020736
-0.024487
-0.061732
-0.085766
-0.104330
-0.099922
-0.076421
-0.059553
-0.027633
0.003480
0.069185
0.122282
0.152776
0.172836
0.177031
0.172203
0.140539
0.089135
0.055402
0.008635
-0.036817
-0.066168
-0.101041
-0.126447
-0.146759
-0.126339
-0.104415
-0.090903
-0.050949
0.002111
0.051025
0.091665
0.119050
0.130495
0.151574
0.134397
0.119401
0.096907
0.066302
0.005425
-0.053134
-0.094803
-0.124779
-0.145657
-0.180305
-0.175320
-0.160466
-0.121945
-0.057005
-0.006661
0.021504
0.056419
0.090916
0.126244
0.137959
0.136103
0.113050
0.071862
0.029987
-0.017440
-0.067352
-0.110330
-0.144881
-0.166691
-0.180469
-0.159512
-0.144333
-0.121252
-0.072568
-0.015057
0.031337
0.070845
0.109776
0.134429
0.143711
0.132335
0.113374
0.093036
0.036301
-0.031442
-0.071993
-0.114885
-0.162939
-0.199267
-0.161103
-0.146127
-0.138417
-0.112036
-0.076912
-0.035186
0.013069
0.066809
0.104019
0.127704
0.149007
0.136083
0.117314
0.093086
0.058296
0.005862
-0.045261
-0.099410
-0.129572
-0.144185
-0.172919
-0.159351
-0.120884
-0.109179
-0.066571
-0.008666
0.057162
0.096630
0.119273
0.142627
0.161232
0.151583
0.121248
0.085387
0.046011
-0.021101
-0.070723
-0.120983
-0.171984
-0.166440
-0.163604
-0.141531
-0.115416
-0.083483
-0.044366
0.001736
0.048734
0.083305
0.124054
0.147636
0.159577
0.158048
0.145870
0.095614
0.048248
0.003749
-0.046726
-0.097599
-0.131490
-0.147706
-0.160827
-0.150590
-0.126696
-0.086110
-0.052721
-0.002895
0.037097
0.079098
0.119430
0.134338
0.141487
0.144257
0.140413
0.087029
0.029620
-0.033298
-0.069828
-0.105865
-0.141388
-0.151780
-0.169967
-0.160956
-0.136650
-0.094133
-0.054378
-0.006360
0.033242
0.078282
0.107789
0.134863
0.145963
0.128749
0.129888
0.105760
0.033566
-0.032366
-0.074951
-0.109714
-0.140668
-0.185207
-0.199343
-0.189415
-0.127403
-0.077684
-0.041315
-0.001080
0.039913
0.078656
0.109150
0.132875
0.146318
0.139002
0.120323
0.084609
0.037765
-0.016920
-0.063334
-0.107773
-0.148582
-0.171875
-0.172620
-0.154649
-0.127726
-0.099509
-0.071206
-0.024006
0.019822
0.060449
0.098913
0.125653
0.142847
0.133134
0.111874
0.071699
0.009075
-0.039390
-0.073634
-0.122311
-0.157550
-0.191172
-0.194839
-0.193065
-0.164791
-0.130945
-0.081506
-0.038979
0.038067
0.072817
0.093375
0.106849
0.116791
0.104411
0.087298
0.047720
0.006268
-0.037901
-0.081734
-0.123192
-0.157476
-0.168530
-0.186981
-0.200774
-0.166759
-0.102337
-0.072243
-0.044077
-0.001455
0.036606
0.067062
0.101252
0.125552
0.117558
0.078341
0.027341
-0.015787
-0.068296
-0.114354
-0.117213
-0.138633
-0.174912
-0.204260
-0.172922
-0.146343
-0.106029
-0.067507
-0.015594
0.023941
0.060990
0.097381
0.120955
0.138416
0.129024
0.102624
0.058201
0.009318
-0.040159
-0.084325
-0.122638
-0.159458
-0.185268
-0.198617
-0.188086
-0.165845
-0.122511
-0.084558
-0.030991
0.023021
0.059516
0.092874
0.107076
0.126722
0.132233
0.101953
0.071332
0.013005
-0.042945
-0.076121
-0.110485
-0.145928
-0.154387
-0.163029
-0.138668
-0.124793
-0.098501
-0.061648
-0.008528
0.041024
0.087164
0.115023
0.139424
0.150029
0.137350
0.119992
0.075832
0.041450
-0.009122
-0.071161
-0.111271
-0.139868
-0.159925
-0.167097
-0.150760
-0.125638
-0.090976
-0.047368
-0.008652
0.027409
0.086006
0.112087
0.134884
0.143641
0.141563
0.121233
0.088316
0.050802
0.021210
-0.006687
-0.038299
-0.079262
-0.106197
-0.129150
-0.117199
-0.104982
-0.062164
-0.018519
0.022430
0.058323
0.093844
0.125502
0.146391
0.152607
0.142538
0.117684
0.082811
0.034120
-0.026452
-0.088081
-0.136861
-0.130312
-0.163077
-0.193557
-0.187469
-0.142032
-0.100434
-0.064551
-0.017220
0.024158
0.053596
0.083296
0.111282
0.118225
0.102742
0.078128
0.049460
0.011739
-0.037489
-0.093552
-0.139372
-0.177071
-0.208484
-0.228729
-0.204763
-0.180829
-0.159393
-0.116107
-0.073804
-0.026996
0.030261
0.081030
0.117359
0.118522
0.100932
0.059875
0.009820
-0.033482
-0.076067
-0.111582
-0.147181
-0.184370
-0.212130
-0.224394
-0.207391
-0.194966
-0.153925
-0.119910
-0.075971
-0.035394
0.011281
0.043588
0.054731
0.060892
0.063921
0.045552
0.002434
-0.044733
-0.082489
-0.119024
-0.159847
-0.203852
-0.218373
-0.236975
-0.231388
-0.211113
-0.159346
-0.093402
-0.050070
-0.001550
0.034982
0.067902
0.087788
0.084318
0.069489
0.048136
0.018158
-0.022196
-0.074300
-0.108131
-0.151386
-0.173976
-0.203616
-0.216475
-0.216946
-0.199113
-0.155086
-0.104483
-0.064819
-0.021677
0.017816
0.031612
0.053192
0.071132
0.054479
0.041259
0.016836
-0.024704
-0.065556
-0.102563
-0.149311
-0.184766
-0.225361
-0.224491
-0.213053
-0.181875
-0.125068
-0.062218
0.005511
0.065660
0.118012
0.165580
0.206062
0.242417
0.247654
0.241033
0.216083
0.178533
0.160759
0.144022
0.123790
0.126019
0.131119
0.173567
0.224721
0.278156
0.331199
0.440917
0.511223
0.585850
0.668087
0.757735
0.805890
0.848502
0.878544
0.885835
0.861950
0.811226
0.766016
0.722464
0.652404
0.595124
0.547612
0.507058
0.481945
0.447710
0.409282
0.366277
0.353705
0.352538
0.353395
0.331862
0.302677
0.275166
0.257272
0.247955
0.213681
0.160191
0.090386
0.043675
0.008266
-0.053679
-0.092391
-0.101917
-0.102123
-0.097055
-0.079718
-0.023311
0.020528
0.053877
0.080716
0.106802
0.145159
0.175714
0.153574
0.112363
0.090350
0.050880
-0.014817
-0.059640
-0.093383
-0.120704
-0.133192
-0.147651
-0.146101
-0.138956
-0.112857
-0.085888
-0.019638
0.019113
0.061683
0.104385
0.123222
0.114552
0.115100
0.104132
0.073942
0.024443
-0.020743
-0.076035
-0.125962
-0.166499
-0.189545
-0.200954
-0.168119
-0.146723
-0.126117
-0.088427
-0.045089
0.004363
0.045961
0.090590
0.113198
0.136164
0.128595
0.103704
0.068942
0.013621
-0.030731
-0.080778
-0.098409
-0.121449
-0.165056
-0.177356
-0.174124
-0.161465
-0.115291
-0.060050
-0.023889
0.021726
0.069537
0.101612
0.118106
0.134129
0.136033
0.123431
0.082302
0.030443
-0.021602
-0.074263
-0.107029
-0.130938
-0.147406
-0.140259
-0.149447
-0.129425
-0.090770
-0.043430
0.004480
0.069865
0.104821
0.143282
0.160237
0.169977
0.176156
0.155391
0.110660
0.069029
0.032643
-0.018385
-0.071413
-0.092435
-0.106895
-0.119288
-0.121236
-0.098173
-0.057225
-0.018805
0.034314
0.073313
0.128885
0.166736
0.185341
0.194870
0.197020
0.193559
0.151723
0.098913
0.049249
0.004672
-0.030917
-0.073865
-0.076421
-0.079189
-0.067278
-0.046820
-0.025088
0.012504
0.054328
0.099526
0.158598
0.194282
0.227543
0.240791
0.229581
0.203396
0.181208
0.136869
0.082851
0.042514
-0.004562
-0.043761
-0.077298
-0.088053
-0.080852
-0.040864
0.004749
0.037373
0.109278
0.172074
0.202965
0.213076
0.240149
0.247200
0.249656
0.222452
0.185090
0.146600
0.081649
0.015501
-0.037868
-0.070464
-0.086158
-0.076747
-0.063407
-0.041030
-0.012660
0.024345
0.084701
0.129456
0.158199
0.186838
0.219401
0.228603
0.217220
0.191291
0.167269
0.120035
0.073616
0.023209
-0.018395
-0.067316
-0.091774
-0.090199
-0.085922
-0.088646
-0.046106
-0.002164
0.051789
0.089932
0.128103
0.171464
0.180823
0.187451
0.188592
0.163514
0.119415
0.069192
0.019556
-0.037624
-0.076214
-0.117338
-0.161094
-0.157345
-0.136739
-0.110861
-0.078157
-0.044790
0.001653
0.051281
0.099968
0.112839
0.138433
0.128788
0.118945
0.108662
0.080085
0.037408
-0.017774
-0.080634
-0.135622
-0.169648
-0.181270
-0.200511
-0.214394
-0.186263
-0.135839
-0.064853
-0.031734
0.012275
0.052350
0.089817
0.106181
0.109392
0.093608
0.074037
0.036137
-0.001417
-0.033745
-0.084398
-0.124627
-0.173224
-0.202616
-0.214632
-0.205707
-0.185812
-0.131275
-0.099136
-0.051645
-0.006313
0.032584
0.065283
0.095935
0.102402
0.094846
0.070705
0.039339
-0.006662
-0.062262
-0.112500
-0.172551
-0.209496
-0.213534
-0.225670
-0.225285
-0.190297
-0.157342
-0.099098
-0.046290
0.000217
0.035549
0.066436
0.084266
0.094492
0.089948
0.071574
0.028649
-0.013191
-0.071089
-0.127632
-0.153112
-0.179083
-0.203178
-0.221990
-0.208004
-0.170457
-0.123363
-0.078172
-0.039889
0.001941
0.048750
0.082723
0.094956
0.089999
0.091853
0.070300
0.033328
-0.015215
-0.064100
-0.101766
-0.135558
-0.175903
-0.211120
-0.218863
-0.197547
-0.179033
-0.154766
-0.096324
-0.064450
-0.045411
-0.013855
0.073468
0.097630
0.095410
0.086821
0.070327
0.022221
-0.014794
-0.072997
-0.119629
-0.132733
-0.159619
-0.187503
-0.194736
-0.190410
-0.150457
-0.114601
-0.085507
-0.060052
-0.022790
0.039923
0.077838
0.094820
0.113680
0.102294
0.068011
0.032573
-0.007553
-0.049975
-0.085445
-0.111585
-0.147251
-0.190812
-0.207984
-0.183028
-0.162654
-0.136540
-0.108241
-0.067765
-0.011201
0.032263
0.071398
0.104658
0.100473
0.083987
0.064732
0.043326
-0.001702
-0.042210
-0.100755
-0.145549
-0.178606
-0.204051
-0.204240
-0.179757
-0.171103
-0.126453
-0.091050
-0.060129
-0.017713
0.016983
0.061973
0.091352
0.105100
0.087423
0.053636
0.033132
0.014676
-0.037606
-0.093446
-0.141999
-0.180530
-0.205799
-0.217336
-0.201576
-0.185815
-0.176520
-0.099736
-0.059057
-0.017242
0.027845
0.055533
0.074280
0.094146
0.086737
0.067358
0.023608
-0.010860
-0.054892
-0.101580
-0.162560
-0.199249
-0.217438
-0.200966
-0.170511
-0.164796
-0.144048
-0.117307
-0.063015
-0.008250
0.020016
0.065419
0.094744
0.096484
0.091922
0.058291
0.026306
-0.020434
-0.068871
-0.122244
-0.162222
-0.205897
-0.232226
-0.254012
-0.245116
-0.218611
-0.177246
-0.125804
-0.065193
-0.000494
0.031590
0.038940
0.057725
0.073019
0.066911
0.044764
0.019237
-0.026830
-0.041182
-0.087575
-0.164452
-0.204907
-0.234281
-0.236727
-0.233577
-0.204537
-0.153059
-0.115536
-0.062233
-0.019864
0.021939
0.057548
0.075955
0.083924
0.073158
0.049629
0.008794
-0.027576
-0.072041
-0.127069
-0.169064
-0.199266
-0.222534
-0.234238
-0.232560
-0.209744
-0.154827
-0.108716
-0.054511
-0.026561
0.015381
0.041799
0.057450
0.075579
0.075561
0.052009
0.004801
-0.030211
-0.071612
-0.122844
-0.167992
-0.209744
-0.237702
-0.249866
-0.229871
-0.217616
-0.181828
-0.134996
-0.083746
-0.032499
0.016336
0.060597
0.092173
0.085551
0.058874
0.029814
-0.000800
-0.010186
-0.059970
-0.104574
-0.152836
-0.195968
-0.237148
-0.251327
-0.241181
-0.220540
-0.176634
-0.137117
-0.087182
-0.030003
0.001785
0.038285
0.077213
0.091608
0.077645
0.048496
0.018111
-0.017488
-0.078611
-0.138363
-0.178708
-0.202433
-0.217051
-0.214080
-0.232467
-0.206573
-0.169380
-0.129813
-0.090614
-0.035705
0.001320
0.041918
0.060413
0.076331
0.070515
0.067978
0.031814
-0.012930
-0.061689
-0.115675
-0.174733
-0.209391
-0.240180
-0.258908
-0.242635
-0.207648
-0.161859
-0.131998
-0.076093
-0.023862
0.023587
0.056366
0.072805
0.087589
0.081269
0.068826
0.040551
-0.012025
-0.058456
-0.109144
-0.158699
-0.204912
-0.207478
-0.197982
-0.187158
-0.164606
-0.138607
-0.092112
-0.048127
0.012347
0.056288
0.101914
0.128349
0.125658
0.109477
0.082568
0.049176
0.003497
-0.038647
-0.099944
-0.153594
-0.183747
-0.206955
-0.209114
-0.206678
-0.169584
-0.112464
-0.075326
-0.030508
0.030733
0.066564
0.096705
0.124258
0.137105
0.125901
0.103980
0.055039
0.014480
-0.030710
-0.091866
-0.137941
-0.196874
-0.217799
-0.218812
-0.202361
-0.171169
-0.123696
-0.091618
-0.066218
-0.022907
0.017837
0.061571
0.101546
0.111498
0.091240
0.071941
0.022848
-0.018989
-0.072301
-0.124151
-0.172782
-0.215659
-0.240635
-0.221064
-0.220545
-0.208179
-0.178103
-0.137529
-0.076246
-0.026596
0.015198
0.038158
0.049854
0.043015
0.026995
0.012521
-0.024598
-0.067222
-0.111779
-0.155747
-0.180113
-0.212381
-0.243545
-0.257398
-0.248043
-0.227731
-0.200728
-0.150792
-0.106877
-0.056467
-0.011560
0.013829
0.042031
0.062941
0.040932
0.006902
-0.036317
-0.078525
-0.110893
-0.142507
-0.183742
-0.218606
-0.238361
-0.240075
-0.233782
-0.221716
-0.187116
-0.142455
-0.086934
-0.042323
-0.002283
0.028596
0.061464
0.064549
0.051534
0.025873
-0.005018
-0.048044
-0.107776
-0.162924
-0.198992
-0.239234
-0.265536
-0.276594
-0.263808
-0.233353
-0.197236
-0.153109
-0.112689
-0.070421
-0.035516
0.024214
0.045201
0.055638
0.048712
0.022746
-0.023315
-0.074536
-0.119985
-0.169397
-0.210116
-0.240175
-0.264217
-0.266936
-0.256973
-0.229293
-0.185369
-0.153201
-0.104339
-0.060267
-0.009302
0.031496
0.060490
0.063366
0.056677
0.056485
0.042497
0.009265
-0.035263
-0.089232
-0.112280
-0.146163
-0.140741
-0.132660
-0.097716
-0.051306
0.016604
0.075341
0.149882
0.211215
0.271640
0.357319
0.412993
0.461039
0.486167
0.497823
0.491834
0.486845
0.471110
0.454275
0.447338
0.476682
0.481275
0.502010
0.542723
0.604876
0.645971
0.685556
0.726329
0.784717
0.789477
0.798116
0.796640
0.783017
0.728666
0.638268
0.531547
0.420557
0.321649
0.221920
0.125008
0.044227
-0.030305
-0.068576
-0.077578
-0.072776
-0.037489
-0.002177
0.040453
0.105432
0.141245
0.155608
0.172427
0.168978
0.142261
0.119800
0.096344
0.050939
-0.008360
-0.054008
-0.101322
-0.137727
-0.164527
-0.173086
-0.170079
-0.145590
-0.102410
-0.057924
-0.025852
0.009364
0.044743
0.082948
0.103847
0.110792
0.111503
0.082867
0.026684
-0.024726
-0.081991
-0.107593
-0.140693
-0.190741
-0.208960
-0.220466
-0.204254
-0.191334
-0.139021
-0.062036
-0.038721
-0.028417
0.011079
0.068132
0.096186
0.108571
0.095821
0.072400
0.041268
-0.003718
-0.051183
-0.094884
-0.132373
-0.169237
-0.192078
-0.206500
-0.199545
-0.175085
-0.132073
-0.103627
-0.055936
-0.009072
0.037288
0.073355
0.101686
0.106269
0.093469
0.072671
0.041019
0.000476
-0.042792
-0.092281
-0.129158
-0.165347
-0.190324
-0.192838
-0.188331
-0.169057
-0.131447
-0.074900
-0.020484
0.026384
0.059366
0.087138
0.125525
0.121325
0.115201
0.104454
0.071717
0.026109
-0.027978
-0.091460
-0.106548
-0.137413
-0.173259
-0.176000
-0.153834
-0.129557
-0.083300
-0.039299
0.004755
0.048217
0.095863
0.138593
0.154302
0.159758
0.153621
0.127986
0.082013
0.044706
0.013992
-0.023466
-0.070663
-0.105319
-0.126657
-0.122701
-0.105483
-0.079545
-0.050004
-0.000469
0.044854
0.089237
0.134469
0.161149
0.175444
0.172580
0.162644
0.145277
0.109707
0.087819
0.063329
0.027841
-0.018596
-0.068976
-0.092265
-0.102837
-0.093126
-0.062285
-0.031870
-0.001321
0.050003
0.117713
0.171123
0.196293
0.220862
0.220326
0.208866
0.182974
0.139754
0.090770
0.050382
0.023115
-0.013574
-0.045725
-0.063845
-0.074928
-0.084715
-0.074268
-0.031446
0.025926
0.070033
0.113380
0.143657
0.174759
0.204137
0.200518
0.192046
0.184891
0.151644
0.112068
0.060438
-0.002805
-0.022311
-0.042269
-0.066302
-0.073922
-0.076552
-0.068018
-0.038144
0.002802
0.039654
0.082273
0.130359
0.159316
0.200667
0.199625
0.181200
0.160216
0.118359
0.078560
0.032558
-0.014054
-0.060950
-0.089502
-0.120957
-0.130512
-0.141513
-0.126948
-0.082492
-0.041537
-0.006140
0.031495
0.071941
0.101847
0.154337
0.156535
0.158250
0.134075
0.083572
0.037471
-0.017819
-0.068699
-0.120427
-0.155659
-0.177438
-0.175410
-0.168516
-0.168297
-0.128430
-0.095419
-0.053700
-0.010706
0.025317
0.074364
0.120714
0.105773
0.080505
0.056866
0.013727
-0.012455
-0.052873
-0.085525
-0.119297
-0.153861
-0.188241
-0.198248
-0.204527
-0.189699
-0.147319
-0.109904
-0.067812
-0.030810
0.017008
0.053069
0.078743
0.086030
0.065660
0.048048
0.008855
-0.032531
-0.077951
-0.109670
-0.153334
-0.174672
-0.199144
-0.202363
-0.208766
-0.187691
-0.143893
-0.112643
-0.074941
-0.035947
0.015370
0.046804
0.067876
0.074127
0.062866
0.084671
0.025489
-0.042453
-0.090407
-0.133424
-0.170490
-0.185433
-0.215261
-0.231098
-0.222469
-0.205635
-0.173444
-0.108284
-0.057651
-0.028970
0.000556
0.034616
0.064484
0.078808
0.077532
0.067417
0.041956
0.005235
-0.046826
-0.107258
-0.158774
-0.173731
-0.209856
-0.218482
-0.207057
-0.187083
-0.163101
-0.113639
-0.054223
-0.012303
0.019286
0.048024
0.089484
0.084256
0.062131
0.050885
0.025415
-0.010134
-0.063908
-0.122202
-0.161327
-0.196663
-0.230981
-0.227477
-0.213385
-0.193551
-0.156874
-0.105622
-0.069390
-0.017882
0.031932
0.069643
0.089678
0.093739
0.092497
0.080041
0.033124
-0.004902
-0.050255
-0.099294
-0.143681
-0.172475
-0.219432
-0.229490
-0.203469
-0.198761
-0.167396
-0.105836
-0.046103
-0.006007
0.034577
0.071773
0.110445
0.119534
0.102812
0.072331
0.031191
-0.006313
-0.040777
-0.095517
-0.150777
-0.177585
-0.194286
-0.193874
-0.207938
-0.203278
-0.176089
-0.103634
-0.064083
-0.013846
0.030673
0.065832
0.091771
0.095010
0.086120
0.062206
0.032865
-0.010942
-0.067111
-0.109932
-0.149846
-0.187790
-0.226191
-0.229788
-0.223001
-0.184566
-0.145253
-0.079476
-0.041276
-0.022327
0.024123
0.049369
0.070689
0.074116
0.065942
0.046796
0.023536
-0.017559
-0.061550
-0.115302
-0.165509
-0.193393
-0.237450
-0.244242
-0.238719
-0.204520
-0.171116
-0.140661
-0.095054
-0.029205
0.025063
0.065508
0.089757
0.090037
0.082256
0.070134
0.037822
-0.018042
-0.071416
-0.126703
-0.161935
-0.195365
-0.220125
-0.231773
-0.217382
-0.191246
-0.151354
-0.098715
-0.063075
-0.025501
0.020864
0.065770
0.088259
0.088271
0.078959
0.046816
0.003640
-0.039608
-0.079841
-0.123609
-0.170433
-0.196796
-0.231337
-0.237737
-0.228395
-0.209533
-0.167509
-0.125837
-0.075980
-0.018475
0.030576
0.059366
0.085024
0.096710
0.078329
0.055342
0.014989
-0.021202
-0.075410
-0.122560
-0.178014
-0.197864
-0.215412
-0.230700
-0.235193
-0.220938
-0.197964
-0.120255
-0.069598
-0.037485
0.015998
0.043614
0.060975
0.067257
0.059354
0.040917
0.011736
-0.043425
-0.068177
-0.113087
-0.171841
-0.202606
-0.230465
-0.237737
-0.230930
-0.213969
-0.181643
-0.141921
-0.093061
-0.046342
-0.014231
0.023358
0.071322
0.075825
0.089876
0.073147
0.030885
-0.022807
-0.075599
-0.134633
-0.158133
-0.189624
-0.226808
-0.232745
-0.218707
-0.207184
-0.185916
-0.142885
-0.099774
-0.053331
-0.002962
0.034804
0.059072
0.069893
0.067290
0.031787
0.010831
-0.027466
-0.075484
-0.132308
-0.171127
-0.215286
-0.241489
-0.238327
-0.221585
-0.199570
-0.162447
-0.126089
-0.077413
-0.032987
0.007442
0.038941
0.080431
0.080323
0.072313
0.052920
0.018558
-0.038757
-0.085446
-0.123669
-0.173544
-0.210819
-0.242803
-0.239394
-0.236695
-0.201051
-0.177611
-0.126463
-0.087495
-0.037095
-0.000719
0.046193
0.076869
0.073562
0.061677
0.050438
0.002246
-0.038524
-0.074399
-0.116648
-0.142374
-0.175261
-0.206907
-0.205142
-0.204715
-0.198331
-0.156213
-0.097201
-0.032455
-0.005335
0.047085
0.070391
0.101904
0.095528
0.124718
0.102776
0.072823
0.002488
-0.052400
-0.106532
-0.146526
-0.176695
-0.184868
-0.195618
-0.193057
-0.175934
-0.144450
-0.085615
-0.019613
0.022051
0.044277
0.062271
0.097788
0.105967
0.107241
0.093168
0.059965
0.021667
-0.015731
-0.070861
-0.129432
-0.137096
-0.159077
-0.166492
-0.151996
-0.134858
-0.101603
-0.062320
-0.023178
0.011909
0.054997
0.080350
0.099976
0.100013
0.091687
0.060800
0.028218
-0.020063
-0.067018
-0.121922
-0.162633
-0.187557
-0.209395
-0.217442
-0.212914
-0.196916
-0.166104
-0.121425
-0.067037
-0.026071
0.014764
0.048580
0.067242
0.077384
0.071271
0.044319
0.008532
-0.028676
-0.074783
-0.128078
-0.165504
-0.203382
-0.232105
-0.229412
-0.236381
-0.219987
-0.185266
-0.138768
-0.100566
-0.053687
-0.003234
0.028434
0.057184
0.071832
0.053640
0.021682
-0.024809
-0.069177
-0.109771
-0.160984
-0.203871
-0.230673
-0.248632
-0.246680
-0.244396
-0.225348
-0.189422
-0.161830
-0.119545
-0.069030
-0.019607
0.022148
0.070182
0.074778
0.070187
0.045188
-0.004034
-0.057882
-0.097541
-0.141213
-0.192815
-0.231152
-0.256350
-0.251362
-0.236801
-0.216987
-0.178831
-0.150014
-0.107431
-0.056874
-0.014384
0.019995
0.060364
0.063857
0.055636
0.021914
-0.004669
-0.037443
-0.079715
-0.113293
-0.169920
-0.228468
-0.257854
-0.253472
-0.252518
-0.228886
-0.187529
-0.145228
-0.090930
-0.039075
-0.008884
0.009628
0.046712
0.065310
0.039594
0.027197
-0.017675
-0.065304
-0.110711
-0.155743
-0.191761
-0.214235
-0.229275
-0.225023
-0.214484
-0.185129
-0.150765
-0.104467
-0.035210
0.036211
0.090927
0.147887
0.178235
0.200834
0.207967
0.215499
0.188712
0.169046
0.162713
0.146646
0.130199
0.129571
0.147115
0.184483
0.213303
0.256111
0.329616
0.398737
0.472836
0.550389
0.640521
0.726090
0.797930
0.839160
0.861045
0.866933
0.825806
0.760791
0.726407
0.665644
0.597272
0.546203
0.477181
0.434549
0.402791
0.340675
0.308090
0.291660
0.282313
0.290983
0.303582
0.304865
0.294689
0.271448
0.251425
0.218615
0.187667
0.139783
0.085010
0.021893
-0.030411
-0.074104
-0.122978
-0.149175
-0.156636
-0.144715
-0.109649
-0.056823
-0.005692
0.047500
0.093446
0.120382
0.137027
0.136880
0.120877
0.091290
0.072640
0.033716
-0.024528
-0.073319
-0.128343
-0.160003
-0.194295
-0.206638
-0.190063
-0.167302
-0.141786
-0.091816
-0.055604
-0.009424
0.026794
0.074474
0.097857
0.104524
0.086480
0.072059
0.036638
-0.007453
-0.069111
-0.115877
-0.155163
-0.179348
-0.194851
-0.207628
-0.211413
-0.196961
-0.153237
-0.102913
-0.045772
0.004568
0.053634
0.080187
0.114430
0.097802
0.095790
0.079727
0.055922
0.026733
-0.024274
-0.083441
-0.118888
-0.163304
-0.197976
-0.197067
-0.189073
-0.153758
-0.119629
-0.078277
-0.042389
-0.003141
0.049255
0.102034
0.141491
0.154779
0.137141
0.104532
0.066712
0.024040
-0.024392
-0.075259
-0.113496
-0.150334
-0.165348
-0.171520
-0.161217
-0.148677
-0.106821
-0.059898
-0.011384
0.040617
0.094271
0.130766
0.154020
0.159338
0.152342
0.126376
0.095909
0.061493
0.002082
-0.044383
-0.086329
-0.123404
-0.149833
-0.156498
-0.145551
-0.124542
-0.086623
-0.041769
0.003956
0.053516
0.102296
0.150580
0.174941
0.183022
0.162838
0.168445
0.128397
0.077838
0.052222
0.006091
-0.049941
-0.094436
-0.120099
-0.099652
-0.080913
-0.065263
-0.049695
-0.010214
0.053411
0.122372
0.180620
0.206596
0.238818
0.234597
0.231387
0.199671
0.159145
0.124109
0.086450
0.044709
-0.010494
-0.055272
-0.075584
-0.077388
-0.077904
-0.048402
-0.023354
0.017615
0.064385
0.128606
0.179967
0.220541
0.245183
0.238951
0.228455
0.212078
0.168401
0.123405
0.077333
0.026680
-0.014657
-0.057146
-0.085321
-0.081653
-0.080958
-0.054059
-0.024392
0.030134
0.078496
0.117522
0.159756
0.189592
0.221656
0.219657
0.201651
0.170614
0.132317
0.089228
0.050488
-0.005830
-0.063528
-0.095288
-0.116826
-0.122169
-0.111282
-0.086303
-0.053009
-0.014724
0.029604
0.065884
0.115908
0.145605
0.181824
0.183680
0.171946
0.147453
0.097094
0.056260
0.015257
-0.041635
-0.087331
-0.117571
-0.137137
-0.142213
-0.142923
-0.117204
-0.087259
-0.032481
-0.004946
0.015868
0.056010
0.088669
0.109314
0.108253
0.125198
0.123477
0.077650
-0.004204
-0.068390
-0.097111
-0.112371
-0.159712
-0.182216
-0.191249
-0.197740
-0.168604
-0.126093
-0.081842
-0.046455
-0.000292
0.037815
0.074119
0.098671
0.110346
0.090627
0.068478
0.028498
-0.011201
-0.052705
-0.101586
-0.152045
-0.182049
-0.205161
-0.217319
-0.212912
-0.187973
-0.155414
-0.102516
-0.057318
-0.012729
0.026809
0.049094
0.071425
0.079452
0.075795
0.064809
0.030254
-0.020459
-0.065504
-0.113624
-0.150115
-0.183430
-0.211723
-0.227852
-0.229393
-0.214374
-0.172340
-0.123902
-0.068331
-0.031098
0.006348
0.043391
0.070961
0.083980
0.079475
0.061563
0.036370
0.000983
-0.043930
-0.094112
-0.149495
-0.179078
-0.207416
-0.227333
-0.219884
-0.198189
-0.165498
-0.121448
-0.079677
-0.021281
0.020070
0.059852
0.089885
0.096594
0.092902
0.076634
0.032810
-0.008657
-0.050786
-0.106710
-0.158044
-0.190055
-0.210137
-0.227781
-0.224715
-0.198150
-0.171259
-0.119528
-0.047704
-0.009420
0.026423
0.062146
0.087000
0.104336
0.103714
0.074736
0.047201
0.002309
-0.060827
-0.133958
-0.161032
-0.194000
-0.197534
-0.192353
-0.185449
-0.173346
-0.137492
-0.086293
-0.042438
-0.001209
0.038060
0.066833
0.100438
0.119665
0.097261
0.077876
0.076284
0.025503
-0.028614
-0.082647
-0.134362
-0.167444
-0.206044
-0.213129
-0.216124
-0.203978
-0.155987
-0.099234
-0.060982
-0.021947
0.023779
0.065021
0.103472
0.093863
0.081977
0.053310
0.013889
-0.022383
-0.053679
-0.092803
-0.120057
-0.158037
-0.192281
-0.206030
-0.199458
-0.180084
-0.155340
-0.111298
-0.065171
-0.011651
0.038308
0.077076
0.096698
0.098087
0.085972
0.061840
0.021396
-0.019724
-0.065472
-0.092018
-0.139423
-0.174533
-0.199910
-0.214797
-0.210237
-0.184398
-0.165273
-0.125735
-0.071243
-0.010675
0.032457
0.054428
0.071252
0.093313
0.092525
0.075829
0.053896
-0.005106
-0.062339
-0.099907
-0.143378
-0.180820
-0.216747
-0.216605
-0.197818
-0.173514
-0.145317
-0.110179
-0.066075
-0.020027
0.027167
0.060880
0.086803
0.104924
0.084096
0.048562
0.022634
-0.012625
-0.082573
-0.120974
-0.162255
-0.201258
-0.229172
-0.239750
-0.235595
-0.213459
-0.165301
-0.114642
-0.031711
0.004454
0.032498
0.061685
0.080591
0.083355
0.077025
0.052033
0.020181
-0.016314
-0.072217
-0.117768
-0.165208
-0.203538
-0.235755
-0.245612
-0.223716
-0.185755
-0.146428
-0.098336
-0.045150
-0.005445
0.029196
0.061573
0.087249
0.084014
0.071337
0.048540
0.003769
-0.036244
-0.087443
-0.133214
-0.182895
-0.216818
-0.224524
-0.229774
-0.225597
-0.200087
-0.168490
-0.120816
-0.074203
-0.037760
0.022823
0.071601
0.074320
0.072651
0.064451
0.043805
0.011730
-0.017571
-0.068425
-0.112374
-0.154943
-0.198037
-0.220775
-0.241276
-0.220371
-0.203846
-0.166737
-0.116217
-0.068285
-0.030823
0.015012
0.051201
0.067288
0.077232
0.072173
0.055174
0.008205
-0.021834
-0.054156
-0.103957
-0.159821
-0.198209
-0.229273
-0.232171
-0.227789
-0.206137
-0.175579
-0.126836
-0.061017
-0.018713
0.011084
0.054951
0.092629
0.092178
0.081578
0.048260
0.006191
-0.038907
-0.091633
-0.136559
-0.177390
-0.208491
-0.228151
-0.231738
-0.202528
-0.169848
-0.145842
-0.116994
-0.067850
-0.020467
0.016479
0.047459
0.072413
0.066249
0.061571
0.034134
-0.005931
-0.051344
-0.088684
-0.125804
-0.163769
-0.189116
-0.220305
-0.231919
-0.219977
-0.189418
-0.159649
-0.117313
-0.075748
-0.034669
0.007979
0.035488
0.072191
0.088703
0.070110
0.045090
0.003276
-0.041958
-0.086743
-0.127151
-0.159140
-0.215420
-0.232356
-0.232984
-0.222194
-0.192823
-0.169959
-0.131235
-0.070846
-0.011791
0.037957
0.067668
0.090689
0.099937
0.093366
0.064914
0.016636
-0.022020
-0.063403
-0.109993
-0.149464
-0.186306
-0.197183
-0.190518
-0.163868
-0.138182
-0.121342
-0.088143
-0.041405
0.014576
0.057903
0.096225
0.123371
0.119232
0.106379
0.084222
0.048957
0.000502
-0.044144
-0.082518
-0.118091
-0.147427
-0.171078
-0.175216
-0.186535
-0.160834
-0.124600
-0.081452
-0.031270
0.028373
0.067765
0.099009
0.124316
0.136704
0.133820
0.101992
0.075225
0.020946
-0.020212
-0.041047
-0.089415
-0.144208
-0.172463
-0.142088
-0.149208
-0.147565
-0.122468
-0.097231
-0.052860
-0.001945
0.039166
0.081997
0.107819
0.109672
0.104245
0.065258
0.024702
-0.011252
-0.050988
-0.087581
-0.144368
-0.177801
-0.221628
-0.238771
-0.220525
-0.189210
-0.159399
-0.121689
-0.077835
-0.032450
0.005453
0.034333
0.061586
0.057721
0.046851
0.018107
-0.002148
-0.043969
-0.085422
-0.124467
-0.165388
-0.205072
-0.223751
-0.239048
-0.230600
-0.221172
-0.190075
-0.124323
-0.064005
-0.039576
-0.015350
0.020380
0.058855
0.073035
0.059958
0.032263
0.007786
-0.041459
-0.081434
-0.119542
-0.160182
-0.190090
-0.221243
-0.230741
-0.225152
-0.204239
-0.174422
-0.136762
-0.088748
-0.039761
0.009812
0.047155
0.045832
0.057672
0.052224
0.027288
0.002270
-0.042067
-0.092111
-0.135079
-0.178926
-0.216916
-0.241374
-0.238626
-0.228046
-0.214821
-0.184705
-0.148896
-0.112696
-0.070300
-0.025121
0.010935
0.030434
0.045934
0.074244
0.057050
0.030885
-0.012396
-0.057505
-0.122062
-0.174890
-0.203763
-0.243268
-0.256157
-0.253754
-0.221494
-0.184087
-0.143976
-0.095309
-0.050970
-0.005422
0.022467
0.049649
0.050394
0.048021
0.029091
-0.001469
-0.034591
-0.074810
-0.110772
-0.145533
-0.179291
-0.172283
-0.160357
-0.138111
-0.089406
-0.054589
-0.001209
0.067736
0.120423
0.180006
0.255055
0.283211
0.306529
0.332726
0.338998
0.331796
0.327591
0.317353
0.298155
0.295374
0.308648
0.310010
0.328912
0.366837
0.429802
0.500474
0.584850
0.671537
0.747482
0.807931
0.839879
0.858595
0.862888
0.841363
0.801672
0.734367
0.678173
0.602993
0.506842
0.388858
0.285548
0.204528
0.140930
0.099667
0.075893
0.059706
0.067851
0.089115
0.121302
0.155068
0.192527
0.202170
0.207173
0.192606
0.173770
0.125374
0.068859
0.023507
-0.027781
-0.079397
-0.111269
-0.134362
-0.158432
-0.156305
-0.130398
-0.102012
-0.055067
-0.003435
0.038759
0.088489
0.126591
0.142325
0.142051
0.126136
0.098292
0.064621
0.024365
-0.022236
-0.076850
-0.128156
-0.167923
-0.192406
-0.199296
-0.187206
-0.158201
-0.127763
-0.093541
-0.051218
0.000524
0.048279
0.086174
0.114761
0.125629
0.115960
0.075512
0.034675
-0.003634
-0.040107
-0.093343
-0.138270
-0.176999
-0.196970
-0.206634
-0.185096
-0.143520
-0.105496
-0.081316
-0.055650
-0.016823
0.039615
0.092258
0.113083
0.124644
0.125493
0.105422
0.066028
0.016140
-0.042485
-0.082360
-0.120840
-0.152211
-0.173881
-0.179666
-0.183441
-0.152187
-0.126624
-0.073701
-0.012262
0.041278
0.078759
0.114584
0.134698
0.139844
0.148235
0.131835
0.084233
0.026330
-0.017729
-0.057693
-0.097236
-0.137859
-0.150119
-0.146097
-0.140445
-0.130229
-0.105273
-0.047259
0.005721
0.063655
0.104560
0.148633
0.160498
0.169376
0.172575
0.151998
0.121802
0.082057
0.036766
-0.002164
-0.035696
-0.073688
-0.098813
-0.098875
-0.099589
-0.075400
-0.036701
-0.002627
0.050914
0.105657
0.148602
0.190128
0.216719
0.213603
0.210820
0.187752
0.156097
0.114768
0.065307
0.009422
-0.032073
-0.064676
-0.077521
-0.095745
-0.089573
-0.064633
-0.020124
0.028509
0.073984
0.123943
0.168503
0.207287
0.233882
0.251134
0.249574
0.216056
0.184053
0.143416
0.088239
0.057032
0.014799
-0.045644
-0.069224
-0.077748
-0.070012
-0.038803
-0.009257
0.031476
0.087993
0.144092
0.172795
0.213108
0.236585
0.231711
0.225185
0.188183
0.153371
0.125404
0.086422
0.022242
-0.022329
-0.050132
-0.061188
-0.052276
-0.051376
-0.030627
0.000551
0.033910
0.078971
0.128370
0.151957
0.197291
0.212329
0.219383
0.202807
0.182774
0.165453
0.126098
0.067621
0.021217
-0.023859
-0.055132
-0.098804
-0.111257
-0.115871
-0.083394
-0.047577
0.006035
0.068416
0.113631
0.152433
0.179475
0.195634
0.183112
0.178283
0.148669
0.107697
0.063587
0.000607
-0.040181
-0.070391
-0.116185
-0.147552
-0.155539
-0.151355
-0.126142
-0.080493
-0.034055
0.012289
0.046492
0.086927
0.114657
0.136463
0.145891
0.135163
0.101277
0.066872
0.023473
-0.027766
-0.081008
-0.115159
-0.149349
-0.165749
-0.168937
-0.169238
-0.139476
-0.112203
-0.080100
-0.035952
0.018326
0.054871
0.083197
0.112513
0.106867
0.100305
0.078138
0.035390
-0.003855
-0.045313
-0.095106
-0.135713
-0.176531
-0.192650
-0.208376
-0.220402
-0.173878
-0.140559
-0.109170
-0.061636
-0.017238
0.033161
0.062909
0.082254
0.090709
0.087224
0.061228
0.035343
-0.004078
-0.054931
-0.104044
-0.144772
-0.186307
-0.199931
-0.214338
-0.202191
-0.171004
-0.143718
-0.108632
-0.069452
-0.018220
0.034729
0.071768
0.093204
0.090602
0.086031
0.064949
0.033465
-0.003918
-0.054878
-0.105589
-0.137225
-0.174684
-0.186606
-0.199625
-0.202831
-0.172884
-0.148681
-0.111232
-0.057309
-0.005933
0.034964
0.065277
0.085966
0.084882
0.087459
0.056998
0.037977
0.012773
-0.029378
-0.082875
-0.120956
-0.144683
-0.169877
-0.203062
-0.205189
-0.171977
-0.108292
-0.065297
-0.030709
0.014724
0.058909
0.107227
0.120822
0.102970
0.100500
0.074323
0.037943
-0.006559
-0.036610
-0.082868
-0.125692
-0.160739
-0.182843
-0.189187
-0.179286
-0.151300
-0.123485
-0.093149
-0.043398
0.000502
0.050079
0.084052
0.109883
0.117845
0.109410
0.064481
0.045117
0.019680
-0.030125
-0.082448
-0.133693
-0.174584
-0.171516
-0.186735
-0.191710
-0.166222
-0.121876
-0.083236
-0.042848
0.004043
0.051396
0.080647
0.089587
0.106188
0.110425
0.088700
0.049723
0.007161
-0.032793
-0.075673
-0.123368
-0.167735
-0.190437
-0.203332
-0.195312
-0.172577
-0.144686
-0.108261
-0.053168
0.004255
0.036065
0.066825
0.088591
0.106754
0.099832
0.069160
0.050261
0.015628
-0.037732
-0.101570
-0.154431
-0.186460
-0.209731
-0.227221
-0.217278
-0.172221
-0.137122
