-0.020416
0.044050
0.090984
0.122795
0.144075
0.155219
0.150288
0.119711
0.078743
0.041449
-0.001162
-0.059030
-0.102365
-0.138196
-0.164498
-0.167244
-0.147723
-0.126446
-0.090138
-0.055371
-0.013265
0.035394
0.088218
0.115507
0.134511
0.133486
0.124516
0.101518
0.066135
0.017502
-0.019483
-0.074355
-0.131346
-0.156632
-0.164769
-0.157296
-0.159419
-0.134116
-0.106572
-0.058838
-0.009036
0.043915
0.084022
0.107373
0.127104
0.145208
0.133064
0.089725
0.055197
0.020319
-0.019881
-0.071695
-0.122913
-0.158157
-0.177368
-0.180106
-0.170770
-0.136447
-0.098478
-0.052731
-0.008823
0.037356
0.078101
0.109660
0.127707
0.130325
0.130609
0.110049
0.064537
0.013339
-0.041182
-0.085019
-0.118916
-0.156510
-0.177228
-0.178411
-0.158341
-0.146154
-0.121794
-0.084308
-0.034606
0.015559
0.065413
0.112697
0.119618
0.122691
0.116257
0.088413
0.060149
0.025239
-0.026767
-0.086536
-0.122729
-0.166724
-0.187878
-0.189152
-0.185071
-0.161200
-0.124891
-0.080325
-0.039836
0.021188
0.066645
0.106071
0.120799
0.129319
0.125230
0.106253
0.070103
0.022562
-0.021171
-0.078803
-0.131479
-0.166682
-0.179019
-0.188199
-0.188500
-0.164835
-0.120287
-0.071566
-0.017827
0.023740
0.061672
0.095694
0.119675
0.126218
0.117713
0.095241
0.059304
0.034008
-0.034217
-0.083132
-0.106618
-0.131249
-0.146137
-0.148672
-0.144667
-0.121513
-0.090474
-0.044572
-0.004292
0.052671
0.088634
0.125376
0.141212
0.157327
0.138530
0.114291
0.089020
0.070546
0.029157
-0.023742
-0.063392
-0.108432
-0.145359
-0.153929
-0.143071
-0.122907
-0.074642
-0.038457
0.010850
0.052027
0.096245
0.132608
0.158844
0.174836
0.168558
0.155826
0.113311
0.068974
0.017271
-0.035790
-0.063394
-0.090221
-0.119303
-0.121581
-0.108231
-0.077671
-0.058059
-0.018527
0.031382
0.074490
0.111945
0.131205
0.152654
0.157480
0.143025
0.126438
0.083491
0.035673
-0.014326
-0.056887
-0.100937
-0.145792
-0.178846
-0.176709
-0.164772
-0.143036
-0.104142
-0.064959
-0.012852
0.029625
0.065624
0.098641
0.116006
0.128897
0.121265
0.100786
0.057023
0.015480
-0.030783
-0.076681
-0.125185
-0.181928
-0.206438
-0.202777
-0.191759
-0.169335
-0.141219
-0.108590
-0.065804
-0.008563
0.025676
0.054636
0.054776
0.087280
0.100203
0.084774
0.045077
0.001416
-0.049704
-0.092004
-0.135146
-0.168830
-0.192830
-0.203900
-0.201181
-0.191433
-0.149773
-0.095798
-0.064520
-0.013737
0.022841
0.057507
0.094544
0.109351
0.100407
0.077831
0.030411
-0.013306
-0.056841
-0.100643
-0.143904
-0.187878
-0.207726
-0.210903
-0.195008
-0.180484
-0.147150
-0.092903
-0.044516
-0.011777
0.023759
0.074021
0.103723
0.102791
0.088197
0.054620
0.027424
-0.018129
-0.069387
-0.096489
-0.146560
-0.203683
-0.216786
-0.221236
-0.202917
-0.168898
-0.145358
-0.095409
-0.044173
-0.005641
0.029436
0.058196
0.080351
0.075908
0.054628
0.039085
0.015235
-0.027337
-0.061802
-0.096392
-0.121178
-0.151667
-0.157383
-0.158325
-0.123739
-0.089860
-0.035595
0.021689
0.073895
0.139201
0.193157
0.241878
0.294165
0.317885
0.348537
0.350390
0.313828
0.314261
0.317211
0.313293
0.311958
0.310964
0.311698
0.348767
0.392163
0.467059
0.533650
0.617729
0.699658
0.781246
0.856995
0.907081
0.933677
0.930785
0.915041
0.886731
0.823590
0.759608
0.702800
0.615784
0.511431
0.401620
0.304670
0.233266
0.200855
0.164888
0.158209
0.160371
0.197475
0.222114
0.260179
0.295695
0.308679
0.289968
0.268076
0.228982
0.174759
0.129348
0.070824
0.013476
-0.030539
-0.083047
-0.105607
-0.094423
-0.099792
-0.091386
-0.045224
-0.018798
0.026222
0.067425
0.106111
0.152678
0.168032
0.172061
0.154545
0.147832
0.103732
0.048746
-0.001827
-0.058404
-0.095670
-0.128507
-0.151071
-0.156892
-0.154357
-0.140274
-0.106862
-0.059119
-0.015295
0.046798
0.082415
0.115570
0.137016
0.132924
0.128150
0.102321
0.073060
0.033052
-0.017878
-0.077250
-0.126055
-0.150457
-0.168522
-0.186629
-0.146446
-0.117034
-0.100789
-0.055378
-0.010548
0.043401
0.091647
0.113387
0.136607
0.142053
0.130141
0.098873
0.065365
0.030301
-0.011092
-0.089911
-0.096981
-0.107370
-0.132464
-0.144662
-0.136678
-0.121010
-0.069236
-0.035367
0.005054
0.054389
0.102633
0.126481
0.165551
0.168158
0.162618
0.146574
0.096415
0.056787
0.014172
-0.041419
-0.081463
-0.121863
-0.159506
-0.136333
-0.112986
-0.097302
-0.067109
-0.022318
0.033646
0.083730
0.113306
0.152959
0.186105
0.187570
0.174406
0.160926
0.134995
0.094226
0.037817
-0.014416
-0.065780
-0.096494
-0.107112
-0.106094
-0.105300
-0.086939
-0.043862
0.001906
0.060366
0.118789
0.165361
0.189920
0.205460
0.205572
0.212727
0.196277
0.160116
0.105184
0.068042
0.006389
-0.038038
-0.068869
-0.088160
-0.080274
-0.069910
-0.057423
-0.022331
0.031738
0.086243
0.134899
0.180032
0.220070
0.235884
0.230217
0.220697
0.199720
0.160439
0.115144
0.076805
0.005440
-0.010288
-0.047139
-0.063930
-0.064622
-0.053649
-0.034219
-0.001601
0.038380
0.081304
0.121170
0.159662
0.199816
0.216051
0.224959
0.226061
0.199836
0.166416
0.117304
0.071944
0.019365
-0.029018
-0.056186
-0.077906
-0.083921
-0.078411
-0.044957
-0.012127
0.011131
0.052897
0.098288
0.150525
0.189674
0.199885
0.208185
0.198931
0.175810
0.144150
0.090012
0.052191
-0.010682
-0.052062
-0.084969
-0.097746
-0.094050
-0.097094
-0.084078
-0.050877
0.008169
0.053232
0.090342
0.132080
0.156406
0.171590
0.168252
0.162268
0.149776
0.117708
0.067449
0.010559
-0.041894
-0.065889
-0.099050
-0.108542
-0.106367
-0.131935
-0.124959
-0.078770
-0.031209
0.014340
0.066843
0.110270
0.132207
0.156511
0.155684
0.144591
0.106328
0.070645
0.045564
-0.000354
-0.048917
-0.097484
-0.136460
-0.152610
-0.153778
-0.140936
-0.128291
-0.094061
-0.048278
-0.011384
0.024326
0.099068
0.132981
0.149706
0.147202
0.135526
0.130367
0.092894
0.041170
-0.021325
-0.071097
-0.108429
-0.142785
-0.165057
-0.162983
-0.157898
-0.129568
-0.095466
-0.054413
-0.011139
0.033897
0.084713
0.131873
0.141130
0.156354
0.152616
0.127055
0.080989
0.039071
-0.003348
-0.066875
-0.103974
-0.128434
-0.153383
-0.155979
-0.145545
-0.124812
-0.092836
-0.041631
-0.007265
0.047906
0.095336
0.120096
0.153645
0.166344
0.158014
0.137365
0.091717
0.047083
-0.003018
-0.053408
-0.094322
-0.121801
-0.136157
-0.142914
-0.153519
-0.137126
-0.093743
-0.036286
-0.001615
0.048108
0.087124
0.126467
0.153623
0.163091
0.154400
0.130075
0.099584
0.054012
0.014218
-0.044956
-0.083722
-0.113888
-0.140228
-0.158832
-0.140485
-0.112972
-0.076554
-0.034435
0.013877
0.053785
0.094853
0.122578
0.149741
0.154689
0.146851
0.123658
0.086449
0.055112
0.013405
-0.032674
-0.078650
-0.112680
-0.151845
-0.146360
-0.139373
-0.123582
-0.092644
-0.049299
-0.006899
0.060497
0.110205
0.141569
0.147119
0.156783
0.150180
0.128923
0.099253
0.057357
-0.012700
-0.074104
-0.104065
-0.131540
-0.141619
-0.139203
-0.146472
-0.123221
-0.080299
-0.039528
-0.005087
0.060650
0.099679
0.117064
0.135606
0.148972
0.130231
0.109302
0.081345
0.035097
-0.005173
-0.057616
-0.095015
-0.138429
-0.161727
-0.181302
-0.154171
-0.111500
-0.077906
-0.026711
0.005739
0.041733
0.073465
0.114028
0.136752
0.139539
0.135283
0.110046
0.079460
0.035679
-0.009725
-0.066008
-0.103642
-0.144337
-0.165040
-0.174248
-0.167556
-0.142377
-0.106010
-0.064731
-0.015406
0.033864
0.074099
0.109219
0.128868
0.136316
0.130563
0.112684
0.077517
0.036441
-0.009675
-0.071149
-0.117434
-0.149617
-0.176066
-0.180342
-0.165409
-0.157346
-0.123753
-0.081221
-0.026148
0.036045
0.086899
0.129825
0.151788
0.146440
0.118386
0.099043
0.061528
0.013803
-0.016900
-0.071450
-0.123769
-0.162099
-0.178883
-0.179385
-0.169166
-0.160504
-0.128263
-0.082180
-0.040256
0.027390
0.071834
0.108244
0.131610
0.132702
0.123223
0.109632
0.079670
0.035683
-0.023233
-0.079581
-0.121768
-0.151503
-0.177773
-0.182848
-0.180744
-0.152056
-0.112335
-0.064965
-0.035782
0.016042
0.081171
0.112373
0.125580
0.128801
0.120327
0.096232
0.066128
0.022361
-0.019257
-0.079056
-0.115853
-0.152916
-0.172156
-0.172648
-0.166507
-0.143560
-0.116924
-0.065584
-0.013210
0.035833
0.071643
0.095580
0.130233
0.131240
0.117694
0.099388
0.072700
0.026618
-0.024182
-0.085842
-0.116955
-0.152602
-0.168694
-0.185041
-0.174809
-0.138040
-0.095099
-0.043668
-0.002672
0.053397
0.099962
0.122110
0.140724
0.151590
0.135001
0.115084
0.082831
0.049743
0.004866
-0.049353
-0.083051
-0.106159
-0.129286
-0.142183
-0.138510
-0.119986
-0.084818
-0.033577
0.013003
0.065196
0.098354
0.143246
0.162593
0.166611
0.159065
0.140893
0.104164
0.055750
0.002955
-0.041019
-0.062735
-0.086507
-0.107366
-0.125671
-0.111975
-0.085760
-0.054645
-0.019014
0.028994
0.092522
0.133548
0.150221
0.186385
0.194250
0.184975
0.147544
0.109784
0.065109
0.007959
-0.055020
-0.096789
-0.135870
-0.160585
-0.168497
-0.157947
-0.136099
-0.095516
-0.052842
-0.007314
0.049935
0.081641
0.107233
0.134651
0.146415
0.141213
0.112157
0.066564
0.026735
-0.022739
-0.064996
-0.120842
-0.164917
-0.182776
-0.187790
-0.187986
-0.163279
-0.126298
-0.097812
-0.047893
0.009669
0.045465
0.086991
0.106280
0.122630
0.102088
0.079595
0.054801
0.014011
-0.034558
-0.093297
-0.137258
-0.180306
-0.221287
-0.222661
-0.209983
-0.195297
-0.155866
-0.105551
-0.064024
0.006554
0.045495
0.086628
0.099278
0.101340
0.070108
0.058477
0.046083
0.004468
-0.039859
-0.097097
-0.131836
-0.172597
-0.200307
-0.205881
-0.193749
-0.170865
-0.147213
-0.110165
-0.053348
-0.002219
0.041199
0.071663
0.091300
0.109649
0.098779
0.067821
0.034649
-0.010913
-0.065065
-0.112881
-0.136029
-0.177112
-0.200997
-0.213266
-0.207037
-0.187839
-0.158432
-0.127208
-0.043400
0.011010
0.048231
0.078526
0.105155
0.099325
0.092583
0.065364
0.032839
-0.023692
-0.072856
-0.128342
-0.173659
-0.199291
-0.208666
-0.204624
-0.176953
-0.163856
-0.127025
-0.076364
-0.002657
0.072397
0.128909
0.168921
0.202821
0.209196
0.213692
0.210202
0.203949
0.179038
0.153131
0.143084
0.120862
0.114975
0.139926
0.176078
0.206534
0.268678
0.354031
0.425929
0.507943
0.566500
0.654711
0.736023
0.808372
0.846236
0.863692
0.875425
0.855364
0.813785
0.769156
0.731630
0.667914
0.595999
0.572304
0.558271
0.538741
0.492481
0.453181
0.426137
0.410207
0.414588
0.403256
0.388966
0.383721
0.343325
0.322174
0.297095
0.268740
0.199028
0.134616
0.063705
0.021876
-0.030030
-0.064094
-0.071810
-0.070771
-0.047090
-0.025527
-0.008190
0.036254
0.097501
0.144878
0.163322
0.184782
0.178116
0.170089
0.155603
0.116445
0.022760
-0.003753
-0.030109
-0.064310
-0.117595
-0.146366
-0.146508
-0.133062
-0.122102
-0.095003
-0.050238
-0.000329
0.047371
0.075623
0.108704
0.141999
0.139836
0.113872
0.101613
0.061820
0.017342
-0.003821
-0.041407
-0.099211
-0.140164
-0.158786
-0.164702
-0.156193
-0.126262
-0.095176
-0.060068
-0.008411
0.057518
0.086238
0.119670
0.129746
0.144169
0.132388
0.114460
0.070251
0.028045
-0.010084
-0.063703
-0.097839
-0.127735
-0.149424
-0.160650
-0.142999
-0.122367
-0.091055
-0.048592
-0.000029
0.059781
0.094420
0.138591
0.156810
0.161002
0.149154
0.120325
0.086359
0.043040
0.004699
-0.041247
-0.082278
-0.124419
-0.144047
-0.138935
-0.131694
-0.108636
-0.060991
-0.020532
0.032151
0.077465
0.107968
0.150555
0.182456
0.184738
0.164628
0.148067
0.120658
0.065949
0.032640
-0.016776
-0.060787
-0.081258
-0.105980
-0.106822
-0.095616
-0.081999
-0.053788
-0.014634
0.032071
0.107777
0.137994
0.174783
0.195192
0.205530
0.194125
0.168931
0.137050
0.103850
0.067504
0.009956
-0.034448
-0.055188
-0.077323
-0.085541
-0.078600
-0.056509
-0.022303
0.030822
0.073381
0.128483
0.165380
0.199187
0.227454
0.238443
0.242406
0.211486
0.165423
0.121729
0.067970
0.025656
-0.019282
-0.045738
-0.074161
-0.076568
-0.065843
-0.046454
-0.016587
0.024021
0.071917
0.127262
0.172002
0.206138
0.223160
0.238054
0.227540
0.219336
0.174506
0.119391
0.071234
0.019850
-0.016826
-0.053111
-0.079119
-0.087016
-0.083340
-0.057742
-0.022740
0.015839
0.065109
0.113656
0.150917
0.192848
0.220805
0.227325
0.206891
0.173318
0.148333
0.100965
0.058884
-0.000522
-0.029925
-0.063320
-0.091699
-0.114100
-0.104295
-0.078472
-0.045735
-0.005472
0.033104
0.095381
0.142033
0.168514
0.186947
0.185118
0.169210
0.152525
0.117919
0.074602
0.029831
-0.041879
-0.053512
-0.093124
-0.107565
-0.106472
-0.131845
-0.110717
-0.070187
-0.021526
0.029941
0.069163
0.107394
0.147375
0.155363
0.158354
0.152401
0.132072
0.096835
0.052074
0.009257
-0.043851
-0.085346
-0.116062
-0.149147
-0.148037
-0.139360
-0.122779
-0.082783
-0.042861
-0.001306
0.049376
0.086105
0.123163
0.153378
0.149277
0.131889
0.115636
0.066862
0.031365
-0.019482
-0.064832
-0.094626
-0.138380
-0.163879
-0.171757
-0.162783
-0.149788
-0.106904
-0.056226
-0.015335
0.039114
0.086023
0.123458
0.146082
0.142205
0.132002
0.105860
0.070456
0.029726
-0.021737
-0.081624
-0.124060
-0.141162
-0.158409
-0.154503
-0.150817
-0.128494
-0.092605
-0.046230
-0.005132
0.043835
0.085018
0.116120
0.136200
0.147379
0.124528
0.105593
0.076112
0.029839
-0.017220
-0.058535
-0.096864
-0.122304
-0.150381
-0.152855
-0.142699
-0.120535
-0.082296
-0.046012
0.010349
0.048759
0.086921
0.124478
0.145868
0.155779
0.148608
0.128103
0.093908
0.056727
0.003275
-0.045155
-0.079995
-0.119929
-0.161843
-0.159718
-0.140518
-0.124553
-0.096094
-0.046529
0.004085
0.046530
0.074991
0.115318
0.151900
0.162295
0.152191
0.135579
0.098415
0.047844
0.012946
-0.042184
-0.082471
-0.117831
-0.145993
-0.160123
-0.150790
-0.138660
-0.099969
-0.054999
0.006704
0.054875
0.103537
0.149252
0.161324
0.137849
0.122521
0.105439
0.084348
0.046017
0.003891
-0.047012
-0.096884
-0.132512
-0.161047
-0.167071
-0.146576
-0.119097
-0.088237
-0.050020
-0.006464
0.041301
0.081448
0.113892
0.125092
0.138216
0.115703
0.115404
0.088397
0.052380
0.002864
-0.051839
-0.096421
-0.126073
-0.146859
-0.164586
-0.157392
-0.141548
-0.111144
-0.064740
-0.016708
0.027908
0.082076
0.129919
0.136213
0.135557
0.123111
0.112137
0.082634
0.033441
-0.023176
-0.080445
-0.115906
-0.139935
-0.156985
-0.170459
-0.152760
-0.129494
-0.099306
-0.061315
-0.015765
0.037220
0.068163
0.100597
0.131065
0.135440
0.124392
0.098817
0.054116
0.002986
-0.036928
-0.075212
-0.112118
-0.144004
-0.162041
-0.177331
-0.169692
-0.148360
-0.110754
-0.073020
-0.024889
0.029495
0.072221
0.108173
0.116177
0.127525
0.132415
0.096490
0.056061
0.034192
-0.011912
-0.066937
-0.121587
-0.165873
-0.181960
-0.188539
-0.175591
-0.158372
-0.116641
-0.072088
-0.020941
0.025657
0.062093
0.095767
0.125935
0.131311
0.111299
0.072929
0.052139
0.033093
-0.024348
-0.082254
-0.114846
-0.154000
-0.185068
-0.190448
-0.175625
-0.153163
-0.118382
-0.074763
-0.016433
0.029056
0.061016
0.092063
0.111739
0.123501
0.112510
0.096389
0.060407
0.019697
-0.037256
-0.087250
-0.129337
-0.154326
-0.177275
-0.179112
-0.174264
-0.156719
-0.117063
-0.069303
-0.034681
0.027347
0.071737
0.101675
0.115567
0.117690
0.111800
0.085733
0.048373
0.014043
-0.020749
-0.076966
-0.117560
-0.145151
-0.175826
-0.178695
-0.170553
-0.145669
-0.103740
-0.061598
-0.012839
0.042084
0.083104
0.109720
0.142257
0.150123
0.150504
0.133371
0.090079
0.044328
0.004152
-0.041244
-0.089783
-0.123818
-0.141674
-0.149371
-0.128251
-0.105489
-0.082382
-0.038940
0.008093
0.067604
0.104370
0.131351
0.141129
0.153188
0.134421
0.117550
0.098168
0.064771
0.014019
-0.036006
-0.072582
-0.101601
-0.120290
-0.127649
-0.110807
-0.091590
-0.053706
-0.012067
0.031480
0.070917
0.127451
0.168161
0.168903
0.170466
0.149470
0.122604
0.084430
0.041452
0.004760
-0.045447
-0.086381
-0.121284
-0.138926
-0.134685
-0.137751
-0.125392
-0.087554
-0.037502
0.007356
0.052359
0.082014
0.106161
0.127071
0.137071
0.117460
0.093088
0.060638
0.015383
-0.033233
-0.092671
-0.126637
-0.162986
-0.186694
-0.200413
-0.178405
-0.154314
-0.145129
-0.092109
-0.024922
0.034570
0.060922
0.087554
0.110098
0.124849
0.109099
0.064825
0.027588
-0.008584
-0.055405
-0.110309
-0.154512
-0.193552
-0.209190
-0.228075
-0.193517
-0.164536
-0.135755
-0.106694
-0.056178
-0.009355
0.034787
0.071031
0.083854
0.079550
0.075833
0.075014
0.040531
-0.006209
-0.050249
-0.105565
-0.151241
-0.178947
-0.200092
-0.211326
-0.200085
-0.172808
-0.138791
-0.097308
-0.059517
-0.003716
0.041539
0.074920
0.091648
0.101071
0.096843
0.077729
0.038602
-0.011481
-0.059192
-0.107722
-0.146808
-0.177359
-0.206469
-0.214251
-0.200592
-0.182786
-0.151624
-0.109639
-0.062212
-0.001461
0.036417
0.057521
0.087401
0.094007
0.081268
0.064587
0.027423
-0.022203
-0.067250
-0.117120
-0.180359
-0.209228
-0.215848
-0.224794
-0.202110
-0.171126
-0.131025
-0.078610
-0.015081
0.048017
0.090612
0.148012
0.184904
0.205762
0.195447
0.184736
0.183223
0.169892
0.146014
0.107891
0.098819
0.088761
0.104081
0.140726
0.191395
0.243397
0.292251
0.376297
0.444611
0.526930
0.597343
0.670361
0.740831
0.796491
0.806894
0.833672
0.834157
0.814737
0.759600
0.714169
0.691074
0.632858
0.590031
0.574980
0.565897
0.558945
0.530263
0.496576
0.475555
0.456802
0.452216
0.435165
0.405127
0.370119
0.327473
0.286717
0.244753
0.204911
0.158876
0.076921
0.015425
-0.025277
-0.055880
-0.064409
-0.068773
-0.052148
-0.021330
0.021560
0.062940
0.105916
0.149125
0.170824
0.189998
0.184537
0.162637
0.130543
0.105352
0.058977
0.007820
-0.042645
-0.079918
-0.126602
-0.151716
-0.168154
-0.150700
-0.126637
-0.089548
-0.049214
0.000967
0.045515
0.085029
0.121388
0.131727
0.137953
0.139163
0.116938
0.072052
0.020056
-0.017453
-0.080049
-0.111663
-0.152631
-0.182361
-0.183602
-0.170981
-0.144687
-0.096028
-0.048524
-0.013991
0.031180
0.067715
0.086553
0.122775
0.143213
0.149016
0.116955
0.074657
0.037065
-0.008937
-0.061502
-0.106467
-0.140776
-0.165284
-0.170954
-0.185017
-0.134949
-0.103237
-0.046500
0.007205
0.052180
0.096299
0.132727
0.149633
0.153920
0.139431
0.121423
0.089326
0.043866
-0.005902
-0.049579
-0.093385
-0.122230
-0.135439
-0.145538
-0.140845
-0.117897
-0.084925
-0.041478
0.011287
0.060616
0.107134
0.143221
0.165143
0.172973
0.163729
0.135330
0.108030
0.073478
0.035690
-0.015187
-0.048610
-0.100799
-0.134407
-0.132808
-0.111880
-0.087816
-0.056788
-0.008193
0.051705
0.101546
0.144584
0.179623
0.205327
0.209871
0.193518
0.167322
0.141019
0.089576
0.054863
0.009140
-0.027678
-0.059374
-0.079825
-0.090530
-0.084709
-0.068443
-0.024424
0.018061
0.073184
0.117152
0.157631
0.196621
0.205795
0.212304
0.208290
0.199763
0.185692
0.151288
0.093549
0.011574
-0.040733
-0.071724
-0.086297
-0.086646
-0.068744
-0.045829
-0.005745
0.035753
0.080427
0.127425
0.169952
0.204089
0.194791
0.223580
0.229548
0.211808
0.167564
0.125655
0.076728
0.021903
-0.029153
-0.067965
-0.078958
-0.079959
-0.078532
-0.057476
-0.024698
0.015610
0.064483
0.121697
0.156068
0.187372
0.203115
0.214117
0.202866
0.181535
0.153009
0.108577
0.061355
0.012617
-0.036176
-0.090360
-0.106741
-0.100036
-0.083842
-0.076814
-0.053914
0.010516
0.061095
0.093599
0.123474
0.164339
0.179466
0.184033
0.184411
0.162453
0.137274
0.072685
0.022008
-0.026920
-0.071270
-0.106184
-0.127306
-0.132037
-0.132049
-0.116131
-0.072424
-0.028444
0.021462
0.059552
0.091788
0.126925
0.149475
0.158870
0.157662
0.132214
0.113896
0.056540
0.002295
-0.044320
-0.087622
-0.128661
-0.138586
-0.145983
-0.141008
-0.117095
-0.095793
-0.058895
-0.011762
0.035570
0.074751
0.115081
0.139607
0.140462
0.130758
0.107520
0.066225
0.036616
-0.017623
-0.070616
-0.118801
-0.148689
-0.160478
-0.170847
-0.161940
-0.138797
-0.101739
-0.060735
-0.025637
0.039949
0.078658
0.102101
0.117084
0.140889
0.129217
0.104286
0.069811
0.024314
-0.018958
-0.074892
-0.117370
-0.154211
-0.176570
-0.172144
-0.157612
-0.137867
-0.105575
-0.062242
-0.026207
0.025909
0.074615
0.118376
0.140093
0.141846
0.131381
0.104377
0.087348
0.043440
-0.014945
-0.064938
-0.104202
-0.155862
-0.172602
-0.164217
-0.149762
-0.127918
-0.091837
-0.054808
-0.009720
0.050861
0.088610
0.111167
0.137355
0.151617
0.155939
0.123547
0.074621
0.025063
-0.013051
-0.057833
-0.103379
-0.142965
-0.151149
-0.169967
-0.157010
-0.130262
-0.093320
-0.055700
0.004640
0.054593
0.095985
0.127941
0.152912
0.158632
0.148472
0.132950
0.093822
0.052525
0.010845
-0.055339
-0.124860
-0.151877
-0.148154
-0.155334
-0.154089
-0.126195
-0.096041
-0.055734
-0.006064
0.048377
0.092677
0.120374
0.145933
0.144844
0.135683
0.114772
0.079608
0.032120
-0.021064
-0.071605
-0.098705
-0.148455
-0.164783
-0.169516
-0.154073
-0.143241
-0.103147
-0.064776
-0.023727
0.042367
0.084464
0.115122
0.132843
0.141473
0.135910
0.128231
0.088812
0.040718
-0.027354
-0.082532
-0.104983
-0.133756
-0.145061
-0.163558
-0.169862
-0.162198
-0.122710
-0.066838
-0.026959
0.023643
0.072482
0.102044
0.131620
0.130022
0.124208
0.098363
0.068921
0.025675
-0.018847
-0.070623
-0.111964
-0.147554
-0.174254
-0.186498
-0.171312
-0.142039
-0.112862
-0.077225
-0.024603
0.031508
0.076542
0.096178
0.118853
0.126825
0.117238
0.098410
0.070466
0.026025
-0.031067
-0.095444
-0.142065
-0.163399
-0.183102
-0.186696
-0.174878
-0.143900
-0.122376
-0.082751
-0.046009
0.005138
0.042172
0.099958
0.130142
0.137485
0.122501
0.097210
0.057859
0.013264
-0.037311
-0.082125
-0.114607
-0.142245
-0.182583
-0.181862
-0.169482
-0.155371
-0.134561
-0.085024
-0.040111
0.012865
0.058314
0.096824
0.116863
0.120163
0.111344
0.079223
0.049442
0.006375
-0.041008
-0.097271
-0.148546
-0.174249
-0.187844
-0.185343
-0.173592
-0.160575
-0.119685
-0.064378
-0.033169
-0.001065
0.050627
0.058022
0.084327
0.110645
0.095907
0.093502
0.064019
0.004704
-0.042561
-0.093139
-0.130960
-0.174267
-0.192532
-0.193735
-0.187257
-0.170571
-0.134871
-0.095394
-0.025901
0.022526
0.056538
0.104094
0.112671
0.122782
0.117480
0.091613
0.062042
0.019591
-0.030231
-0.075373
-0.118484
-0.149918
-0.180052
-0.174641
-0.168233
-0.145338
-0.105218
-0.073558
-0.024223
0.037049
0.078089
0.105504
0.132356
0.144659
0.138849
0.114379
0.091873
0.046084
0.008758
-0.048713
-0.098257
-0.133561
-0.152079
-0.171934
-0.154807
-0.124288
-0.081443
-0.044293
-0.008195
0.049000
0.090792
0.118405
0.150929
0.156745
0.152238
0.140377
0.118943
0.062765
0.018565
-0.036222
-0.075721
-0.104358
-0.121764
-0.115785
-0.106992
-0.081320
-0.050452
-0.025194
0.025978
0.058864
0.055149
0.095130
0.132739
0.137554
0.125316
0.106472
0.071011
0.032421
-0.015785
-0.067164
-0.110131
-0.147235
-0.164720
-0.179205
-0.176202
-0.149771
-0.109102
-0.073034
-0.035266
0.029506
0.063625
0.092740
0.097861
0.107065
0.100331
0.074103
0.032221
-0.006112
-0.051669
-0.099511
-0.154066
-0.181027
-0.198001
-0.206985
-0.195101
-0.180054
-0.154835
-0.114111
-0.062780
-0.015169
0.029371
0.063740
0.076124
0.076162
0.069069
0.042874
0.018333
-0.025935
-0.080171
-0.125756
-0.167027
-0.192190
-0.213479
-0.220612
-0.211810
-0.186509
-0.145805
-0.100394
-0.058411
-0.005800
0.016931
0.044432
0.064555
0.074136
0.072587
0.044818
0.015333
-0.026393
-0.079344
-0.130708
-0.174639
-0.220980
-0.239176
-0.233318
-0.223401
-0.189200
-0.146374
-0.092396
-0.060016
-0.019663
0.023068
0.059066
0.077767
0.082771
0.082077
0.061959
0.017219
-0.046504
-0.081096
-0.123175
-0.157650
-0.178440
-0.207642
-0.251313
-0.244148
-0.209070
-0.158245
-0.119348
-0.073234
-0.015556
0.022401
0.048062
0.069709
0.072343
0.061013
0.040150
0.002439
-0.028880
-0.077318
-0.135719
-0.169150
-0.182060
-0.186908
-0.183432
-0.161719
-0.123574
-0.068114
-0.004175
0.052113
0.103821
0.168342
0.223731
0.263065
0.291789
0.310660
0.320134
0.321604
0.310722
0.295341
0.288531
0.279529
0.279179
0.295649
0.316953
0.355134
0.417599
0.481744
0.579211
0.654996
0.729578
0.817514
0.876441
0.902657
0.905061
0.904637
0.875480
0.791132
0.728270
0.659228
0.596255
0.519036
0.406607
0.329852
0.251652
0.199746
0.168044
0.153939
0.155862
0.165305
0.202398
0.237882
0.261464
0.277505
0.262662
0.245965
0.210937
0.165716
0.099715
0.052884
0.004738
-0.045023
-0.074330
-0.114433
-0.150434
-0.122040
-0.084520
-0.053380
-0.015493
0.029326
0.055962
0.093563
0.123868
0.129771
0.134897
0.124852
0.098993
0.077858
0.039821
-0.015530
-0.064300
-0.113893
-0.147716
-0.163693
-0.171577
-0.160635
-0.138775
-0.111384
-0.074060
-0.032125
0.027785
0.064402
0.097454
0.112927
0.122931
0.113189
0.089663
0.044205
-0.005382
-0.046878
-0.091131
-0.135077
-0.160148
-0.180901
-0.195656
-0.176385
-0.154639
-0.129597
-0.084577
-0.027910
0.023694
0.073029
0.099680
0.123705
0.134170
0.117876
0.102485
0.068420
0.025343
-0.024926
-0.082877
-0.107857
-0.142524
-0.173431
-0.175356
-0.166888
-0.140071
-0.088442
-0.048798
-0.012962
0.042687
0.088093
0.120327
0.141118
0.146366
0.142618
0.116278
0.089178
0.049696
-0.000989
-0.058925
-0.113740
-0.138033
-0.161192
-0.157786
-0.145439
-0.118508
-0.085385
-0.039525
0.011709
0.058308
0.096931
0.128429
0.156350
0.165038
0.127684
0.119240
0.101534
0.071849
0.027914
-0.022406
-0.069221
-0.105481
-0.122631
-0.122950
-0.116578
-0.092136
-0.053926
-0.012050
0.034479
0.095619
0.134980
0.176734
0.194349
0.205084
0.185198
0.150551
0.129333
0.085217
0.038188
0.006261
-0.034485
-0.071134
-0.091377
-0.094104
-0.100591
-0.080525
-0.037448
-0.001908
0.038279
0.096209
0.144178
0.181535
0.198206
0.213816
0.209308
0.186227
0.171490
0.116967
0.054742
0.009978
-0.023747
-0.060962
-0.077151
-0.078523
-0.079524
-0.051564
-0.021098
0.013668
0.051911
0.107308
0.153416
0.189680
0.211402
0.212118
0.202159
0.173557
0.125818
0.095959
0.062737
0.007300
-0.036108
-0.081491
-0.110548
-0.105488
-0.094855
-0.084990
-0.041134
0.004919
0.055599
0.098341
0.139549
0.179252
0.196717
0.199004
0.181127
0.158002
0.123934
0.056057
0.035837
-0.007694
-0.057827
-0.092986
-0.122037
-0.117634
-0.104197
-0.097156
-0.068465
-0.009195
0.031198
0.078576
0.121349
0.141748
0.155677
0.165093
0.160973
0.137746
0.097014
0.045532
0.001922
-0.043086
-0.095626
-0.121742
-0.142630
-0.145909
-0.143025
-0.112745
-0.086799
-0.046217
0.001790
0.056555
0.087427
0.119066
0.149311
0.147139
0.115250
0.087127
0.068562
0.028480
-0.026281
-0.081989
-0.119097
-0.144146
-0.163745
-0.172115
-0.165258
-0.141626
-0.113905
-0.062635
-0.019531
0.020477
0.062026
0.103820
0.121332
0.127333
0.120448
0.094624
0.058518
0.012666
-0.035710
-0.080475
-0.130512
-0.167949
-0.183010
-0.179785
-0.173275
-0.155206
-0.119488
-0.073113
-0.036999
0.014334
0.053620
0.089608
0.119684
0.126708
0.108949
0.089165
0.053393
0.006792
-0.036280
-0.072831
-0.118310
-0.161093
-0.176320
-0.164108
-0.154888
-0.146816
-0.119780
-0.073817
-0.019878
0.034189
0.062592
0.083442
0.116485
0.119234
0.087495
0.099186
0.076063
0.012028
-0.034414
-0.059134
-0.088309
-0.133210
-0.160900
-0.170598
-0.168534
-0.142256
-0.111686
-0.056098
-0.015975
0.014533
0.070160
0.110676
0.150606
0.145787
0.129412
0.090157
0.067912
0.025505
-0.017947
-0.072077
-0.110695
-0.139676
-0.159815
-0.167080
-0.150875
-0.126514
-0.100047
-0.052875
-0.003417
0.037818
0.068821
0.106595
0.127979
0.131481
0.122096
0.095363
0.061818
0.012962
-0.033587
-0.085857
-0.117089
-0.145699
-0.160849
-0.167456
-0.156496
-0.137404
-0.098156
-0.060642
-0.015636
0.015638
0.072970
0.110236
0.126021
0.136230
0.123942
0.111722
0.072743
0.023151
-0.021759
-0.072325
-0.109024
-0.146152
-0.171401
-0.184971
-0.172224
-0.158549
-0.124972
-0.080576
-0.032266
0.022677
0.069389
0.114734
0.122113
0.134250
0.102412
0.089093
0.062128
0.018382
-0.035268
-0.077385
-0.114099
-0.151925
-0.172919
-0.186376
-0.180139
-0.156626
-0.117935
-0.069741
-0.026724
0.013854
0.048911
0.072131
0.116043
0.133254
0.120214
0.083889
0.056178
0.008338
-0.042111
-0.104325
-0.124742
-0.149220
-0.169427
-0.192429
-0.195545
-0.168829
-0.127997
-0.085279
-0.035601
0.006723
0.053789
0.088536
0.114925
0.120971
0.103686
0.081859
0.046290
-0.009208
-0.047144
-0.087033
-0.138353
-0.162773
-0.189836
-0.195929
-0.180578
-0.160048
-0.121373
-0.087107
-0.043684
0.012280
0.052331
0.083476
0.098192
0.097841
0.100664
0.079976
0.048558
-0.002129
-0.039529
-0.105308
-0.148709
-0.178492
-0.192827
-0.206430
-0.190425
-0.171093
-0.131415
-0.096755
-0.043062
0.001632
0.048518
0.080572
0.097246
0.101654
0.092002
0.065437
0.031011
-0.016555
-0.054793
-0.088932
-0.126931
-0.169292
-0.194629
-0.199574
-0.189653
-0.164260
-0.131985
-0.097627
-0.043620
0.021480
0.061317
0.096768
0.111870
0.119426
0.104149
0.085394
0.060100
0.013668
-0.030929
-0.071444
-0.109169
-0.141298
-0.156201
-0.159299
-0.155900
-0.141723
-0.096373
-0.053468
0.005702
0.048229
0.083691
0.121200
0.144805
0.147599
0.136458
0.104219
0.068380
0.027531
-0.026121
-0.079702
-0.129631
-0.141627
-0.152675
-0.145823
-0.143949
-0.125570
-0.080635
-0.039557
0.012388
0.067636
0.110122
0.149527
0.157201
0.169118
0.151799
0.135092
0.092369
0.054465
0.018566
-0.034954
-0.072814
-0.113883
-0.140678
-0.154732
-0.137009
-0.122138
-0.092503
-0.051672
-0.017079
0.025195
0.061188
0.095507
0.128876
0.132596
0.117388
0.088078
0.051410
0.013248
-0.034154
-0.098170
-0.127417
-0.160050
-0.181459
-0.190569
-0.199984
-0.174601
-0.146346
-0.096109
-0.052806
0.001281
0.049919
0.078917
0.087458
0.095899
0.087193
0.066630
0.033587
-0.010811
-0.051833
-0.101934
-0.153380
-0.194662
-0.223009
-0.223879
-0.212135
-0.194679
-0.155838
-0.112332
-0.055308
-0.014324
0.023020
0.060292
0.084917
0.090576
0.079622
0.053224
0.017359
-0.024785
-0.064243
-0.115784
-0.151032
-0.189186
-0.223639
-0.225612
-0.209490
-0.198033
-0.154970
-0.109997
-0.055100
-0.014395
0.017008
0.042780
0.068144
0.066413
0.075794
0.066673
0.024460
-0.026569
-0.068789
-0.104038
-0.144821
-0.186861
-0.217044
-0.221787
-0.215231
-0.185972
-0.158064
-0.121106
-0.069864
-0.026251
0.021203
0.052286
0.069975
0.076052
0.059617
0.043688
0.023701
-0.018666
-0.068851
-0.130728
-0.168229
-0.199131
-0.230421
-0.231116
-0.229411
-0.203712
-0.165499
-0.128590
-0.079541
-0.033531
0.003435
0.025203
0.075080
0.098349
0.105809
0.101020
0.064729
0.034239
-0.003793
-0.036304
-0.056307
-0.066729
-0.077051
-0.077536
-0.047649
-0.002169
0.049987
0.114407
0.190789
0.278899
0.364119
0.435414
0.481693
0.514490
0.543679
0.551085
0.540319
0.531723
0.522755
0.522621
0.526327
0.526027
0.534554
0.564535
0.597603
0.602031
0.646117
0.695408
0.743559
0.773371
0.788240
0.800689
0.794828
0.753620
0.671085
0.586909
0.470503
0.381453
0.289965
0.204432
0.116625
0.024126
-0.019877
-0.029723
-0.022244
-0.000594
0.042890
0.068572
0.096012
0.122713
0.156827
0.165417
0.179249
0.194198
0.187601
0.161667
0.114694
0.067291
0.016838
-0.029504
-0.086842
-0.133256
-0.156499
-0.166958
-0.168824
-0.136182
-0.089279
-0.044125
-0.004162
0.042399
0.086424
0.116730
0.135309
0.141386
0.128510
0.108427
0.071279
0.028220
-0.018719
-0.074131
-0.126598
-0.163615
-0.185340
-0.194729
-0.177863
-0.163643
-0.135266
-0.084321
-0.015649
0.031434
0.070602
0.097591
0.113634
0.114838
0.111239
0.088858
0.047065
-0.000656
-0.044797
-0.078192
-0.125214
-0.151719
-0.178234
-0.180231
-0.168205
-0.142013
-0.109064
-0.064207
-0.017220
0.027299
0.068279
0.110136
0.131931
0.128202
0.124432
0.105328
0.080625
0.032052
-0.032035
-0.067846
-0.107267
-0.139581
-0.148214
-0.158528
-0.153765
-0.132602
-0.102119
-0.045435
0.010507
0.051827
0.097294
0.136453
0.145650
0.152371
0.136292
0.119239
0.085398
0.038396
-0.006513
-0.039954
-0.088363
-0.137652
-0.151944
-0.144148
-0.142741
-0.109771
-0.071991
-0.026881
0.031399
0.087973
0.141097
0.163175
0.163285
0.173722
0.140586
0.140509
0.120100
0.076244
0.016253
-0.028019
-0.067219
-0.095393
-0.114832
-0.120165
-0.109841
-0.090419
-0.050461
-0.002549
0.052825
0.097607
0.136516
0.176202
0.199788
0.209772
0.195637
0.184775
0.149139
0.097755
0.048559
0.000300
-0.038429
-0.075189
-0.091421
-0.093388
-0.077340
-0.084918
-0.039862
0.029212
0.087898
0.120910
0.182840
0.215102
0.234528
0.230445
0.218499
0.183168
0.166607
0.119821
0.063515
0.019735
-0.031571
-0.062958
-0.074587
-0.083204
-0.077353
-0.058176
-0.042359
0.001373
0.059693
0.114903
0.154019
0.191157
0.207408
0.217975
0.198573
0.182170
0.144725
0.102691
0.055509
0.012932
-0.022160
-0.065067
-0.092299
-0.101472
-0.095515
-0.082371
-0.044603
-0.007568
0.044159
0.085827
0.124829
0.170020
0.182654
0.182218
0.165366
0.147812
0.111339
0.071453
0.011113
-0.033035
-0.066682
-0.106141
-0.125465
-0.127396
-0.134374
-0.098672
-0.069445
-0.029836
0.019575
0.063468
0.093665
0.108428
0.142357
0.154414
0.126785
0.109502
0.074625
0.024479
-0.018212
-0.066437
-0.106793
-0.137079
-0.141174
-0.146776
-0.150923
-0.128853
-0.089727
-0.055102
0.001448
0.021800
0.063650
0.108926
0.125609
0.137596
0.123786
0.096230
0.069096
0.009512
-0.044795
-0.091192
-0.132579
-0.155029
-0.182514
-0.190716
-0.178897
-0.162823
-0.121179
-0.081434
-0.029128
0.024568
0.055839
0.093393
0.089834
0.095500
0.105550
0.093116
0.040982
-0.002722
-0.039654
-0.093500
-0.135996
-0.163343
-0.181976
-0.181491
-0.182550
-0.171564
-0.133645
-0.088252
-0.032383
0.021508
0.054255
0.084661
0.103145
0.109911
0.107075
0.097134
0.049485
0.002482
-0.053081
-0.107540
-0.141496
-0.162793
-0.188960
-0.202518
-0.193029
-0.153955
-0.117336
-0.074559
-0.038366
0.016618
0.059267
0.085517
0.105642
0.122485
0.123640
0.105684
0.081443
0.018113
-0.046057
-0.081425
-0.114050
-0.152636
-0.169063
-0.186291
-0.176574
-0.162732
-0.121916
-0.080696
-0.028618
0.015296
0.060414
0.089916
0.114463
0.130068
0.112724
0.085079
0.053182
0.013394
-0.037492
-0.094283
-0.122598
-0.155180
-0.181448
-0.186688
-0.180463
-0.151418
-0.114702
-0.073103
-0.024193
0.015783
0.060210
0.098551
0.105029
0.118275
0.109172
0.082893
0.046032
0.008090
-0.055685
-0.092033
-0.130742
-0.163568
-0.191400
-0.203917
-0.194926
-0.157633
-0.127174
-0.093288
-0.041785
-0.004709
0.043407
0.076424
0.070527
0.121694
0.117376
0.071464
0.034569
0.009004
-0.051568
-0.097404
-0.130951
-0.168304
-0.189662
-0.184774
-0.172211
-0.139031
-0.133047
-0.094063
-0.042057
0.009564
0.049714
0.077419
0.097441
0.107211
0.092680
0.080702
0.047525
-0.009254
-0.077925
-0.129394
-0.184543
-0.206033
-0.215489
-0.189937
-0.181707
-0.161801
-0.126260
-0.089030
-0.045389
-0.006154
0.044242
0.079239
0.110921
0.113486
0.096351
0.066572
0.037044
-0.003495
-0.069598
-0.122833
-0.174963
-0.201745
-0.211468
-0.221033
-0.206944
-0.183762
-0.141763
-0.106438
-0.060584
-0.011064
0.040139
0.073595
0.089881
0.096435
0.090122
0.077724
0.045544
-0.000891
-0.054819
-0.102614
-0.143835
-0.186638
-0.206309
-0.211420
-0.195758
-0.183686
-0.156870
-0.109740
-0.072680
-0.029319
0.019113
0.053888
0.063221
0.086411
0.082349
0.064393
0.031759
-0.014249
-0.064903
-0.105650
-0.154775
-0.188373
-0.199193
-0.209196
-0.203541
-0.184092
-0.151394
-0.106688
-0.051811
-0.009132
0.038872
0.070193
0.105609
0.120096
0.090054
0.072213
0.045972
0.012166
-0.038983
-0.098820
-0.133980
-0.164205
-0.185292
-0.193227
-0.185319
-0.165895
-0.127916
-0.080506
-0.027137
0.033840
0.066073
0.102137
0.118862
0.131980
0.108003
0.084369
0.060658
0.020718
-0.043785
-0.085171
-0.146754
-0.159032
-0.158405
-0.169721
-0.170738
-0.142538
-0.104785
-0.059025
-0.006562
0.045043
0.075779
0.087800
0.114832
0.150257
0.156896
0.127772
0.098100
0.044589
-0.014621
-0.068547
-0.127943
-0.164792
-0.190703
-0.188343
-0.176893
-0.161693
-0.127833
-0.091941
-0.045981
0.008240
0.044627
0.080868
0.102722
0.109852
0.090791
0.070244
0.026262
-0.011536
-0.066289
-0.101144
-0.149624
-0.194867
-0.217353
-0.216402
-0.220230
-0.202367
-0.164278
-0.124253
-0.075179
-0.031810
-0.003770
0.041312
0.064114
0.063622
0.053289
0.026494
0.001623
-0.036253
-0.085659
-0.151792
-0.198816
-0.237825
-0.255473
-0.244946
-0.236840
-0.228028
-0.182148
-0.133402
-0.076991
-0.044832
-0.009983
0.027036
0.038397
0.068510
0.061636
0.031295
-0.005504
-0.050216
-0.081826
-0.146019
-0.190538
-0.223074
-0.248463
-0.259733
-0.236969
-0.224616
-0.189399
-0.141329
-0.099772
-0.056099
-0.006439
0.030337
0.040089
0.058359
0.052927
0.030411
-0.016372
-0.055497
-0.108027
-0.158048
-0.190933
-0.226379
-0.242139
-0.261466
-0.264261
-0.239417
-0.186666
-0.141132
-0.106520
-0.056010
-0.001082
0.031888
0.036955
0.030703
0.035255
0.001121
-0.016506
-0.049291
-0.094264
-0.158901
-0.209031
-0.243802
-0.251475
-0.262425
-0.248109
-0.228699
-0.191692
-0.142358
-0.066148
-0.022461
0.007602
0.071210
0.104203
0.120216
0.127406
0.112478
0.098252
0.067060
0.021778
-0.029657
-0.043175
-0.045787
-0.038550
-0.028260
0.010061
0.057773
0.125947
0.184835
0.271153
0.337814
0.425031
0.499343
0.516780
0.535157
0.578294
0.607398
0.617177
0.600519
0.580808
0.572569
0.557791
0.556415
0.553052
0.526744
0.534527
0.555002
0.570437
0.606441
0.633346
0.638988
0.606642
0.570118
0.523959
0.476081
0.425947
0.363800
0.283619
0.204662
0.108452
0.052282
-0.013814
-0.088213
-0.126602
-0.147448
-0.133506
-0.112600
-0.092910
-0.048826
0.019739
0.056414
0.081321
0.128868
0.157499
0.159240
0.154505
0.109942
0.067767
0.005113
-0.052717
-0.084979
-0.134057
-0.176536
-0.187836
-0.201498
-0.198843
-0.160682
-0.130178
-0.102137
-0.060312
-0.008285
0.033075
0.061196
0.082792
0.096089
0.091812
0.070060
0.031626
-0.012820
-0.065642
-0.129518
-0.163906
-0.199338
-0.211040
-0.215125
-0.214081
-0.202440
-0.150350
-0.115555
-0.063257
-0.021620
0.020204
0.052191
0.061109
0.082592
0.074376
0.042682
0.037013
-0.014451
-0.068107
-0.117347
-0.156471
-0.202792
-0.223039
-0.222933
-0.188052
-0.177725
-0.147589
-0.103845
-0.053859
0.005976
0.028247
0.037123
0.065770
0.090432
0.084287
0.066156
0.027181
-0.009374
-0.056638
-0.094508
-0.131521
-0.168071
-0.180778
-0.186641
-0.175854
-0.148135
-0.123698
-0.097177
-0.051804
0.005081
0.049222
0.088123
0.118189
0.109465
0.107107
0.079289
0.048667
0.006412
-0.037221
-0.073158
-0.125166
-0.160049
-0.179767
-0.183396
-0.161219
-0.138877
-0.108065
-0.064338
-0.003142
0.045975
0.080307
0.110207
0.140666
0.137175
0.138498
0.111578
0.078888
0.032666
-0.014360
-0.058685
-0.094833
-0.120124
-0.135804
-0.145708
-0.124035
-0.113869
-0.099032
-0.055473
0.003589
0.062746
0.112960
0.140173
0.160449
0.176963
0.185428
0.170233
0.106186
0.033441
-0.031893
-0.053929
-0.087854
-0.121512
-0.133604
-0.128028
-0.112807
-0.104765
-0.067542
-0.017740
0.029615
0.078315
0.132996
0.162886
0.180578
0.186670
0.169865
0.139687
0.093153
0.067968
0.015054
-0.025401
-0.072642
-0.102668
-0.137246
-0.155978
-0.150942
-0.122027
-0.084998
-0.025064
0.019770
0.049399
0.097705
0.147012
0.163086
0.162731
0.141799
0.121956
0.093313
0.045765
-0.008703
-0.047876
-0.098532
-0.122403
-0.133030
-0.152877
-0.144218
-0.114648
-0.087037
-0.039186
0.000976
0.047809
0.073510
0.097856
0.125179
0.126525
0.108588
0.111371
0.097538
0.049202
0.004656
-0.056022
-0.106675
-0.156098
-0.186848
-0.199975
-0.190039
-0.164292
-0.120222
-0.084932
-0.035487
0.014466
0.061651
0.078684
0.098733
0.110995
0.090306
0.073508
0.030696
-0.016297
-0.057246
-0.103715
-0.141965
-0.174005
-0.185482
-0.203322
-0.192131
-0.176943
-0.149693
-0.105929
-0.050706
-0.007750
0.040776
0.063133
0.073748
0.079469
0.083831
0.039352
0.026045
-0.014788
-0.069065
-0.111348
-0.154408
-0.196282
-0.221461
-0.219211
-0.207624
-0.208557
-0.155176
-0.122580
-0.074871
-0.024888
0.020271
0.055501
0.076400
0.085548
0.077065
0.053311
0.017232
-0.023853
-0.092941
-0.137231
-0.180000
-0.213304
-0.229004
-0.221340
-0.211407
-0.209145
-0.176019
-0.106627
-0.053349
-0.014439
0.033626
0.040187
0.063777
0.092951
0.063290
0.050675
0.022886
-0.021697
-0.073950
-0.135996
-0.159810
-0.198759
-0.220927
-0.235606
-0.228540
-0.188141
-0.152234
-0.112983
-0.063556
-0.018518
0.027464
0.068968
0.073682
0.090519
0.084683
0.067241
0.034260
0.008491
-0.062406
-0.112043
-0.142181
-0.192930
-0.203882
-0.213850
-0.218342
-0.190803
-0.150935
-0.122974
-0.065531
-0.011479
0.029948
0.058760
0.074436
0.084969
0.078652
0.055967
0.026977
-0.016986
-0.078791
-0.118117
-0.156527
-0.195117
-0.212084
-0.216091
-0.204808
-0.180119
-0.157121
-0.105072
-0.052041
-0.016700
0.015432
0.059630
0.072114
0.096722
0.063792
0.055740
0.021554
-0.030180
-0.080901
-0.117586
-0.159137
-0.190560
-0.212970
-0.219426
-0.201212
-0.181225
-0.146895
-0.109596
-0.064423
-0.010562
0.038665
0.058349
0.067070
0.066942
0.066880
0.051077
0.017157
-0.028389
-0.095742
-0.126812
-0.160908
-0.212654
-0.226431
-0.234845
-0.219483
-0.184407
-0.148998
-0.119597
-0.081785
-0.011418
0.030854
0.046771
0.061339
0.074863
0.063894
0.036987
0.008017
-0.040794
-0.080700
-0.125988
-0.164103
-0.201661
-0.216182
-0.206928
-0.204821
-0.225531
-0.177854
-0.132476
-0.084906
-0.043123
0.003937
0.039348
0.061450
0.071497
0.061660
0.040995
0.013818
-0.029635
-0.096425
-0.138823
-0.173860
-0.208549
-0.222591
-0.249427
-0.235004
-0.213171
-0.187299
-0.143291
-0.066659
-0.035621
0.007648
0.035912
0.066325
0.075198
0.057208
0.041257
0.001062
-0.046181
-0.095231
-0.132667
-0.194131
-0.213330
-0.227913
-0.220455
-0.210702
-0.195488
-0.167875
-0.127174
-0.071414
-0.017247
0.028314
0.074358
0.090116
0.100792
0.095046
0.052940
0.023822
-0.000771
-0.053178
-0.101854
-0.139323
-0.183538
-0.207895
-0.201084
-0.204329
-0.189319
-0.154013
-0.114062
-0.055000
-0.015383
0.034155
0.062727
0.083349
0.097007
0.086665
0.059463
0.032324
-0.001281
-0.035254
-0.089483
-0.114966
-0.152792
-0.165419
-0.174018
-0.170009
-0.152744
-0.123152
-0.085204
-0.054522
0.010415
0.056425
0.086292
0.102968
0.111419
0.101030
0.061428
0.034594
-0.013738
-0.055747
-0.091040
-0.144085
-0.179513
-0.214175
-0.246047
-0.220269
-0.198206
-0.173007
-0.115927
-0.078696
-0.037517
-0.000523
0.034155
0.058523
0.059204
0.048619
0.019524
-0.018982
-0.049304
-0.095208
-0.152882
-0.215913
-0.253783
-0.261743
-0.267861
-0.258163
-0.236493
-0.201340
-0.166495
-0.108829
-0.058953
-0.019520
0.020078
0.019422
0.015868
0.003476
-0.027304
-0.042264
-0.097635
-0.135587
-0.163570
-0.197793
-0.237400
-0.264171
-0.273387
-0.259530
-0.241745
-0.210270
-0.163760
-0.115622
-0.076947
-0.039776
0.001520
0.015802
0.030955
0.028436
0.000680
-0.025292
-0.076032
-0.127196
-0.178705
-0.221732
-0.260622
-0.274722
-0.279077
-0.263023
-0.248107
-0.208003
-0.165909
-0.116159
-0.077506
-0.020742
0.001377
0.029053
0.036388
0.015246
-0.007821
-0.047614
-0.075922
-0.127283
-0.177627
-0.221848
-0.246301
-0.270169
-0.274122
-0.271122
-0.240384
-0.205588
-0.171051
-0.128372
-0.088677
-0.049215
0.002096
0.010481
-0.007864
-0.013731
-0.027438
-0.052712
-0.091870
-0.150202
-0.188027
-0.212663
-0.241067
-0.232162
-0.224754
-0.214284
-0.170377
-0.122067
-0.071926
-0.002401
0.057005
0.116223
0.174106
0.214510
0.224634
0.234203
0.240227
0.240953
0.217762
0.191819
0.181023
0.166429
0.164831
0.173848
0.197052
0.233310
0.288161
0.359261
0.447063
0.528313
0.589970
0.689468
0.772278
0.803990
0.825852
0.822830
0.802994
0.766089
0.700368
0.632064
0.576716
0.496964
0.411857
0.334478
0.247035
0.192573
0.134999
0.153811
0.157675
0.171567
0.171663
0.166714
0.174646
0.180559
0.175548
0.154617
0.129528
0.086178
0.033061
-0.025103
-0.062661
-0.109256
-0.146229
-0.146164
-0.172036
-0.187404
-0.167104
-0.119494
-0.081391
-0.026349
0.017058
0.043523
0.062025
0.079612
0.109959
0.099439
0.049707
0.005969
-0.043968
-0.092954
-0.128059
-0.166787
-0.199261
-0.213739
-0.229693
-0.233282
-0.214895
-0.168125
-0.113945
-0.074525
-0.036470
0.008340
0.049774
0.068231
0.056116
0.041936
0.030490
-0.014123
-0.056532
-0.113213
-0.165723
-0.202161
-0.224319
-0.224422
-0.255170
-0.243922
-0.220331
-0.181112
-0.128593
-0.070558
-0.044001
0.002166
0.052449
0.072329
0.065699
0.055669
0.041393
0.017777
-0.021736
-0.074529
-0.123594
-0.175221
-0.221921
-0.237951
-0.245740
-0.226213
-0.215422
-0.202973
-0.139645
-0.073921
-0.026045
0.019378
0.054465
0.076332
0.078214
0.063901
0.036127
0.008406
-0.021021
-0.071996
-0.118470
-0.156937
-0.184981
-0.216079
-0.219310
-0.221114
-0.181099
-0.146788
-0.112433
-0.033471
0.001452
0.016990
0.075380
0.095631
0.105882
0.100266
0.075322
0.024817
0.000625
-0.054277
-0.087700
-0.135640
-0.172833
-0.186488
-0.175755
-0.169811
-0.156727
-0.126916
-0.075887
-0.017984
0.024583
0.067937
0.091838
0.120125
0.122180
0.105035
0.094902
0.078395
0.034082
-0.050947
-0.078993
-0.110154
-0.150269
-0.164642
-0.171015
-0.165030
-0.147461
-0.116147
-0.078911
-0.020328
0.039681
0.076280
0.097857
0.121756
0.137312
0.140910
0.117730
0.088621
0.041868
-0.006560
-0.051883
-0.094452
-0.129116
-0.167144
-0.168739
-0.161351
-0.147759
-0.120085
-0.065426
-0.016149
0.033849
0.092850
0.120640
0.108551
0.129096
0.112859
0.093071
0.071393
0.046995
-0.009084
-0.064372
-0.106677
-0.148789
-0.174725
-0.178054
-0.173974
-0.138414
-0.109278
-0.069969
-0.027592
-0.003443
0.054122
0.109575
0.133020
0.130018
0.108483
0.074545
0.037228
0.013571
-0.052153
-0.075097
-0.129029
-0.179998
-0.199057
-0.201467
-0.184431
-0.178182
-0.150350
-0.096968
-0.046703
0.009126
0.044822
0.081435
0.088733
0.095679
0.088518
0.067338
0.026759
-0.018979
-0.071604
-0.109315
-0.159169
-0.186939
-0.213960
-0.219054
-0.208290
-0.178218
-0.149594
-0.113659
-0.051901
-0.022420
0.021443
0.043537
0.063440
0.077951
0.077813
0.040805
-0.020100
-0.054879
-0.083851
-0.130647
-0.180883
-0.226324
-0.230291
-0.236382
-0.227907
-0.201064
-0.157474
-0.124322
-0.079368
-0.046596
0.001149
0.045160
0.045002
0.053512
0.044359
0.027035
0.007571
-0.026341
-0.098793
-0.143931
-0.192547
-0.223226
-0.249044
-0.246733
-0.255633
-0.221788
-0.181438
-0.135162
-0.088700
-0.027744
0.004082
0.031620
0.056974
0.059177
0.044085
0.020905
-0.004894
-0.073012
-0.132838
-0.163854
-0.197272
-0.226385
-0.225559
-0.239607
-0.243408
-0.207483
-0.161398
-0.122327
-0.082276
-0.033131
0.011138
0.039118
0.055259
0.050297
0.031989
0.019502
-0.009731
-0.054105
-0.125074
-0.149487
-0.166951
-0.201074
-0.214176
-0.216747
-0.219865
-0.202513
-0.175435
-0.132570
-0.083938
-0.037067
0.022389
0.051523
0.057501
0.065707
0.044903
0.033411
0.013003
-0.057578
-0.101429
-0.129798
-0.167056
-0.200719
-0.219359
-0.224632
-0.217484
-0.179471
-0.153024
-0.117536
-0.067706
-0.013675
0.030617
0.072580
0.062895
0.071106
0.064452
0.042186
0.004921
-0.034012
-0.087271
-0.131536
-0.176466
-0.201513
-0.228795
-0.232320
-0.233063
-0.221576
-0.168390
-0.115294
-0.082771
-0.042207
0.007586
0.057273
0.060353
0.062962
0.048819
0.049277
0.006754
-0.038034
-0.091070
-0.130302
-0.180457
-0.213698
-0.237122
-0.231145
-0.227413
-0.203712
-0.172593
-0.133726
-0.080386
-0.046408
-0.011348
0.030801
0.051547
0.055357
0.056403
0.031675
-0.005653
-0.043045
-0.100138
-0.138265
-0.177578
-0.209153
-0.228202
-0.236507
-0.239829
-0.208399
-0.168388
-0.133249
-0.077724
-0.032867
0.010251
0.046776
0.041249
0.042376
0.035983
0.014611
-0.025746
-0.054630
-0.102533
-0.132284
-0.173657
-0.212434
-0.230460
-0.216324
-0.225763
-0.218083
-0.171750
-0.127699
-0.087403
-0.037222
0.008306
0.042770
0.065073
0.075565
0.045648
0.038910
0.027764
-0.012387
-0.062989
-0.107362
-0.152966
-0.185612
-0.191467
-0.203659
-0.185299
-0.176983
-0.171421
-0.124778
-0.073124
-0.021139
0.036434
0.054542
0.071549
0.114906
0.093927
0.056305
0.011271
-0.039744
-0.109585
-0.123607
-0.155883
-0.194868
-0.210483
-0.214329
-0.199385
-0.167906
-0.135696
-0.086722
-0.029264
0.011048
0.059647
0.099731
0.139121
0.131580
0.112890
0.077154
0.047280
0.013122
-0.036712
-0.100790
-0.156384
-0.190377
-0.206058
-0.212010
-0.211057
-0.178925
-0.153956
-0.099125
-0.044705
0.001574
0.040604
0.076617
0.079234
0.081286
0.064912
0.042882
0.000519
-0.048942
-0.101670
-0.160748
-0.196549
-0.228316
-0.239826
-0.250069
-0.248406
-0.231206
-0.190658
-0.145434
-0.095187
-0.059844
-0.027541
-0.001090
0.032135
0.037968
0.025286
-0.015249
-0.043341
-0.072991
-0.105422
-0.163495
-0.215523
-0.248961
-0.270287
-0.275887
-0.276016
-0.255826
-0.220077
-0.187011
-0.143971
-0.100835
-0.051894
-0.007111
0.030953
0.020564
0.008683
-0.007389
-0.047558
-0.092635
-0.138213
-0.180356
-0.245745
-0.266382
-0.273808
-0.264346
-0.266815
-0.245748
-0.221723
-0.189628
-0.127102
-0.071602
-0.032698
-0.016007
0.004415
0.009758
-0.013262
-0.003899
-0.031287
-0.057976
-0.118423
-0.171327
-0.215254
-0.245881
-0.275187
-0.298174
-0.281312
-0.252481
-0.218894
-0.181098
-0.137037
-0.089914
-0.048625
-0.019977
0.015499
0.016638
0.019090
-0.014257
-0.061262
-0.098429
-0.130236
-0.181613
-0.221387
-0.273036
-0.293330
-0.318565
-0.297484
-0.271755
-0.236120
-0.179963
-0.130401
-0.078779
-0.016854
0.020414
0.058807
0.077201
0.096725
0.074869
0.056501
0.032601
-0.014358
-0.043405
-0.060927
-0.070784
-0.080041
-0.061813
-0.019566
0.034911
0.086403
0.157084
0.234251
0.314217
0.384592
0.446767
0.505841
0.555237
0.550156
0.572639
0.582464
0.580503
0.554584
0.551358
0.552020
0.554274
0.548501
0.548646
0.544537
0.544345
0.571872
0.604612
0.641082
0.661595
0.667493
0.642623
0.588239
0.514368
0.444532
0.378707
0.290501
0.209669
0.101520
0.019911
-0.038021
-0.108434
-0.110186
-0.113755
-0.098398
-0.094384
-0.079484
-0.044897
0.008917
0.059533
0.107539
0.130489
0.150902
0.150927
0.133250
0.085493
0.043772
-0.013698
-0.070544
-0.113777
-0.165258
-0.206497
-0.211592
-0.227835
-0.203138
-0.173428
-0.146548
-0.132219
-0.079302
-0.026169
0.022313
0.053662
0.063202
0.057446
0.054096
0.036658
-0.005395
-0.059627
-0.098927
-0.152587
-0.190350
-0.209414
-0.225127
-0.232249
-0.246218
-0.230358
-0.208800
-0.139143
-0.084717
-0.049295
-0.003456
0.031929
0.050715
0.067674
0.049727
0.019300
-0.018344
-0.067196
-0.111300
-0.161041
-0.204009
-0.235319
-0.260667
-0.238929
-0.236572
-0.210322
-0.170327
-0.119944
-0.076725
-0.035144
0.003968
0.046873
0.079872
0.076972
0.055694
0.045524
0.001189
-0.047573
-0.096102
-0.150401
-0.186775
-0.222996
-0.229881
-0.237468
-0.227696
-0.186390
-0.152538
-0.106263
-0.063071
-0.017212
0.032852
0.068054
0.096632
0.086667
0.073759
0.059624
0.018740
-0.025913
-0.061252
-0.105220
-0.151113
-0.182269
-0.200995
-0.207119
-0.194108
-0.177374
-0.145228
-0.103547
-0.058859
-0.016116
0.044744
0.076327
0.087286
0.099164
0.088795
0.064705
0.046286
0.006386
-0.053320
-0.101499
-0.132126
-0.163991
-0.172712
-0.164996
-0.171460
-0.143410
-0.119708
-0.076619
-0.012369
0.008385
0.055977
0.086486
0.115938
0.127103
0.117880
0.089736
0.048587
0.005514
-0.044904
-0.084556
-0.117638
-0.143411
-0.168506
-0.194520
-0.178151
-0.139096
-0.107412
-0.078162
-0.015048
0.030949
0.075886
0.109535
0.126261
0.136535
0.117951
0.094871
0.054705
0.014696
-0.030875
-0.082477
-0.127094
-0.163975
-0.183579
-0.185482
-0.184972
-0.157303
-0.098674
-0.074398
-0.024896
0.031958
0.063121
0.086446
0.104437
0.094187
0.117674
0.091563
0.044373
-0.009278
-0.069519
-0.111952
-0.153834
-0.191147
-0.196323
-0.203740
-0.185403
-0.167568
-0.131813
-0.088352
-0.040213
-0.011550
0.016181
0.059279
0.088605
0.104370
0.085005
0.052859
0.015357
-0.019697
-0.066014
-0.106653
-0.141676
-0.190119
-0.204131
-0.230552
-0.216046
-0.187151
-0.145852
-0.101238
-0.056638
-0.002941
0.031491
0.057603
0.087726
0.075555
0.062745
0.033555
0.011670
-0.035891
-0.093575
-0.118723
-0.182615
-0.201001
-0.213603
-0.235273
-0.228291
-0.186888
-0.157565
-0.120877
-0.064882
-0.022259
0.011798
0.037584
0.053909
0.072167
0.041898
0.010871
-0.009535
-0.034597
-0.086631
-0.129435
-0.169461
-0.196418
-0.239044
-0.254264
-0.244257
-0.217541
-0.172720
-0.147598
-0.093554
-0.039972
0.006449
0.036705
0.064408
0.060735
0.035579
0.014186
0.013008
-0.017464
-0.087366
-0.135356
-0.183524
-0.215627
-0.228017
-0.239084
-0.207981
-0.198201
-0.158555
-0.125555
-0.082199
-0.052936
0.006066
0.038609
0.057631
0.065184
0.049588
0.032811
0.005129
-0.028932
-0.080467
-0.135270
-0.171997
-0.215809
-0.231359
-0.236674
-0.210432
-0.156096
-0.149498
-0.130493
-0.065687
-0.020908
0.021102
0.069176
0.078817
0.074690
0.064387
0.031657
0.006693
-0.032021
-0.094426
-0.131204
-0.170155
-0.205763
-0.221076
-0.224245
-0.200526
-0.171094
-0.139197
-0.101658
-0.072544
-0.010800
0.033911
0.059225
0.088088
0.082320
0.075581
0.056900
0.016983
-0.024596
-0.079607
-0.114794
-0.162539
-0.193803
-0.230938
-0.225140
-0.212343
-0.198953
-0.166013
-0.114448
-0.043881
-0.000641
0.028984
0.051740
0.079335
0.080061
0.057048
0.046923
0.007087
-0.030213
-0.077348
-0.119038
-0.158939
-0.190821
-0.215735
-0.218928
-0.205368
-0.181868
-0.145562
-0.105404
-0.073892
-0.024695
0.007999
0.038296
0.074947
0.090911
0.104139
0.085536
0.038128
-0.023948
-0.083679
-0.131317
-0.165903
-0.192798
-0.212378
-0.225895
-0.203281
-0.177806
-0.143228
-0.096344
-0.057358
-0.029341
0.013963
0.060967
0.067013
0.073522
0.079280
0.054517
0.003001
-0.027575
-0.091295
-0.128179
-0.161634
-0.209385
-0.232032
-0.233041
-0.220362
-0.196910
-0.161464
-0.112131
-0.069893
-0.011374
0.028773
0.055619
0.069232
0.082850
0.074115
0.053932
0.010617
-0.013615
-0.090963
-0.132022
-0.156632
-0.196483
-0.230036
-0.247189
-0.216156
-0.179796
-0.133397
-0.101527
-0.053664
0.007804
0.056284
0.087710
0.102979
0.119718
0.109587
0.076559
0.042088
0.005756
-0.048679
-0.100050
-0.144384
-0.169128
-0.200720
-0.182274
-0.173321
-0.159626
-0.136241
-0.092118
-0.029202
-0.004326
0.042460
0.085933
0.099720
0.111890
0.107427
0.062368
0.063942
0.027002
-0.030170
-0.073430
-0.119399
-0.153730
-0.178055
-0.178528
-0.157345
-0.130223
-0.123162
-0.085875
-0.020045
0.041167
0.079230
0.114365
0.123116
0.118129
0.103441
0.093333
0.063445
0.013464
-0.046626
-0.109910
-0.154174
-0.177553
-0.203922
-0.207835
-0.193851
-0.184666
-0.161518
-0.122545
-0.074276
-0.019534
0.020391
0.053584
0.065527
0.075851
0.064503
0.050722
0.008851
-0.045092
-0.091113
-0.134796
-0.183060
-0.218967
-0.229462
-0.243219
-0.239761
-0.218543
-0.191287
-0.158907
-0.101789
-0.060765
-0.024052
0.016573
0.040859
0.035545
0.025769
-0.003167
-0.039606
-0.094698
-0.141030
-0.185041
-0.218605
-0.240832
-0.253228
-0.247457
-0.236850
-0.229063
-0.196560
-0.158325
-0.113295
-0.054761
-0.015636
0.021618
0.042547
0.062832
0.049759
0.023642
-0.019104
-0.084069
-0.125914
-0.160124
-0.219829
-0.252879
-0.254153
-0.271746
-0.256225
-0.229528
-0.200016
-0.164788
-0.112796
-0.065040
-0.023228
0.028774
0.044499
0.052729
0.028417
0.013251
-0.031938
-0.060363
-0.111928
-0.151507
-0.211368
-0.232900
-0.251746
-0.283094
-0.268300
-0.234414
-0.200125
-0.157487
-0.121641
-0.072637
-0.018685
0.014181
0.047055
0.040832
0.011894
-0.007722
-0.033941
-0.086604
-0.132990
-0.176301
-0.213179
-0.229300
-0.227521
-0.196484
-0.174926
-0.146507
-0.092271
-0.038411
0.017370
0.094287
0.147396
0.186797
0.225659
0.258599
0.280208
0.281081
0.271393
0.243875
0.227851
0.215596
0.205440
0.197509
0.203564
0.236854
0.287252
0.344311
0.423954
0.500823
0.599241
0.673774
0.754510
0.827373
0.882463
0.895685
0.870817
0.836449
0.765906
0.727696
0.661695
0.600156
0.511233
0.452453
0.366451
0.272975
0.211660
0.182952
0.162327
0.157813
0.167258
0.163257
0.186248
0.212578
0.224234
0.220106
0.199399
0.160606
0.127751
0.080340
0.026123
-0.021978
-0.071858
-0.102182
-0.120926
-0.132712
-0.133455
-0.115581
-0.080544
-0.033212
0.000230
0.024540
0.065412
0.087653
0.101171
0.076510
0.069315
0.071274
0.024418
-0.014601
-0.052020
-0.102171
-0.149835
-0.181498
-0.213746
-0.229318
-0.202306
-0.191210
-0.151754
-0.110941
-0.061509
-0.019411
0.028179
0.065042
0.089726
0.091448
0.085354
0.060305
0.024399
-0.013569
-0.060562
-0.120354
-0.159238
-0.183284
-0.228524
-0.224050
-0.211476
-0.189660
-0.170984
-0.131174
-0.065910
-0.016106
0.023153
0.055593
0.072024
0.076473
0.072029
0.051124
0.010464
-0.036203
-0.075848
-0.112920
-0.171361
-0.188207
-0.195498
-0.198277
-0.185617
-0.157186
-0.129397
-0.088655
-0.051082
-0.005892
0.022319
0.054073
0.082402
0.087877
0.084207
0.074931
0.017871
-0.015628
-0.071196
-0.121118
-0.155041
-0.174875
-0.212516
-0.185232
-0.178386
-0.165160
-0.128714
-0.086917
-0.047202
-0.000234
0.052271
0.098034
0.121469
0.124272
0.092316
0.087378
0.068986
0.020705
-0.035572
-0.085400
-0.119387
-0.163373
-0.195436
-0.194534
-0.170904
-0.132609
-0.110022
-0.065925
-0.001058
0.045655
0.093902
0.121443
0.134268
0.142575
0.138314
0.121315
0.086851
0.036593
-0.019493
-0.076564
-0.117847
-0.154676
-0.166134
-0.157980
-0.154602
-0.129132
-0.087277
-0.050616
0.003695
0.035687
0.084864
0.114017
0.151269
0.169340
0.137519
0.115843
0.097376
0.044580
-0.023943
-0.065260
-0.100532
-0.131716
-0.157772
-0.173902
-0.145907
-0.119740
-0.107049
-0.079272
0.002092
0.054162
0.091242
0.109762
0.130404
0.134395
0.121407
0.106085
0.079070
0.043631
-0.024163
-0.070983
-0.121328
-0.155230
-0.182537
-0.194090
-0.181297
-0.139495
-0.101391
-0.049162
-0.018430
0.026850
0.068527
0.110267
0.127925
0.132588
0.102639
0.069071
0.046047
0.014138
-0.048023
-0.077834
-0.120969
-0.169261
-0.182265
-0.205403
-0.197448
-0.156226
-0.118954
-0.073290
-0.031203
0.014772
0.051524
0.088232
0.104789
0.106836
0.102119
0.081510
0.044180
-0.010042
-0.057452
-0.114547
-0.151403
-0.190435
-0.209615
-0.209292
-0.211442
-0.196676
-0.143342
-0.085527
-0.035768
0.006827
0.051151
0.073480
0.099323
0.103990
0.078335
0.052732
0.034102
-0.012474
-0.058265
-0.095928
-0.166965
-0.215413
-0.246119
-0.216445
-0.205064
-0.191849
-0.155507
-0.106653
-0.058541
-0.021437
0.017510
0.077181
0.095905
0.094265
0.078518
0.055323
0.011155
-0.027323
-0.074679
-0.116315
-0.165962
-0.189086
-0.216536
-0.210837
-0.191761
-0.173125
-0.156328
-0.127691
-0.083764
-0.023840
0.026144
0.060838
0.081120
0.091271
0.081219
0.067180
0.017010
-0.015299
-0.059096
-0.111358
-0.152580
-0.182538
-0.212388
-0.197786
-0.198878
-0.195228
-0.139363
-0.099732
-0.058300
-0.005625
0.030551
0.055144
0.083073
0.093209
0.094435
0.071861
0.022400
-0.020874
-0.059392
-0.099573
-0.150237
-0.188748
-0.218302
-0.225015
-0.190255
-0.167773
-0.135431
-0.087533
-0.043688
0.008900
0.044663
0.062511
0.087978
0.092055
0.079956
0.069220
0.055486
0.013977
-0.041528
-0.098347
-0.153109
-0.195175
-0.201329
-0.200199
-0.204260
-0.174307
-0.135411
-0.065097
-0.015025
0.013697
0.045074
0.080166
0.098139
0.112166
0.097470
0.068253
0.043928
-0.004076
-0.053424
-0.101689
-0.145771
-0.172661
-0.212044
-0.214932
-0.201548
-0.172659
-0.124333
-0.092018
-0.050404
0.011321
0.063055
0.077057
0.079991
0.092865
0.086975
0.077783
0.040138
-0.011497
-0.065206
-0.109532
-0.147187
-0.198599
-0.201000
-0.195678
-0.197669
-0.175397
-0.146560
-0.109602
-0.053459
-0.008004
0.038555
0.062428
0.087358
0.094510
0.086263
0.058417
0.031683
-0.023402
-0.070129
-0.102134
-0.152735
-0.174544
-0.188006
-0.202734
-0.193668
-0.181542
-0.145964
-0.101989
-0.058585
-0.015518
0.029720
0.052916
0.076314
0.076019
0.071637
0.057679
0.009727
-0.037165
-0.074345
-0.115838
-0.165949
-0.196384
-0.206982
-0.209945
-0.200105
-0.186983
-0.156846
-0.103616
-0.058797
-0.029481
0.006973
0.064994
0.086062
0.074889
0.081770
0.056833
0.018400
-0.020345
-0.072282
-0.114334
-0.154489
-0.191910
-0.216575
-0.215750
-0.198285
-0.179849
-0.167375
-0.116111
-0.062149
-0.009559
0.034170
0.050439
0.072123
0.085040
0.092167
0.072448
0.025826
-0.021324
-0.062466
-0.109357
-0.165048
-0.189993
-0.193846
-0.198902
-0.179151
-0.168287
-0.124833
-0.074689
-0.025094
0.007034
0.060276
0.096481
0.111111
0.113940
0.102947
0.085560
0.051475
0.012827
-0.040080
-0.089520
-0.126525
-0.157261
-0.170036
-0.182771
-0.180153
-0.146737
-0.111737
-0.074215
-0.028400
0.014753
0.059070
0.087628
0.110496
0.111742
0.106341
0.108176
0.082012
0.046595
-0.017314
-0.081794
-0.125851
-0.153122
-0.157988
-0.168907
-0.153524
-0.125777
-0.081722
-0.051969
-0.002506
0.050953
0.072013
0.104323
0.118538
0.125393
0.107422
0.081496
0.052461
-0.001079
-0.065336
-0.125591
-0.144499
-0.167631
-0.185945
-0.211246
-0.206948
-0.181469
-0.156407
-0.100475
-0.052033
-0.005971
0.029951
0.067716
0.075025
0.076666
0.081127
0.055841
0.018158
-0.028579
-0.088304
-0.139981
-0.179175
-0.210894
-0.220521
-0.227884
-0.231896
-0.212779
-0.172439
-0.138708
-0.086490
-0.053130
-0.006379
0.012852
0.048171
0.061047
0.052232
0.027934
-0.019465
-0.066775
-0.102592
-0.141722
-0.179372
-0.224513
-0.252616
-0.248960
-0.238525
-0.222923
-0.186276
-0.145961
-0.097353
-0.054145
-0.014588
0.023156
0.041758
0.048205
0.052154
0.009963
-0.030089
-0.062601
-0.095941
-0.144665
-0.196364
-0.234187
-0.246275
-0.266041
-0.268998
-0.218529
-0.177708
-0.135569
-0.090480
-0.034488
0.004729
0.020150
0.043575
0.045875
0.046342
0.038347
-0.002196
-0.039804
-0.097267
-0.157658
-0.198298
-0.215499
-0.235221
-0.246415
-0.240245
-0.217404
-0.193122
-0.159047
-0.108888
-0.059488
-0.005674
0.023377
0.034399
0.035538
0.020802
0.005376
-0.031243
-0.060124
-0.099888
-0.137465
-0.159771
-0.179880
-0.194418
-0.184450
-0.160545
-0.116712
-0.065509
-0.013113
0.045574
0.116670
0.150748
0.199944
0.249106
0.255675
0.269752
0.286534
0.272285
0.264019
0.249119
0.246561
0.230482
0.211554
0.235507
0.251022
0.300209
0.351821
0.426993
0.512081
0.599740
0.681878
0.747912
0.825947
0.867364
0.872090
0.861344
0.861318
0.816924
0.742266
0.629909
0.562088
0.507977
0.431102
0.334887
0.268430
0.212761
0.171873
0.170996
0.168253
0.181617
0.183026
0.208382
0.227667
0.241246
0.236750
0.228487
0.205651
0.159037
0.097152
0.026389
-0.011746
-0.057234
-0.091235
-0.121802
-0.129348
-0.122284
-0.104699
-0.103030
-0.052185
-0.006621
0.023925
0.068879
0.112445
0.122578
0.120270
0.107120
0.094387
0.058518
0.002620
-0.055823
-0.094440
-0.134638
-0.170192
-0.198591
-0.202509
-0.199397
-0.173689
-0.141496
-0.104416
-0.053950
-0.000972
0.037504
0.067882
0.087808
0.090353
0.101572
0.069895
0.023430
-0.010484
-0.067494
-0.120468
-0.156148
-0.180238
-0.188632
-0.192882
-0.183032
-0.167237
-0.139634
-0.108124
-0.056003
-0.025368
0.018003
0.061628
0.077088
0.084178
0.088305
0.070655
0.043252
-0.004315
-0.046203
-0.093097
-0.135059
-0.173353
-0.182647
-0.180733
-0.185375
-0.170923
-0.132745
-0.082983
-0.034012
0.019661
0.054749
0.085332
0.097064
0.092162
0.090384
0.080188
0.048316
0.003923
-0.027865
-0.078332
-0.135159
-0.168938
-0.187496
-0.183912
-0.181407
-0.154122
-0.125018
-0.069230
-0.013696
0.028345
0.071622
0.089217
0.120827
0.132399
0.147083
0.124738
0.065583
0.024377
-0.020146
-0.071017
-0.115067
-0.136631
-0.147686
-0.154724
-0.147524
-0.115568
-0.086072
-0.046334
0.000954
0.044888
0.073564
0.115837
0.160991
0.177925
0.157681
0.119204
0.085678
0.053778
0.007940
-0.043643
-0.072896
-0.115616
-0.132139
-0.117111
-0.127830
-0.106310
-0.079053
-0.032666
0.032079
0.084571
0.115053
0.131966
0.147539
0.168207
0.162312
0.146895
0.113125
0.068264
0.014476
-0.032273
-0.061938
-0.099151
-0.122453
-0.131790
-0.127415
-0.101707
-0.066442
-0.007113
0.007278
0.041162
0.092633
0.141610
0.166698
0.170767
0.156137
0.133728
0.103057
0.075230
0.009150
-0.055710
-0.103440
-0.128196
-0.153123
-0.154123
-0.141441
-0.131221
-0.090300
-0.033207
0.002926
0.044597
0.090004
0.122847
0.135772
0.145593
0.137064
0.125660
0.080941
0.044787
0.000579
-0.052741
-0.092507
-0.137703
-0.154011
-0.156632
-0.160220
-0.140921
-0.110520
-0.064895
-0.028564
0.014421
0.054974
0.109135
0.124914
0.128793
0.131565
0.101390
0.055153
0.013130
-0.023765
-0.057578
-0.101321
-0.144687
-0.175020
-0.188109
-0.178078
-0.157279
-0.116079
-0.088497
-0.049515
0.005815
0.051937
0.080730
0.099038
0.083091
0.088221
0.070414
0.042368
0.000778
-0.048822
-0.103349
-0.141317
-0.171225
-0.192726
-0.188311
-0.193547
-0.157314
-0.123372
-0.095618
-0.054844
0.004470
0.051255
0.074490
0.088594
0.080852
0.081480
0.069485
0.030069
-0.010406
-0.055315
-0.096914
-0.148544
-0.181047
-0.201479
-0.201897
-0.197609
-0.173645
-0.137480
-0.098218
-0.049860
0.007307
0.041494
0.066759
0.094062
0.099609
0.082531
0.070430
0.033243
-0.000671
-0.059052
-0.109451
-0.154328
-0.180148
-0.203907
-0.207987
-0.201685
-0.176961
-0.149777
-0.093588
-0.052459
0.005641
0.060243
0.092288
0.104528
0.119973
0.103735
0.076522
0.036659
-0.005128
-0.048991
-0.089442
-0.124924
-0.168031
-0.196964
-0.197818
-0.186617
-0.159878
-0.134492
-0.088561
-0.033133
0.012160
0.060214
0.093636
0.125614
0.136257
0.110622
0.071583
0.045540
0.006671
-0.033520
-0.082842
-0.121799
-0.149737
-0.185760
-0.194500
-0.191697
-0.154599
-0.126324
-0.085522
-0.038229
0.011190
0.049524
0.083903
0.108885
0.109074
0.094856
0.080075
0.048269
0.006280
-0.041504
-0.081885
-0.123017
-0.147865
-0.167097
-0.191968
-0.193729
-0.163892
-0.121447
-0.078604
-0.040326
0.016862
0.046195
0.081361
0.105539
0.116941
0.105841
0.081558
0.050107
0.002516
-0.043169
-0.091256
-0.128523
-0.160185
-0.177206
-0.195749
-0.181283
-0.169376
-0.141281
-0.089690
-0.043810
-0.005845
0.034154
0.067489
0.098144
0.114538
0.100208
0.054038
0.032081
-0.013892
-0.060934
-0.105102
-0.168973
-0.185753
-0.190323
-0.194327
-0.180513
-0.155970
-0.124474
-0.084079
-0.030868
0.009105
0.039163
0.064183
0.082489
0.095118
0.087745
0.076607
0.037793
-0.019459
-0.065102
-0.110337
-0.151366
-0.180996
-0.200067
-0.201280
-0.198110
-0.176501
-0.142377
-0.096244
-0.050516
-0.008734
0.040844
0.080385
0.098401
0.092047
0.063477
0.050430
0.028094
-0.013851
-0.072289
-0.110584
-0.158178
-0.197976
-0.232656
-0.224977
-0.217027
-0.185432
-0.147905
-0.111993
-0.067827
-0.016157
0.042253
0.062402
0.077053
0.089663
0.084512
0.068579
0.021370
-0.022767
-0.067925
-0.116881
-0.155618
-0.192102
-0.200954
-0.214364
-0.214795
-0.200669
-0.158965
-0.114367
-0.069914
0.004770
0.031278
0.067730
0.089114
0.081506
0.078546
0.064952
0.033417
-0.027640
-0.063333
-0.093040
-0.141479
-0.186740
-0.216495
-0.212316
-0.208034
-0.180654
-0.127156
-0.075613
-0.021211
0.023998
0.063267
0.094098
0.114614
0.116308
0.105792
0.099026
0.071576
0.031384
-0.029609
-0.070629
-0.101873
-0.152477
-0.165486
-0.172071
-0.162477
-0.147175
-0.107116
-0.068764
-0.023598
0.025810
0.058574
0.084139
0.111001
0.122842
0.119255
0.097937
0.066134
0.025804
-0.014916
-0.064902
-0.105096
-0.136848
-0.155390
-0.168538
-0.161049
-0.122538
-0.085210
-0.042116
-0.007720
0.038371
0.071226
0.101874
0.118007
0.125560
0.115923
0.078457
0.045871
0.001357
-0.050174
-0.101160
-0.150488
-0.166129
-0.164122
-0.191596
-0.197237
-0.176203
-0.138101
-0.102980
-0.056699
-0.002653
0.036981
0.066753
0.080424
0.079514
0.058691
0.033251
0.019895
-0.027783
-0.059161
-0.114348
-0.167044
-0.208599
-0.233047
-0.234891
-0.236487
-0.210588
-0.178378
-0.140180
-0.065310
-0.022137
0.020273
0.036643
0.052866
0.050685
0.037834
0.024413
-0.003052
-0.054612
-0.104854
-0.143708
-0.176563
-0.209769
-0.241658
-0.265300
-0.261076
-0.227035
-0.169595
-0.138421
-0.089567
-0.028285
0.007737
0.020634
0.042352
0.041303
0.029779
0.020561
-0.015051
-0.048263
-0.116553
-0.144156
-0.169529
-0.203748
-0.238996
-0.265031
-0.251721
-0.225872
-0.186185
-0.143212
-0.099351
-0.046775
-0.008203
0.027643
0.060156
0.063007
0.042654
0.023770
-0.001068
-0.054266
-0.114100
-0.174498
-0.205057
-0.227507
-0.243438
-0.249160
-0.255111
-0.206430
-0.166692
-0.134555
-0.077054
-0.032972
-0.000530
0.020931
0.041319
0.029412
0.028121
0.025810
-0.017756
-0.081361
-0.118490
-0.156973
-0.203746
-0.228754
-0.235399
-0.228484
-0.211677
-0.199785
-0.157331
-0.084977
-0.045250
0.021087
0.104054
0.148333
0.172432
0.188603
0.207775
0.204266
0.192754
0.172246
0.172487
0.152967
0.147043
0.151301
0.155349
0.191051
0.245164
0.294370
0.354559
0.434489
0.524923
0.605238
0.708808
0.786094
0.828835
0.878959
0.889678
0.885113
0.852154
0.794941
0.757482
0.699944
0.613591
0.569042
0.538017
0.494940
0.427248
0.371182
0.332706
0.314034
0.309017
0.295207
0.295599
0.282557
0.293594
0.293058
0.274206
0.241765
0.192610
0.139839
0.079018
0.019886
-0.043624
-0.082485
-0.116026
-0.124664
-0.135005
-0.120216
-0.094285
-0.044251
0.001598
0.046668
0.077041
0.102192
0.130882
0.125968
0.116564
0.095165
0.054193
0.001309
-0.048699
-0.095003
-0.139462
-0.167173
-0.199795
-0.200378
-0.193910
-0.185439
-0.152990
-0.099283
-0.050414
-0.009220
0.019185
0.066589
0.098482
0.103329
0.063625
0.062554
0.033204
-0.015985
-0.063369
-0.104518
-0.172464
-0.206719
-0.214980
-0.250800
-0.218972
-0.184637
-0.148680
-0.099996
-0.047824
0.003611
0.045974
0.065857
0.072115
0.075969
0.064571
0.049529
0.023726
-0.016177
-0.076318
-0.112824
-0.142932
-0.176100
-0.198943
-0.197082
-0.190972
-0.161613
-0.127632
-0.088877
-0.060882
-0.002374
0.042125
0.068680
0.086727
0.097066
0.087028
0.064160
0.028930
-0.010746
-0.053025
-0.088766
-0.118511
-0.153720
-0.184159
-0.190478
-0.184104
-0.166858
-0.129545
-0.079814
-0.037312
0.015619
0.057635
0.090619
0.115677
0.122787
0.107384
0.084613
0.052737
0.006083
-0.030989
-0.069226
-0.109331
-0.135911
-0.159143
-0.155711
-0.156382
-0.148664
-0.102672
-0.041615
0.001502
0.051247
0.081894
0.122843
0.143195
0.141403
0.136884
0.132592
0.096076
0.051170
-0.017830
-0.060855
-0.105235
-0.122128
-0.140091
-0.138851
-0.127998
-0.105556
-0.071217
-0.036273
0.000609
0.058838
0.106654
0.158609
0.176877
0.171098
0.158954
0.140228
0.102314
0.062741
0.020127
-0.035302
-0.078201
-0.103358
-0.127800
-0.129461
-0.130174
-0.106160
-0.064738
-0.026007
0.011291
0.060674
0.111556
0.151610
0.169132
0.176153
0.164725
0.148601
0.117576
0.061117
0.001043
-0.042315
-0.088423
-0.116539
-0.147757
-0.162081
-0.144476
-0.113661
-0.072587
-0.035695
0.010869
0.051456
0.087322
0.125532
0.142797
0.154449
0.152139
0.129552
0.084995
0.035355
-0.006336
-0.049404
-0.099849
-0.133892
-0.158443
-0.182717
-0.177167
-0.152977
-0.112635
-0.068627
-0.020560
0.021206
0.068418
0.093497
0.113895
0.118420
0.113971
0.092012
0.044149
0.004037
-0.043618
-0.085541
-0.133204
-0.182208
-0.197335
-0.189824
-0.180657
-0.185159
-0.145338
-0.097937
-0.038071
0.000023
0.028380
0.052659
0.063030
0.090079
0.104967
0.081004
0.045406
0.001278
-0.043233
-0.090059
-0.153031
-0.180628
-0.196822
-0.204063
-0.202548
-0.189906
-0.158636
-0.113581
-0.065276
-0.017468
0.025689
0.044642
0.065682
0.075912
0.054628
0.051571
0.023833
-0.018698
-0.082372
-0.133318
-0.178611
-0.208295
-0.213860
-0.217154
-0.214480
-0.195229
-0.172084
-0.118971
-0.056398
-0.008273
0.028202
0.042511
0.060501
0.070998
0.072320
0.047173
0.012571
-0.036214
-0.084790
-0.121519
-0.156523
-0.184713
-0.206406
-0.233230
-0.223536
-0.187015
-0.160613
-0.116390
-0.060287
-0.011183
0.035757
0.060754
0.075606
0.072877
0.081080
0.053616
0.010000
-0.020724
-0.080511
-0.133653
-0.172727
-0.198658
-0.217663
-0.214920
-0.200509
-0.184403
-0.144201
-0.094957
-0.064313
-0.001096
0.042239
0.063727
0.082416
0.092750
0.088820
0.068247
0.026871
-0.043160
-0.086743
-0.121727
-0.165950
-0.192767
-0.214016
-0.207069
-0.199296
-0.194744
-0.141491
-0.082223
-0.045341
-0.003032
0.042673
0.082377
0.112599
0.112906
0.076162
0.069078
0.044554
0.000512
-0.065722
-0.119413
-0.176666
-0.187761
-0.204290
-0.213927
-0.205270
-0.185974
-0.151750
-0.103381
-0.056096
-0.007516
0.031055
0.072494
0.089628
0.096715
0.087369
0.056808
0.022008
-0.018052
-0.062721
-0.114169
-0.156265
-0.180002
-0.212278
-0.222036
-0.201491
-0.181088
-0.145858
-0.101195
-0.054951
-0.016899
0.009704
0.060696
0.072848
0.073810
0.075469
0.069013
0.029898
-0.029233
-0.070206
-0.116235
-0.159910
-0.199750
-0.216126
-0.221174
-0.207581
-0.182278
-0.160770
-0.119086
-0.072583
-0.026380
-0.010729
0.041250
0.062803
0.071843
0.077999
0.051495
0.006787
-0.027263
-0.064732
-0.113785
-0.155425
-0.192204
-0.214185
-0.218962
-0.204108
-0.192445
-0.152600
-0.110739
-0.064133
-0.008585
0.026566
0.055497
0.077268
0.073566
0.065761
0.050049
0.007277
-0.042003
-0.092174
-0.136391
-0.172551
-0.194324
-0.207882
-0.219108
-0.230251
-0.200349
-0.170518
-0.122191
-0.064037
-0.026823
0.011625
0.042205
0.058216
0.061822
0.055103
0.040234
0.006812
-0.044434
-0.086515
-0.133911
-0.188919
-0.206679
-0.222743
-0.226181
-0.217732
-0.201155
-0.163591
-0.127670
-0.077934
-0.049202
0.001601
0.051241
0.075620
0.063611
0.068459
0.032314
-0.000633
-0.052460
-0.093372
-0.141344
-0.184317
-0.205823
-0.228147
-0.226745
-0.230921
-0.196755
-0.177162
-0.135264
-0.079249
-0.013569
0.040305
0.047869
0.071991
0.066469
0.086454
0.044002
0.029485
0.007567
-0.034783
-0.088806
-0.146819
-0.182127
-0.206759
-0.213527
-0.191659
-0.175232
-0.133875
-0.082196
-0.038447
0.006588
0.059815
0.087803
0.110828
0.119672
0.103399
0.074367
0.037391
0.005509
-0.041760
-0.083432
-0.125746
-0.164204
-0.195426
-0.192673
-0.179561
-0.154158
-0.126030
-0.073300
-0.021248
0.028106
0.071373
0.095481
0.124920
0.135908
0.116886
0.096397
0.058730
0.015149
-0.029056
-0.063583
-0.104406
-0.132105
-0.156656
-0.172364
-0.171573
-0.162083
-0.110876
-0.075728
-0.038384
-0.018736
0.026279
0.056309
0.071356
0.082526
0.079511
0.055864
0.018409
-0.034103
-0.066846
-0.119222
-0.155718
-0.190241
-0.214745
-0.231402
-0.221431
-0.183765
-0.151692
-0.117023
-0.073384
-0.031599
0.016697
0.040572
0.059531
0.056262
0.041581
0.015276
0.000494
-0.040691
-0.105563
-0.165484
-0.201106
-0.219547
-0.242698
-0.272651
-0.244255
-0.215607
-0.174591
-0.132540
-0.085789
-0.047192
-0.009751
0.024007
0.043943
0.040763
0.033189
0.008171
-0.025839
-0.054357
-0.105813
-0.151602
-0.212070
-0.217790
-0.242067
-0.258212
-0.237594
-0.235029
-0.202053
-0.140649
-0.084231
-0.027317
-0.006960
0.018725
0.036781
0.046953
0.039752
0.014451
-0.014098
-0.067364
-0.113987
-0.150398
-0.189766
-0.217648
-0.247177
-0.260040
-0.256845
-0.236539
-0.189332
-0.143874
-0.103478
-0.055537
-0.018150
0.006859
0.028329
0.030444
0.022137
0.010546
-0.011181
-0.056491
-0.109263
-0.160995
-0.205540
-0.222028
-0.248575
-0.259248
-0.240799
-0.220563
-0.197080
-0.158069
-0.117851
-0.071227
-0.020459
0.002804
0.034563
0.042722
0.030748
0.027531
0.015848
-0.014855
-0.071527
-0.107543
-0.140303
-0.164865
-0.155793
-0.138131
-0.110478
-0.079700
-0.030417
0.025539
0.090730
0.174803
0.252132
0.317898
0.381227
0.424370
0.447485
0.468357
0.477132
0.488321
0.454830
0.438895
0.440297
0.462644
0.486704
0.515028
0.557126
0.624932
0.690969
0.751721
0.794784
0.836979
0.868637
0.886117
0.877634
0.864090
0.848344
0.781841
0.686201
0.567095
0.447998
0.329217
0.222587
0.141829
0.062698
0.041721
0.033293
0.058393
0.068889
0.085521
0.114508
0.153823
0.188144
0.191513
0.187528
0.182368
0.174932
0.149261
0.109899
0.049455
0.000526
-0.046931
-0.094545
-0.128076
-0.152330
-0.148829
-0.157228
-0.147695
-0.113201
-0.059593
-0.027084
0.018248
0.058370
0.086753
0.113484
0.121404
0.110581
0.085997
0.055035
-0.001977
-0.050917
-0.098919
-0.139436
-0.170017
-0.197400
-0.212217
-0.198802
-0.168043
-0.138927
-0.098922
-0.054721
-0.018081
0.037391
0.066712
0.082771
0.093052
0.072801
0.057370
0.014267
-0.018877
-0.048941
-0.091187
-0.130397
-0.189213
-0.209111
-0.196086
-0.186067
-0.171764
-0.142075
-0.080767
-0.023634
-0.001801
0.030991
0.075335
0.110801
0.115463
0.105007
0.084389
0.044093
0.002445
-0.045564
-0.091580
-0.139126
-0.172266
-0.185875
-0.188760
-0.215401
-0.186813
-0.129909
-0.065306
-0.024697
0.003073
0.066005
0.099519
0.115274
0.126328
0.125932
0.097861
0.062330
0.011858
-0.041110
-0.079104
-0.107281
-0.136851
-0.167984
-0.169374
-0.145917
-0.126800
-0.095272
-0.053660
-0.000050
0.035430
0.080004
0.116988
0.144057
0.142620
0.132651
0.117484
0.085692
0.044057
0.009617
-0.045775
-0.079689
-0.101043
-0.123560
-0.123012
-0.128486
-0.111209
-0.058781
-0.018873
0.033452
0.065380
0.092172
0.142799
0.177939
0.178729
0.168004
0.142156
0.109260
0.074882
0.032314
-0.016956
-0.064355
-0.081782
-0.097804
-0.102794
-0.102184
-0.079444
-0.047926
0.004666
0.055923
0.104256
0.146074
0.177695
0.180919
0.189812
0.164468
0.162142
0.103763
0.078865
0.041476
0.004698
-0.041124
-0.079425
-0.116939
-0.107632
-0.093953
-0.064651
-0.023550
0.012200
0.047980
0.089785
0.142262
0.176018
0.183232
0.178536
0.167110
0.135186
0.104504
0.072835
0.030690
-0.027162
-0.060023
-0.094312
-0.116405
-0.128678
-0.114383
-0.097130
-0.056487
-0.009386
0.032867
0.082818
0.119361
0.151342
0.184586
0.163327
0.144655
0.148599
0.112171
0.051891
0.012002
-0.039128
-0.077767
-0.109270
-0.148170
-0.149679
-0.140341
-0.118766
-0.097585
-0.055502
-0.014744
0.047974
0.082446
0.115998
0.136573
0.137395
0.126991
0.109498
0.077723
0.032368
-0.022235
-0.065858
-0.114855
-0.147365
-0.168734
-0.165806
-0.171818
-0.154946
-0.124565
-0.087273
-0.029972
0.030306
0.080846
0.101252
0.111332
0.111851
0.093941
0.062110
0.024192
-0.019797
-0.044559
-0.079547
-0.126173
-0.162224
-0.179009
-0.176625
-0.169144
-0.159282
-0.123367
-0.080601
-0.031526
0.013595
0.054138
0.078784
0.098436
0.108074
0.099157
0.076174
0.048114
0.011918
-0.043018
-0.099113
-0.141046
-0.177964
-0.190138
-0.186510
-0.174951
-0.168916
-0.124200
-0.086284
-0.035288
0.013880
0.052832
0.089174
0.106793
0.110162
0.091835
0.072024
0.044461
-0.002647
-0.030052
-0.068839
-0.139380
-0.164882
-0.184807
-0.188003
-0.172071
-0.150087
-0.125762
-0.081856
-0.022160
0.024349
0.058627
0.090268
0.117224
0.125282
0.114969
0.090892
0.063531
0.017058
-0.041882
-0.101865
-0.146428
-0.167924
-0.176047
-0.200054
-0.162152
-0.153739
-0.116955
-0.067049
-0.026449
0.028261
0.073121
0.095024
0.112324
0.123161
0.119256
0.094484
0.064260
0.024726
-0.021173
-0.068163
-0.113056
-0.147554
-0.167852
-0.169285
-0.166320
-0.141927
-0.116659
-0.070757
-0.024179
0.028047
0.076118
0.102997
0.125861
0.140923
0.132214
0.094539
0.053015
0.007905
-0.041518
-0.074916
-0.112191
-0.151623
-0.170841
-0.177430
-0.171799
-0.134942
-0.103205
-0.071447
-0.023447
0.026371
0.085599
0.104460
0.121425
0.121222
0.108110
0.081549
0.052182
0.017299
-0.031034
-0.084260
-0.122858
-0.156139
-0.181127
-0.184930
-0.176892
-0.153479
-0.111568
-0.076796
-0.038995
0.023340
0.068638
0.083255
0.116157
0.127362
0.112224
0.098373
0.056440
0.000883
-0.039347
-0.093122
-0.114731
-0.157998
-0.180564
-0.190310
-0.199642
-0.169725
-0.113086
-0.103475
-0.039312
0.021982
0.066979
0.092849
0.116508
0.123102
0.094536
0.075506
0.056358
0.013353
-0.038028
-0.088757
-0.126982
-0.166186
-0.172979
-0.183635
-0.168138
-0.155368
-0.116656
-0.071385
-0.031647
0.019126
0.057604
0.075666
0.099613
0.104886
0.095315
0.082736
0.056388
-0.017301
-0.057558
-0.093619
-0.142633
-0.162713
-0.181470
-0.190536
-0.181510
-0.153203
-0.115046
-0.065823
-0.013009
0.019074
0.053296
0.074424
0.087089
0.095159
0.090856
0.064114
0.031396
-0.007732
-0.041999
-0.097099
-0.134563
-0.158230
-0.177272
-0.191545
-0.186509
-0.163261
-0.129419
-0.084755
-0.038598
0.011574
0.057217
0.080153
0.097137
0.102740
0.090910
0.076017
0.033893
-0.018456
-0.065852
-0.112872
-0.151165
-0.177005
-0.198179
-0.193074
-0.173540
-0.154452
-0.133267
-0.087298
-0.040081
0.011323
0.054613
0.054810
0.097389
0.112286
0.071236
0.060629
0.043652
-0.007532
-0.039722
-0.069939
-0.130386
-0.165782
-0.182834
-0.191597
-0.175884
-0.153200
-0.110529
-0.064640
-0.011477
0.028008
0.071216
0.099256
0.124195
0.137062
0.138868
0.115487
0.079388
0.029963
-0.001424
-0.046086
-0.110516
-0.129588
-0.154612
-0.148062
-0.143361
-0.124787
-0.092655
-0.050566
-0.000793
0.043199
0.091372
0.114449
0.138349
0.135148
0.133300
0.115943
0.083361
0.037455
0.010707
-0.031693
-0.097946
-0.122464
-0.120997
-0.123870
-0.116855
-0.090053
-0.066963
-0.014741
0.031309
0.073607
0.110543
0.140897
0.157872
0.163274
0.156326
0.121951
0.084038
0.035009
-0.025412
-0.064884
-0.109062
-0.140225
-0.161889
-0.179502
-0.180240
-0.152691
-0.105663
-0.040459
-0.004155
0.044891
0.080030
0.101362
0.109250
0.113817
0.103857
0.085139
0.059208
0.015383
-0.029673
-0.079280
-0.128768
-0.151481
-0.161238
-0.178600
-0.175287
-0.179634
-0.168127
-0.108545
-0.053988
-0.006831
0.052175
0.078835
0.095927
0.104529
0.086966
0.054646
0.019890
-0.024760
-0.068281
-0.121658
-0.169877
-0.198846
-0.217104
-0.218155
-0.206960
-0.184079
-0.145760
-0.102806
-0.056999
-0.010000
0.034345
0.063560
0.079852
0.092647
0.077426
0.054526
0.024041
-0.030249
-0.076826
-0.115833
-0.156341
-0.186624
-0.204754
-0.212757
-0.212610
-0.193956
-0.147228
-0.096657
-0.044102
0.005821
0.041876
0.056383
0.066479
0.075897
0.045593
0.023849
0.022627
-0.014318
-0.057329
-0.108054
-0.158005
-0.192610
-0.210629
-0.216321
-0.213481
-0.181619
-0.148535
-0.105002
-0.059195
-0.010840
0.041276
0.058338
0.069952
0.097823
0.090892
0.053257
0.010840
-0.024460
-0.083494
-0.147808
-0.179218
-0.206355
-0.224277
-0.224041
-0.204580
-0.198582
-0.153033
-0.093767
-0.036235
0.023719
0.076490
0.116947
0.158113
0.170813
0.189683
0.177082
0.149219
0.135025
0.113013
0.062479
0.031639
0.026018
0.056535
0.093635
0.127707
0.198386
0.267968
0.380048
0.449396
0.518777
0.590104
0.663802
0.729336
0.783943
0.813427
0.832265
0.833817
0.819061
0.798023
0.754122
0.701031
0.675996
0.640088
0.617569
0.610263
0.619480
0.617404
0.611204
0.585047
0.557572
0.535191
0.508812
0.487251
0.444211
0.394583
0.329362
0.287509
0.229574
0.177815
0.112683
0.046817
0.004887
-0.022873
-0.046800
-0.055742
-0.045337
-0.023445
0.017551
0.062602
0.108219
0.150767
0.164562
0.165654
0.178194
0.180845
0.156923
0.116542
0.066564
0.017340
-0.039766
-0.093552
-0.128072
-0.156839
-0.154600
-0.135421
-0.120708
-0.097673
-0.047663
0.014539
0.049635
0.078770
0.106873
0.132119
0.137140
0.118243
0.101166
0.076074
0.024444
-0.009124
-0.062417
-0.098906
-0.129327
-0.159684
-0.172306
-0.163736
-0.147252
-0.107856
-0.061532
-0.012337
0.047817
0.086782
0.117371
0.130844
0.131832
0.125288
0.099761
0.070442
0.021116
-0.022461
-0.065780
-0.115440
-0.145611
-0.150201
-0.162218
-0.165108
-0.118095
-0.087010
-0.039605
0.006727
0.060851
0.107566
0.148093
0.173207
0.168624
0.136253
0.126765
0.098654
0.041718
-0.002737
-0.045332
-0.096030
-0.125570
-0.132276
-0.145469
-0.132922
-0.105631
-0.064458
-0.020726
0.021581
0.063647
0.099589
0.146200
0.172491
0.178124
0.170975
0.148650
0.113728
0.072827
0.031257
-0.027122
-0.072879
-0.087401
-0.103275
-0.118025
-0.103454
-0.072302
-0.062073
-0.009035
0.043019
0.091867
0.138217
0.172815
0.189061
0.197831
0.180050
0.153619
0.137576
0.097371
0.046801
0.000212
-0.024571
-0.048542
-0.065832
-0.075683
-0.063902
-0.044679
-0.010501
0.030691
0.078024
0.130473
0.183792
0.208483
0.231522
0.233751
0.226990
0.214836
0.178385
0.129106
0.077500
0.032726
0.007743
-0.024870
-0.051433
-0.061470
-0.057429
-0.036053
-0.004087
0.042407
0.085466
0.129919
0.183866
0.224250
0.235466
0.233324
0.229448
0.205845
0.161510
0.117689
0.070474
0.025316
-0.008137
-0.033770
-0.053577
-0.057674
-0.060881
-0.035879
-0.018293
0.011993
0.067654
0.129617
0.166877
0.196795
0.224655
0.236606
0.222208
0.198765
0.150099
0.100679
0.059573
0.015174
-0.037150
-0.061101
-0.083125
-0.108074
-0.084318
-0.057844
-0.020117
0.024416
0.058137
0.094852
0.140497
0.153274
0.178363
0.204313
0.202099
0.173237
0.136999
0.095963
0.033577
-0.020065
-0.057731
-0.073589
-0.093846
-0.127842
-0.123925
-0.102994
-0.082366
-0.041554
0.020634
0.068767
0.126403
0.155274
0.165203
0.167253
0.157677
0.132067
0.094638
0.056978
0.002419
-0.046763
-0.082586
-0.116982
-0.144761
-0.147367
-0.135083
-0.103841
-0.075913
-0.039405
-0.001019
0.047909
0.090315
0.118202
0.147862
0.150393
0.145710
0.126406
0.070096
-0.001413
-0.031647
-0.053302
-0.109602
-0.134551
-0.149057
-0.154867
-0.148815
-0.123138
-0.087888
-0.042863
0.000539
0.046728
0.083071
0.122870
0.137666
0.142635
0.109024
0.093935
0.077425
0.034585
-0.001687
-0.051545
-0.106247
-0.129869
-0.147164
-0.161711
-0.153222
-0.124715
-0.099800
-0.056014
0.006851
0.053039
0.082646
0.119746
0.141238
0.145016
0.148152
0.141835
0.094202
0.028987
-0.008478
-0.058884
-0.114292
-0.132582
-0.143394
-0.153108
-0.142441
-0.126861
-0.078892
-0.023195
0.022210
0.056082
0.089279
0.113782
0.144505
0.151476
0.133689
0.117279
0.080353
0.043727
-0.013297
-0.060013
-0.089914
-0.123717
-0.152748
-0.145916
-0.139506
-0.115386
-0.082504
-0.034267
0.017460
0.061123
0.108822
0.140428
0.161721
0.157089
0.155743
0.125000
0.101493
0.056835
-0.016594
-0.080777
-0.110694
-0.126935
-0.136381
-0.138519
-0.123552
-0.096863
-0.069037
-0.021196
0.016495
0.064532
0.103171
0.135487
0.158012
0.169423
0.146144
0.118219
0.088110
0.043340
-0.014495
-0.075031
-0.099638
-0.116469
-0.127594
-0.135342
-0.125098
-0.110350
-0.070905
-0.031014
0.013982
0.055949
0.104271
0.126658
0.144768
0.144946
0.137080
0.128438
0.081794
0.031108
-0.011349
-0.050454
-0.089986
-0.114855
-0.144936
-0.152341
-0.147948
-0.131343
-0.102352
-0.048361
0.005807
0.057672
0.081979
0.122368
0.132482
0.129693
0.129118
0.110379
0.084452
0.038525
-0.015643
-0.067336
-0.093873
-0.128923
-0.159253
-0.154450
-0.155420
-0.137146
-0.092194
-0.046976
-0.018076
0.025774
0.080319
0.101685
0.117178
0.141301
0.133460
0.128079
0.084976
0.039470
-0.012121
-0.057479
-0.110526
-0.150620
-0.154020
-0.151418
-0.148385
-0.117877
-0.103535
-0.055534
-0.005851
0.036312
0.076995
0.111124
0.132797
0.136258
0.117081
0.105392
0.056162
0.023468
-0.006760
-0.055838
-0.100182
-0.136829
-0.160253
-0.168555
-0.156918
-0.147422
-0.111342
-0.054920
-0.014758
0.023915
0.067594
0.102321
0.133185
0.127678
0.116509
0.092807
0.060319
0.020924
-0.018907
-0.070551
-0.119739
-0.149393
-0.158491
-0.167634
-0.159268
-0.141893
-0.101348
-0.051484
-0.011463
0.036664
0.077532
0.108399
0.121622
0.121950
0.102449
0.088497
0.051565
0.017246
-0.022765
-0.080770
-0.117539
-0.144606
-0.161916
-0.171090
-0.170123
-0.148542
-0.115665
-0.058373
-0.009184
0.037450
0.067316
0.100216
0.120745
0.123404
0.123859
0.098726
0.054586
0.014999
-0.031843
-0.076381
-0.116621
-0.156481
-0.177650
-0.177792
-0.178658
-0.139323
-0.104097
-0.057613
-0.013722
0.040620
0.075361
0.116212
0.132276
0.145825
0.146793
0.115582
0.089516
0.021024
-0.026640
-0.057646
-0.096810
-0.140044
-0.155163
-0.150240
-0.144153
-0.115765
-0.083778
-0.032448
0.015103
0.060836
0.110869
0.140081
0.162880
0.181749
0.172894
0.147990
0.097382
0.025925
-0.010328
-0.037978
-0.062744
-0.097030
-0.123538
-0.133762
-0.133726
-0.114345
-0.080758
-0.029899
0.018506
0.074451
0.119269
0.149267
0.185336
0.186442
0.176855
0.159457
0.119190
0.064891
0.010975
-0.023935
-0.056385
-0.081746
-0.097760
-0.103659
-0.105367
-0.092823
-0.061525
-0.013982
0.019210
0.070139
0.105375
0.129482
0.145732
0.155492
0.144795
0.121691
0.088598
0.042201
-0.008074
-0.057836
-0.101275
-0.128350
-0.152844
-0.169581
-0.162932
-0.133347
-0.100759
-0.059069
-0.006102
0.038914
0.070809
0.098904
0.114571
0.123767
0.115735
0.096378
0.056543
0.006716
-0.040078
-0.094183
-0.135195
-0.163771
-0.175249
-0.205066
-0.192528
-0.168173
-0.140621
-0.102319
-0.053013
0.007958
0.040627
0.069278
0.083501
0.095988
0.094189
0.072461
0.069390
0.005918
-0.055716
-0.094254
-0.152819
-0.188606
-0.215489
-0.195986
-0.182107
-0.141419
-0.119250
-0.092677
-0.055086
0.006334
0.050245
0.057259
0.082167
0.099859
0.092004
0.076183
0.041757
-0.014115
-0.062309
-0.109991
-0.147463
-0.179392
-0.190190
-0.208015
-0.200925
-0.163771
-0.122954
-0.079852
-0.042668
0.002699
0.047530
0.075235
0.097343
0.107646
0.095093
0.054992
0.026910
-0.014818
-0.054073
-0.104377
-0.144238
-0.175723
-0.202489
-0.210601
-0.190009
-0.171548
-0.135349
-0.096075
-0.057306
-0.007538
0.034103
0.066163
0.083821
0.088937
0.077496
0.058109
0.025772
-0.010738
-0.041399
-0.086448
-0.109849
-0.120411
-0.127700
-0.124329
-0.096326
-0.056966
-0.012621
0.048340
0.113859
0.177043
0.237847
0.300908
0.348430
0.394009
0.428764
0.427182
0.428132
0.421855
0.415294
0.410630
0.383735
0.394823
0.426840
0.459057
0.498910
0.560048
0.634594
0.720564
0.781522
0.830081
0.861241
0.899048
0.900334
0.888419
0.888758
0.862308
0.804211
0.684906
0.569440
0.451526
0.349289
0.262107
0.196120
0.146809
0.111231
0.103594
0.121079
0.147895
0.190939
0.234509
0.261731
0.259842
0.265517
0.260763
0.233866
0.194624
0.155064
0.115272
0.071498
0.012820
-0.023011
-0.070321
-0.109657
-0.120367
-0.108861
-0.097940
-0.065068
-0.006358
0.026194
0.064099
0.105437
0.129089
0.150769
0.158109
0.155724
0.139170
0.096269
0.038543
-0.005985
-0.042950
-0.092923
-0.139683
-0.147990
-0.143214
-0.146282
-0.134686
-0.100120
-0.043528
-0.013264
0.032702
0.079799
0.107987
0.130915
0.140876
0.127212
0.106327
0.081474
0.027867
-0.003652
-0.054450
-0.096411
-0.126893
-0.145514
-0.152079
-0.166161
-0.147624
-0.101461
-0.058228
-0.014031
0.074139
0.107214
0.130096
0.144265
0.142804
0.139451
0.117906
0.090782
0.047764
-0.010100
-0.059917
-0.104565
-0.132757
-0.138271
-0.147074
-0.143675
-0.101415
-0.060254
-0.015216
0.021470
0.061089
0.101927
0.124397
0.146103
0.160141
0.166157
0.134914
0.103175
0.058065
0.019303
-0.031827
-0.078150
-0.099669
-0.105871
-0.109755
-0.107571
-0.090533
-0.052361
0.009123
0.048792
0.081648
0.133113
0.167487
0.166844
0.179621
0.171187
0.156151
0.126811
0.081872
0.045010
-0.007327
-0.041300
-0.070114
-0.087086
-0.087257
-0.086087
-0.080473
-0.030494
0.036751
0.070743
0.124942
0.164432
0.202813
0.218625
0.231313
0.222096
0.185083
0.152464
0.112830
0.067563
0.020793
-0.024758
-0.057107
-0.070100
-0.075559
-0.053789
-0.029399
0.000295
0.049574
0.091162
0.135325
0.179452
0.203233
0.233593
0.246470
0.248420
0.214360
0.176859
0.123922
0.083282
0.040400
-0.006593
-0.035896
-0.053727
-0.069572
-0.065582
-0.046003
-0.002185
0.051055
0.102628
0.149568
0.184460
0.217956
0.228413
0.233744
0.232149
0.198212
0.172933
0.113352
0.057160
0.023020
-0.019233
-0.053226
-0.076058
-0.075771
-0.060332
-0.051684
-0.019015
0.006626
0.064148
0.125577
0.169677
0.200986
0.206628
0.217219
0.213628
0.186357
0.149735
0.102477
0.047568
0.000654
-0.048041
-0.076125
-0.088451
-0.092689
-0.093374
-0.071898
-0.033448
0.001917
0.046890
0.082275
0.133186
0.165392
0.177229
0.177361
0.177819
0.144665
0.099345
0.054673
0.011086
-0.033412
-0.079041
-0.100952
-0.111980
-0.128898
-0.125863
-0.107933
-0.086229
-0.021145
0.022495
0.057705
0.108910
0.137599
0.139709
0.143483
0.142917
0.135074
0.092143
0.051383
0.004377
-0.032161
-0.087115
-0.145806
-0.164315
-0.161830
-0.142379
-0.113175
-0.096252
-0.030486
0.010718
0.034462
0.067014
0.102870
0.112438
0.131691
0.130199
0.102204
0.081203
0.038431
-0.000580
-0.044964
-0.101242
-0.128331
-0.138912
-0.159294
-0.161910
-0.132225
-0.097474
-0.048554
0.003479
0.042590
0.085856
0.113438
0.137515
0.144591
0.124580
0.104393
0.073083
0.004278
-0.029014
-0.063074
-0.100600
-0.148405
-0.156650
-0.154322
-0.130475
-0.115905
-0.073190
-0.039097
-0.002126
0.055742
0.096286
0.128345
0.153009
0.161440
0.155207
0.115787
0.079524
0.032011
-0.013784
-0.060246
-0.103724
-0.138470
-0.168862
-0.171272
-0.148136
-0.113962
-0.083989
-0.043413
0.006166
0.056778
0.103373
0.130923
0.144376
0.154968
0.150661
0.125926
0.091262
0.039774
-0.001293
-0.052736
-0.094800
-0.127802
-0.135115
-0.150056
-0.145988
-0.110766
-0.088293
-0.035403
0.012996
0.054787
0.104839
0.127942
0.145087
0.160157
0.125253
0.087963
0.077619
0.042657
0.007649
-0.052061
-0.087340
-0.117504
-0.132326
-0.150950
-0.151457
-0.117768
-0.097269
-0.047813
0.006024
0.050393
0.091220
0.120501
0.144785
0.161699
0.154789
0.123891
0.074813
0.041970
-0.012374
-0.071938
-0.120617
-0.134871
-0.156815
-0.159476
-0.161341
-0.136709
-0.085213
-0.021987
0.008553
0.054400
0.103189
0.123161
0.134589
0.154299
0.126691
0.106870
0.077632
0.033304
-0.012309
-0.062523
-0.098074
-0.131154
-0.141913
-0.158956
-0.157525
-0.128472
-0.101657
-0.048388
-0.010150
0.041374
0.089071
0.112512
0.128161
0.130906
0.127925
0.100605
0.065410
0.015525
-0.021498
-0.063831
-0.108320
-0.142637
-0.162359
-0.173122
-0.162408
-0.134557
-0.100946
-0.055630
-0.010271
0.037963
0.079029
0.110975
0.125649
0.134974
0.129417
0.095904
0.068104
0.024684
-0.019049
-0.061626
-0.111381
-0.145999
-0.161459
-0.172307
-0.154072
-0.127930
-0.119237
-0.076000
-0.026877
0.017973
0.068053
0.119062
0.144705
0.132305
0.099738
0.083876
0.061137
0.022829
-0.026583
-0.073394
-0.112062
-0.149497
-0.172004
-0.180922
-0.174807
-0.137546
-0.098124
-0.043535
-0.001897
0.043418
0.080719
0.129519
0.124763
0.120607
0.102577
0.079000
0.048068
-0.001300
-0.039867
-0.085013
-0.126327
-0.149735
-0.171596
-0.201932
-0.191931
-0.142847
-0.079875
-0.041407
-0.009970
0.033153
0.074518
0.101655
0.123409
0.128454
0.117537
0.083665
0.045583
0.002149
-0.035946
-0.087492
-0.133252
-0.152280
-0.175750
-0.186068
-0.166838
-0.142045
-0.113603
-0.074042
-0.016243
0.030318
0.074387
0.094431
0.106090
0.114288
0.115416
0.090118
0.057855
0.016577
-0.035079
-0.088579
-0.125472
-0.164107
-0.177036
-0.189129
-0.182487
-0.155046
-0.128948
-0.077884
-0.031004
0.011632
0.052629
0.109857
0.115394
0.125394
0.120543
0.096658
0.065668
0.024951
-0.019506
-0.062766
-0.104093
-0.147318
-0.153967
-0.154847
-0.153916
-0.137659
-0.112170
-0.039983
0.022333
0.068489
0.097997
0.132724
0.141331
0.165766
0.152068
0.137402
0.099407
0.053185
0.007305
-0.037483
-0.087914
-0.117223
-0.140856
-0.157213
-0.130877
-0.105872
-0.078384
-0.041839
0.002914
0.053218
0.098668
0.127161
0.150153
0.159718
0.161318
0.135460
0.104103
0.071371
0.039517
-0.009078
-0.051405
-0.089680
-0.126924
-0.132151
-0.097967
-0.090289
-0.063706
-0.000705
0.029240
0.074836
0.113804
0.141664
0.158697
0.169241
0.143456
0.121177
0.089099
0.043638
-0.001506
-0.039023
-0.084428
-0.125109
-0.141086
-0.155833
-0.149629
-0.124830
-0.099810
-0.052606
-0.011401
0.026540
0.067831
0.097970
0.108855
0.116629
0.108957
0.077194
0.050381
0.015099
-0.030940
-0.062548
-0.112567
-0.141917
-0.180197
-0.200323
-0.187854
-0.153242
-0.121937
-0.111067
-0.050864
0.006582
0.037480
0.081964
0.104153
0.101500
0.077528
0.060689
0.028792
-0.013386
-0.055033
-0.095329
-0.142187
-0.176454
-0.197147
-0.205272
-0.191853
-0.166440
-0.130914
-0.087053
-0.050087
0.003282
0.053662
0.062666
0.083346
0.087189
0.080676
0.063196
0.028771
-0.014536
-0.062175
-0.105703
-0.144989
-0.184742
-0.200813
-0.200871
-0.191330
-0.177356
-0.138100
-0.085287
-0.040549
-0.000584
0.034603
0.076687
0.094131
0.087036
0.082469
0.053272
0.016948
-0.016475
-0.067313
-0.124786
-0.146469
-0.193794
-0.202697
-0.192667
-0.179334
-0.156076
-0.132096
-0.096722
-0.049325
-0.017401
0.011327
0.051991
0.079236
0.096471
0.061537
0.034684
0.007074
-0.035354
-0.090282
-0.127654
-0.150684
-0.171371
-0.189868
-0.188062
-0.163273
-0.117788
-0.071152
-0.018768
0.044827
0.106938
0.159021
0.202155
0.242033
0.272794
0.276199
0.288282
0.266701
0.243437
0.230202
0.223292
0.229526
0.236519
0.254457
0.279127
0.315782
0.373489
0.439143
0.531691
0.617297
0.706724
0.785884
0.851039
0.907858
0.922843
0.917504
0.894583
0.878964
0.812890
0.741816
0.671594
0.607066
0.530850
0.465762
0.387459
0.319480
0.273745
0.274181
0.262398
0.256289
0.274426
0.296145
0.315969
0.319238
0.311055
0.297195
0.261605
0.230505
0.163018
0.103892
0.040163
-0.018147
-0.059935
-0.080952
-0.097795
-0.097773
-0.086312
-0.063496
-0.014093
0.042866
0.085643
0.117351
0.135285
0.160325
0.162552
0.158300
0.135470
0.090230
0.050315
-0.004371
-0.059422
-0.098675
-0.140103
-0.154320
-0.162810
-0.139768
-0.111899
-0.079821
-0.035489
0.003052
0.042105
0.078361
0.103793
0.125264
0.128139
0.133431
0.102851
0.062286
0.028824
-0.024177
-0.067948
-0.106976
-0.142799
-0.170940
-0.174447
-0.153429
-0.130995
-0.092357
-0.047387
0.000667
0.050308
0.093834
0.120195
0.134856
0.139418
0.136364
0.112331
0.080925
0.036186
-0.022805
-0.068058
-0.103772
-0.138183
-0.144713
-0.166385
-0.162401
-0.137222
-0.087344
-0.034333
0.012017
0.064046
0.103336
0.126506
0.148773
0.149057
0.149309
0.125666
0.087893
0.037018
-0.007704
-0.044969
-0.082077
-0.118131
-0.143457
-0.133844
-0.128470
-0.102171
-0.074080
-0.027607
0.019204
0.047741
0.113415
0.138737
0.175029
0.191384
0.176744
0.168678
0.128036
0.082120
0.032484
-0.015910
-0.050427
-0.071594
-0.110951
-0.116572
-0.100242
-0.070046
-0.033843
0.012314
0.062223
0.120119
0.165158
0.184411
0.209288
0.221573
0.197476
0.184690
0.150021
0.107800
0.060367
0.021276
-0.022379
-0.065353
-0.067725
-0.080940
-0.072528
-0.048986
-0.020593
0.019957
0.076841
0.125048
0.162386
0.198685
0.213635
0.226114
0.224393
0.197115
0.166981
0.120981
0.086208
0.037983
-0.002760
-0.042391
-0.058516
-0.067961
-0.068676
-0.041912
-0.004631
0.041756
0.085959
0.131365
0.172371
0.192737
0.207379
0.226272
0.218945
0.195404
0.156336
0.112312
0.075880
0.031351
-0.013665
-0.054592
-0.070843
-0.078239
-0.078300
-0.045478
-0.012574
0.040351
0.074575
0.112998
0.154209
0.193125
0.206164
0.219503
0.211215
0.183082
0.140536
0.084642
0.024053
-0.015082
-0.034084
-0.058670
-0.081517
-0.092353
-0.096710
-0.063390
-0.042748
0.000019
0.048179
0.119647
0.145598
0.157883
0.163542
0.162299
0.166403
0.149523
0.092462
0.076024
0.022888
-0.019441
-0.058155
-0.102199
-0.121946
-0.133896
-0.126075
-0.104954
-0.074055
-0.031257
0.012327
0.049248
0.095898
0.125527
0.145823
0.146687
0.137673
0.113831
0.077782
0.024868
-0.013711
-0.051774
-0.097413
-0.131919
-0.149505
-0.156542
-0.150249
-0.126459
-0.098948
-0.056717
-0.007914
0.041690
0.077139
0.113441
0.125469
0.137322
0.132207
0.105356
0.069228
0.028214
-0.008836
-0.064343
-0.113094
-0.150479
-0.157959
-0.164263
-0.167754
-0.157302
-0.106316
-0.067143
-0.017185
0.029392
0.076028
0.108473
0.115453
0.129258
0.124488
0.104537
0.068978
0.024174
-0.020428
-0.073374
-0.113999
-0.153445
-0.144439
-0.144952
-0.155428
-0.160033
-0.112058
-0.067949
-0.021997
0.024603
0.084108
0.122265
0.136907
0.137656
0.118583
0.092928
0.065341
0.014548
-0.015843
-0.052111
-0.076202
-0.117955
-0.149985
-0.154056
-0.154892
-0.140189
-0.104156
-0.055266
-0.002941
0.044966
0.084728
0.111694
0.123263
0.148975
0.140699
0.116135
0.089016
0.034426
-0.009992
-0.055141
-0.100706
-0.137237
-0.153512
-0.163362
-0.148648
-0.130409
-0.098207
-0.053913
-0.008648
0.047838
0.091643
0.118374
0.133027
0.136007
0.143297
0.128116
0.096389
0.041045
-0.008444
-0.065413
-0.102892
-0.134122
-0.161372
-0.167037
-0.158361
-0.128527
-0.095025
-0.042750
-0.010417
0.035828
0.079623
0.117723
0.128748
0.149782
0.136665
0.114139
0.077655
0.030026
-0.025868
-0.071983
-0.101942
-0.136668
-0.172927
-0.154090
-0.141065
-0.121597
-0.086700
-0.050993
-0.012584
0.038551
0.077039
0.120861
0.134612
0.142831
0.127766
0.101286
0.057673
0.018616
-0.032209
-0.073951
-0.113880
-0.149273
-0.165890
-0.173728
-0.166107
-0.138788
-0.109559
-0.070341
-0.016012
0.033642
0.050385
0.085530
0.129030
0.137087
0.125499
0.095498
0.065406
0.014363
-0.033780
-0.080576
-0.122416
-0.161372
-0.172335
-0.179449
-0.170542
-0.148270
-0.111248
-0.072255
-0.021645
0.020196
0.061294
0.102050
0.136086
0.137551
0.125993
0.102220
0.062210
0.024183
-0.036435
-0.072908
-0.119071
-0.171842
-0.174209
-0.182362
-0.168136
-0.160716
-0.124329
-0.082146
-0.025598
0.028054
0.075338
0.101004
0.122220
0.113689
0.115151
0.084656
0.045458
-0.006120
-0.058889
-0.072973
-0.118326
-0.152189
-0.181653
-0.181098
-0.169988
-0.156701
-0.131602
-0.078558
-0.023987
0.028884
0.063737
0.084602
0.116889
0.130081
0.110491
0.080469
0.046504
0.009104
-0.038546
-0.079569
-0.122498
-0.165269
-0.185139
-0.177070
-0.170034
-0.154401
-0.111857
-0.066566
-0.029917
0.001395
0.039223
0.084396
0.107847
0.115951
0.086115
0.075395
0.052604
0.019604
-0.027606
-0.077560
-0.123625
-0.155870
-0.175795
-0.193191
-0.178905
-0.143442
-0.122107
-0.085121
-0.034975
0.011948
0.051018
0.093464
0.097612
0.100628
0.099808
0.082002
0.061995
0.016375
-0.033033
-0.087532
-0.126937
-0.167753
-0.184442
-0.195192
-0.197833
-0.185916
-0.153424
-0.086473
-0.032306
0.024344
0.060962
0.093058
0.103427
0.114623
0.114522
0.074307
0.051988
0.006540
-0.044069
-0.098948
-0.131915
-0.154034
-0.171319
-0.176599
-0.167447
-0.147716
-0.118086
-0.080965
-0.028356
0.023322
0.068279
0.097293
0.118984
0.120497
0.114178
0.108091
0.080449
0.036525
-0.005912
-0.051994
-0.096759
-0.132329
-0.141146
-0.151485
-0.142290
-0.120562
-0.079320
-0.031976
0.020539
0.051638
0.090822
0.115742
0.130465
0.132828
0.112027
0.109101
0.083332
0.034255
-0.018676
-0.077736
-0.108585
-0.115953
-0.127471
-0.138887
-0.123155
-0.101753
-0.072355
-0.027297
0.018736
0.060320
0.117165
0.149839
0.174106
0.174780
0.164196
0.141882
0.099553
0.041190
-0.005443
-0.030723
-0.068387
-0.101632
-0.117956
-0.142163
-0.153289
-0.155445
-0.111443
-0.054054
-0.007599
0.040776
0.069777
0.104046
0.119482
0.125259
0.101008
0.094301
0.065112
0.021353
-0.029977
-0.084593
-0.122699
-0.167086
-0.190722
-0.190635
-0.182109
-0.159114
-0.128711
-0.083105
-0.036500
-0.002228
0.050124
0.087060
0.095294
0.092809
0.089334
0.059811
0.021410
-0.034315
-0.072369
-0.107446
-0.148630
-0.188645
-0.210259
-0.221710
-0.214168
-0.187671
-0.142083
-0.098607
-0.039150
-0.008246
0.010171
0.032057
0.075587
0.095238
0.081603
0.061766
0.041698
-0.014651
-0.067473
-0.116992
-0.167466
-0.210536
-0.209127
-0.215096
-0.198439
-0.183505
-0.155212
-0.110718
-0.048980
-0.018095
0.021554
0.056731
0.079745
0.087335
0.064852
0.041353
0.014951
-0.028025
-0.060636
-0.105695
-0.156066
-0.191190
-0.199136
-0.208824
-0.202510
-0.183122
-0.150980
-0.126037
-0.070859
-0.024260
0.014088
0.049759
0.076607
0.084242
0.075794
0.056303
0.018280
-0.031094
-0.080258
-0.135661
-0.165366
-0.203082
-0.216838
-0.230288
-0.233094
-0.201996
-0.163555
-0.102627
-0.046228
0.004420
0.042743
0.093920
0.116013
0.128281
0.153973
0.159188
0.137511
0.094338
0.053160
0.029773
0.018961
0.006623
0.001728
0.025289
0.065570
0.118954
0.190099
0.266699
0.334721
0.424442
0.513514
0.574388
0.623259
0.654420
0.685697
0.704903
0.717285
0.702571
0.698027
0.677582
0.642388
0.607016
0.587179
0.592949
0.576254
0.592463
0.606672
0.619265
0.638998
0.620868
0.587460
0.545882
0.514632
0.471857
0.422075
0.367192
0.294792
0.211639
0.135860
0.082998
0.042500
-0.003187
-0.044058
-0.064469
-0.059348
-0.045112
-0.011776
0.016869
0.039989
0.081947
0.132038
0.168585
0.173679
0.172147
0.169246
0.150145
0.093699
0.036685
-0.011303
-0.050013
-0.081495
-0.111811
-0.134754
-0.160334
-0.157413
-0.129682
-0.087705
-0.049777
-0.009506
0.036440
0.063611
0.093609
0.106372
0.111089
0.104476
0.092945
0.051344
0.005460
-0.044811
-0.083203
-0.119556
-0.164281
-0.179439
-0.181265
-0.176347
-0.150024
-0.121887
-0.078050
-0.036040
0.015477
0.061320
0.095783
0.107588
0.097948
0.097026
0.092601
0.062365
0.004478
-0.048771
-0.091697
-0.116321
-0.150419
-0.167730
-0.176026
-0.167427
-0.145392
-0.105899
-0.066273
-0.027100
0.042622
0.093281
0.113045
0.116714
0.120676
0.141796
0.104927
0.069373
0.035051
-0.045548
-0.082313
-0.101603
-0.133634
-0.160305
-0.156999
-0.157598
-0.130061
-0.091615
-0.051984
-0.004895
0.035486
0.081934
0.127218
0.133544
0.151619
0.148032
0.136924
0.107167
0.053076
-0.009157
-0.046468
-0.085918
-0.107914
-0.119228
-0.132230
-0.138289
-0.108798
-0.068239
-0.015917
0.025037
0.072962
0.111934
0.147513
0.172460
0.177964
0.175338
0.162240
0.132670
0.081327
0.025077
-0.013224
-0.057143
-0.091662
-0.115751
-0.120643
-0.108557
-0.080582
-0.033600
0.004106
0.043409
0.090500
0.139519
0.179289
0.202506
0.213762
0.199722
0.176628
0.149873
0.103400
0.048140
0.014210
-0.022996
-0.061072
-0.083472
-0.083215
-0.073259
-0.056017
-0.019475
0.025928
0.074470
0.114686
0.142831
0.183517
0.214047
0.202414
0.204180
0.196806
0.155128
0.109648
0.049064
-0.009997
-0.050487
-0.069850
-0.087720
-0.101059
-0.089713
-0.066071
-0.033655
0.005655
0.055475
0.100629
0.139328
0.172538
0.187392
0.204786
0.200009
0.175063
0.136197
0.097566
0.054705
-0.017711
-0.048129
-0.082297
-0.099499
-0.116607
-0.127337
-0.108035
-0.041282
0.003039
0.040895
0.068281
0.115464
0.139041
0.139414
0.105216
0.162607
0.158639
0.124957
0.076007
0.020455
-0.018693
-0.065979
-0.117429
-0.128014
-0.136334
-0.144054
-0.119109
-0.072730
-0.038862
-0.005572
0.051733
0.084243
0.122661
0.127693
0.136954
0.136373
0.107264
0.073912
0.025842
-0.015200
-0.084604
-0.123293
-0.155922
-0.170236
-0.160957
-0.158468
-0.137820
-0.106872
-0.070605
-0.017870
0.018482
0.057312
0.085288
0.104114
0.104359
0.095019
0.078362
0.043236
0.006428
-0.050103
-0.099935
-0.129867
-0.149901
-0.184951
-0.208459
-0.188018
-0.167536
-0.127382
-0.093143
-0.044642
0.005435
0.045992
0.082949
0.104853
0.103115
0.085049
0.075653
0.037203
-0.008708
-0.059780
-0.110110
-0.142420
-0.176682
-0.195365
-0.204782
-0.187506
-0.176244
-0.144707
-0.103144
-0.067840
-0.009477
0.049298
0.082234
0.095119
0.115376
0.108072
0.074156
0.053227
0.013154
-0.043429
-0.100604
-0.136243
-0.162552
-0.178750
-0.192329
-0.185041
-0.158314
-0.127076
-0.087389
-0.041593
0.013553
0.048736
0.093742
0.091974
0.087784
0.089326
0.081207
0.020602
-0.004160
-0.031600
-0.072502
-0.118573
-0.154515
-0.181272
-0.186126
-0.182848
-0.158470
-0.136957
-0.076289
-0.032494
0.018055
0.058942
0.085546
0.110917
0.105412
0.107155
0.089144
0.053885
0.013092
-0.040050
-0.084596
-0.119896
-0.152271
-0.174281
-0.189521
-0.175924
-0.149685
-0.116226
-0.086296
-0.043395
0.003099
0.049729
0.076758
0.088342
0.099386
0.092699
0.070317
0.038349
-0.002831
-0.064788
-0.122332
-0.149797
-0.162610
-0.172319
-0.186191
-0.184097
-0.173790
-0.131306
-0.086071
-0.052415
0.003342
0.064529
0.094658
0.112934
0.124233
0.105658
0.060509
0.029147
0.001554
-0.055422
-0.097741
-0.146343
-0.175144
-0.191126
-0.191489
-0.186926
-0.173886
-0.138432
-0.089133
-0.044918
-0.004774
0.036818
0.079317
0.094992
0.092575
0.083740
0.071809
0.037797
-0.012910
-0.070002
-0.113073
-0.142579
-0.181796
-0.190285
-0.210790
-0.201886
-0.171234
-0.135671
-0.111356
-0.066893
-0.018279
0.022221
0.055610
0.083809
0.079064
0.074020
0.068696
0.038235
-0.007439
-0.060203
-0.117451
-0.150257
-0.179146
-0.203262
-0.214970
-0.202506
-0.171834
-0.132620
-0.094079
-0.056448
-0.022426
0.030343
0.065637
0.073109
0.076343
0.072099
0.054676
0.004697
-0.029173
-0.061014
-0.099127
-0.155937
-0.206574
-0.236252
-0.218853
-0.204002
-0.185928
-0.160620
-0.121548
-0.056776
-0.007207
0.021745
0.049766
0.066176
0.079811
0.072718
0.050131
0.019255
-0.031937
-0.077200
-0.114263
-0.157981
-0.182450
-0.195550
-0.219225
-0.208939
-0.177297
-0.144718
-0.107480
-0.065893
-0.021577
0.021656
0.060891
0.074362
0.075972
0.055340
0.025975
0.011029
-0.036353
-0.088710
-0.120828
-0.164023
-0.194139
-0.209513
-0.223141
-0.218743
-0.184979
-0.147362
-0.112679
-0.060737
-0.020270
0.023407
0.052263
0.070126
0.071507
0.064704
0.046173
0.019578
-0.030904
-0.073123
-0.112881
-0.148713
-0.186286
-0.202342
-0.193585
-0.195367
-0.155729
-0.119662
-0.079222
-0.037800
0.001819
0.047398
0.077996
0.103796
0.120610
0.106688
0.075022
0.041389
-0.009084
-0.056326
-0.087609
-0.131774
-0.172747
-0.190532
-0.184051
-0.190458
-0.180348
-0.130807
-0.084864
-0.051984
0.007677
0.049134
0.084253
0.103278
0.124568
0.123722
0.081473
0.043824
0.027178
-0.016653
-0.065645
-0.113588
-0.145804
-0.161387
-0.164756
-0.151421
-0.127208
-0.100175
-0.054437
-0.010675
0.027054
0.053585
0.080443
0.104007
0.106802
0.095559
0.067747
0.022650
-0.014805
-0.074393
-0.123735
-0.175407
-0.187460
-0.197511
-0.186974
-0.193314
-0.182157
-0.147096
-0.109468
-0.062375
-0.019335
0.021086
0.048176
0.070114
0.066594
0.063994
0.033696
0.013047
-0.028953
-0.093534
-0.136051
-0.181122
-0.211826
-0.235691
-0.244787
-0.246657
-0.231617
-0.175342
-0.129411
-0.085578
-0.051997
-0.017570
0.010150
0.023143
0.033409
0.039096
0.024627
-0.016516
-0.059391
-0.095164
-0.152594
-0.199803
-0.229111
-0.247599
-0.250640
-0.237930
-0.208254
-0.176270
-0.124097
-0.102361
-0.060094
-0.021374
-0.001681
0.036296
0.044095
0.026306
0.021808
-0.017568
-0.054374
-0.111459
-0.158415
-0.203563
-0.226907
-0.251605
-0.250216
-0.244127
-0.219499
-0.185614
-0.141973
-0.096883
-0.058552
-0.014305
0.025212
0.036342
0.039578
0.034138
0.009957
-0.029466
-0.071938
-0.111909
-0.157583
-0.200614
-0.227381
-0.245356
-0.253963
-0.240639
-0.225679
-0.194570
-0.166484
-0.099847
-0.058425
-0.036880
-0.001028
0.021573
0.030813
0.020865
-0.005364
-0.042483
-0.075941
-0.102414
-0.140458
-0.169660
-0.203031
-0.210762
-0.185456
-0.162736
-0.123775
-0.072936
-0.010432
0.046025
0.099773
0.150621
0.190248
0.229577
0.274670
0.317662
0.321305
0.320712
0.298601
0.269621
0.247478
0.230024
0.226724
0.250001
0.281959
0.326056
0.382887
0.458025
0.530002
0.620861
0.698646
0.757327
0.781876
0.806628
0.830030
0.806662
0.750312
0.716216
0.670730
0.588679
0.480696
0.385322
0.267789
0.174344
0.117864
0.094097
0.083610
0.069603
0.061599
0.096177
0.137492
0.160346
0.158423
0.171467
0.168942
0.166663
0.129594
0.078765
0.046336
-0.000547
-0.047747
-0.096188
-0.124884
-0.151435
-0.160871
-0.145857
-0.155652
-0.124913
-0.076316
-0.029319
0.006133
0.053770
0.080706
0.098104
0.109570
0.097007
0.070969
0.031757
-0.010264
-0.057872
-0.102348
-0.139961
-0.182643
-0.212311
-0.210092
-0.199408
-0.191427
-0.143236
-0.102701
-0.062632
-0.029331
-0.008483
0.043566
0.075926
0.081943
0.075639
0.046046
0.005531
-0.036736
-0.085432
-0.122337
-0.167726
-0.191859
-0.209320
-0.220866
-0.213674
-0.194050
-0.148243
-0.104785
-0.054057
-0.017287
0.012944
0.059891
0.082703
0.084021
0.087204
0.052869
0.020465
-0.012798
-0.063335
-0.094177
-0.139196
-0.182331
-0.212336
-0.210583
-0.202256
-0.170379
-0.126965
-0.084838
-0.045570
0.002339
0.040691
0.055733
0.076820
0.100458
0.081173
0.052195
0.037029
-0.000932
-0.039812
-0.096460
-0.130985
-0.164400
-0.179661
-0.183721
-0.167000
-0.146546
-0.105594
-0.068359
-0.021138
0.031060
0.061078
0.099660
0.115952
0.131100
0.122298
0.089499
0.049875
0.008974
-0.029601
-0.075452
-0.122236
-0.139264
-0.157690
-0.162999
-0.153728
-0.139844
-0.094152
-0.036401
0.016792
0.066589
0.092049
0.124967
0.151512
0.151164
0.169630
0.129867
0.081806
0.037176
0.007312
-0.034599
-0.070289
-0.101996
-0.122507
-0.127348
-0.123657
-0.104143
-0.074000
-0.018067
0.042153
0.094698
0.115764
0.145280
0.168166
0.172858
0.172060
0.155676
0.112184
0.065134
0.038466
-0.021626
-0.082464
-0.108669
-0.117967
-0.124009
-0.111455
-0.092198
-0.068956
-0.020075
0.021866
0.071319
0.111264
0.138204
0.161360
0.166003
0.148050
0.135954
0.110384
0.061389
0.006763
-0.053555
-0.083081
-0.113675
-0.122229
-0.134712
-0.123757
-0.106879
-0.066728
-0.025171
0.015786
0.056257
0.095598
0.120085
0.138543
0.116129
0.121337
0.130026
0.103514
0.050846
0.003177
-0.060356
-0.107369
-0.145425
-0.167408
-0.177875
-0.165936
-0.146155
-0.098665
-0.050368
-0.007967
0.023675
0.053979
0.086289
0.104643
0.111909
0.116612
0.102275
0.055967
0.007898
-0.035280
-0.084101
-0.129422
-0.159435
-0.187349
-0.199255
-0.183988
-0.169596
-0.138689
-0.090876
-0.036290
0.003824
0.037265
0.077486
0.090510
0.086538
0.075248
0.047457
0.021616
-0.007727
-0.072581
-0.118741
-0.153063
-0.195204
-0.208297
-0.204301
-0.195087
-0.195614
-0.165714
-0.133228
-0.077427
-0.020437
0.027609
0.054904
0.069716
0.066798
0.055128
0.033980
-0.000546
-0.029853
-0.074761
-0.135979
-0.184641
-0.205643
-0.226899
-0.240242
-0.231677
-0.187047
-0.152685
-0.109242
-0.090788
-0.027796
0.017661
0.052093
0.066088
0.061262
0.052172
0.033352
0.009921
-0.037183
-0.085808
-0.144320
-0.182169
-0.215246
-0.221312
-0.223111
-0.221182
-0.193279
-0.164049
-0.110146
-0.069960
-0.015888
0.024955
0.056491
0.068160
0.063615
0.052615
0.013671
-0.008349
-0.031176
-0.064917
-0.098008
-0.146983
-0.192341
-0.214195
-0.226410
-0.219128
-0.187073
-0.143432
-0.103500
-0.065193
-0.014372
0.024643
0.073339
0.089996
0.084412
0.077267
0.051850
0.026617
-0.031367
-0.082511
-0.126593
-0.161690
-0.186828
-0.213770
-0.226285
-0.205227
-0.187098
-0.158555
-0.105709
-0.059290
-0.017959
0.037160
0.072801
0.082420
0.096146
0.072956
0.059297
0.025058
-0.028635
-0.075978
-0.130491
-0.172379
-0.218244
-0.220248
-0.225877
-0.209282
-0.175057
-0.151354
-0.105845
-0.064463
-0.011970
0.019500
0.049333
0.079827
0.082958
0.086851
0.048967
0.017540
-0.039109
-0.090311
-0.121123
-0.155909
-0.194114
-0.220677
-0.227265
-0.224022
-0.211057
-0.156877
-0.111937
-0.079891
-0.018267
0.035249
0.047348
0.047672
0.069258
0.060492
0.039243
-0.013649
-0.049256
-0.084360
-0.127278
-0.158382
-0.196462
-0.231383
-0.233401
-0.223549
-0.215756
-0.178838
-0.125571
-0.071122
-0.018599
0.013563
0.032740
0.055249
0.066944
0.044449
0.032806
0.009266
-0.035330
-0.092031
-0.131787
-0.187109
-0.219781
-0.242493
-0.247893
-0.225835
-0.205644
-0.159905
-0.108180
-0.074256
-0.036958
-0.009851
0.031084
0.050032
0.046786
0.029127
0.033018
0.001285
-0.042075
-0.093221
-0.137299
-0.175786
-0.215971
-0.232770
-0.235992
-0.232254
-0.206166
-0.184130
-0.135473
-0.091130
-0.041845
-0.003309
0.029875
0.045783
0.052589
0.050115
0.030089
-0.010623
-0.045010
-0.099539
-0.153897
-0.194358
-0.227734
-0.233603
-0.240554
-0.228744
-0.209191
-0.175304
-0.131664
-0.082750
-0.043795
0.002516
0.041431
0.056991
0.062340
0.062809
0.029503
-0.003744
-0.037346
-0.085397
-0.134762
-0.176274
-0.211444
-0.219902
-0.230995
-0.219945
-0.182249
-0.143363
-0.103280
-0.061935
-0.018153
0.005750
0.055562
0.080705
0.077398
0.072896
0.067878
0.027427
-0.015403
-0.067575
-0.114984
-0.159589
-0.187422
-0.204457
-0.215555
-0.213038
-0.178661
-0.145134
-0.110266
-0.064324
-0.016361
0.012416
0.066323
0.080076
0.095063
0.081084
0.070346
0.052280
0.019716
-0.048846
-0.090930
-0.124062
-0.146519
-0.185118
-0.196295
-0.193305
-0.172804
-0.120488
-0.083832
-0.033476
-0.002322
0.030677
0.065000
0.086836
0.085362
0.077025
0.056703
0.020933
-0.023051
-0.064098
-0.115169
-0.159615
-0.216958
-0.227573
-0.239172
-0.243320
-0.212022
-0.168877
-0.134691
-0.091515
-0.035103
-0.005061
0.019979
0.038768
0.041901
0.021324
0.010869
-0.019708
-0.052492
-0.113120
-0.160019
-0.205723
-0.232517
-0.252700
-0.249380
-0.258135
-0.239878
-0.198906
-0.157910
-0.119357
-0.066897
-0.024608
0.007571
0.035279
0.035961
0.020884
-0.016083
-0.064307
-0.105298
-0.147141
-0.193680
-0.214865
-0.253634
-0.270883
-0.265746
-0.251852
-0.219673
-0.196699
-0.149697
-0.100584
-0.071573
-0.042607
-0.003092
0.016394
0.023764
0.016788
-0.008061
-0.056060
-0.107737
-0.149546
-0.188872
-0.206305
-0.232509
-0.265816
-0.272396
-0.259177
-0.235063
-0.199750
-0.162285
-0.118812
-0.078782
-0.034111
0.006888
0.033656
0.035573
0.018598
-0.000577
-0.024770
-0.075790
-0.163869
-0.203686
-0.232387
-0.255061
-0.282973
-0.291239
-0.274262
-0.251837
-0.215604
-0.177274
-0.129448
-0.085471
-0.049021
-0.018662
-0.004050
0.009565
-0.002253
-0.014783
-0.037738
-0.089049
-0.137145
-0.154454
-0.172364
-0.204935
-0.202374
-0.205561
-0.195825
-0.156444
-0.085456
-0.036562
0.031883
0.100279
0.146465
0.197660
0.247537
0.303237
0.300121
0.300107
0.302332
0.290200
0.268321
0.257278
0.246407
0.226308
0.236784
0.273689
0.308751
0.390721
0.454408
0.531447
0.609365
0.692738
0.733013
0.776747
0.810265
0.802404
0.776299
0.749846
0.711888
0.653304
0.559855
0.431909
0.315643
0.234880
0.147977
0.090699
0.074063
0.053030
0.050019
0.048908
0.068654
0.085500
0.115172
0.130805
0.146744
0.142060
0.131544
0.096952
0.065524
0.024786
-0.022640
-0.076975
-0.111998
-0.147550
-0.163810
-0.171669
-0.172242
-0.162543
-0.133914
-0.095732
-0.048859
-0.006201
0.020435
0.050840
0.071826
0.087004
0.078818
0.048398
0.001546
-0.043593
-0.086215
-0.137576
-0.170414
-0.203601
-0.218282
-0.228237
-0.218360
-0.202159
-0.163314
-0.120014
-0.086522
-0.033033
0.009091
0.024191
0.044236
0.059526
0.051882
0.011176
-0.020647
-0.053917
-0.095932
-0.146357
-0.182083
-0.199576
-0.223665
-0.248947
-0.240674
-0.215029
-0.161142
-0.122692
-0.086807
-0.046431
-0.004897
0.033954
0.051779
0.053787
0.040063
0.048072
0.016052
-0.031826
-0.092954
-0.155386
-0.183819
-0.205414
-0.216569
-0.220731
-0.209615
-0.193564
-0.152355
-0.110838
-0.061027
-0.031301
0.019092
0.070164
0.089836
0.105179
0.091894
0.055919
0.021082
-0.013182
-0.050791
-0.109067
-0.151981
-0.185820
-0.204271
-0.203669
-0.200369
-0.170331
-0.143110
-0.092767
-0.043098
0.001703
0.036034
0.077511
0.107794
0.109672
0.111667
0.096812
0.073046
0.021844
-0.033325
-0.074426
-0.112189
-0.152657
-0.179830
-0.185965
-0.185043
-0.156633
-0.107039
-0.066579
-0.022602
0.035349
0.068251
0.107673
0.122288
0.139186
0.137194
0.102624
0.075272
0.043017
-0.009691
-0.045267
-0.087524
-0.126693
-0.159879
-0.160847
-0.140198
-0.106893
-0.077301
-0.040662
0.007523
0.048934
0.090013
0.121696
0.146523
0.151926
0.149216
0.128204
0.070961
0.044708
0.008159
-0.040974
-0.068608
-0.094147
-0.133781
-0.160517
-0.162750
-0.146368
-0.102022
-0.044655
0.003833
0.027743
0.089044
0.137692
0.156601
0.144618
0.143514
0.129508
0.091278
0.043229
-0.004464
-0.051961
-0.092494
-0.134369
-0.163922
-0.159209
-0.139003
-0.126189
-0.097037
-0.054337
-0.004744
0.034668
0.059816
0.095575
0.122134
0.123686
0.115416
0.086500
0.056878
0.014714
-0.037681
-0.101758
-0.125531
-0.164915
-0.182678
-0.193080
-0.186401
-0.173407
-0.127438
-0.075614
-0.038289
0.014855
0.057958
0.083780
0.102178
0.110788
0.088462
0.063798
0.025111
-0.011367
-0.062873
-0.115456
-0.163059
-0.180374
-0.215737
-0.228888
-0.230938
-0.193516
-0.141184
-0.097275
-0.064808
-0.011222
0.023069
0.043358
0.044734
0.057132
0.077161
0.056201
0.013043
-0.038167
-0.087340
-0.136428
-0.178120
-0.215172
-0.236872
-0.243637
-0.236182
-0.209524
-0.179687
-0.152332
-0.093035
-0.039726
0.008125
0.042995
0.060418
0.059250
0.052149
0.025187
-0.015058
-0.056568
-0.108168
-0.152124
-0.186083
-0.221103
-0.248238
-0.256412
-0.242506
-0.212446
-0.173198
-0.135052
-0.085452
-0.032018
0.005483
0.040788
0.060281
0.065685
0.049555
0.022944
-0.002967
-0.045463
-0.089819
-0.141647
-0.187034
-0.225865
-0.228780
-0.235064
-0.234251
-0.204635
-0.176483
-0.127752
-0.078776
-0.030704
-0.002239
0.046415
0.060625
0.047467
0.049054
0.027538
-0.010246
-0.049311
-0.083073
-0.131488
-0.159109
-0.202509
-0.232111
-0.232695
-0.222965
-0.206363
-0.174163
-0.121357
-0.083359
-0.034309
0.004037
0.047001
0.058682
0.060614
0.059418
0.031273
-0.007616
-0.048608
-0.082662
-0.125548
-0.177120
-0.215761
-0.225983
-0.237290
-0.213826
-0.191698
-0.158789
-0.115318
-0.067870
-0.010845
0.021520
0.047505
0.062596
0.040762
0.042491
0.035852
0.008510
-0.031095
-0.080728
-0.123174
-0.164987
-0.215004
-0.237191
-0.235569
-0.225495
-0.197193
-0.156122
-0.122268
-0.078855
-0.030426
0.010252
0.041977
0.058211
0.071672
0.080196
0.061072
-0.001933
-0.038279
-0.099531
-0.157789
-0.177653
-0.202721
-0.228579
-0.227572
-0.214401
-0.198457
-0.176148
-0.126501
-0.091523
-0.031722
0.011168
0.038773
0.068281
0.067091
0.047229
0.033530
-0.006310
-0.044674
-0.079961
-0.133914
-0.178697
-0.216207
-0.235333
-0.240388
-0.236791
-0.205942
-0.173259
-0.129214
-0.078673
-0.040391
-0.015026
0.012133
0.046156
0.054334
0.049977
0.021776
-0.012847
-0.056364
-0.096568
-0.152128
-0.180764
-0.226650
-0.254076
-0.251849
-0.237443
-0.229483
-0.175602
-0.133557
-0.086300
-0.039998
-0.007198
0.026157
0.042902
0.047777
0.047487
0.008589
-0.025185
-0.059160
-0.099506
-0.139307
-0.180421
-0.217733
-0.242728
-0.248628
-0.225890
-0.196610
-0.180656
-0.137296
-0.084335
-0.035778
0.002802
0.037780
0.052484
0.076421
0.059824
0.041165
0.008251
-0.036997
-0.083395
-0.130588
-0.184879
-0.203850
-0.196777
-0.212459
-0.207423
-0.176399
-0.154607
-0.110402
-0.069333
-0.006770
0.028175
0.058644
0.085922
0.088113
0.072229
0.046183
0.016386
-0.032573
-0.083053
-0.129299
-0.178341
-0.199984
-0.210420
-0.214041
-0.206646
-0.182458
-0.122552
-0.085566
-0.038611
0.006653
0.032853
0.073559
0.091950
0.098123
0.102650
0.081278
0.039926
-0.011579
-0.064025
-0.097629
-0.133565
-0.162037
-0.185146
-0.196004
-0.199404
-0.173956
-0.138545
-0.103360
-0.065509
-0.017676
0.037545
0.068709
0.097163
0.096992
0.090361
0.044915
0.006244
-0.037026
-0.089604
-0.157688
-0.193049
-0.227776
-0.239458
-0.241179
-0.241668
-0.229987
-0.184896
-0.145393
-0.102499
-0.049819
0.006086
0.038221
0.033741
0.030761
0.049384
0.025733
-0.028105
-0.075503
-0.128453
-0.174241
-0.210754
-0.247010
-0.264884
-0.269354
-0.269761
-0.250506
-0.214049
-0.167127
-0.114369
-0.083621
-0.040009
-0.003498
0.018772
0.035711
0.033145
0.007840
-0.036691
-0.079891
-0.124845
-0.171643
-0.212533
-0.253896
-0.270914
-0.274394
-0.264252
-0.241321
-0.204181
-0.161230
-0.126472
-0.075716
-0.045236
-0.024981
0.003083
0.012386
0.011697
-0.016696
-0.046859
-0.094757
-0.133996
-0.161831
-0.204777
-0.249172
-0.258086
-0.274964
-0.274278
-0.254822
-0.216605
-0.166108
-0.127224
-0.077381
-0.044928
-0.005808
0.008249
0.014398
0.009187
-0.014305
-0.054891
-0.097302
-0.145193
-0.205147
-0.224254
-0.247183
-0.262576
-0.279088
-0.281210
-0.270722
-0.232615
-0.177725
-0.132137
-0.086959
-0.034547
0.012169
0.035045
0.057770
0.066148
0.060902
0.038834
-0.000785
-0.030118
-0.051006
-0.078042
-0.097489
-0.107581
-0.085716
-0.061553
-0.018146
0.049570
0.114682
0.182720
0.261340
0.324916
0.383285
0.448205
0.476012
0.498492
0.513495
0.503550
0.485087
0.484891
0.486208
0.462028
0.469017
0.506676
0.541196
0.554422
0.573256
0.605517
0.630033
0.661636
0.703406
0.724473
0.736849
0.688683
0.602450
0.552968
0.473666
0.381366
0.281300
0.185164
0.091509
0.012739
-0.051895
-0.078144
-0.106125
-0.110271
-0.097051
-0.057312
-0.028403
0.003402
0.054640
0.087354
0.100301
0.124561
0.127011
0.099118
0.092578
0.054565
0.015410
-0.039801
-0.094966
-0.135764
-0.179436
-0.198973
-0.204704
-0.197625
-0.179686
-0.147876
-0.116805
-0.070568
-0.015769
0.018369
0.042182
0.065781
0.073818
0.067628
0.042349
0.001513
-0.038100
-0.082190
-0.131434
-0.170316
-0.209686
-0.224734
-0.236670
-0.233404
-0.233517
-0.188872
-0.138410
-0.101398
-0.047486
-0.004103
0.021716
0.046380
0.055282
0.053602
0.041854
-0.003548
-0.041236
-0.091096
-0.126846
-0.171768
-0.197039
-0.219685
-0.245439
-0.231303
-0.222097
-0.178721
-0.142438
-0.096731
-0.045223
0.002374
0.038549
0.057982
0.063313
0.071676
0.045814
0.004103
-0.049629
-0.090545
-0.123472
-0.144966
-0.186129
-0.219013
-0.214081
-0.197251
-0.173366
-0.152983
-0.122217
-0.052721
-0.001554
0.044212
0.069664
0.093104
0.084053
0.059881
0.051583
0.006243
-0.025395
-0.072403
-0.131447
-0.155128
-0.177558
-0.187108
-0.180553
-0.173568
-0.160613
-0.117212
-0.082960
-0.034364
0.023787
0.060954
0.090161
0.114121
0.111960
0.106902
0.084976
0.056719
0.019211
-0.027901
-0.073949
-0.105570
-0.140173
-0.165542
-0.169740
-0.156496
-0.141167
-0.111795
-0.055704
-0.016432
0.041627
0.098566
0.132798
0.123657
0.127096
0.128700
0.106891
0.074614
0.027245
-0.028886
-0.055058
-0.083431
-0.122262
-0.150522
-0.147296
-0.129633
-0.102288
-0.064701
-0.025881
0.004238
0.049364
