-0.061805
-0.015200
0.015656
0.045100
0.076201
0.087525
0.087202
0.069444
0.029523
-0.007391
-0.055185
-0.098780
-0.142172
-0.190881
-0.213406
-0.211820
-0.206537
-0.175058
-0.138295
-0.106843
-0.063108
-0.019154
0.030114
0.056218
0.096554
0.104200
0.109262
0.094050
0.053297
-0.012302
-0.069740
-0.127737
-0.173931
-0.197345
-0.215888
-0.232849
-0.232724
-0.219218
-0.167196
-0.118004
-0.073565
-0.021801
0.033947
0.066715
0.092124
0.115709
0.104549
0.078431
0.039827
-0.012969
-0.044690
-0.095354
-0.137615
-0.164830
-0.200042
-0.204158
-0.210435
-0.191144
-0.155812
-0.112315
-0.059918
-0.003451
0.039504
0.059903
0.097697
0.115687
0.107064
0.083943
0.050943
0.002506
-0.048634
-0.092898
-0.119786
-0.155150
-0.180600
-0.194257
-0.183769
-0.164525
-0.128107
-0.079217
-0.029326
0.021958
0.058958
0.093066
0.122720
0.135884
0.139407
0.120360
0.080729
0.034422
-0.022186
-0.074058
-0.115335
-0.146595
-0.173268
-0.176810
-0.165385
-0.137871
-0.098898
-0.048024
-0.007928
0.040421
0.085720
0.118007
0.139966
0.144071
0.145949
0.119867
0.079501
0.039185
0.009271
-0.042747
-0.092332
-0.125930
-0.158932
-0.179445
-0.176318
-0.159440
-0.129929
-0.076018
-0.036100
0.005470
0.049640
0.074004
0.090548
0.096619
0.099767
0.084473
0.046407
-0.000019
-0.054005
-0.103776
-0.147688
-0.188970
-0.200560
-0.216651
-0.226415
-0.203618
-0.156080
-0.106714
-0.072737
-0.029339
0.034926
0.094568
0.107011
0.091578
0.086588
0.064239
0.022356
-0.019644
-0.057609
-0.115216
-0.169537
-0.204026
-0.228614
-0.244128
-0.230170
-0.208837
-0.172054
-0.127199
-0.090904
-0.055347
-0.010074
0.020063
0.046438
0.064913
0.077323
0.061668
0.021782
-0.033979
-0.080275
-0.133088
-0.174470
-0.212629
-0.235534
-0.248024
-0.238478
-0.196953
-0.166058
-0.114935
-0.079799
-0.046181
-0.012688
0.034284
0.067415
0.078069
0.067764
0.044570
0.008681
-0.039685
-0.080699
-0.130611
-0.168907
-0.211487
-0.227811
-0.233599
-0.232648
-0.213012
-0.184326
-0.131207
-0.087627
-0.052516
-0.007832
0.031804
0.064199
0.078875
0.072303
0.047549
0.002996
-0.039906
-0.085147
-0.133455
-0.171205
-0.206776
-0.233842
-0.232523
-0.232511
-0.205795
-0.182442
-0.144873
-0.091743
-0.041736
0.008457
0.040263
0.047797
0.055602
0.065397
0.050633
0.034894
-0.006981
-0.027666
-0.068930
-0.104563
-0.127171
-0.133692
-0.125045
-0.113780
-0.083934
-0.038399
0.023463
0.083183
0.152297
0.236136
0.299501
0.347210
0.378022
0.405765
0.429566
0.429062
0.418144
0.407293
0.388002
0.389597
0.390847
0.404820
0.449809
0.485327
0.545980
0.597457
0.671079
0.728125
0.775615
0.810409
0.846195
0.837047
0.818495
0.796655
0.758152
0.705433
0.592787
0.479734
0.370018
0.260239
0.179672
0.108562
0.056523
0.007604
0.004285
0.018542
0.055880
0.089364
0.136778
0.174723
0.183961
0.207099
0.218346
0.200434
0.173041
0.135034
0.082732
0.030052
-0.019121
-0.074128
-0.127850
-0.152177
-0.142259
-0.131441
-0.120222
-0.096537
-0.070147
-0.022133
0.031915
0.071371
0.115769
0.132213
0.123669
0.117497
0.088494
0.058967
0.022388
-0.030601
-0.068844
-0.107601
-0.139188
-0.172729
-0.180380
-0.183780
-0.154131
-0.127662
-0.087295
-0.043514
0.015410
0.058676
0.076695
0.094847
0.112813
0.123786
0.106456
0.069036
0.019581
-0.032398
-0.082405
-0.123584
-0.156184
-0.176802
-0.184714
-0.185578
-0.157009
-0.118037
-0.072666
-0.018219
0.028273
0.067178
0.090994
0.107117
0.123702
0.116522
0.080559
0.057495
0.017771
-0.019402
-0.065957
-0.131036
-0.153426
-0.157475
-0.164339
-0.169523
-0.155283
-0.115652
-0.067758
-0.024540
0.028023
0.085477
0.115696
0.143337
0.156028
0.155910
0.136545
0.113461
0.061559
0.012432
-0.032798
-0.076417
-0.116673
-0.145571
-0.146989
-0.144284
-0.117896
-0.072011
-0.036060
0.016730
0.066610
0.100659
0.134087
0.152257
0.156899
0.164690
0.142613
0.098280
0.057009
0.025256
-0.012730
-0.045647
-0.074604
-0.097070
-0.108108
-0.103878
-0.078786
-0.051838
0.000700
0.035253
0.081432
0.130480
0.175465
0.205859
0.219899
0.229680
0.206300
0.162193
0.117696
0.079549
0.032320
-0.002493
-0.035869
-0.063713
-0.080016
-0.082541
-0.058181
-0.019120
0.034847
0.084300
0.129332
0.187467
0.223782
0.240672
0.248365
0.243337
0.233530
0.198233
0.147958
0.088830
0.030654
-0.011935
-0.036882
-0.051517
-0.059976
-0.056041
-0.038463
-0.004403
0.038764
0.077308
0.130728
0.175787
0.208081
0.230323
0.236416
0.224341
0.205302
0.172760
0.130572
0.080464
0.044838
0.006762
-0.030426
-0.061158
-0.065001
-0.069001
-0.033741
-0.011762
0.020082
0.057289
0.102831
0.149379
0.199209
0.228596
0.249557
0.234975
0.195449
0.151258
0.102570
0.042886
-0.001923
-0.042213
-0.079184
-0.103382
-0.117656
-0.111832
-0.080103
-0.056790
-0.008426
0.038280
0.100698
0.138267
0.166885
0.182567
0.177456
0.184127
0.159900
0.116035
0.062922
0.008373
-0.038483
-0.079025
-0.120737
-0.144885
-0.155365
-0.151477
-0.128928
-0.089179
-0.038866
0.002688
0.048039
0.083641
0.116464
0.128870
0.142324
0.130938
0.112993
0.071933
0.032452
-0.013247
-0.066968
-0.119327
-0.154958
-0.186673
-0.188087
-0.181392
-0.171151
-0.147069
-0.113075
-0.051694
0.023018
0.073350
0.100643
0.106786
0.113744
0.109294
0.082205
0.039940
-0.007039
-0.045476
-0.096051
-0.144817
-0.177195
-0.205119
-0.203698
-0.193340
-0.168443
-0.130793
-0.088719
-0.052886
-0.006544
0.034764
0.073815
0.100523
0.104843
0.093207
0.070906
0.037606
0.003290
-0.030726
-0.082508
-0.128170
-0.162483
-0.183731
-0.184245
-0.185602
-0.161798
-0.124960
-0.077954
-0.031488
0.013726
0.054667
0.085578
0.109115
0.123526
0.117582
0.088108
0.054219
0.006948
-0.037440
-0.090742
-0.125431
-0.154747
-0.190000
-0.198196
-0.190696
-0.158838
-0.130002
-0.079521
-0.036439
0.009181
0.058859
0.081404
0.109219
0.107884
0.078689
0.057612
0.053490
0.004187
-0.043564
-0.089712
-0.124866
-0.141991
-0.166435
-0.180780
-0.172956
-0.159571
-0.128156
-0.081636
-0.030371
0.024035
0.054280
0.073156
0.088198
0.119457
0.127523
0.094779
0.055096
0.021783
-0.014810
-0.066298
-0.115018
-0.154090
-0.178954
-0.190778
-0.188307
-0.170194
-0.143125
-0.104715
-0.052858
-0.002916
0.055121
0.081940
0.102262
0.131597
0.116179
0.094607
0.057795
0.015593
-0.029188
-0.072714
-0.123520
-0.154003
-0.171930
-0.191421
-0.184750
-0.164141
-0.120289
-0.075899
-0.036406
0.007643
0.053853
0.098352
0.123309
0.122334
0.107071
0.080983
0.053375
0.008902
-0.038331
-0.079015
-0.111418
-0.145503
-0.175262
-0.179650
-0.179522
-0.161523
-0.139808
-0.082030
-0.040244
0.001830
0.051029
0.086905
0.119393
0.121030
0.111372
0.088053
0.046377
-0.002351
-0.045307
-0.101951
-0.134382
-0.171740
-0.186019
-0.197028
-0.201101
-0.185711
-0.157518
-0.100472
-0.031970
0.017687
0.046638
0.080662
0.093731
0.095909
0.092097
0.083629
0.048851
-0.001762
-0.045757
-0.095003
-0.141849
-0.170570
-0.196239
-0.206461
-0.207279
-0.181160
-0.146769
-0.093880
-0.061894
-0.010587
0.028345
0.072021
0.104229
0.101760
0.079677
0.048664
0.029048
-0.012196
-0.060614
-0.110617
-0.145691
-0.194406
-0.208052
-0.213267
-0.195942
-0.173820
-0.148692
-0.106932
-0.064460
-0.009224
0.043333
0.076978
0.098484
0.100503
0.100751
0.076318
0.057253
0.028434
-0.032922
-0.087327
-0.130208
-0.169899
-0.195281
-0.207658
-0.213617
-0.187208
-0.143470
-0.112805
-0.055545
-0.001972
0.045928
0.071073
0.086825
0.090887
0.073667
0.040769
0.007651
-0.028737
-0.067596
-0.120748
-0.147129
-0.166525
-0.191807
-0.207751
-0.202626
-0.183654
-0.133960
-0.091595
-0.049401
0.000862
0.039172
0.058768
0.086176
0.099186
0.097822
0.073053
0.027508
-0.018846
-0.047923
-0.100796
-0.157491
-0.189915
-0.208175
-0.218854
-0.215954
-0.187845
-0.156306
-0.110547
-0.067248
-0.020946
0.018871
0.046803
0.071579
0.085940
0.079526
0.072870
0.039508
-0.017169
-0.061434
-0.100646
-0.145641
-0.189083
-0.201901
-0.218382
-0.201887
-0.185241
-0.138706
-0.103014
-0.048739
0.000987
0.050306
0.090873
0.111158
0.108094
0.092051
0.068793
0.051313
0.019341
-0.036515
-0.083022
-0.121683
-0.163486
-0.194108
-0.193563
-0.181731
-0.150665
-0.113045
-0.065085
-0.008533
0.048065
0.082868
0.113592
0.134869
0.131359
0.137287
0.105650
0.063564
0.017439
-0.013062
-0.058424
-0.108725
-0.148156
-0.175686
-0.182481
-0.178989
-0.157616
-0.108177
-0.052584
0.004371
0.054453
0.096322
0.118752
0.136980
0.148411
0.141565
0.129485
0.097879
0.052475
0.012954
-0.054196
-0.101351
-0.128061
-0.158462
-0.163881
-0.159729
-0.143526
-0.125045
-0.088118
-0.049351
-0.000931
0.029147
0.076407
0.099985
0.118996
0.091581
0.091547
0.054346
-0.013929
-0.072841
-0.109155
-0.140860
-0.150094
-0.179523
-0.193068
-0.202970
-0.197119
-0.161339
-0.111585
-0.057853
-0.003594
0.034926
0.060890
0.078789
0.100701
0.090432
0.059681
0.033850
-0.012689
-0.059858
-0.112201
-0.145300
-0.187918
-0.206542
-0.217045
-0.217676
-0.202274
-0.160780
-0.123264
-0.080471
-0.042314
0.004415
0.040281
0.060522
0.070234
0.062074
0.036874
0.012274
-0.034743
-0.071341
-0.128923
-0.173617
-0.207919
-0.230327
-0.234387
-0.223836
-0.212034
-0.188782
-0.140493
-0.087603
-0.025210
0.025391
0.051757
0.080846
0.077171
0.071756
0.057496
0.030291
-0.030361
-0.072183
-0.121821
-0.161773
-0.194580
-0.216653
-0.234602
-0.230463
-0.200551
-0.168674
-0.135078
-0.094640
-0.051509
-0.004858
0.040894
0.066305
0.093087
0.080114
0.056640
0.021483
-0.029288
-0.082848
-0.130182
-0.177777
-0.199152
-0.231285
-0.233870
-0.226135
-0.197953
-0.177902
-0.142184
-0.095687
-0.038366
0.008076
0.045090
0.070692
0.086116
0.084874
0.054424
0.036067
0.001582
-0.029008
-0.058848
-0.087747
-0.113527
-0.129197
-0.131580
-0.113988
-0.085146
-0.034827
0.027446
0.102049
0.168930
0.260533
0.333590
0.388708
0.432303
0.466901
0.473238
0.466369
0.454209
0.429323
0.409441
0.390760
0.390730
0.410480
0.444929
0.494340
0.546354
0.605477
0.675474
0.728579
0.770912
0.808922
0.831619
0.847429
0.834852
0.796492
0.741093
0.637020
0.531246
0.424896
0.328568
0.248485
0.156863
0.077056
0.008794
-0.013920
0.001735
0.019288
0.046251
0.094003
0.146732
0.173585
0.203157
0.211871
0.201992
0.191640
0.171849
0.130930
0.082929
0.031958
-0.022228
-0.065548
-0.104148
-0.130430
-0.149882
-0.152947
-0.133183
-0.089394
-0.046571
-0.007710
0.048401
0.081785
0.116299
0.127223
0.132210
0.121456
0.105905
0.072188
0.023521
-0.025257
-0.080208
-0.119416
-0.155190
-0.172436
-0.175311
-0.188018
-0.178874
-0.148154
-0.092998
-0.052888
0.008821
0.055191
0.089657
0.102191
0.106521
0.102336
0.085487
0.044564
0.002933
-0.035887
-0.079629
-0.119610
-0.149239
-0.178115
-0.190722
-0.178530
-0.158960
-0.131532
-0.084824
-0.039373
0.018762
0.067492
0.100748
0.111342
0.120486
0.135967
0.114819
0.085222
0.033907
-0.008800
-0.064072
-0.091319
-0.122151
-0.157685
-0.174333
-0.173101
-0.145747
-0.114384
-0.058951
-0.006867
0.044417
0.092787
0.132234
0.148557
0.154830
0.136414
0.101102
0.083425
0.036508
0.005158
-0.050905
-0.099531
-0.112823
-0.124521
-0.145725
-0.137946
-0.123662
-0.092147
-0.032807
0.009292
0.066888
0.120287
0.160876
0.182975
0.192437
0.176459
0.146128
0.120740
0.083102
0.032188
-0.016156
-0.061477
-0.093460
-0.105773
-0.095974
-0.086054
-0.055526
-0.015131
0.021681
0.069393
0.116213
0.162188
0.193663
0.205458
0.212760
0.212738
0.196799
0.165196
0.119455
0.071536
0.024483
-0.019888
-0.060343
-0.087194
-0.096762
-0.065879
-0.047750
-0.013080
0.033757
0.093715
0.132523
0.172434
0.200638
0.228215
0.245219
0.250647
0.235453
0.196176
0.148509
0.088243
0.037453
0.011979
-0.014006
-0.038696
-0.055951
-0.039285
-0.017459
0.008244
0.050389
0.099097
0.143700
0.184328
0.208535
0.222530
0.223100
0.218344
0.205000
0.179727
0.123770
0.089297
0.047775
0.006203
-0.038759
-0.064439
-0.079490
-0.076453
-0.053747
-0.009287
0.036338
0.083953
0.144565
0.181611
0.196640
0.209605
0.216326
0.214049
0.194096
0.172322
0.114748
0.052719
0.017709
-0.032288
-0.071135
-0.093411
-0.100705
-0.105033
-0.084291
-0.056150
-0.008905
0.038906
0.082143
0.128294
0.152186
0.168544
0.171124
0.170189
0.152848
0.120605
0.061122
0.010907
-0.035289
-0.079177
-0.116588
-0.139699
-0.160380
-0.148432
-0.128821
-0.095366
-0.068859
-0.017789
0.033665
0.073239
0.097072
0.128940
0.135784
0.114777
0.070213
0.036986
0.018896
-0.011739
-0.048952
-0.101155
-0.153651
-0.169085
-0.165541
-0.167322
-0.135223
-0.116725
-0.074311
-0.029855
0.015574
0.054710
0.073171
0.086255
0.102836
0.105244
0.100719
0.052077
0.007068
-0.037766
-0.086390
-0.115595
-0.147326
-0.166783
-0.186607
-0.178748
-0.153245
-0.120121
-0.068564
-0.029368
0.010714
0.055067
0.074250
0.096456
0.105007
0.105171
0.077309
0.038865
0.002760
-0.047208
-0.095868
-0.127903
-0.160510
-0.179883
-0.184609
-0.185249
-0.152419
-0.126335
-0.083887
-0.036662
0.008197
0.044399
0.092900
0.107648
0.110863
0.102652
0.086402
0.050858
0.009031
-0.037552
-0.082059
-0.119656
-0.154502
-0.171741
-0.179349
-0.167374
-0.154710
-0.126358
-0.085171
-0.044368
-0.000394
0.048656
0.081677
0.101686
0.110260
0.128301
0.111550
0.073363
0.030365
-0.032222
-0.086844
-0.125956
-0.152958
-0.175990
-0.193947
-0.192805
-0.162074
-0.130672
-0.090832
-0.042191
0.019116
0.057168
0.094896
0.111184
0.106685
0.106765
0.108259
0.077398
0.025516
-0.027943
-0.068088
-0.115079
-0.146007
-0.159542
-0.182004
-0.183846
-0.171708
-0.132981
-0.077333
-0.035027
0.010205
0.051100
0.091145
0.101301
0.119423
0.122745
0.098772
0.066070
0.031515
-0.016816
-0.078066
-0.124683
-0.152580
-0.177684
-0.186934
-0.183565
-0.147503
-0.108633
-0.064562
-0.015298
0.030638
0.071655
0.086471
0.100402
0.108626
0.100724
0.102347
0.075233
0.018253
-0.026554
-0.075625
-0.119195
-0.165220
-0.188629
-0.207990
-0.199163
-0.165745
-0.135392
-0.084635
-0.029295
0.027332
0.066592
0.090661
0.108322
0.118658
0.114862
0.099932
0.066715
0.016423
-0.029135
-0.089431
-0.140238
-0.166253
-0.182014
-0.204221
-0.201833
-0.200811
-0.157205
-0.090990
-0.040956
-0.002153
0.045429
0.072656
0.098167
0.100644
0.096339
0.072897
0.045738
-0.000120
-0.043615
-0.086701
-0.122064
-0.151787
-0.182000
-0.184328
-0.175066
-0.158852
-0.147122
-0.107510
-0.059695
-0.009373
0.038820
0.073682
0.094032
0.102093
0.092824
0.083862
0.061676
0.015953
-0.029837
-0.093035
-0.145655
-0.176618
-0.206794
-0.231266
-0.209498
-0.170946
-0.135929
-0.096555
-0.062059
-0.004037
0.043455
0.074999
0.084738
0.106815
0.105013
0.080337
0.047316
0.009983
-0.041884
-0.084693
-0.128813
-0.165072
-0.195021
-0.201389
-0.202603
-0.173360
-0.142148
-0.103949
-0.053699
0.001819
0.039417
0.074693
0.094823
0.108060
0.095082
0.072232
0.039081
-0.014937
-0.061380
-0.109127
-0.154546
-0.182552
-0.203792
-0.208863
-0.213548
-0.197182
-0.158272
-0.104406
-0.052568
-0.009360
0.026325
0.048678
0.080238
0.087870
0.079100
0.067883
0.037269
-0.014414
-0.064518
-0.107702
-0.158770
-0.198475
-0.222515
-0.227226
-0.205908
-0.160180
-0.135125
-0.092207
-0.048356
-0.005563
0.027486
0.077685
0.090968
0.106426
0.105629
0.080232
0.051206
0.013425
-0.034563
-0.079658
-0.136445
-0.148802
-0.158607
-0.170091
-0.156465
-0.139435
-0.106827
-0.066474
-0.023349
0.014395
0.053089
0.095215
0.126706
0.136521
0.141517
0.125309
0.095630
0.052320
-0.003136
-0.059257
-0.109793
-0.150136
-0.171648
-0.165205
-0.160909
-0.139655
-0.116798
-0.068916
-0.029258
0.021395
0.066902
0.108730
0.134585
0.142263
0.134791
0.124134
0.097883
0.059464
0.003932
-0.040570
-0.073978
-0.106661
-0.137368
-0.142718
-0.140319
-0.119269
-0.092364
-0.052783
-0.017892
0.027088
0.059012
0.087756
0.103675
0.099183
0.107871
0.082586
0.066656
0.009010
-0.039732
-0.083747
-0.136584
-0.168519
-0.198087
-0.201646
-0.203689
-0.192534
-0.158102
-0.109893
-0.065387
-0.017780
0.031646
0.085168
0.111205
0.130792
0.114523
0.091164
0.049759
-0.007669
-0.059151
-0.095649
-0.142749
-0.173215
-0.184714
-0.196227
-0.200346
-0.188808
-0.169183
-0.120461
-0.079685
-0.042554
0.006144
0.036763
0.068191
0.095686
0.073543
0.052830
0.018293
-0.018199
-0.077640
-0.125161
-0.174000
-0.210235
-0.216975
-0.224736
-0.219287
-0.205386
-0.174870
-0.123491
-0.066339
-0.029183
-0.000747
0.033377
0.055665
0.071057
0.056589
0.030801
0.001528
-0.032906
-0.076445
-0.119875
-0.169980
-0.207198
-0.224910
-0.235410
-0.230244
-0.210407
-0.171289
-0.131542
-0.084366
-0.040140
0.006480
0.042714
0.067916
0.076484
0.063458
0.042236
0.011973
-0.029868
-0.072726
-0.124539
-0.161791
-0.190146
-0.217756
-0.225844
-0.223362
-0.215157
-0.175321
-0.133368
-0.072530
-0.018770
0.015140
0.037493
0.059680
0.070526
0.072777
0.054057
0.016761
-0.029338
-0.075466
-0.119486
-0.149236
-0.185774
-0.193590
-0.190093
-0.175263
-0.132928
-0.092491
-0.029773
0.036418
0.086680
0.131708
0.182122
0.218125
0.252868
0.262951
0.252856
0.254000
0.235005
0.207414
0.208419
0.197266
0.193895
0.198236
0.224945
0.270466
0.316718
0.378517
0.460467
0.551147
0.647643
0.715469
0.782521
0.832778
0.867478
0.843574
0.803081
0.786778
0.742383
0.687540
0.612841
0.533784
0.484823
0.430952
0.358254
0.287397
0.235374
0.226124
0.240624
0.237782
0.239056
0.235410
0.239665
0.243945
0.253991
0.239821
0.223449
0.176779
0.123527
0.065454
-0.001095
-0.060351
-0.106917
-0.137960
-0.155528
-0.144362
-0.132992
-0.100957
-0.072088
-0.026503
0.025012
0.074106
0.105206
0.135739
0.152254
0.140610
0.120139
0.112901
0.065816
0.018276
-0.040423
-0.089580
-0.119317
-0.138783
-0.163025
-0.159480
-0.150727
-0.132633
-0.096519
-0.047020
0.013218
0.061728
0.099089
0.120624
0.135832
0.124478
0.091048
0.063649
0.022466
-0.022546
-0.084586
-0.139560
-0.169326
-0.180396
-0.180467
-0.175859
-0.163603
-0.142384
-0.102989
-0.044160
-0.006765
0.042682
0.083224
0.118933
0.127688
0.124541
0.091941
0.063016
0.015026
-0.022146
-0.064148
-0.101940
-0.146027
-0.166086
-0.186014
-0.174623
-0.139776
-0.110434
-0.052336
-0.004983
0.045799
0.086161
0.117355
0.130052
0.139972
0.140411
0.119538
0.090034
0.039924
-0.001768
-0.045466
-0.109904
-0.138915
-0.155948
-0.171936
-0.160879
-0.134754
-0.092442
-0.031318
0.022402
0.066111
0.098107
0.129836
0.150594
0.156340
0.162179
0.141158
0.117584
0.075988
0.032573
-0.012499
-0.049135
-0.094221
-0.112379
-0.131947
-0.128869
-0.100525
-0.062114
-0.013093
0.023045
0.072806
0.115111
0.162897
0.170239
0.194034
0.197765
0.191760
0.167895
0.111829
0.057389
0.007726
-0.031531
-0.063745
-0.099387
-0.100687
-0.086659
-0.054587
-0.024482
0.021193
0.064509
0.127049
0.173368
0.202437
0.214809
0.225630
0.233145
0.225818
0.198855
0.145798
0.093850
0.047264
0.008108
-0.025609
-0.053188
-0.067139
-0.047666
-0.028937
-0.011978
0.016767
0.076433
0.131442
0.165804
0.191510
0.225230
0.246665
0.242876
0.226240
0.195376
0.139714
0.087569
0.023537
-0.008219
-0.030036
-0.063554
-0.076469
-0.066187
-0.039386
-0.005728
0.036106
0.069125
0.117299
0.160308
0.190981
0.217185
0.230642
0.235378
0.201476
0.165619
0.112699
0.077186
0.022645
-0.027583
-0.066904
-0.094702
-0.111681
-0.096249
-0.070187
-0.051594
-0.007580
0.030973
0.083023
0.123505
0.133244
0.150782
0.164820
0.166298
0.137700
0.106569
0.060790
0.021669
-0.016805
-0.069578
-0.105974
-0.124651
-0.142743
-0.142924
-0.124508
-0.095104
-0.048579
-0.003629
0.042841
0.077942
0.107773
0.126597
0.139006
0.133758
0.103796
0.071694
0.028673
-0.023610
-0.067778
-0.112988
-0.152322
-0.171583
-0.182889
-0.176421
-0.161634
-0.133352
-0.092512
-0.038654
0.005710
0.055984
0.081233
0.104113
0.113262
0.103244
0.083161
0.060558
0.013317
-0.035519
-0.089424
-0.124250
-0.152736
-0.189328
-0.198718
-0.197947
-0.165030
-0.134169
-0.105243
-0.055496
0.006288
0.052770
0.076568
0.091313
0.103980
0.092150
0.082687
0.059622
0.005461
-0.040689
-0.099028
-0.134669
-0.153065
-0.185449
-0.200303
-0.190266
-0.176311
-0.143594
-0.095527
-0.054526
-0.005274
0.037105
0.065003
0.084898
0.099401
0.098519
0.082237
0.054289
0.017197
-0.029673
-0.077042
-0.143094
-0.178278
-0.185607
-0.198607
-0.193269
-0.165900
-0.140109
-0.090667
-0.034312
0.005228
0.045657
0.082474
0.110910
0.126784
0.096622
0.072605
0.049227
0.006322
-0.033747
-0.082277
-0.128487
-0.184311
-0.210381
-0.200248
-0.188378
-0.167918
-0.140442
-0.109002
-0.061798
-0.017170
0.028477
0.069609
0.103774
0.108320
0.108518
0.097225
0.069818
0.040624
-0.018886
-0.074795
-0.122264
-0.163654
-0.185287
-0.193599
-0.173983
-0.149036
-0.118001
-0.077079
-0.029481
0.018192
0.056470
0.084051
0.096524
0.109249
0.088842
0.060641
0.038542
0.001449
-0.042952
-0.086344
-0.130394
-0.159819
-0.178457
-0.196177
-0.194598
-0.154496
-0.118927
-0.072250
-0.044574
0.011545
0.063582
0.094429
0.115321
0.125758
0.112078
0.088716
0.048652
0.001121
-0.034409
-0.087324
-0.124732
-0.166115
-0.175504
-0.189756
-0.186443
-0.168807
-0.135561
-0.095739
-0.058714
-0.002280
0.045329
0.074880
0.098922
0.110482
0.091644
0.066372
0.030085
-0.003752
-0.056717
-0.101897
-0.142587
-0.173887
-0.199821
-0.204332
-0.194190
-0.161832
-0.132273
-0.083115
-0.031851
0.007678
0.042499
0.067409
0.096304
0.107112
0.094296
0.078852
0.053468
0.002392
-0.036622
-0.090640
-0.133314
-0.176633
-0.201030
-0.210468
-0.210602
-0.185864
-0.146129
-0.086219
-0.043320
0.000313
0.033440
0.058458
0.084188
0.084025
0.073451
0.045608
0.031340
0.000315
-0.046896
-0.099087
-0.143432
-0.183843
-0.189675
-0.196411
-0.204137
-0.181239
-0.144306
-0.100657
-0.043485
0.005700
0.033818
0.071338
0.089841
0.096029
0.081241
0.065361
0.036989
-0.000757
-0.052530
-0.097947
-0.147776
-0.173984
-0.191944
-0.216120
-0.212745
-0.189364
-0.145251
-0.105456
-0.052608
-0.002322
0.037109
0.079202
0.087228
0.087181
0.081291
0.060614
0.037197
-0.016526
-0.063504
-0.115470
-0.157182
-0.195435
-0.211119
-0.212445
-0.206770
-0.191509
-0.161950
-0.113084
-0.063875
-0.026158
0.013504
0.051022
0.072658
0.079583
0.071565
0.052559
0.013502
-0.032742
-0.074257
-0.102076
-0.138494
-0.168583
-0.193734
-0.200574
-0.191066
-0.173804
-0.136705
-0.094475
-0.057928
-0.012258
0.049772
0.082746
0.090752
0.099502
0.104248
0.065264
0.046922
-0.001183
-0.028100
-0.068590
-0.116277
-0.155814
-0.190806
-0.171919
-0.163865
-0.153503
-0.124347
-0.077476
-0.033927
0.029116
0.077713
0.115257
0.147335
0.151813
0.136129
0.112990
0.078370
0.043955
-0.011872
-0.076376
-0.110840
-0.143866
-0.178412
-0.186058
-0.169203
-0.155660
-0.119852
-0.073145
-0.009680
0.039490
0.088197
0.138160
0.155861
0.165939
0.150382
0.128853
0.090376
0.039004
-0.006427
-0.052716
-0.111218
-0.147143
-0.165103
-0.178694
-0.177002
-0.146160
-0.126935
-0.093496
-0.048015
0.001487
0.042042
0.074898
0.095076
0.121321
0.105596
0.066589
0.039001
0.000708
-0.046084
-0.101613
-0.151293
-0.197361
-0.208019
-0.200431
-0.206340
-0.196724
-0.169665
-0.127713
-0.062180
-0.009564
0.025316
0.059267
0.084026
0.089343
0.088266
0.064603
0.031101
-0.026954
-0.081017
-0.135985
-0.174978
-0.209890
-0.237037
-0.231251
-0.235214
-0.218947
-0.192078
-0.141806
-0.094336
-0.041653
-0.007946
0.016161
0.037416
0.058670
0.045521
0.028400
-0.006353
-0.056653
-0.089141
-0.132004
-0.169518
-0.196195
-0.204116
-0.221698
-0.218978
-0.192152
-0.168254
-0.123687
-0.079261
-0.029913
0.017072
0.043009
0.058756
0.068235
0.066639
0.039125
0.011054
-0.039730
-0.087409
-0.125347
-0.166638
-0.203521
-0.224055
-0.237403
-0.209726
-0.206862
-0.165691
-0.113600
-0.063794
-0.033961
-0.001621
0.028460
0.045774
0.061222
0.049456
0.031574
0.005227
-0.043432
-0.088119
-0.138088
-0.181839
-0.204696
-0.228213
-0.255258
-0.258699
-0.217992
-0.185748
-0.139675
-0.103510
-0.051166
-0.001171
0.032069
0.057076
0.056649
0.057375
0.055903
0.032584
0.003879
-0.035252
-0.060232
-0.081115
-0.101439
-0.111564
-0.110979
-0.101580
-0.072007
-0.022829
0.042516
0.112969
0.196541
0.255313
0.311244
0.356331
0.403285
0.423508
0.429018
0.438653
0.433113
0.415492
0.392988
0.387024
0.389815
0.414576
0.438551
0.480591
0.527015
0.588268
0.657651
0.687514
0.722597
0.768124
0.797733
0.811939
0.799637
0.780671
0.738849
0.642655
0.517638
0.417750
0.314589
0.214647
0.126612
0.054852
0.000474
-0.020711
0.000677
0.005374
0.037099
0.087213
0.124233
0.154228
0.180404
0.195092
0.196810
0.179568
0.156565
0.110029
0.072170
0.026879
-0.021471
-0.063368
-0.104117
-0.133100
-0.146450
-0.146073
-0.127184
-0.110573
-0.059257
-0.011060
0.035505
0.067288
0.096429
0.122469
0.132427
0.115650
0.101944
0.062961
0.002605
-0.052012
-0.105365
-0.150053
-0.176310
-0.202206
-0.197206
-0.191416
-0.169222
-0.125751
-0.078254
-0.055759
-0.014107
0.039984
0.088977
0.120579
0.135588
0.127697
0.100446
0.070538
0.013061
-0.027810
-0.085404
-0.135325
-0.178979
-0.195894
-0.213426
-0.197729
-0.157760
-0.121083
-0.075664
-0.025300
0.020859
0.052302
0.078184
0.116978
0.119074
0.109740
0.093790
0.073952
0.028368
-0.026298
-0.064348
-0.118126
-0.160405
-0.183216
-0.182869
-0.170814
-0.150797
-0.111285
-0.057668
-0.016952
0.034058
0.075866
0.111868
0.132279
0.145953
0.144477
0.126433
0.089063
0.050806
-0.002589
-0.045247
-0.087993
-0.117205
-0.134602
-0.156649
-0.142816
-0.108819
-0.078559
-0.034527
0.012750
0.059643
0.110793
0.146873
0.167342
0.190347
0.163767
0.137932
0.121931
0.076530
0.049909
-0.002859
-0.045436
-0.077759
-0.104242
-0.118675
-0.109796
-0.070621
-0.047635
-0.004131
0.041193
0.088001
0.128963
0.169036
0.200760
0.201893
0.179514
0.160891
0.137453
0.098739
0.052792
0.000494
-0.030829
-0.062850
-0.074778
-0.084290
-0.071874
-0.034945
-0.005637
0.030004
0.071204
0.129001
0.171678
0.210929
0.233772
0.242444
0.233332
0.208804
0.179299
0.124424
0.067683
0.019807
-0.015190
-0.040414
-0.085603
-0.099092
-0.075080
-0.047912
-0.014617
0.028769
0.081056
0.125459
0.162935
0.201194
0.216700
0.230401
0.208041
0.194130
0.168853
0.112354
0.056912
0.017113
-0.012031
-0.046773
-0.075559
-0.074946
-0.052943
-0.025678
-0.000115
0.044522
0.073341
0.112653
0.161349
0.194853
0.204274
0.200847
0.184381
0.174467
0.153214
0.098639
0.035924
-0.010606
-0.044819
-0.078024
-0.101439
-0.116671
-0.112413
-0.097163
-0.057773
-0.017327
0.036467
0.084717
0.121807
0.140784
0.161455
0.170765
0.163553
0.137001
0.096513
0.046334
-0.005884
-0.057081
-0.091850
-0.133962
-0.162302
-0.170879
-0.160409
-0.138470
-0.117610
-0.075760
-0.024624
0.028022
0.063728
0.089829
0.111320
0.137803
0.131661
0.099531
0.062510
0.001950
-0.050886
-0.098023
-0.131461
-0.165852
-0.186508
-0.204613
-0.204414
-0.176817
-0.136301
-0.085929
-0.039356
-0.007841
0.034897
0.049335
0.065898
0.079564
0.075824
0.059031
0.031781
-0.002863
-0.011556
-0.070575
-0.129354
-0.172192
-0.186217
-0.198011
-0.191124
-0.170491
-0.153952
-0.093737
-0.041283
0.001415
0.038997
0.076535
0.093206
0.100236
0.085331
0.065318
0.048310
0.000428
-0.042079
-0.084439
-0.125839
-0.173087
-0.201141
-0.198825
-0.182335
-0.162434
-0.124419
-0.077687
-0.043432
0.005869
0.038385
0.066292
0.087790
0.100686
0.095267
0.072385
0.039284
-0.004236
-0.044416
-0.087480
-0.130124
-0.163188
-0.176824
-0.189603
-0.189546
-0.173649
-0.141431
-0.090171
-0.058742
-0.007816
0.052470
0.079747
0.098812
0.107642
0.094470
0.084422
0.068236
0.014032
-0.027739
-0.083309
-0.125316
-0.154169
-0.186525
-0.194690
-0.171397
-0.165569
-0.142322
-0.082936
-0.033227
0.006393
0.043390
0.083698
0.109077
0.118708
0.109077
0.080535
0.050065
-0.002969
-0.041678
-0.095910
-0.130244
-0.165228
-0.184101
-0.193111
-0.191817
-0.176240
-0.142331
-0.089922
-0.041406
0.014178
0.062677
0.096693
0.109693
0.114732
0.103078
0.092664
0.060138
0.006889
-0.048450
-0.096310
-0.139300
-0.166636
-0.185981
-0.205340
-0.197303
-0.175301
-0.144452
-0.106916
-0.063961
-0.005478
0.055798
0.097786
0.118642
0.121816
0.103273
0.084696
0.043542
0.001432
-0.040605
-0.088211
-0.138929
-0.155387
-0.176332
-0.195931
-0.193424
-0.175058
-0.133090
-0.094464
-0.066269
-0.022643
0.024580
0.071749
0.110399
0.115306
0.104062
0.075107
0.037521
0.004848
-0.039965
-0.094602
-0.142615
-0.187564
-0.210211
-0.230456
-0.211416
-0.179724
-0.143373
-0.087308
-0.045368
0.008600
0.049573
0.095042
0.111914
0.122107
0.098876
0.067237
0.051371
0.006169
-0.042701
-0.093215
-0.155151
-0.196229
-0.207773
-0.220814
-0.213083
-0.194419
-0.151462
-0.093741
-0.039852
-0.000202
0.048467
0.070607
0.094433
0.107462
0.106045
0.080603
0.034593
-0.024331
-0.063488
-0.110252
-0.150787
-0.185512
-0.210375
-0.210863
-0.204050
-0.173241
-0.140150
-0.097738
-0.051023
-0.004785
0.052592
0.077039
0.085747
0.091527
0.079271
0.074583
0.035103
-0.006322
-0.041759
-0.078522
-0.131437
-0.173841
-0.210250
-0.220351
-0.197932
-0.172298
-0.140799
-0.094752
-0.051129
-0.007836
0.032631
0.060679
0.077590
0.085883
0.069576
0.039785
0.008307
-0.026518
-0.066826
-0.114995
-0.147783
-0.177769
-0.209074
-0.212550
-0.202900
-0.192676
-0.175416
-0.129890
-0.075912
-0.011198
0.026931
0.054008
0.062579
0.075125
0.076802
0.083289
0.056192
0.006675
-0.052938
-0.096057
-0.128710
-0.164441
-0.174609
-0.184580
-0.172471
-0.154112
-0.135389
-0.096601
-0.052448
-0.000256
0.039041
0.079969
0.096130
0.097171
0.095020
0.085534
0.063092
0.025284
-0.023765
-0.074027
-0.109927
-0.139930
-0.150109
-0.158996
-0.155172
-0.145940
-0.119895
-0.077916
-0.043205
0.008614
0.053658
0.095687
0.119570
0.130364
0.107522
0.085893
0.066876
0.047887
-0.007120
-0.056219
-0.098874
-0.134892
-0.149654
-0.152200
-0.152707
-0.116953
-0.091438
-0.044833
-0.000380
0.037156
0.079645
0.119773
0.152548
0.171245
0.163048
0.123212
0.075710
0.022031
-0.024425
-0.072207
-0.113638
-0.148867
-0.173674
-0.193370
-0.196654
-0.160445
-0.117126
-0.087038
-0.037220
0.005707
0.046682
0.074001
0.101253
0.106882
0.097324
0.076295
0.041886
-0.011500
-0.048182
-0.101771
-0.141339
-0.175359
-0.201854
-0.215137
-0.213434
-0.193842
-0.164767
-0.115324
-0.089047
-0.051971
-0.009776
0.028847
0.052418
0.071448
0.069761
0.044093
0.017540
-0.009528
-0.056788
-0.116845
-0.176043
-0.223671
-0.233475
-0.240665
-0.236714
-0.227481
-0.187691
-0.130875
-0.079072
-0.039648
0.012387
0.038066
0.069074
0.074848
0.073014
0.045620
0.008865
-0.040686
-0.076912
-0.125731
-0.178494
-0.212255
-0.244843
-0.251340
-0.249207
-0.226787
-0.194454
-0.153540
-0.090722
-0.038883
0.002636
0.035062
0.059571
0.076642
0.076328
0.053344
0.020577
-0.029508
-0.078668
-0.125180
-0.163018
-0.200490
-0.236381
-0.246047
-0.237646
-0.212708
-0.178341
-0.124059
-0.078529
-0.030229
0.004709
0.031045
0.058875
0.062619
0.066866
0.058525
0.025094
-0.032716
-0.086065
-0.140657
-0.188416
-0.211236
-0.235662
-0.256541
-0.237908
-0.212274
-0.159426
-0.112319
-0.059498
-0.001355
0.043009
0.080813
0.113835
0.124001
0.139002
0.136672
0.127598
0.088482
0.041942
0.010698
-0.020594
-0.031076
-0.032814
-0.010002
0.011305
0.077537
0.143842
0.221921
0.296195
0.368761
0.437933
0.511887
0.565660
0.602186
0.633623
0.644128
0.656888
0.637714
0.626731
0.605057
0.600291
0.575631
0.555823
0.533849
0.556133
0.559658
0.575385
0.598457
0.626536
0.634631
0.614569
0.592473
0.554360
0.522719
0.468666
0.391468
0.305198
0.212537
0.134751
0.069486
0.005929
-0.049110
-0.068681
-0.084762
-0.081414
-0.075848
-0.053355
-0.015696
0.022046
0.062519
0.102487
0.151753
0.176037
0.183727
0.163363
0.140843
0.098039
0.044897
-0.020485
-0.062417
-0.092697
-0.122171
-0.133424
-0.150291
-0.146444
-0.135436
-0.108186
-0.065366
-0.024261
0.026535
0.070690
0.100595
0.116078
0.126809
0.123269
0.092999
0.048637
0.009553
-0.037548
-0.080173
-0.128745
-0.170911
-0.185663
-0.185809
-0.182019
-0.161128
-0.127567
-0.083114
-0.037012
0.012119
0.064375
0.100475
0.106074
0.125285
0.115168
0.097435
0.064865
0.016151
-0.038040
-0.090089
-0.125013
-0.153590
-0.164663
-0.175313
-0.170103
-0.153143
-0.132278
-0.081457
-0.034040
0.018090
0.071505
0.108646
0.124200
0.132558
0.128704
0.115154
0.083128
0.030189
-0.008173
-0.039697
-0.089798
-0.127521
-0.159971
-0.159843
-0.138660
-0.116858
-0.100616
-0.053764
-0.002289
0.046345
0.082341
0.114298
0.136720
0.146898
0.142776
0.122546
0.098112
0.052350
0.007915
-0.033224
-0.078142
-0.123968
-0.149395
-0.152344
-0.129726
-0.110029
-0.066739
-0.020549
0.014976
0.081980
0.128835
0.163011
0.183358
0.190137
0.182915
0.159283
0.123511
0.076449
0.032148
-0.012996
-0.029183
-0.056689
-0.075492
-0.091699
-0.076426
-0.065763
-0.039655
0.003448
0.035038
0.100234
0.162193
0.195673
0.212440
0.223710
0.209546
0.186362
0.155959
0.125053
0.088278
0.045137
-0.008932
-0.039288
-0.061893
-0.072150
-0.054531
-0.022861
0.000305
0.038561
0.091179
0.142906
0.184187
0.209969
0.246202
0.256050
0.249674
0.215588
0.182126
0.136585
0.101464
0.047214
0.000335
-0.037116
-0.053490
-0.065941
-0.056777
-0.053914
-0.020743
0.033271
0.081290
0.127396
0.172214
0.206254
0.218060
0.223267
0.220589
0.200828
0.153392
0.090712
0.086634
0.052005
0.013049
-0.034448
-0.061877
-0.082005
-0.076922
-0.054219
-0.029991
0.013707
0.056178
0.108572
0.151969
0.176519
0.201851
0.202742
0.192195
0.165596
0.130735
0.084052
0.035286
-0.020868
-0.074776
-0.106665
-0.128423
-0.149077
-0.142741
-0.124511
-0.082902
-0.036095
0.002541
0.048668
0.093032
0.120505
0.141521
0.153652
0.146708
0.120911
0.105697
0.056660
-0.007632
-0.064492
-0.090412
-0.123574
-0.151118
-0.169317
-0.168955
-0.137149
-0.111627
-0.057601
-0.006946
0.040190
0.078512
0.114889
0.118464
0.131950
0.117839
0.096664
0.067435
0.012187
-0.026789
-0.077015
-0.121040
-0.151358
-0.173177
-0.185874
-0.183861
-0.171639
-0.134831
-0.085947
-0.045829
-0.013554
0.039907
0.074660
0.105181
0.126953
0.133095
0.104773
0.069666
0.008637
-0.054624
-0.102053
-0.146257
-0.182851
-0.197626
-0.199093
-0.184634
-0.157214
-0.109751
-0.078183
-0.039529
0.008359
0.046411
0.085083
0.112323
0.113306
0.090672
0.079563
0.050233
-0.004484
-0.048397
-0.110625
-0.172831
-0.178475
-0.185867
-0.208720
-0.204532
-0.181239
-0.130130
-0.067850
-0.027864
-0.001714
0.053152
0.089856
0.106990
0.114553
0.101074
0.076039
0.051961
0.016090
-0.030642
-0.083059
-0.126125
-0.160030
-0.187613
-0.185823
-0.194916
-0.172412
-0.138540
-0.080007
-0.044326
0.002694
0.034214
0.081188
0.106433
0.117830
0.103762
0.082196
0.058532
0.006444
-0.028656
-0.086763
-0.136678
-0.160627
-0.167931
-0.179106
-0.167259
-0.150077
-0.109981
-0.069894
-0.029197
0.012872
0.055115
0.086470
0.105810
0.119480
0.113880
0.113138
0.076907
0.028301
-0.023841
-0.071439
-0.120035
-0.151651
-0.177599
-0.179609
-0.188859
-0.152940
-0.130483
-0.080817
-0.037750
0.021150
0.064790
0.095980
0.123019
0.129961
0.122697
0.098146
0.070437
0.022279
-0.022768
-0.072666
-0.110770
-0.147410
-0.179116
-0.184604
-0.170988
-0.149499
-0.124165
-0.079266
-0.031650
0.008539
0.052776
0.082204
0.106187
0.115722
0.115232
0.100239
0.066017
0.009935
-0.027396
-0.068708
-0.124192
-0.164441
-0.191348
-0.201756
-0.192296
-0.156819
-0.124454
-0.081891
-0.054798
-0.010546
0.045301
0.089793
0.109854
0.117647
0.110738
0.076328
0.041042
-0.000613
-0.051193
-0.098829
-0.125324
-0.158605
-0.183615
-0.203949
-0.185277
-0.170942
-0.154563
-0.101756
-0.056740
0.005286
0.052545
0.079826
0.110736
0.127947
0.119559
0.088435
0.050988
0.011195
-0.038303
-0.086873
-0.126235
-0.167960
-0.197167
-0.207176
-0.195820
-0.169374
-0.131185
-0.098632
-0.054467
-0.006837
0.041867
0.082076
0.087423
0.102533
0.094201
0.075259
0.044912
-0.003149
-0.037243
-0.079281
-0.124054
-0.165306
-0.196018
-0.201718
-0.184889
-0.178723
-0.145297
-0.095941
-0.069240
-0.012890
0.051717
0.083747
0.087168
0.101379
0.110805
0.095576
0.070195
0.012402
-0.038220
-0.093484
-0.132152
-0.174695
-0.205307
-0.222538
-0.200313
-0.183557
-0.156367
-0.100221
-0.045627
0.005361
0.049356
0.069272
0.091643
0.112895
0.113601
0.088043
0.046807
-0.002336
-0.048378
-0.096657
-0.147634
-0.188469
-0.209755
-0.205476
-0.199192
-0.178582
-0.152737
-0.102332
-0.060513
-0.002590
0.039155
0.080035
0.092610
0.107094
0.096413
0.080781
0.049877
0.001833
-0.032731
-0.090467
-0.127011
-0.149113
-0.175058
-0.185455
-0.171820
-0.159691
-0.123142
-0.069555
-0.020580
0.025242
0.055788
0.096322
0.116139
0.124530
0.121265
0.116473
0.094520
0.037258
-0.012867
-0.056474
-0.091203
-0.133647
-0.156433
-0.179580
-0.179221
-0.154015
-0.123898
-0.075572
-0.011816
0.050306
0.094700
0.127404
0.151241
0.176816
0.163578
0.137608
0.109091
0.058691
0.002874
-0.045345
-0.091326
-0.117843
-0.145825
-0.160588
-0.141697
-0.118788
-0.090553
-0.058446
-0.009092
0.036054
0.071259
0.094253
0.124097
0.139322
0.126288
0.101510
0.067692
0.032677
-0.021693
-0.067616
-0.120544
-0.151363
-0.178706
-0.185774
-0.184195
-0.172190
-0.135517
-0.092932
-0.048351
0.005311
0.043993
0.070339
0.076351
0.090987
0.078272
0.051497
0.013348
-0.012803
-0.052522
-0.107037
-0.159244
-0.207032
-0.225108
-0.221081
-0.202378
-0.178113
-0.145680
-0.109494
-0.063980
-0.020068
0.023417
0.050630
0.045903
0.061705
0.061208
0.046444
0.015125
-0.039129
-0.081593
-0.137294
-0.174116
-0.208602
-0.233159
-0.229332
-0.223084
-0.202284
-0.174661
-0.119352
-0.069436
-0.027499
0.008989
0.033203
0.060795
0.079743
0.070932
0.041942
0.018126
-0.029314
-0.070882
-0.123324
-0.163985
-0.193008
-0.217487
-0.228786
-0.222543
-0.193696
-0.166067
-0.114472
-0.061757
-0.020199
0.029430
0.061516
0.074166
0.069084
0.069711
0.057422
0.031362
-0.017833
-0.074170
-0.120903
-0.172275
-0.205041
-0.221494
-0.230937
-0.226922
-0.198523
-0.157301
-0.118863
-0.075935
-0.013427
0.018833
0.048464
0.063456
0.088540
0.079168
0.050121
0.024119
-0.020544
-0.058541
-0.095605
-0.134703
-0.165600
-0.170477
-0.171898
-0.139008
-0.115835
-0.071918
-0.017211
0.041300
0.100053
0.160435
0.221559
0.265232
0.280935
0.289717
0.303409
0.303306
0.273427
0.250781
0.255406
0.254910
0.252284
0.277094
0.282622
0.303456
0.368859
0.437555
0.527058
0.604925
0.693366
0.778548
0.837802
0.867516
0.871644
0.860055
0.843846
0.785614
0.720058
0.661171
0.598848
0.526948
0.420483
0.319344
0.242713
0.198761
0.171764
0.153326
0.150852
0.155519
0.183781
0.223597
0.241574
0.245521
0.240535
0.231408
0.205530
0.161539
0.103254
0.049545
-0.008188
-0.054615
-0.097525
-0.128485
-0.151591
-0.134216
-0.110208
-0.090745
-0.051254
-0.022878
0.038476
0.093578
0.121303
0.123947
0.125537
0.131995
0.119750
0.099873
0.045549
-0.001635
-0.049560
-0.096916
-0.142430
-0.179825
-0.193708
-0.186530
-0.164257
-0.138074
-0.098181
-0.037880
0.038243
0.073578
0.096528
0.113536
0.129092
0.133075
0.111064
0.067245
0.032494
-0.011230
-0.066907
-0.122358
-0.161731
-0.160750
-0.158394
-0.149903
-0.138318
-0.113338
-0.061482
-0.021937
0.011785
0.067571
0.111421
0.128149
0.135766
0.135078
0.124326
0.084267
0.036119
-0.006789
-0.046662
-0.076597
-0.109438
-0.141799
-0.150987
-0.154329
-0.144000
-0.112688
-0.048551
0.004117
0.054100
0.096338
0.125733
0.143286
0.171828
0.156138
0.135313
0.111718
0.066456
0.002241
-0.045202
-0.085526
-0.114168
-0.148757
-0.157369
-0.140837
-0.126666
-0.081007
-0.036043
0.019607
0.073742
0.110684
0.139589
0.163806
0.170811
0.167931
0.142620
0.112709
0.070781
0.027761
-0.011887
-0.053349
-0.089119
-0.107811
-0.116163
-0.108519
-0.098624
-0.059896
-0.010871
0.042093
0.090742
0.149312
0.189492
0.217436
0.227700
0.218774
0.196566
0.169966
0.120232
0.075086
0.020211
-0.021704
-0.068542
-0.082033
-0.085390
-0.073888
-0.042690
-0.012646
0.034470
0.082694
0.128650
0.173808
0.195058
0.226283
0.243380
0.230827
0.205336
0.177166
0.144935
0.103324
0.053621
0.000913
-0.033928
-0.039921
-0.057620
-0.046158
-0.018368
0.019772
0.060779
0.111995
0.153521
0.182706
0.221715
0.247379
0.252346
0.241321
0.228691
0.208038
0.152751
0.110543
0.055995
0.001596
-0.039291
-0.053933
-0.068716
-0.065719
-0.052350
-0.016091
0.028811
0.076945
0.134121
0.172109
0.199716
0.240918
0.257279
0.234876
0.198353
0.174933
0.121121
0.073690
0.029061
-0.028060
-0.060473
-0.078611
-0.100371
-0.092424
-0.067114
-0.039017
0.010751
0.050123
0.096914
0.136226
0.171697
0.188346
0.190877
0.180851
0.172085
0.136110
0.082384
0.032125
-0.019719
-0.057030
-0.102327
-0.123029
-0.143348
-0.146011
-0.132758
-0.100667
-0.053151
-0.008628
0.052470
0.092703
0.131139
0.153334
0.158594
0.141722
0.109363
0.071360
0.029712
-0.009447
-0.053347
-0.092342
-0.127652
-0.152541
-0.168221
-0.158919
-0.125859
-0.101011
-0.068056
-0.033756
0.014487
0.067492
0.111115
0.128747
0.139024
0.118681
0.094498
0.060290
0.008008
-0.026497
-0.072724
-0.125869
-0.144970
-0.162231
-0.185309
-0.180327
-0.157761
-0.132845
-0.094421
-0.038580
0.002099
0.040096
0.088458
0.119523
0.137956
0.140174
0.117442
0.074391
0.021629
-0.039007
-0.089904
-0.129056
-0.155250
-0.171385
-0.190249
-0.175641
-0.152047
-0.125316
-0.083144
-0.028854
0.019004
0.062251
0.100711
0.132558
0.133252
0.115283
0.099664
0.077341
0.036918
-0.020984
-0.071100
-0.120695
-0.157505
-0.178591
-0.183168
-0.169688
-0.152999
-0.114005
-0.077587
-0.046088
0.005535
0.069797
0.105105
0.125664
0.130589
0.117661
0.098072
0.066015
0.018418
-0.021143
-0.060605
-0.114145
-0.147578
-0.174179
-0.180790
-0.174639
-0.143826
-0.108854
-0.060447
-0.006374
0.031884
0.065504
0.086789
0.117361
0.131555
0.128050
0.099922
0.047975
0.014015
-0.021587
-0.060456
-0.106475
-0.135646
-0.146530
-0.165432
-0.157476
-0.132810
-0.112417
-0.072945
-0.029242
0.006501
0.040741
0.079082
0.113646
0.143428
0.134307
0.099962
0.060872
0.019833
-0.032965
-0.054614
-0.076454
-0.114906
-0.144243
-0.168727
-0.159418
-0.145295
-0.100454
-0.052371
0.005293
0.046620
0.077367
0.096703
0.129960
0.148872
0.133223
0.104817
0.075329
0.031320
-0.028768
-0.069171
-0.113266
-0.134870
-0.148222
-0.157870
-0.166797
-0.144765
-0.130828
-0.074992
-0.031004
0.014699
0.055465
0.083693
0.097647
0.117913
0.105954
0.085716
0.053956
0.019628
-0.025630
-0.075383
-0.119816
-0.154617
-0.177499
-0.193099
-0.186632
-0.160968
-0.129159
-0.075862
-0.023782
0.015216
0.061368
0.093448
0.119695
0.137308
0.122594
0.097036
0.069335
0.025412
-0.031250
-0.079114
-0.117905
-0.145100
-0.162403
-0.179735
-0.174121
-0.149114
-0.129215
-0.073337
-0.035727
0.012383
0.051231
0.091468
0.107823
0.135937
0.118654
0.092054
0.054893
0.014440
-0.021668
-0.083298
-0.125766
-0.149096
-0.161675
-0.179251
-0.173491
-0.143153
-0.118961
-0.074740
-0.041158
0.003619
0.056678
0.082969
0.093502
0.099211
0.109197
0.078470
0.048014
0.000917
-0.041807
-0.080898
-0.115630
-0.161932
-0.189383
-0.198835
-0.193014
-0.168669
-0.150304
-0.097717
-0.037384
0.005253
0.048116
0.089663
0.106268
0.121150
0.105721
0.082857
0.049590
0.009402
-0.034253
-0.085467
-0.126537
-0.155285
-0.179951
-0.195551
-0.198746
-0.149160
-0.120524
-0.085691
-0.036258
0.006729
0.048633
0.075770
0.103142
0.136688
0.141713
0.110388
0.074944
0.034850
-0.009756
-0.042533
-0.089730
-0.119254
-0.143587
-0.161242
-0.153546
-0.136370
-0.097107
-0.061098
-0.004440
0.041369
0.084757
0.113191
0.129998
0.146382
0.150209
0.134901
0.099728
0.044275
0.003853
-0.043159
-0.090364
-0.124739
-0.151922
-0.169826
-0.157702
-0.133761
-0.099794
-0.052828
-0.002655
0.045659
0.096431
0.140868
0.169573
0.185650
0.170015
0.159075
0.122796
0.067263
0.022215
-0.030643
-0.074909
-0.104344
-0.139954
-0.158264
-0.158480
-0.143954
-0.111200
-0.051733
-0.012953
0.030363
0.079829
0.108611
0.123861
0.134143
0.114552
0.099673
0.074538
0.037203
-0.023613
-0.084106
-0.117186
-0.160235
-0.190987
-0.190005
-0.183089
-0.176567
-0.154444
-0.090482
-0.037802
0.017738
0.064171
0.090411
0.107150
0.119586
0.104384
0.081424
0.032879
-0.017053
-0.051866
-0.094871
-0.140691
-0.182806
-0.197666
-0.193947
-0.190907
-0.188742
-0.154990
-0.109983
-0.062078
-0.023581
0.018877
0.046036
0.085028
0.088301
0.077328
0.060591
0.029989
-0.024591
-0.066073
-0.093483
-0.127830
-0.166970
-0.198160
-0.211998
-0.199987
-0.175001
-0.142361
-0.104234
-0.050495
-0.015543
0.028331
0.062645
0.078563
0.089048
0.079310
0.046463
0.027599
-0.027137
-0.076526
-0.113518
-0.166907
-0.205360
-0.224903
-0.235810
-0.224261
-0.193358
-0.161074
-0.119318
-0.061926
-0.011918
0.028911
0.060824
0.081593
0.097908
0.086510
0.058231
0.022505
-0.028724
-0.066330
-0.117572
-0.169457
-0.207206
-0.224170
-0.237504
-0.222056
-0.184248
-0.156408
-0.115828
-0.078277
-0.039694
0.003637
0.047237
0.078680
0.092118
0.086582
0.064109
0.047558
0.009820
-0.025106
-0.064812
-0.106032
-0.130136
-0.132394
-0.117019
-0.088904
-0.054081
-0.005311
0.045799
0.099207
0.172802
0.239644
0.289958
0.340184
0.398391
0.421144
0.421990
0.423275
0.408940
0.378498
0.355243
0.339398
0.327526
0.341957
0.361398
0.406269
0.451373
0.541082
0.628897
0.705933
0.745836
0.785884
0.827945
0.841350
0.831777
0.805045
0.784538
0.721324
0.631630
0.504256
0.396913
0.296795
0.217742
0.161693
0.086950
0.055071
0.016582
0.022845
0.054178
0.077448
0.098965
0.122518
0.148597
0.165101
0.180421
0.169500
0.128464
0.092656
0.061893
-0.001728
-0.050427
-0.105687
-0.121555
-0.141563
-0.132028
-0.112192
-0.104576
-0.082379
-0.033419
0.014609
0.059010
0.087607
0.115976
0.133912
0.144404
0.137757
0.113833
0.069342
0.032902
-0.011492
-0.071395
-0.116690
-0.155849
-0.163256
-0.165835
-0.164377
-0.142837
-0.115433
-0.074254
-0.032498
0.016560
0.058198
0.096104
0.115999
0.125175
0.117718
0.104330
0.071344
0.032230
-0.022327
-0.076035
-0.117237
-0.149105
-0.161274
-0.166667
-0.156860
-0.124759
-0.109679
-0.057901
-0.016318
0.022765
0.068493
0.097823
0.108015
0.129840
0.126465
0.117899
0.087777
0.053082
0.014096
-0.042434
-0.084104
-0.116465
-0.151883
-0.166494
-0.127227
-0.109186
-0.091016
-0.046756
-0.010869
0.033428
0.092142
0.135486
0.143624
0.149374
0.144765
0.122725
0.120659
0.079523
0.024549
-0.026758
-0.064769
-0.109341
-0.143994
-0.154797
-0.118113
-0.080145
-0.056491
-0.033715
0.024858
0.074038
0.118682
0.154790
0.179995
0.191962
0.182013
0.156339
0.140933
0.091231
0.033229
-0.021195
-0.058169
-0.094642
-0.110096
-0.121462
-0.111246
-0.077579
-0.042957
0.016628
0.059517
0.100773
0.142797
0.176106
0.200593
0.216251
0.216690
0.191596
0.169412
0.123790
0.071450
0.030604
-0.003362
-0.037973
-0.059683
-0.078866
-0.063745
-0.032145
0.005922
0.056545
0.104790
0.145186
0.183896
0.223935
0.240054
0.265612
0.253106
0.232704
0.194428
0.157474
0.104937
0.059397
0.021864
-0.027586
-0.049562
-0.063512
-0.049946
-0.024288
0.009533
0.059700
0.108173
0.160991
0.190754
0.231941
0.255511
0.264630
0.247311
0.213082
0.176775
0.131776
0.101761
0.068545
0.029348
-0.016450
-0.040847
-0.068695
-0.064773
-0.053515
-0.021260
0.022261
0.072581
0.113274
0.165684
0.217876
0.240397
0.243557
0.230154
0.211798
0.165259
0.114624
0.063300
0.013750
-0.036600
-0.064744
-0.089142
-0.106085
-0.109750
-0.096944
-0.074167
-0.026907
0.019005
0.076865
0.120124
0.163182
0.183773
0.189447
0.171414
0.146788
0.119572
0.079711
0.025758
-0.026812
-0.062998
-0.114437
-0.138755
-0.157898
-0.133750
-0.122176
-0.099568
-0.047358
0.004948
0.050434
0.089006
0.108871
0.135353
0.136878
0.126970
0.111423
0.075400
0.024909
-0.026155
-0.081081
-0.123083
-0.153612
-0.162313
-0.176531
-0.182801
-0.169498
-0.133123
-0.080343
-0.028534
0.018881
0.058353
0.092180
0.116623
0.133378
0.132786
0.111720
0.069262
0.015728
-0.036955
-0.080369
-0.117979
-0.154169
-0.174004
-0.188707
-0.178561
-0.159311
-0.125013
-0.087321
-0.042601
0.012149
0.052510
0.082955
0.103100
0.114228
0.101332
0.085711
0.045850
0.003951
-0.051191
-0.099446
-0.143019
-0.178200
-0.204489
-0.198494
-0.181032
-0.165706
-0.134245
-0.080021
-0.037278
0.008946
0.051085
0.087582
0.096408
0.111927
0.112772
0.082151
0.036967
-0.006655
-0.055216
-0.088593
-0.109932
-0.156963
-0.178369
-0.185761
-0.180278
-0.161577
-0.125382
-0.079258
-0.030802
0.008613
0.059056
0.094778
0.120444
0.126074
0.105291
0.106370
0.086715
0.027513
-0.019741
-0.084415
-0.129714
-0.159928
-0.175911
-0.181979
-0.172836
-0.151338
-0.128121
-0.080795
-0.048393
-0.021045
0.046125
0.092206
0.124360
0.133206
0.107122
0.082503
0.052151
0.019251
-0.033435
-0.083020
-0.131413
-0.152548
-0.168647
-0.190414
-0.183118
-0.139429
-0.103304
-0.058980
-0.005610
0.028002
0.070715
0.099874
0.125755
0.135446
0.116975
0.091975
0.054541
0.006598
-0.035095
-0.068049
-0.113684
-0.149949
-0.178893
-0.186367
-0.176390
-0.149514
-0.114728
-0.057961
-0.012478
0.020665
0.059456
0.085751
0.102668
0.120670
0.115364
0.089698
0.051460
-0.009711
-0.052447
-0.088130
-0.127224
-0.147626
-0.174474
-0.201309
-0.192931
-0.164221
-0.118400
-0.068244
-0.025035
0.001440
0.040084
0.075741
0.095625
0.108036
0.100904
0.077193
0.037007
-0.009373
-0.046300
-0.103791
-0.132738
-0.161951
-0.186113
-0.197099
-0.188507
-0.178828
-0.135946
-0.081970
-0.024797
0.021171
0.052609
0.082217
0.102318
0.125913
0.112446
0.088158
0.055946
0.005700
-0.045603
-0.086665
-0.135485
-0.164133
-0.177726
-0.188134
-0.186360
-0.167606
-0.145189
-0.104682
-0.049405
0.005334
0.044223
0.072565
0.095881
0.109856
0.108884
0.102159
0.065898
0.011270
-0.056211
-0.100772
-0.139494
-0.169988
-0.194523
-0.206248
-0.195239
-0.178093
-0.154358
-0.120099
-0.069936
-0.026235
0.016425
0.047485
0.061219
0.076576
0.077251
0.075867
0.031441
-0.007952
-0.051114
-0.102565
-0.140953
-0.169423
-0.196902
-0.215837
-0.196291
-0.184458
-0.149590
-0.097286
-0.061785
-0.009879
0.037235
0.087465
0.116145
0.117931
0.108975
0.095609
0.065715
0.019184
-0.031106
-0.081409
-0.128441
-0.166971
-0.181190
-0.189000
-0.188174
-0.162836
-0.125907
-0.076405
-0.023472
0.026443
0.071834
0.105532
0.126045
0.151257
0.143090
0.118499
0.088967
0.049956
-0.008898
-0.039242
-0.089765
-0.133579
-0.147138
-0.167150
-0.170385
-0.149579
-0.118929
-0.072989
-0.014988
0.027361
0.078641
0.114254
0.140013
0.167483
0.144481
0.131718
0.102598
0.041970
0.001768
-0.041162
-0.087969
-0.131260
-0.152829
-0.161228
-0.150867
-0.143803
-0.107739
-0.072917
-0.015483
0.037743
0.079497
0.103896
0.124760
0.151997
0.139572
0.103487
0.066135
0.013936
-0.028060
-0.085405
-0.133250
-0.173866
-0.206084
-0.224872
-0.215738
-0.189395
-0.151869
-0.105282
-0.068956
-0.016723
0.040239
0.077325
0.092551
0.094201
0.067363
0.036292
0.008479
-0.032320
-0.073018
-0.126051
-0.174085
-0.201401
-0.232671
-0.241286
-0.217150
-0.185834
-0.146116
-0.118953
-0.067581
-0.024845
0.022612
0.059802
0.074097
0.073171
0.061510
0.032375
0.011717
-0.019974
-0.060097
-0.114097
-0.170528
-0.203853
-0.214170
-0.237801
-0.231547
-0.208984
-0.161567
-0.114607
-0.073788
-0.016496
0.015644
0.047170
0.070175
0.085310
0.073828
0.051093
0.026257
-0.023371
-0.069878
-0.110108
-0.151777
-0.192375
-0.226261
-0.240752
-0.225340
-0.202564
-0.165398
-0.126040
-0.072441
-0.029458
0.019287
0.054080
0.073630
0.081792
0.069142
0.042814
0.008661
-0.041742
-0.088159
-0.141553
-0.186127
-0.220942
-0.240745
-0.254180
-0.220639
-0.205137
-0.177146
-0.149054
-0.104087
-0.052399
-0.003450
0.027654
0.043965
0.057146
0.048814
0.029371
0.003662
-0.031733
-0.057669
-0.080366
-0.112354
-0.125331
-0.131660
-0.143762
-0.103408
-0.061215
-0.026791
0.023934
0.102991
0.159215
0.215850
0.277321
0.338390
0.390007
0.396506
0.401029
0.399625
0.377681
0.358119
0.351797
0.340772
0.324742
0.345947
0.362465
0.403480
0.458596
0.536712
0.622955
0.694081
0.756799
0.792685
0.808289
0.840551
0.863079
0.844316
0.791941
0.742138
0.655167
0.539559
0.416464
0.319432
0.226301
0.154953
0.095382
0.048956
0.028922
0.025546
0.047875
0.065456
0.098306
0.134623
0.155771
0.164869
0.182964
0.170605
0.147090
0.115742
0.064668
0.010658
-0.029126
-0.075760
-0.121935
-0.152976
-0.169158
-0.160274
-0.152737
-0.107850
-0.052391
0.000265
0.048392
0.076072
0.107735
0.131494
0.143143
0.124806
0.106539
0.068925
0.037039
-0.019787
-0.074133
-0.125674
-0.157601
-0.178639
-0.191538
-0.170756
-0.156526
-0.123898
-0.088745
-0.046138
-0.001385
0.039245
0.072700
0.096534
0.111098
0.098002
0.078918
0.039769
-0.006349
-0.040426
-0.080479
-0.142778
-0.182527
-0.184398
-0.186790
-0.172685
-0.166826
-0.111920
-0.063194
-0.020701
0.015162
0.059031
0.107506
0.122357
0.122832
0.125820
0.101657
0.064268
0.022253
-0.027382
-0.067200
-0.102910
-0.132292
-0.155120
-0.177235
-0.156100
-0.134852
-0.099066
-0.060410
-0.013017
0.030058
0.080010
0.131657
0.147440
0.156142
0.141058
0.120199
0.077492
0.045792
0.002928
-0.039095
-0.074480
-0.121204
-0.142575
-0.167102
-0.149873
-0.124714
-0.089413
-0.045848
0.002301
0.053095
0.107171
0.162531
0.180181
0.186477
0.179098
0.170135
0.135694
0.094669
0.036921
-0.011375
-0.066769
-0.094357
-0.114440
-0.113921
-0.112655
-0.088520
-0.053936
-0.004732
0.043573
0.095893
0.141844
0.175068
0.191320
0.217210
0.216482
0.195559
0.174473
0.125865
0.074781
0.036626
-0.007221
-0.048537
-0.066851
-0.087303
-0.080231
-0.053137
-0.028460
0.015867
0.071518
0.117880
0.165761
0.210998
0.226792
0.237449
0.241459
0.231303
0.196936
0.145497
0.102804
0.052095
0.010906
-0.026965
-0.047399
-0.068798
-0.048416
-0.023921
0.000867
0.043551
0.095216
0.152976
0.186794
0.220111
0.236108
0.251896
0.236197
0.218876
0.181246
0.134171
0.088261
0.048070
-0.011627
-0.052875
-0.070577
-0.077949
-0.071506
-0.055781
-0.030292
0.023664
0.068774
0.120755
0.159561
0.190441
0.197047
0.204291
0.197001
0.171390
0.147886
0.102358
0.039140
-0.000370
-0.037142
-0.064816
-0.088448
-0.102053
-0.100048
-0.086002
-0.057059
-0.012425
0.037523
0.085594
0.124368
0.157864
0.173862
0.186062
0.173313
0.140095
0.096906
0.048777
0.002963
-0.054007
-0.100652
-0.134527
-0.172993
-0.184247
-0.169110
-0.151860
-0.119496
-0.069683
-0.028543
0.021407
0.070144
0.100186
0.128948
0.142614
0.129920
0.112069
0.087795
0.027652
-0.033792
-0.066198
-0.105089
-0.140002
-0.162282
-0.175672
-0.169680
-0.142792
-0.111125
-0.059605
-0.015484
0.022427
0.057498
0.088394
0.111714
0.129285
0.122187
0.094884
0.054212
0.001822
-0.054118
-0.095553
-0.144690
-0.181426
-0.194869
-0.202925
-0.203217
-0.185611
-0.135029
-0.079225
-0.021569
0.015904
0.055784
0.087734
0.105113
0.108871
0.113644
0.092521
0.051477
0.015801
-0.030409
-0.073507
-0.135878
-0.186815
-0.207053
-0.210632
-0.199275
-0.173606
-0.137402
-0.084446
-0.044207
0.004385
0.045525
0.075590
0.098703
0.107387
0.107443
0.076638
0.045621
0.007893
-0.037815
-0.086910
-0.127383
-0.159376
-0.185827
-0.197066
-0.180863
-0.165359
-0.123858
-0.086725
-0.040112
0.006643
0.054553
0.089883
0.105604
0.118295
0.106843
0.071232
0.040599
0.003899
-0.035971
-0.071756
-0.121755
-0.162935
-0.183255
-0.192859
-0.193318
-0.176569
-0.143164
-0.085387
-0.031746
0.013901
0.063603
0.088129
0.115177
0.127970
0.127223
0.106640
0.079180
0.039244
-0.022641
-0.067087
-0.116958
-0.168776
-0.196073
-0.198832
-0.188951
-0.147517
-0.103184
-0.070918
-0.039035
0.017480
0.070322
0.105041
0.120682
0.131240
0.119716
0.097992
0.068322
0.014153
-0.037950
-0.084677
-0.117229
-0.149955
-0.164703
-0.177252
-0.167669
-0.147396
-0.121527
-0.093487
-0.041835
-0.002103
0.044150
0.088303
0.114867
0.126632
0.111777
0.089905
0.064197
0.023527
-0.032597
-0.067971
-0.104133
-0.141255
-0.162563
-0.172719
-0.163973
-0.156203
-0.124003
-0.086269
-0.044424
-0.000471
0.050596
0.073727
0.089391
0.106475
0.111274
0.095757
0.057167
0.011898
-0.043458
-0.094302
-0.138676
-0.168149
-0.180068
-0.192227
-0.175020
-0.163101
-0.141057
-0.089093
-0.042706
-0.010956
0.042555
0.083798
0.102915
0.117865
0.107108
0.083494
0.055555
0.004929
-0.047469
-0.085828
-0.135886
-0.165596
-0.189765
-0.191791
-0.183719
-0.177351
-0.148763
-0.094558
-0.041895
-0.000259
0.038191
0.078050
0.100266
0.119148
0.121306
0.109869
0.062866
0.018526
-0.035367
-0.073222
-0.115852
-0.163963
-0.191707
-0.209974
-0.200805
-0.175730
-0.144331
-0.102239
-0.055152
-0.010483
0.029249
0.069724
0.092730
0.107505
0.101058
0.069612
0.045864
-0.005292
-0.057405
-0.095407
-0.131430
-0.162845
-0.191762
-0.200786
-0.185544
-0.158161
-0.123274
-0.089685
-0.043857
0.004342
0.053034
0.100379
0.124818
0.138633
0.123339
0.097718
0.064756
0.012444
-0.033253
-0.071835
-0.122903
-0.159540
-0.183925
-0.210337
-0.202502
-0.173813
-0.129464
-0.082889
-0.010391
0.041886
0.100992
0.126321
0.135180
0.139615
0.140727
0.120745
0.083048
0.036081
-0.023260
-0.072011
-0.108849
-0.130765
-0.144055
-0.156381
-0.151053
-0.124713
-0.092935
-0.050314
0.001740
0.047657
0.082918
0.121928
0.142769
0.166800
0.147036
0.126969
0.099183
0.053141
0.001968
-0.043519
-0.094472
-0.126867
-0.152363
-0.167796
-0.162324
-0.141023
-0.117637
-0.067340
-0.009169
0.033569
0.074863
0.101989
0.122611
0.131792
0.111815
0.089804
0.068223
0.012956
-0.045576
-0.096056
-0.139904
-0.173168
-0.184805
-0.205798
-0.215262
-0.179734
-0.151251
-0.110103
-0.052556
-0.015223
0.032187
0.060669
0.076432
0.084113
0.076237
0.059193
0.019142
-0.027229
-0.082067
-0.125497
-0.165036
-0.206898
-0.222772
-0.241890
-0.229509
-0.209622
-0.189014
-0.148252
-0.099128
-0.050516
0.004356
0.039579
0.046652
0.040586
0.043299
0.037468
0.015659
-0.029622
-0.081279
-0.132474
-0.172803
-0.186386
-0.200995
-0.213741
-0.200754
-0.182025
-0.150334
-0.111273
-0.066327
-0.022200
0.017169
0.050871
0.062276
0.067749
0.044755
0.032497
0.007338
-0.019402
-0.079730
-0.123114
-0.173311
-0.204341
-0.229813
-0.227583
-0.209754
-0.198473
-0.168399
-0.132134
-0.077248
-0.024268
0.022458
0.060814
0.079382
0.083022
0.078817
0.047020
0.017705
-0.033699
-0.084755
-0.135345
-0.175191
-0.221421
-0.231888
-0.239805
-0.215846
-0.197947
-0.167722
-0.120729
-0.070204
-0.013714
0.038118
0.084470
0.119865
0.150344
0.143229
0.138802
0.109474
0.080377
0.054079
0.021422
-0.021164
-0.036466
-0.044336
-0.045622
-0.016018
0.028431
0.082004
0.152395
0.247083
0.326878
0.407604
0.468411
0.515362
0.573714
0.585931
0.594744
0.591957
0.590913
0.586391
0.577445
0.581142
0.565844
0.565519
0.554380
0.564459
0.601799
0.636562
0.661567
0.681064
0.687862
0.694495
0.681610
0.624261
0.575169
0.504415
0.439792
0.354715
0.255107
0.152964
0.079385
0.011354
-0.025140
-0.058254
-0.083987
-0.085208
-0.064398
-0.041202
0.001795
0.053897
0.099533
0.133815
0.162274
0.176128
0.185006
0.169894
0.153637
0.113431
0.069141
0.019243
-0.033325
-0.082351
-0.118571
-0.137074
-0.147853
-0.141419
-0.126239
-0.093890
-0.053502
-0.008491
0.024151
0.062678
0.099424
0.118656
0.131458
0.113023
0.087144
0.063603
0.013792
-0.030454
-0.071563
-0.123605
-0.161853
-0.175543
-0.181059
-0.166454
-0.142869
-0.118191
-0.086793
-0.055825
-0.010357
0.044445
0.085224
0.099473
0.112508
0.118276
0.100137
0.059612
0.018172
-0.024147
-0.070872
-0.117374
-0.142130
-0.171217
-0.184148
-0.174281
-0.153758
-0.120454
-0.077925
-0.024695
0.018710
0.071705
0.112183
0.133975
0.140330
0.146807
0.122419
0.083184
0.039308
-0.013234
-0.056971
-0.102122
-0.133883
-0.150012
-0.164650
-0.154895
-0.120568
-0.090723
-0.046215
-0.004641
0.046230
0.088452
0.125819
0.145688
0.157869
0.157250
0.141900
0.102309
0.066221
0.017148
-0.031888
-0.067826
-0.105778
-0.131388
-0.139974
-0.128152
-0.097884
-0.066607
-0.027759
0.024232
0.074843
0.125952
0.164311
0.185524
0.201183
0.195554
0.169643
0.137498
0.094290
0.049965
0.008006
-0.026402
-0.071021
-0.096978
-0.107852
-0.100553
-0.070024
-0.035816
0.002005
0.055010
0.104967
0.156335
0.192599
0.202827
0.218185
0.206317
0.197173
0.170940
0.131898
0.066832
0.028061
-0.013575
-0.039531
-0.055861
-0.069140
-0.061630
-0.038156
-0.007821
0.033562
0.084747
0.128361
0.180582
0.223455
0.251134
0.259815
0.258251
0.235489
0.190854
0.152006
0.100726
0.045672
0.003971
-0.028354
-0.052147
-0.069394
-0.047897
-0.023460
-0.003486
0.040805
0.096075
0.134985
0.188911
0.224138
0.243466
0.247031
0.251808
0.226035
0.184854
0.136789
0.073447
0.028891
-0.008903
-0.052083
-0.074961
-0.088958
-0.087285
-0.063999
-0.031682
0.011273
0.059465
0.100134
0.148192
0.190430
0.217086
0.230054
0.215623
0.185158
0.142232
0.104739
0.050271
-0.005311
-0.066601
-0.097893
-0.108711
-0.124223
-0.120968
-0.097382
-0.067249
-0.025516
0.027318
0.064443
0.100677
0.127861
0.139340
0.145813
0.135627
0.120625
0.085779
0.035665
-0.019381
-0.063454
-0.117097
-0.141442
-0.159910
-0.162457
-0.154200
-0.131238
-0.092095
-0.047773
-0.006711
0.046525
0.085961
0.103988
0.116014
0.136219
0.120200
0.097859
0.066044
0.019170
-0.036572
-0.079643
-0.123348
-0.161293
-0.174973
-0.194317
-0.186253
-0.171685
-0.135053
-0.088807
-0.040028
0.006196
0.044999
0.078121
0.094771
0.106189
0.091750
0.081840
0.049979
0.004888
-0.039419
-0.080729
-0.114070
-0.150675
-0.163752
-0.194298
-0.188584
-0.161989
-0.127482
-0.082489
-0.040550
0.001431
0.040293
0.074818
0.085973
0.100548
0.090569
0.076087
0.037276
-0.007986
-0.049329
-0.092995
-0.144385
-0.173188
-0.193486
-0.214550
-0.205210
-0.178944
-0.141695
-0.096385
-0.056156
-0.018432
0.034098
0.074650
0.094503
0.115757
0.108940
0.096116
0.063131
0.024159
-0.031797
-0.079176
-0.131137
-0.165073
-0.192491
-0.198502
-0.179021
-0.145830
-0.108342
-0.061323
-0.025400
0.010274
0.050657
0.090536
0.125118
0.132282
0.118923
0.092741
0.061313
0.011519
-0.027964
-0.073806
-0.133729
-0.163967
-0.188494
-0.192821
-0.176244
-0.154526
-0.114857
-0.076312
-0.025599
0.020446
0.065199
0.098838
0.121305
0.128647
0.119288
0.090220
0.062601
0.018468
-0.021143
-0.069874
-0.120131
-0.155714
-0.177234
-0.187870
-0.176291
-0.143336
-0.104922
-0.065340
-0.022017
0.022125
0.060107
0.096092
0.117708
0.125607
0.111439
0.097014
0.064602
0.013826
-0.032841
-0.078417
-0.124089
-0.159353
-0.177867
-0.182734
-0.184023
-0.166997
-0.128452
-0.076492
-0.034551
0.009209
0.043729
0.077850
0.096539
0.107210
0.116344
0.100392
0.067431
0.017915
-0.017693
-0.061017
-0.106675
-0.151777
-0.197801
-0.197002
-0.169062
-0.149746
-0.121447
-0.084034
-0.040946
0.010741
0.038511
0.074165
0.102184
0.118212
0.105819
0.089425
0.046726
0.012567
-0.030160
-0.077456
-0.131637
-0.163634
-0.182489
-0.188939
-0.173868
-0.158510
-0.118652
-0.080844
-0.034445
0.010786
0.043272
0.076267
0.095488
0.120773
0.121995
0.095402
0.059528
0.008505
-0.040005
-0.093718
-0.136763
-0.176668
-0.197394
-0.202675
-0.194852
-0.180517
-0.142383
-0.101814
-0.050988
-0.008773
0.029428
0.059165
0.092582
0.105460
0.092080
0.073373
0.041498
0.007343
-0.038115
-0.092635
-0.143533
-0.184678
-0.222587
-0.218933
-0.203161
-0.175097
-0.134402
-0.097556
-0.058699
-0.022049
0.030299
0.061397
0.084433
0.104149
0.098731
0.091571
0.051042
-0.004915
-0.048527
-0.105607
-0.148758
-0.187382
-0.197300
-0.214939
-0.216127
-0.178154
-0.140900
-0.087211
-0.038182
0.000169
0.039477
0.081765
0.110094
0.127656
0.120235
0.086920
0.043282
0.007025
-0.038062
-0.065834
-0.111589
-0.146089
-0.168235
-0.164561
-0.163469
-0.146031
-0.118202
-0.078770
-0.023361
0.039272
0.084749
0.111009
0.122038
0.129230
0.136786
0.121186
0.081461
0.029217
-0.025775
-0.078162
-0.123741
-0.150807
-0.172267
-0.188492
-0.168878
-0.145777
-0.122447
-0.081326
-0.022438
0.022566
0.063299
0.108588
0.138435
0.139595
0.137069
0.117636
0.085433
0.051372
0.002141
-0.065384
-0.110415
-0.126656
-0.145432
-0.158448
-0.135340
-0.109673
-0.087750
-0.051207
-0.010879
0.035509
0.078326
0.107434
0.129453
0.136001
0.126276
0.097283
0.071688
0.026887
-0.036960
-0.078268
-0.121234
-0.163874
-0.186392
-0.199006
-0.181438
-0.158166
-0.120719
-0.084181
-0.034034
0.007638
0.051792
0.084040
0.102435
0.104195
0.097214
0.060628
0.036374
-0.017049
-0.064005
-0.114127
-0.155498
-0.189040
-0.206909
-0.223086
-0.223891
-0.207011
-0.175909
-0.124157
-0.070531
-0.025674
0.011489
0.046995
0.069619
0.088863
0.069074
0.057993
0.020808
-0.026111
-0.081628
-0.129118
-0.174273
-0.218197
-0.242372
-0.243411
-0.220647
-0.203808
-0.168778
-0.125347
-0.071284
-0.032729
0.007320
0.033012
0.050858
0.048440
0.053041
0.029965
0.009745
-0.013778
-0.060240
-0.127827
-0.170911
-0.205350
-0.229846
-0.250440
-0.231497
-0.195993
-0.162327
-0.123131
-0.069223
-0.027669
0.013854
0.035064
0.057292
0.071860
0.064923
0.036737
0.010300
-0.021167
-0.069630
-0.109843
-0.157150
-0.190957
-0.223461
-0.249187
-0.238510
-0.216827
-0.165074
-0.126649
-0.073213
-0.031406
0.003732
0.037528
0.055889
0.069559
0.058168
0.034642
0.023068
-0.030687
-0.075605
-0.108037
-0.134700
-0.158516
-0.165718
-0.161819
-0.143605
-0.106948
-0.045503
0.006185
0.068854
0.115916
0.159255
0.221096
0.258144
0.296278
0.307453
0.317349
0.318907
0.312501
0.298562
0.288526
0.259714
0.258268
0.279457
0.288299
0.322960
0.369208
0.441685
0.542321
0.637592
0.728856
0.787149
0.833330
0.860221
0.873789
0.864892
0.848463
0.783551
0.728427
0.658328
0.587978
0.501186
0.396892
0.305332
0.226350
0.175017
0.157116
0.133777
0.127488
0.124803
0.147030
0.185294
0.204649
0.228626
0.247658
0.232927
0.192643
0.139195
0.089434
0.027759
-0.023783
-0.065719
-0.092866
-0.123772
-0.143317
-0.145301
-0.120496
-0.085074
-0.041172
0.002137
0.049568
0.102344
0.130257
0.151038
0.157665
0.140831
0.112568
0.087466
0.035290
-0.021894
-0.056302
-0.097404
-0.141558
-0.173453
-0.184774
-0.178181
-0.174648
-0.141752
-0.096213
-0.045241
-0.004998
0.047730
0.089939
0.109655
0.128648
0.125685
0.109100
0.063901
0.014913
-0.031270
-0.087400
-0.131736
-0.164219
-0.178604
-0.192088
-0.186648
-0.156163
-0.128497
-0.078753
-0.025413
0.023497
0.057358
0.090797
0.118273
0.125360
0.114525
0.092295
0.054688
0.010063
-0.031770
-0.070446
-0.104122
-0.149084
-0.174284
-0.185246
-0.168677
-0.148579
-0.107860
-0.063126
-0.007311
0.034591
0.070258
0.109784
0.139395
0.154246
0.136371
0.115773
0.080076
0.037307
-0.000804
-0.047482
-0.094637
-0.128701
-0.147974
-0.159625
-0.154320
-0.130330
-0.086258
-0.045438
0.001020
0.049566
0.093924
0.117467
0.136234
0.157072
0.147642
0.130982
0.110272
0.075424
0.046952
0.006837
-0.036195
-0.074602
-0.098229
-0.111519
-0.100536
-0.068578
-0.039559
0.002611
0.052855
0.097312
0.148928
0.185769
0.211895
0.216477
0.209829
0.173247
0.142748
0.097369
0.051207
0.019889
-0.012486
-0.040019
-0.052366
-0.066217
-0.070200
-0.039484
-0.010410
0.019717
0.075041
0.128976
0.169341
0.203500
0.219029
0.227337
0.230324
0.202280
0.175556
0.133319
0.082158
0.042020
0.000684
-0.024066
-0.052310
-0.066338
-0.055872
-0.024349
0.014753
0.052705
0.101493
0.145340
0.183708
0.224109
0.246310
0.256987
0.246201
0.222666
0.185015
0.135783
0.079695
0.016994
-0.023887
-0.045398
-0.060306
-0.064883
-0.056981
-0.048470
-0.009649
0.021841
0.067119
0.110318
0.160763
0.181827
0.205710
0.207677
0.202387
0.184993
0.156191
0.116000
0.071847
0.024362
-0.021711
-0.059453
-0.094652
-0.106192
-0.105858
-0.078719
-0.038340
0.005507
0.047621
0.094412
0.124739
0.164118
0.188244
0.188574
0.176452
0.147748
0.118112
0.073048
0.021830
-0.026790
-0.059190
-0.102534
-0.128307
-0.153042
-0.150561
-0.140360
-0.103930
-0.074688
-0.023913
0.030796
0.072639
0.099907
0.123563
0.150657
0.144991
0.125976
0.083931
0.044914
-0.005744
-0.058307
-0.110692
-0.149198
-0.175050
-0.200578
-0.197137
-0.177658
-0.152324
-0.093491
-0.033799
0.007448
0.046102
0.083758
0.107988
0.112436
0.097145
0.078744
0.066101
0.020575
-0.040467
-0.096402
-0.137932
-0.181375
-0.207644
-0.207075
-0.203202
-0.182521
-0.149569
-0.100844
-0.053161
-0.001201
0.037577
0.064941
0.098326
0.111095
0.102108
0.081714
0.037370
-0.002037
-0.047772
-0.101419
-0.132553
-0.155580
-0.186704
-0.199090
-0.199181
-0.163195
-0.131209
-0.094574
-0.056478
-0.005016
0.039655
0.078115
0.114826
0.121038
0.115279
0.086678
0.047140
0.012309
-0.044212
-0.097811
-0.135525
-0.178069
-0.207012
-0.204362
-0.190546
-0.173118
-0.139276
-0.100459
-0.036150
0.003992
0.036700
0.076346
0.099806
0.108370
0.110707
0.084397
0.057197
0.012321
-0.048771
-0.077752
-0.127161
-0.171876
-0.198509
-0.206438
-0.190958
-0.170671
-0.138754
-0.100661
-0.055336
-0.012278
0.035542
0.068134
0.091487
0.104836
0.099518
0.088218
0.067739
0.025014
-0.022596
-0.081245
-0.130434
-0.173414
-0.193747
-0.215440
-0.196882
-0.170560
-0.132455
-0.093762
-0.036006
0.018243
0.063730
0.088566
0.113181
0.126127
0.121559
0.100309
0.057495
0.003422
-0.037530
-0.093197
-0.144489
-0.182513
-0.196417
-0.199744
-0.191368
-0.170138
-0.145484
-0.097893
-0.048799
0.001908
0.053561
0.098253
0.116522
0.116828
0.111120
0.085832
0.047370
0.002151
-0.030591
-0.069395
-0.103167
-0.139075
-0.174874
-0.184372
-0.185020
-0.158708
-0.119762
-0.080073
-0.034850
0.011024
0.051095
0.075184
0.102045
0.115410
0.096995
0.080710
0.048585
-0.000816
-0.055898
-0.100929
-0.147018
-0.179940
-0.199301
-0.204777
-0.189717
-0.172071
-0.137324
-0.103704
-0.052629
-0.003091
0.047805
0.073698
0.091039
0.095082
0.091359
0.075820
0.049389
0.007589
-0.048214
-0.102790
-0.133253
-0.173814
-0.191994
-0.206635
-0.192198
-0.177053
-0.147873
-0.106555
-0.057811
-0.017212
0.025218
0.055452
0.084298
0.099917
0.094921
0.065234
0.025510
-0.024948
-0.076556
-0.115247
-0.151567
-0.186543
-0.215924
-0.212688
-0.202211
-0.168801
-0.140715
-0.112387
-0.060642
-0.009130
0.029834
0.070665
0.082664
0.094007
0.078387
0.046689
0.014733
-0.030014
-0.071760
-0.111176
-0.145543
-0.178765
-0.217458
-0.228617
-0.209422
-0.187406
-0.144921
-0.115158
-0.059943
-0.023553
0.016761
0.052486
0.074861
0.066813
0.058131
0.057091
0.025513
-0.025855
-0.067164
-0.111712
-0.155703
-0.181091
-0.192880
-0.202421
-0.198821
-0.181432
-0.145320
-0.104394
-0.053621
-0.009776
0.032293
0.069716
0.093158
0.101500
0.094067
0.076139
0.052907
0.016707
-0.030461
-0.088129
-0.135669
-0.168087
-0.184790
-0.194627
-0.183277
-0.165713
-0.127157
-0.083605
-0.039990
0.000642
0.036771
0.085922
0.132830
0.141943
0.131612
0.101207
0.063338
0.022331
-0.017950
-0.073359
-0.113105
-0.158254
-0.190524
-0.197866
-0.188800
-0.169446
-0.122272
-0.077368
-0.024118
0.023816
0.070007
0.101385
0.132518
0.140905
0.135947
0.111702
0.067747
0.028091
-0.009219
-0.050949
-0.095227
-0.129136
-0.136980
-0.141559
-0.152654
-0.145885
-0.114822
-0.073034
-0.026742
0.010086
0.046226
0.081068
0.104356
0.108628
0.093829
0.079951
0.042856
0.009478
-0.038443
-0.092526
-0.138740
-0.194085
-0.223810
-0.226802
-0.211444
-0.189286
-0.147768
-0.110493
-0.062790
-0.015026
0.030580
0.077166
0.096236
0.104774
0.095572
0.063438
0.019781
-0.031662
-0.100255
-0.154903
-0.193059
-0.226768
-0.250199
-0.255871
-0.242254
-0.216228
-0.185517
-0.132199
-0.076960
-0.036993
0.005125
0.047405
0.070796
0.078168
0.071224
0.041337
0.005401
-0.033449
-0.080697
-0.124049
-0.168716
-0.203753
-0.230947
-0.246016
-0.239826
-0.220216
-0.180727
-0.127500
-0.088131
-0.034676
0.005304
0.042241
0.057090
0.065607
0.066122
0.050217
-0.013772
-0.053051
-0.111971
-0.155586
-0.184713
-0.211665
-0.241605
-0.236924
-0.237866
-0.210682
-0.179567
-0.134107
-0.081426
-0.038844
0.005049
0.037919
0.069785
0.079556
0.075359
0.051521
0.006308
-0.041787
-0.096096
-0.151494
-0.188486
-0.224563
-0.255112
-0.263635
-0.244660
-0.190647
-0.163090
-0.131675
-0.091121
-0.063360
-0.013022
0.025358
0.058919
0.070001
0.055759
0.040200
0.016194
-0.023506
-0.063724
-0.105619
-0.141542
-0.160380
-0.165745
-0.159162
-0.141414
-0.098692
-0.060019
0.006123
0.062139
0.126994
0.196727
0.238792
0.284929
0.320831
0.340140
0.346684
0.337552
0.338904
0.330229
0.311290
0.297625
0.287751
0.274502
0.304287
0.363220
0.429620
0.499950
0.585208
0.673530
0.751214
0.813991
0.847437
0.857654
0.861458
0.845979
0.809009
0.746393
0.679881
0.597406
0.501770
0.391945
0.301726
0.210707
0.156616
0.116427
0.077656
0.064194
0.066170
0.086710
0.122919
0.157435
0.192833
0.214868
0.197669
0.179654
0.136437
0.098583
0.051324
0.012840
-0.024368
-0.066730
-0.112698
-0.140172
-0.155940
-0.145832
-0.125319
-0.087661
-0.048231
-0.001722
0.036433
0.077610
0.108741
0.121062
0.127776
0.120216
0.097055
0.049657
0.000622
-0.056865
-0.083228
-0.121612
-0.155973
-0.181330
-0.191269
-0.179528
-0.152517
-0.118132
-0.077217
-0.034182
0.006289
0.043092
0.076764
0.095674
0.102555
0.088580
0.065858
0.020641
-0.019386
-0.062676
-0.087210
-0.130480
-0.167246
-0.190842
-0.216843
-0.212607
-0.168963
-0.127231
-0.079084
-0.030029
0.014784
0.051715
0.080625
0.107346
0.120012
0.116467
0.095836
0.062179
0.023781
-0.029722
-0.082171
-0.114983
-0.142641
-0.158839
-0.175023
-0.168843
-0.153633
-0.113884
-0.078879
-0.028693
0.028261
0.078284
0.125663
0.141519
0.144219
0.137467
0.118860
0.083928
0.052201
-0.013093
-0.054933
-0.088548
-0.118398
-0.147137
-0.155705
-0.156765
-0.124697
-0.088693
-0.045962
0.006566
0.054144
0.099696
0.129222
0.143080
0.162489
0.167342
0.145691
0.114077
0.068066
0.024544
-0.018548
-0.060889
-0.093659
-0.122748
-0.137993
-0.121936
-0.101044
-0.066720
-0.029280
0.022752
0.093623
0.135618
0.163395
0.192411
0.184353
0.191912
0.169477
0.130258
0.100014
0.058280
0.014530
-0.029850
-0.056017
-0.073626
-0.084951
-0.100471
-0.067756
-0.023991
0.021567
0.063119
0.113838
0.159789
0.192776
0.226664
0.231425
0.228638
0.191510
0.154905
0.114055
0.077267
0.050112
0.012721
-0.019646
-0.045851
-0.066695
-0.071908
-0.051086
-0.016609
0.030010
0.086138
0.139776
0.189711
0.225284
0.244038
0.247838
0.236123
0.226803
0.186503
0.144867
0.093015
0.044699
-0.003851
-0.049774
-0.079330
-0.084488
-0.077123
-0.063120
-0.032349
0.003466
0.062574
0.124265
0.161245
0.188898
0.228805
0.224390
0.209996
0.185288
0.143273
0.110103
0.048552
0.000481
-0.044257
-0.083970
-0.107693
-0.115938
-0.110181
-0.092721
-0.063371
-0.018955
0.024395
0.071923
0.114153
0.146043
0.160924
0.169022
0.161569
0.139183
0.092223
0.058633
0.008462
-0.035976
-0.086084
-0.121552
-0.163383
-0.174505
-0.169865
-0.162952
-0.127047
-0.080772
-0.027283
0.021116
0.078487
0.105286
0.124725
0.120167
0.113982
0.101393
0.058122
0.013814
-0.035612
-0.086003
-0.126782
-0.174488
-0.189575
-0.195294
-0.179857
-0.160524
-0.125230
-0.092350
-0.047232
-0.004582
0.034578
0.071984
0.095161
0.102864
0.079703
0.061536
0.024751
0.003107
-0.046419
-0.093499
-0.131713
-0.164307
-0.188214
-0.199663
-0.207479
-0.173288
-0.138113
-0.109265
-0.051899
-0.011201
0.019547
0.051581
0.089660
0.098269
0.092473
0.071502
0.029098
-0.005504
-0.055197
-0.099788
-0.137518
-0.170551
-0.199893
-0.204003
-0.191788
-0.180809
-0.144766
-0.113829
-0.059889
-0.013863
0.025193
0.051277
0.068342
0.066105
0.071575
0.071170
0.034502
-0.012178
-0.065490
-0.086832
-0.133496
-0.159698
-0.182813
-0.194352
-0.192571
-0.174879
-0.145834
-0.107121
-0.060494
-0.006639
0.040334
0.069823
0.100072
0.111657
0.110689
0.087265
0.044299
-0.003798
-0.033525
-0.083428
-0.127904
-0.160839
-0.187446
-0.198941
-0.200544
-0.185329
-0.145504
-0.108642
-0.056333
-0.006301
0.054019
0.080403
0.092915
0.095709
0.096422
0.072577
0.042784
-0.005462
-0.048016
-0.090196
-0.121667
-0.151227
-0.185513
-0.184289
-0.174552
-0.161121
-0.124663
-0.075874
-0.036881
0.005553
0.048866
0.083285
0.102811
0.098687
0.087460
0.068344
0.043318
0.008027
-0.041487
-0.083869
-0.137790
-0.172930
-0.192945
-0.197840
-0.186029
-0.176011
-0.138778
-0.112079
-0.059283
-0.017457
0.034565
0.070714
0.112893
0.123370
0.107543
0.088193
0.040654
-0.019592
-0.036917
-0.068523
-0.098174
-0.137060
-0.181639
-0.204864
-0.190098
-0.168715
-0.137796
-0.092047
-0.044753
0.009299
0.062629
0.079944
0.089285
0.105136
0.098351
0.076725
0.039472
-0.001814
-0.054269
-0.101773
-0.146735
-0.182091
-0.212458
-0.224191
-0.210512
-0.176128
-0.139512
-0.091668
-0.043701
-0.003227
0.035784
0.066776
0.103886
0.105368
0.088783
0.060905
0.019713
-0.022738
-0.070588
-0.116422
-0.148506
-0.188179
-0.216450
-0.227135
-0.215680
-0.206684
-0.163434
-0.112798
-0.068601
-0.017065
0.036176
0.067199
0.094140
0.107532
0.103829
0.082076
0.034143
-0.005560
-0.054932
-0.108820
-0.165991
-0.197503
-0.229866
-0.232141
-0.221759
-0.195451
-0.150644
-0.101811
-0.047785
-0.012268
0.027712
0.065766
0.090708
0.091157
0.069626
0.074040
0.041613
0.000842
-0.051062
-0.109478
-0.144790
-0.178397
-0.200041
-0.213433
-0.214729
-0.182244
-0.146402
-0.103580
-0.057320
-0.022190
0.021745
0.065466
0.096523
0.092858
0.085256
0.069147
0.033958
-0.011893
-0.058351
-0.109527
-0.173201
-0.205059
-0.210570
-0.216248
-0.204119
-0.191837
-0.143701
-0.109232
-0.054578
-0.011734
0.026308
0.046000
0.064343
0.060641
0.063944
0.060171
0.018421
-0.029062
-0.074037
-0.103436
-0.146405
-0.185093
-0.206529
-0.210829
-0.201443
-0.193108
-0.155614
-0.106688
-0.059970
-0.003908
0.033131
0.057826
0.072150
0.070931
0.063677
0.051666
0.018596
-0.013613
-0.065951
-0.122664
-0.169153
-0.205112
-0.231637
-0.227447
-0.211513
-0.196831
-0.169789
-0.112706
-0.061013
-0.002958
0.043282
0.076854
0.103578
0.104664
0.102930
0.098313
0.061779
0.013383
-0.033013
-0.085223
-0.135493
-0.178098
-0.180939
-0.174849
-0.172060
-0.148830
-0.112129
-0.068719
-0.031619
0.023346
0.061682
0.093273
0.108271
0.121905
0.116232
0.085659
0.042680
0.009237
-0.034020
-0.074323
-0.110392
-0.136179
-0.162016
-0.174070
-0.164213
-0.141228
-0.113386
-0.077671
-0.018481
0.042281
0.100989
0.127693
0.147057
0.151208
0.142452
0.122631
0.087716
0.043132
-0.013425
-0.067650
-0.107881
-0.149940
-0.178832
-0.187522
-0.192258
-0.172042
-0.148141
-0.097802
-0.048773
0.002887
0.039407
0.074570
0.101364
0.101001
0.092113
0.064293
0.030351
-0.012565
-0.066015
-0.117333
-0.155838
-0.192810
-0.219181
-0.220121
-0.214520
-0.205187
-0.168744
-0.133019
-0.088074
-0.040365
0.010941
0.047863
0.059522
0.065053
0.064607
0.049161
0.023818
-0.020695
-0.077125
-0.117310
-0.161346
-0.203236
-0.246870
-0.260849
-0.254636
-0.217125
-0.191880
-0.147671
-0.084358
-0.026890
0.017212
0.042805
0.071061
0.076289
0.053022
0.038920
-0.000041
-0.040813
-0.086670
-0.142268
-0.180989
-0.215759
-0.240292
-0.240503
-0.227708
-0.205134
-0.168027
-0.126353
-0.079441
-0.034396
0.009007
0.043075
0.065381
0.073299
0.072397
0.058916
0.019558
-0.029219
-0.079468
-0.124635
-0.168324
-0.213416
-0.238218
-0.236587
-0.229993
-0.206929
-0.177903
-0.138872
-0.097092
-0.050451
0.000574
0.041363
0.088193
0.083544
0.067100
0.036623
0.004191
-0.039600
-0.090688
-0.135302
-0.179288
-0.216480
-0.253529
-0.254212
-0.251863
-0.239910
-0.209203
-0.160269
-0.094709
-0.020301
0.044995
0.071157
0.105676
0.115228
0.127370
0.130531
0.103736
0.070092
0.040954
0.020501
-0.022486
-0.044980
-0.051008
-0.035372
-0.022826
0.041906
0.115807
0.202234
0.280157
0.374223
0.448394
0.503236
0.555941
0.597056
0.594533
0.614773
0.617748
0.614343
0.604234
0.594713
0.584960
0.586575
0.570835
0.560003
0.554552
0.587518
0.614128
0.639842
0.667330
0.681716
0.691628
0.660341
0.619892
0.555964
0.485204
0.418851
0.343726
0.239377
0.132812
0.048095
-0.004223
-0.049365
-0.088069
-0.092652
-0.083125
-0.073264
-0.052810
-0.015910
0.018219
0.062431
0.116450
0.138845
0.159857
0.156211
0.142519
0.131002
0.093903
0.034310
-0.014120
-0.066461
-0.118030
-0.148596
-0.170492
-0.174278
-0.167730
-0.148242
-0.099513
-0.050604
-0.015473
0.028520
0.065282
0.097186
0.129796
0.132488
0.123404
0.096540
0.052981
0.015289
-0.031149
-0.085693
-0.136576
-0.180738
-0.208454
-0.205610
-0.189387
-0.178910
-0.142846
-0.094310
-0.058393
-0.018407
0.024598
0.063353
0.096095
0.112515
0.097103
0.089509
0.045812
-0.001518
-0.042973
-0.084356
-0.123526
-0.165686
-0.188669
-0.183423
-0.174861
-0.156728
-0.123856
-0.075329
-0.024109
0.025520
0.070282
0.099842
0.121914
0.129884
0.119152
0.107269
0.069285
0.038486
-0.009655
-0.061789
-0.118193
-0.156611
-0.169582
-0.157828
-0.164210
-0.152727
-0.110591
-0.059871
-0.028830
0.007132
0.075117
0.125642
0.151232
0.150796
0.142722
0.121184
0.082601
0.047065
0.000932
-0.038799
-0.074977
-0.109617
-0.134711
-0.138915
-0.134074
-0.108309
-0.077640
-0.024051
0.035982
0.076837
0.118534
0.153819
0.184190
0.189770
0.159232
0.131890
0.115153
0.080279
0.037680
-0.007936
-0.033684
-0.066560
-0.096022
-0.110838
-0.094339
-0.071564
-0.035332
0.014938
0.069999
0.115839
0.163012
0.192547
0.216005
0.205725
0.207918
0.194828
0.162326
0.111908
0.067608
0.014355
-0.022151
-0.056621
-0.088127
-0.086521
-0.070844
-0.051741
-0.020363
0.022724
0.067147
0.122511
0.159858
0.203013
0.241690
0.249626
0.249502
0.229977
0.190510
0.143058
0.078904
0.017229
-0.017475
-0.025118
-0.044764
-0.051612
-0.050961
-0.039915
-0.009338
0.016420
0.075421
0.124415
0.167109
0.197803
0.229425
0.223677
0.219827
0.205764
0.170683
0.121839
0.075086
0.029536
-0.017369
-0.049773
-0.083155
-0.087409
-0.080608
-0.054157
-0.014067
0.024201
0.058555
0.112665
0.151675
0.185487
0.207900
0.211927
0.211664
0.180933
0.142154
0.096780
0.032322
-0.015620
-0.057755
-0.086922
-0.114466
-0.122655
-0.124943
-0.108780
-0.068300
-0.040668
0.001767
0.057926
0.098409
0.123112
0.169145
0.166055
0.158326
0.135305
0.089345
0.046407
-0.010188
-0.057691
-0.103088
-0.145935
-0.184458
-0.185688
-0.178724
-0.142673
-0.108752
-0.063518
-0.013109
0.028904
0.062410
0.094577
0.121717
0.128812
0.116428
0.093070
0.060956
0.017830
-0.036167
-0.085708
-0.142908
-0.170294
-0.195368
-0.201575
-0.196575
-0.171092
-0.128106
-0.088683
-0.049329
-0.001527
0.037950
0.066349
0.104454
0.113280
0.099301
0.076586
0.036958
-0.005548
-0.064982
-0.097738
-0.146237
-0.186956
-0.204242
-0.189602
-0.189840
-0.169284
-0.144786
-0.098690
-0.052530
0.001140
0.040573
0.066639
0.099825
0.105048
0.097662
0.074600
0.023165
-0.024787
-0.072251
-0.111755
-0.146467
-0.178924
-0.220287
-0.217631
-0.203966
-0.177047
-0.146128
-0.112286
-0.063560
0.001798
0.057491
0.081432
0.115125
0.128100
0.111297
0.077791
0.033052
-0.007504
-0.057890
-0.103966
-0.129638
-0.176699
-0.192522
-0.204333
-0.187538
-0.171726
-0.134145
-0.092412
-0.052462
0.010225
0.054919
0.077612
0.094834
0.104322
0.105692
0.086304
0.039354
-0.014128
-0.055420
-0.091702
-0.124177
-0.154094
-0.189047
-0.209258
-0.205707
-0.185163
-0.133255
-0.077538
-0.021031
0.030028
0.071107
0.100347
0.123275
0.114352
0.109767
0.089029
0.043031
0.014566
-0.024657
-0.080737
-0.122287
-0.154276
-0.187351
-0.189940
-0.183754
-0.164726
-0.124528
-0.077714
-0.036234
0.006506
0.058188
0.081348
0.105318
0.113174
0.117972
0.096876
0.045502
-0.001918
-0.045803
-0.084189
-0.132652
-0.156190
-0.179004
-0.186650
-0.186036
-0.163537
-0.129106
-0.083520
-0.039490
0.007623
0.043669
0.082138
0.101240
0.082979
0.076040
0.069731
0.040177
0.011928
-0.041576
-0.103161
-0.151557
-0.175326
-0.203298
-0.213554
-0.194174
-0.165015
-0.125205
-0.074705
-0.031179
0.001787
0.046296
0.083751
0.110668
0.099192
0.089758
0.058092
0.028449
-0.013274
-0.055700
-0.110509
-0.147089
-0.167688
-0.196406
-0.198292
-0.197633
-0.173739
-0.137293
-0.099767
-0.053571
-0.010046
0.042537
0.069530
0.094815
0.104526
0.105125
0.084630
0.038071
-0.002348
-0.058445
-0.107874
-0.146430
-0.169276
-0.193838
-0.199791
-0.191178
-0.189237
-0.150874
-0.110067
-0.055909
-0.015615
0.030574
0.064796
0.092912
0.106527
0.106134
0.069545
0.025785
-0.014182
-0.058478
-0.105445
-0.151064
-0.179152
-0.216303
-0.234570
-0.228032
-0.207133
-0.149656
-0.111468
-0.073527
-0.012102
0.044479
0.082849
0.087061
0.093577
0.082289
0.070394
0.036230
-0.017750
-0.061839
-0.111304
-0.150704
-0.183210
-0.220345
-0.220869
-0.211066
-0.187142
-0.154598
-0.110551
-0.065795
-0.031906
0.004806
0.049660
0.087356
0.101757
0.087061
0.067684
0.030820
-0.016786
-0.060253
-0.115566
-0.168264
-0.191757
-0.223719
-0.236966
-0.226228
-0.199257
-0.153425
-0.108809
-0.066344
-0.025328
0.023867
0.066297
0.089671
0.094060
0.090999
0.069250
0.024469
-0.020952
-0.068817
-0.112222
-0.153494
-0.172974
-0.199679
-0.196737
-0.192017
-0.171355
-0.141350
-0.097120
-0.043418
0.002031
0.048793
0.078064
0.096551
0.107597
0.096924
0.076192
0.062548
0.020332
-0.023319
-0.084858
-0.126849
-0.165899
-0.191411
-0.202864
-0.180870
-0.158230
-0.128853
-0.080723
-0.042675
0.016689
0.061965
0.090273
0.114486
0.111450
0.108309
0.105723
0.065672
0.013934
-0.034411
-0.077294
-0.122860
-0.154426
-0.180243
-0.183253
-0.164646
-0.131818
-0.088972
-0.058197
-0.009376
0.039603
0.084115
0.116123
0.153583
0.154086
0.131889
0.111169
0.077487
0.029521
-0.027177
-0.073255
-0.123643
-0.159173
-0.187959
-0.191679
-0.185580
-0.166219
-0.123370
-0.088895
-0.037358
0.011215
0.053904
0.077117
0.106892
0.118340
0.095816
0.052580
0.022272
-0.014561
-0.055547
-0.099937
-0.162823
-0.187539
-0.214148
-0.220539
-0.197464
-0.183987
-0.154547
-0.109939
-0.067200
-0.035082
0.004840
0.038830
0.062019
0.060767
0.065450
0.051570
0.020320
-0.032786
-0.092512
-0.144893
-0.186848
-0.234580
-0.251858
-0.245759
-0.227767
-0.203460
-0.178772
-0.118804
-0.074177
-0.028354
0.012008
0.040267
0.069297
0.071752
0.067537
0.045710
0.005690
-0.036881
-0.086317
-0.142047
-0.179290
-0.211723
-0.235183
-0.247649
-0.245153
-0.231568
-0.205494
-0.154776
-0.095599
-0.042898
0.000414
0.032365
0.051644
0.055143
0.053949
0.038246
0.009464
-0.033199
-0.077213
-0.136889
-0.173436
-0.206770
-0.229522
-0.234698
-0.234463
-0.216142
-0.166966
-0.128961
-0.092328
-0.038336
-0.000344
0.042105
0.073165
0.071487
0.058986
0.029375
0.007449
-0.049152
-0.091446
-0.132983
-0.174074
-0.210202
-0.234358
-0.247328
-0.245952
-0.222433
-0.183252
-0.122230
-0.082989
-0.034668
0.006366
0.044436
0.086420
0.105873
0.115293
0.093374
0.075715
0.058155
0.032750
0.005625
-0.031750
-0.060031
-0.072453
-0.061117
-0.036800
-0.002416
0.060782
0.129425
0.206797
0.292158
0.377312
0.446115
0.500245
0.529598
0.555852
0.560937
0.559716
0.555886
0.542373
0.538115
0.535774
0.540878
0.530940
0.548843
0.563961
0.592045
0.618439
0.655099
0.685853
0.715447
0.715955
0.723749
0.727575
0.670364
0.592913
0.496181
0.410065
0.319722
0.228240
0.121254
0.031609
-0.033058
-0.078213
-0.086501
-0.086147
-0.068908
-0.041814
-0.007948
0.040956
0.099914
0.137956
0.158177
0.165765
0.171190
0.162520
0.135830
0.109240
0.061753
0.004526
-0.043843
-0.097872
-0.145000
-0.170685
-0.161849
-0.159744
-0.137043
-0.114583
-0.076050
-0.034976
0.018014
0.066745
0.089247
0.106203
0.106787
0.115238
0.088878
0.055122
0.008012
-0.041084
-0.093455
-0.135753
-0.168812
-0.197958
-0.210601
-0.185258
-0.166688
-0.134039
-0.098039
-0.061326
0.000555
0.053155
0.093944
0.117758
0.115770
0.104064
0.085478
0.059030
0.004631
-0.036184
-0.094892
-0.142199
-0.174361
-0.201207
-0.207737
-0.191728
-0.183549
-0.144645
-0.090926
-0.031241
0.025126
0.068830
0.111706
0.133284
0.143849
0.144540
0.121577
0.080375
0.032747
-0.008777
-0.052563
-0.103751
-0.138571
-0.166490
-0.171564
-0.166689
-0.146954
-0.097155
-0.061139
-0.018770
0.028631
0.079430
0.114412
0.155892
0.162678
0.161420
0.127203
0.097005
0.044428
-0.001797
-0.055718
-0.095502
-0.130039
-0.142945
-0.134643
-0.127051
-0.113536
-0.069832
-0.013982
0.039050
0.075896
0.108542
0.150254
0.174492
0.176687
0.174334
0.147547
0.104835
0.057127
0.018543
-0.019537
-0.057278
-0.086988
-0.111467
-0.119591
-0.104078
-0.077066
-0.044366
-0.004822
0.043186
0.093110
0.141462
0.172370
0.209039
0.225658
0.228042
0.198923
0.155596
0.115498
0.077647
0.017779
-0.016687
-0.039514
-0.056503
-0.066661
-0.067370
-0.041826
-0.005431
0.035220
0.085670
0.130362
0.175424
0.196759
0.214530
0.223357
0.235274
0.218529
0.184229
0.142925
0.092785
0.039289
-0.003566
-0.030889
-0.057273
-0.059251
-0.052052
-0.031190
-0.010657
0.033663
0.077844
0.123371
0.163034
0.190410
0.220809
0.237960
0.225844
0.190421
0.158506
0.118873
0.082642
0.037366
-0.011241
-0.042907
-0.071726
-0.074257
-0.067084
-0.050083
-0.001478
0.024994
0.053653
0.096027
0.130988
0.177999
0.203498
0.210921
0.195243
0.166439
0.135789
0.085427
0.034834
-0.005151
-0.052556
-0.090914
-0.119567
-0.124128
-0.116910
-0.102240
-0.074925
-0.028493
0.006793
0.043376
0.087219
0.120760
0.151011
0.162919
0.150900
0.130505
0.093656
0.036957
-0.028194
-0.062414
-0.088197
-0.135653
-0.172094
-0.182209
-0.165273
-0.144866
-0.116943
-0.072057
-0.029227
0.028881
0.070543
0.094954
0.116135
0.119902
0.113539
0.090704
0.049573
0.008537
-0.037738
-0.085603
-0.125847
-0.158836
-0.186724
-0.199125
-0.189371
-0.174741
-0.148764
-0.110745
-0.060033
-0.007234
0.036284
0.069479
0.107138
0.118349
0.103070
0.085393
0.049071
-0.006106
-0.049277
-0.083976
-0.136956
-0.179756
-0.209926
-0.207923
-0.203743
-0.184747
-0.153306
-0.098315
-0.044507
0.002786
0.031122
0.061420
0.097550
0.110770
0.091435
0.069309
0.044923
-0.007953
-0.053761
-0.111722
-0.151876
-0.178695
-0.205723
-0.208364
-0.205216
-0.176565
-0.146221
-0.113384
-0.067339
-0.013345
0.024782
0.065836
0.092646
0.098487
0.092751
0.054504
0.029302
-0.003384
-0.037238
-0.081368
-0.128639
-0.157761
-0.193181
-0.202857
-0.206548
-0.182880
-0.146846
-0.102100
-0.037676
0.015201
0.051932
0.072194
0.094450
0.109474
0.110733
0.087279
0.054901
0.008229
-0.044337
-0.095863
-0.138502
-0.168032
-0.193586
-0.189658
-0.185029
-0.162780
-0.138556
-0.092963
-0.052948
-0.006379
0.022728
0.076034
0.108052
0.105169
0.094699
0.069017
0.041274
0.012919
-0.038317
-0.073877
-0.132524
-0.176002
-0.194555
-0.192196
-0.187306
-0.166271
-0.134566
-0.086110
-0.041405
-0.000848
0.052860
0.101947
0.123802
0.126816
0.121583
0.089547
0.045378
0.003965
-0.022639
-0.073552
-0.118683
-0.157201
-0.195094
-0.207437
-0.201732
-0.170902
-0.139096
-0.093407
-0.034351
0.006914
0.047205
0.079972
0.100524
0.111289
0.099237
0.079769
0.043330
-0.000438
-0.059293
-0.111617
-0.148662
-0.173863
-0.209555
-0.209971
-0.206468
-0.186279
-0.138181
-0.093003
-0.041712
-0.004939
0.044772
0.081945
0.100883
0.107076
0.095726
0.076478
0.051943
0.001962
-0.037829
-0.096278
-0.146005
-0.173823
-0.199275
-0.206020
-0.198957
-0.180713
-0.139555
-0.103903
-0.061826
-0.020268
0.024168
0.070821
0.097099
0.112393
0.106510
0.076934
0.032316
-0.005717
-0.048156
-0.098370
-0.138850
-0.179144
-0.212729
-0.213092
-0.194866
-0.169352
-0.140859
-0.106495
-0.067824
-0.015942
0.045495
0.080190
0.104694
0.106704
0.098698
0.070163
0.033537
-0.003652
-0.051963
-0.109106
-0.151184
-0.186222
-0.218707
-0.221432
-0.220017
-0.176375
-0.144650
-0.114705
-0.055312
-0.016271
0.032428
0.066050
0.097531
0.084530
0.081128
0.058487
0.029244
-0.016804
-0.064913
-0.103032
-0.139977
-0.171834
-0.202120
-0.216361
-0.204684
-0.176750
-0.151122
-0.115845
-0.065586
-0.019332
0.032224
0.071489
0.091242
0.089102
0.074984
0.051211
0.015193
-0.030121
-0.067713
-0.122486
-0.163042
-0.174614
-0.199169
-0.204497
-0.195004
-0.177649
-0.145643
-0.104952
-0.051491
-0.010730
0.025310
0.065369
0.085639
0.094930
0.081471
0.057755
0.026401
-0.015721
-0.069366
-0.115694
-0.156845
-0.187984
-0.201547
-0.221601
-0.211112
-0.191075
-0.152912
-0.102948
-0.038022
0.012081
0.057363
0.095682
0.110575
0.115851
0.110166
0.078520
0.048739
0.006983
-0.045380
-0.081835
-0.121719
-0.160260
-0.181609
-0.189498
-0.165230
-0.155581
-0.131410
-0.080111
-0.025853
0.017264
0.059953
0.102232
0.125644
0.131260
0.127759
0.104221
0.066419
0.016616
-0.029192
-0.066486
-0.108935
-0.148846
-0.166645
-0.181090
-0.177614
-0.153907
-0.107459
-0.051379
-0.013236
0.037178
0.084678
0.138854
0.153587
0.148307
0.134082
0.103595
0.074010
0.033041
-0.004953
-0.039341
-0.086627
-0.117786
-0.148419
-0.165598
-0.170723
-0.156635
-0.117796
-0.082587
-0.034662
0.016472
0.066561
0.101104
0.119446
0.113905
0.104551
0.080613
0.047200
-0.001243
-0.039335
-0.087909
-0.133400
-0.177561
-0.222897
-0.223081
-0.198967
-0.176385
-0.147980
-0.100356
-0.056599
-0.009946
0.029660
0.067455
0.084072
0.085412
0.071994
0.045194
0.019374
-0.014693
-0.059937
-0.117197
-0.164411
-0.193791
-0.212530
-0.222989
-0.228332
-0.199650
-0.181423
-0.149437
-0.089521
-0.041833
0.007650
0.042350
0.062998
0.074823
0.067305
0.043736
0.013472
-0.033712
-0.082353
-0.134604
-0.173228
-0.196592
-0.227726
-0.234977
-0.230254
-0.195559
-0.166906
-0.135170
-0.082043
-0.035418
0.002045
0.053064
0.081195
0.073527
0.068701
0.048142
0.007727
-0.030724
-0.066335
-0.100135
-0.145162
-0.190165
-0.219297
-0.224287
-0.217845
-0.201763
-0.162294
-0.124666
-0.069030
-0.030721
0.009441
0.039144
0.060008
0.056934
0.051496
0.035764
0.007850
-0.035335
-0.081556
-0.126750
-0.178528
-0.216730
-0.228958
-0.234488
-0.227497
-0.202655
-0.171531
-0.122418
-0.085822
-0.038392
0.013369
0.061024
0.081564
0.098201
0.101747
0.080625
0.049962
0.014493
-0.017842
-0.031824
-0.057605
-0.086658
-0.093376
-0.090788
-0.084174
-0.047429
0.014372
0.076612
0.148426
0.222628
0.292809
0.348499
0.401145
0.441715
0.467390
0.477242
0.479813
0.467828
0.453356
0.436438
0.425498
0.416929
0.439841
0.469922
0.516245
0.563727
0.624490
0.669602
0.709473
0.760691
0.799890
0.813854
0.818547
0.798878
0.758570
0.696569
0.599646
0.492704
0.379923
0.286902
0.217164
0.117173
0.045223
-0.009479
-0.042742
-0.035160
-0.003030
0.044393
0.090206
0.126121
0.156627
0.182695
0.193982
0.198575
0.188352
0.156667
0.116126
0.072607
0.019006
-0.030985
-0.079360
-0.113490
-0.136637
-0.154000
-0.152008
-0.123626
-0.087653
-0.049880
-0.003893
0.045461
0.080315
0.117310
0.144610
0.156567
0.134120
0.101758
0.065392
0.017016
-0.030169
-0.085935
-0.126310
-0.178952
-0.185059
-0.175794
-0.165650
-0.146358
-0.113562
-0.066620
-0.026914
0.025094
0.061763
0.098054
0.118986
0.127659
0.122342
0.095605
0.052673
0.007217
-0.038560
-0.077847
-0.129761
-0.170368
-0.187436
-0.200590
-0.179931
-0.146650
-0.107263
-0.062813
-0.009826
0.033237
0.078468
0.104385
0.125680
0.132685
0.130895
0.113746
0.075949
0.039920
-0.017238
-0.062751
-0.115246
-0.157715
-0.184617
-0.189346
-0.176936
-0.144851
-0.099918
-0.045619
0.000318
0.058135
0.092069
0.128517
0.157534
0.157960
0.158963
0.131719
0.106551
0.066627
0.015375
-0.030479
-0.068382
-0.107736
-0.132939
-0.124788
-0.115345
-0.080788
-0.051534
-0.009573
0.024416
0.068580
0.115989
0.146990
0.170593
0.198393
0.189805
0.153169
0.134802
0.093291
0.041452
0.000006
-0.036790
-0.071231
-0.083711
-0.097212
-0.081476
-0.051308
-0.021218
0.035246
0.074087
0.122044
0.156815
0.192631
0.214626
0.215140
0.215161
0.191480
0.162119
0.129956
0.085162
0.035577
0.002354
-0.033984
-0.057921
-0.051603
-0.055034
-0.032755
-0.000679
0.036704
0.077812
0.123457
0.173647
0.216469
0.253923
0.262107
0.256589
0.221383
0.186811
0.147925
0.106944
0.047613
0.006763
-0.012787
-0.027986
-0.044578
-0.047118
-0.024109
0.023365
0.065138
0.114424
0.167741
0.202420
0.237742
0.254470
0.254688
0.242673
0.230638
0.201964
0.153366
0.094270
0.043341
0.003011
-0.034734
-0.049818
-0.061395
-0.063042
-0.035530
-0.005197
0.033819
0.090438
0.130698
0.167120
0.201262
0.223870
0.221035
0.212929
0.190836
0.156409
0.114660
0.066376
0.024972
-0.023738
-0.063464
-0.095414
-0.092680
-0.091459
-0.069172
-0.041438
-0.013319
0.029648
0.083966
0.125047
0.160114
0.171131
0.173358
0.164003
0.134107
0.102518
0.069749
0.021091
-0.035778
-0.074751
-0.102789
-0.131137
-0.136135
-0.142269
-0.135881
-0.108943
-0.054863
-0.011110
0.023187
0.062040
0.099880
0.130071
0.143291
0.144561
0.098124
0.071664
0.041229
-0.002306
-0.055372
-0.112042
-0.157145
-0.186402
-0.197652
-0.191254
-0.157372
-0.128535
-0.080830
-0.038223
0.016187
0.063611
0.094663
0.105184
0.107843
0.105119
0.082558
0.049357
0.005434
-0.031785
-0.066138
-0.107656
-0.153748
-0.174537
-0.192902
-0.194113
-0.167222
-0.136891
-0.083996
-0.037523
0.004582
0.046416
0.073216
0.088314
0.095443
0.091462
0.079142
0.068809
0.037841
-0.009339
-0.059899
-0.108042
-0.161243
-0.186605
-0.200747
-0.196360
-0.179079
-0.150366
-0.101493
-0.048615
-0.000906
0.047474
0.086153
0.108878
0.132540
0.142469
0.119037
0.088142
0.036336
-0.005701
-0.050512
-0.085095
-0.111740
-0.135112
-0.142027
-0.141319
-0.115426
-0.096061
-0.076593
-0.029888
0.017811
0.071779
0.113652
0.142516
0.150962
0.140368
0.108234
0.058320
0.024547
-0.028567
-0.066621
-0.119937
-0.147146
-0.162125
-0.173841
-0.172369
-0.159284
-0.124976
-0.078347
-0.027357
0.026728
0.077487
0.109521
0.138583
0.138612
0.123014
0.092779
0.069540
0.026719
-0.018302
-0.078690
-0.118633
-0.159774
-0.182544
-0.186865
-0.184765
-0.160595
-0.127242
-0.071055
-0.013496
0.029513
0.066547
0.102168
0.108157
0.123662
0.129725
0.096244
0.056666
0.014407
-0.034375
-0.084309
-0.130917
-0.162570
-0.181630
-0.178486
-0.164355
-0.129708
-0.104362
-0.075304
-0.028088
0.029541
0.082102
0.117868
0.135770
0.132829
0.126805
0.100650
0.068798
0.017914
-0.032370
-0.075431
-0.117119
-0.166618
-0.188595
-0.189717
-0.179891
-0.143599
-0.103861
-0.059825
-0.013557
0.034112
0.076469
0.119538
0.137139
0.138232
0.131608
0.104797
0.060729
0.018631
-0.039268
-0.081617
-0.127406
-0.157894
-0.180699
-0.182975
-0.188613
-0.157805
-0.119850
-0.071213
-0.031107
0.018606
0.050712
0.089684
0.104178
0.109374
0.101328
0.075075
0.046950
0.006494
-0.048123
-0.095948
-0.140282
-0.179647
-0.190841
-0.194124
-0.177821
-0.161199
-0.126218
-0.080361
-0.030104
0.011384
0.044007
0.085520
0.106510
0.117095
0.107166
0.067265
0.036153
-0.012976
-0.056618
-0.090046
-0.135090
-0.166620
-0.185120
-0.188970
-0.193498
-0.163447
-0.125854
-0.079494
-0.030447
0.023538
0.062195
0.099418
0.106794
0.125546
0.120422
0.095342
0.052360
0.007229
-0.040748
-0.093996
-0.131287
-0.157391
-0.176791
-0.183592
-0.177507
-0.158201
-0.133297
-0.104668
-0.053499
-0.016938
0.028509
0.068563
0.083932
0.097875
0.100990
0.081616
0.049931
-0.002734
-0.063928
-0.111960
-0.155525
-0.190859
-0.203882
-0.206504
-0.194094
-0.162437
-0.128162
-0.081615
-0.037984
0.008417
0.056284
0.090194
0.112380
0.128018
0.110898
0.080117
0.049708
0.003286
-0.046603
-0.086110
-0.129173
-0.164347
-0.186873
-0.190542
-0.192781
-0.161661
-0.116491
-0.079692
-0.024356
0.021140
0.055075
0.084705
0.106851
0.124016
0.114977
0.085602
0.053019
0.017956
-0.019165
-0.062843
-0.098329
-0.126239
-0.144162
-0.163530
-0.146479
-0.113610
-0.078513
-0.035448
0.002602
0.052229
0.089820
0.126018
0.137161
0.128663
0.134099
0.099107
0.074618
0.039348
-0.004582
-0.059531
-0.097627
-0.125941
-0.140701
-0.157003
-0.126440
-0.103500
-0.068717
-0.022738
0.021582
0.056046
0.093169
0.131058
0.153943
0.157551
0.143655
0.121955
0.097674
0.059264
0.008369
-0.054371
-0.098403
-0.134032
-0.164243
-0.161835
-0.156777
-0.149532
-0.110137
-0.076675
-0.027474
0.024954
0.064804
0.108656
0.125270
0.119879
0.123505
0.089228
0.048927
0.007847
-0.042433
-0.089318
-0.125418
-0.161278
-0.182450
-0.195984
-0.196918
-0.180995
-0.153716
-0.116776
-0.068029
-0.017102
0.021928
0.055949
0.087403
0.093812
0.089227
0.059911
0.026126
-0.008834
-0.059361
-0.111124
-0.158457
-0.195650
-0.207383
-0.210185
-0.210225
-0.182366
-0.152858
-0.114636
-0.066667
-0.023049
0.009101
0.043983
0.075288
0.096681
0.101323
0.071145
0.033604
-0.018178
-0.059566
-0.087652
-0.142782
-0.187882
-0.214001
-0.224905
-0.223236
-0.187490
-0.154556
-0.109319
-0.055457
-0.019738
0.031903
0.066645
0.090788
0.096881
0.088184
0.057059
0.033594
-0.005127
-0.057072
-0.115762
-0.157607
-0.196411
-0.208683
-0.218328
-0.213781
-0.197889
-0.162980
-0.117376
-0.076534
-0.017770
0.037484
0.080385
0.082805
0.082122
0.078072
0.046515
0.015383
-0.020702
-0.076705
-0.130783
-0.165918
-0.204707
-0.244942
-0.270151
-0.256285
-0.202019
-0.155997
-0.118794
-0.066608
-0.012183
0.044608
0.102445
0.127114
0.138296
0.131270
0.118239
0.102782
0.074834
0.056414
0.025887
0.001370
-0.029713
-0.032695
-0.030514
0.004836
0.057621
0.117648
0.183104
0.271164
0.353850
0.435822
0.503564
0.556837
0.585153
0.606510
0.610492
0.612270
0.604106
0.583917
0.560727
0.556688
0.554332
0.559864
0.553629
0.572785
0.617147
0.646459
0.666888
0.694772
0.718159
0.729170
0.726611
0.672017
0.611031
0.532196
0.450450
0.376884
0.287932
0.177793
0.080508
0.008076
-0.062818
-0.096798
-0.103538
-0.090747
-0.080593
-0.046894
-0.000425
0.053973
0.096617
0.142677
0.166379
0.169909
0.170582
0.165410
0.148609
0.109494
0.061730
0.003838
-0.047750
-0.088080
-0.122995
-0.144850
-0.149289
-0.158231
-0.140315
-0.100722
-0.061113
-0.007223
0.047446
0.085518
0.121055
0.139472
0.142248
0.127265
0.092765
0.063516
0.025789
-0.022552
-0.077528
-0.128270
-0.173260
-0.180286
-0.180935
-0.173322
-0.157273
-0.114719
-0.069131
-0.012377
0.034473
0.070898
0.112657
0.135045
0.149349
0.151651
0.109634
0.064923
0.035171
-0.014473
-0.068381
-0.131957
-0.163858
-0.165457
-0.161574
-0.156386
-0.136209
-0.111116
-0.071376
-0.006852
0.055762
0.100455
0.131841
0.146899
0.158838
0.143221
0.126288
0.078976
0.050939
-0.000136
-0.057952
-0.091292
-0.131448
-0.148611
-0.146397
-0.144255
-0.113512
-0.072892
-0.032383
0.023699
0.065192
0.105756
0.144818
0.155922
0.168449
0.158636
0.136873
0.096330
0.051339
0.010631
-0.025015
-0.064653
-0.103961
-0.127604
-0.134611
-0.131344
-0.094075
-0.051327
-0.004654
0.045345
0.093492
0.134755
0.176348
0.184827
0.183440
0.175160
0.161837
0.131248
0.082786
0.058602
0.020529
-0.016076
-0.044943
-0.066589
-0.064783
-0.050062
-0.031711
-0.000568
0.047106
0.092023
0.124911
0.173713
0.219043
0.245173
0.253127
0.241163
0.216053
0.184776
0.137984
0.080974
0.032712
0.004274
-0.023684
-0.051392
-0.055753
-0.039819
-0.015469
0.022103
0.057192
0.114354
0.163629
0.210595
0.248802
0.269168
0.278450
0.263729
0.228182
0.182699
0.155297
0.118221
0.078229
0.023907
-0.000453
-0.025735
-0.044498
-0.042874
-0.013611
0.026602
0.075222
0.114734
0.166129
0.199611
0.234588
0.249441
0.258372
0.244092
0.228350
0.196860
0.149289
0.107416
0.058739
0.016095
-0.025794
-0.058499
-0.068310
-0.058761
-0.035711
-0.000661
0.025666
0.062797
0.119042
0.164916
0.197079
0.221828
0.229902
0.221790
0.194910
0.143794
0.096221
0.056536
0.006940
-0.038138
-0.078383
-0.091171
-0.083888
-0.080995
-0.059078
-0.040783
-0.005895
0.030898
0.076430
0.124326
0.163833
0.173591
0.185062
0.186510
0.158467
0.118583
0.069593
0.025642
-0.031468
-0.076660
-0.110158
-0.137961
-0.149349
-0.139844
-0.112828
-0.084766
-0.055258
-0.004539
0.044383
0.087789
0.129271
0.151398
0.151184
0.135698
0.114264
0.070549
0.024208
-0.025711
-0.078121
-0.129972
-0.160588
-0.161199
-0.162834
-0.180995
-0.153319
-0.126974
-0.086806
-0.032430
0.017933
0.058431
0.097879
0.119742
0.133433
0.112989
0.092240
0.054452
0.021042
-0.023777
-0.071597
-0.112718
-0.155325
-0.167227
-0.187883
-0.186289
-0.162334
-0.119738
-0.073558
-0.019457
0.032402
0.071699
0.100915
0.117324
0.116625
0.110575
0.086102
0.049555
0.006129
-0.045144
-0.086980
-0.127006
-0.160654
-0.174278
-0.182839
-0.175526
-0.151915
-0.129757
-0.086561
-0.038904
0.012519
0.047316
0.095118
0.111117
0.124468
0.119226
0.094649
0.056073
0.017193
-0.029742
-0.079101
-0.116939
-0.157597
-0.177628
-0.188520
-0.173161
-0.157078
-0.122664
-0.071449
-0.024414
0.016550
0.057134
0.092158
0.113117
0.130536
0.125328
0.095413
0.066986
0.035777
-0.009492
-0.067271
-0.096836
-0.137855
-0.161512
-0.173602
-0.176886
-0.160306
-0.116957
-0.070229
-0.019301
0.036558
0.083454
0.124640
0.144373
0.152103
0.136668
0.113801
0.079849
0.045263
-0.019121
-0.067776
-0.110344
-0.136414
-0.163765
-0.167817
-0.161985
-0.150292
-0.115153
-0.077760
-0.016190
0.042127
0.088772
0.126184
0.132656
0.131850
0.115403
0.085332
0.048154
0.010264
-0.039336
-0.091034
-0.115600
-0.137273
-0.167582
-0.175375
-0.168701
-0.138769
-0.107762
-0.063055
-0.021454
0.012710
0.054707
0.107709
0.133071
0.137124
0.108799
0.082970
0.060625
0.020985
-0.031025
-0.090860
-0.135476
-0.181038
-0.198358
-0.188033
-0.177632
-0.146399
-0.115234
-0.069976
-0.023446
0.014238
0.063754
0.102223
0.127022
0.132097
0.118770
0.096581
0.065791
0.026544
-0.024443
-0.085452
-0.124057
-0.162820
-0.181636
-0.165939
-0.158826
-0.148003
-0.108001
-0.061061
-0.007824
0.031851
0.074634
0.100467
0.120215
0.127200
0.126721
0.105236
0.062486
0.017851
-0.043245
-0.091662
-0.130107
-0.166578
-0.185312
-0.186905
-0.180832
-0.164049
-0.126049
-0.078704
-0.038047
0.007366
0.053738
0.095908
0.109736
0.118256
0.099785
0.065748
0.035226
0.003627
-0.032108
-0.087885
-0.130582
-0.176143
-0.183496
-0.193061
-0.193438
-0.169380
-0.131275
-0.073989
-0.018195
0.033229
0.078846
0.104792
0.121041
0.115796
0.100741
0.070412
0.039570
-0.005799
-0.060558
-0.098535
-0.146027
-0.184498
-0.197213
-0.209005
-0.197397
-0.170574
-0.140298
-0.098143
-0.048210
0.017060
0.071697
0.114090
0.116050
0.098736
0.092923
0.072802
0.049872
0.010510
-0.033590
-0.076776
-0.115664
-0.145929
-0.182988
-0.191505
-0.174575
-0.144388
-0.093472
-0.055858
-0.019862
0.028624
0.071301
0.123034
0.146729
0.147495
0.136734
0.118792
0.079072
0.051781
-0.003350
-0.057766
-0.098907
-0.125904
-0.152028
-0.157002
-0.161253
-0.139009
-0.099993
-0.057717
-0.013207
0.041421
0.064334
0.104732
0.130777
0.137643
0.120315
0.089371
0.064983
0.044768
-0.009408
-0.051076
-0.087622
-0.117441
-0.133687
-0.146679
-0.145821
-0.123121
-0.067234
-0.015370
0.028909
0.061266
0.108194
0.144886
0.164537
0.169943
0.152387
0.127807
0.091018
0.040047
-0.020360
-0.064721
-0.103828
-0.142502
-0.162875
-0.175984
-0.171296
-0.155961
-0.124774
-0.092821
-0.037144
0.020987
0.059051
0.086767
0.117310
0.120867
0.102764
0.089207
0.060326
0.030015
-0.012487
-0.062194
-0.112570
-0.157706
-0.181010
-0.192650
-0.179348
-0.164690
-0.135498
-0.093620
-0.051505
-0.006700
0.039456
0.067732
0.093325
0.084700
0.080743
0.055783
0.020460
-0.024441
-0.056734
-0.095821
-0.142040
-0.193017
-0.207404
-0.199326
-0.196921
-0.176312
-0.143912
-0.112403
-0.066642
-0.016097
0.024034
0.065671
0.078835
0.086593
0.076124
0.060613
0.012913
-0.027268
-0.070212
-0.100697
-0.153764
-0.191588
-0.224781
-0.223211
-0.211858
-0.197722
-0.168887
-0.133309
-0.077073
-0.025622
0.019315
0.062641
0.082890
0.085955
0.078761
0.046755
0.007630
-0.052798
-0.089317
-0.120804
-0.149319
-0.206719
-0.231556
-0.233960
-0.209332
-0.193098
-0.163705
-0.117068
-0.064659
-0.012357
0.030153
0.062487
0.089231
0.092040
0.077448
0.058544
0.015948
-0.023728
-0.074291
-0.131984
-0.164149
-0.202080
-0.228486
-0.232156
-0.236899
-0.207808
-0.169236
-0.116268
-0.071660
-0.011012
0.045935
0.097297
0.129996
0.151197
0.160339
0.145049
0.128868
0.110310
0.073894
0.037395
0.017863
0.007183
0.004078
0.029590
0.067184
0.105478
0.158209
0.238200
0.326495
0.397243
0.479035
0.523792
0.582210
0.619580
0.638073
0.647650
0.659136
0.671541
0.661655
0.642214
0.622790
0.614440
0.586169
0.580036
0.594125
0.600336
0.618389
0.643096
0.656133
0.664777
0.679880
0.642925
0.586851
0.523246
0.462263
0.392021
0.298063
0.205432
0.119176
0.031541
-0.012659
-0.065449
-0.095654
-0.096576
-0.085432
-0.079756
-0.045421
-0.006536
0.033006
0.073714
0.119640
0.155688
0.181747
0.195071
0.183317
0.159924
0.117437
0.068763
0.010075
-0.037692
-0.090231
-0.141182
-0.168774
-0.157722
-0.146148
-0.131595
-0.096060
-0.053650
-0.016311
0.027280
0.068895
0.106713
0.120609
0.129123
0.116955
0.101271
0.058153
0.010675
-0.032989
-0.081976
-0.124068
-0.150122
-0.169676
-0.176549
-0.166422
-0.159772
-0.122597
-0.072390
-0.016885
0.036510
0.074304
0.104886
0.140139
0.134357
0.127835
0.095972
0.077561
0.035703
-0.008292
-0.054316
-0.107689
-0.150557
-0.175292
-0.160935
-0.163255
-0.142531
-0.095629
-0.056893
-0.014203
0.027930
0.082695
0.120875
0.143113
0.149322
0.135907
0.119080
0.079638
0.043940
-0.007846
-0.056628
-0.097832
-0.141306
-0.157612
-0.158435
-0.153474
-0.131650
-0.090966
-0.049648
0.004102
0.054971
0.100014
0.123298
0.148230
0.157099
0.151907
0.135185
0.100823
0.070497
0.028226
-0.012217
-0.061800
-0.091123
-0.106215
-0.114098
-0.102426
-0.086124
-0.040879
0.007628
0.046462
0.096153
0.141623
0.184197
0.196285
0.194597
0.190739
0.159518
0.114392
0.081337
0.059362
0.025823
-0.014359
-0.061563
-0.091184
-0.112100
-0.093694
-0.058877
-0.010048
0.023630
0.070719
0.116789
0.179360
0.213835
0.231368
0.242835
0.248478
0.218466
0.187202
0.144227
0.109995
0.065211
0.007169
-0.038161
-0.049565
-0.055278
-0.038216
-0.024605
-0.004618
0.034545
0.094131
0.148847
0.191705
0.236201
0.255713
0.268312
0.246446
0.223883
0.189875
0.148958
0.092051
0.050861
0.009480
-0.016234
-0.035683
-0.054189
-0.044728
-0.012713
0.020173
0.048674
0.093535
0.146518
0.181514
0.208682
0.240808
0.252014
0.230911
0.212163
0.173878
0.125713
0.074893
0.039851
0.002723
-0.036451
-0.053811
-0.062198
-0.056617
-0.040296
-0.011554
0.026736
0.075157
0.117599
0.165224
0.188455
0.208485
0.219491
0.207928
0.179926
0.130087
0.090492
0.056992
0.007775
-0.037390
-0.080396
-0.110562
-0.115622
-0.118987
-0.106790
-0.081368
-0.029138
0.017479
0.061261
0.110892
0.136036
0.173040
0.173216
0.168306
0.148905
0.110287
0.061477
0.017648
-0.032611
-0.093248
-0.137412
-0.161142
-0.170037
-0.164241
-0.158493
-0.129692
-0.080729
-0.032002
0.032893
0.075550
0.111602
0.129998
0.137462
0.127393
0.114197
0.067010
0.023067
-0.027528
-0.075455
-0.119876
-0.159518
-0.184048
-0.193807
-0.179235
-0.155508
-0.111267
-0.076649
-0.041160
0.004750
0.046523
0.086726
0.115821
0.130542
0.104146
0.077493
0.048065
-0.006516
-0.054340
-0.102063
-0.148439
-0.178843
-0.198217
-0.199467
-0.173218
-0.166033
-0.128661
-0.085590
-0.039483
-0.004895
0.043278
0.078044
0.097060
0.093740
0.092353
0.073584
0.050150
0.004779
-0.038581
-0.088790
-0.141739
-0.173441
-0.196823
-0.203130
-0.191097
-0.165759
-0.125301
-0.084175
-0.047098
0.014595
0.051776
0.076686
0.098327
0.105991
0.093954
0.073025
0.039786
-0.015653
-0.069018
-0.103192
-0.151023
-0.189203
-0.188573
-0.177435
-0.173554
-0.156843
-0.116636
-0.070961
-0.025971
0.015445
0.063646
0.102675
0.113256
0.128255
0.115707
0.091971
0.054638
0.010797
-0.030695
-0.069122
-0.128188
-0.163288
-0.166504
-0.176901
-0.159628
-0.136750
-0.109287
-0.074621
-0.021967
0.034950
0.064276
0.097108
0.122302
0.126511
0.110264
0.099422
0.052960
0.002870
-0.039914
-0.086540
-0.150753
-0.165600
-0.177629
-0.177176
-0.170878
-0.148533
-0.110764
-0.059795
-0.013729
0.032755
0.069034
0.098507
0.123300
0.120536
0.100140
0.081318
0.056116
0.012826
-0.038252
-0.082789
-0.130338
-0.166846
-0.189403
-0.192464
-0.189101
-0.174918
-0.147425
-0.093480
-0.039193
0.001683
0.036552
0.076865
0.096136
0.106362
0.085334
0.066053
0.033897
-0.001824
-0.033667
-0.090573
-0.133004
-0.159292
-0.176276
-0.189763
-0.177950
-0.159391
-0.127264
-0.081946
-0.034619
0.003143
0.064223
0.096154
0.112461
0.117458
0.122309
0.089361
0.054797
0.007866
-0.033669
-0.074387
-0.118754
-0.160212
-0.186911
-0.196765
-0.186891
-0.168000
-0.129021
-0.082992
-0.042179
-0.003807
0.041518
0.077466
0.095290
0.105507
0.091436
0.078489
0.049847
0.002640
-0.049940
-0.089657
-0.130245
-0.163871
-0.199095
-0.208818
-0.193447
-0.180301
-0.154198
-0.113595
-0.060007
-0.004127
0.042722
0.078079
0.096326
0.099267
0.088947
0.067642
0.026750
-0.009301
-0.048610
-0.100305
-0.151406
-0.187580
-0.199400
-0.212183
-0.199285
-0.184739
-0.142264
-0.101689
-0.052915
-0.005910
0.046307
0.080660
0.101767
0.099576
0.087551
0.073060
0.037821
-0.004980
-0.051669
-0.098875
-0.153804
-0.195149
-0.227770
-0.240601
-0.212263
-0.198998
-0.163082
-0.121746
-0.071184
-0.026250
0.023998
0.054744
0.077842
0.085670
0.083363
0.051569
0.021096
-0.023319
-0.073606
-0.101316
-0.144524
-0.187891
-0.197321
-0.214264
-0.203932
-0.162910
-0.130131
-0.085477
-0.043444
-0.007009
0.058492
0.101902
0.122277
0.131918
0.125573
0.106416
0.063086
0.029791
-0.003774
-0.052976
-0.106773
-0.142193
-0.165126
-0.177115
-0.166203
-0.138497
-0.100784
-0.057511
-0.007177
0.037911
0.080636
0.111545
0.138144
0.139387
0.121491
0.099815
0.069254
0.015382
-0.037338
-0.077385
-0.126851
-0.156531
-0.171028
-0.173719
-0.157349
-0.137461
-0.091314
-0.039326
0.014766
0.058070
0.096924
0.136381
0.153628
0.158649
0.147169
0.120485
0.084659
0.044601
-0.001988
-0.052517
-0.106499
-0.148595
-0.167830
-0.185904
-0.176137
-0.151949
-0.115530
-0.080300
-0.032734
0.017865
0.062012
0.089086
0.102597
0.104084
0.087390
0.071314
0.028854
-0.018161
-0.063082
-0.095385
-0.141271
-0.187761
-0.205559
-0.218900
-0.210569
-0.204137
-0.158487
-0.110471
-0.066994
-0.021124
0.019521
0.044873
0.055475
0.067812
0.074500
0.043955
0.009291
-0.030163
-0.073923
-0.119149
-0.149674
-0.191986
-0.197505
-0.205000
-0.202814
-0.197426
-0.172949
-0.123872
-0.070521
-0.024011
0.025574
0.052759
0.067465
0.077596
0.067084
0.046888
0.006240
-0.028613
-0.077464
-0.117488
-0.171927
-0.210407
-0.228316
-0.232821
-0.223272
-0.198007
-0.167943
-0.135761
-0.087479
-0.038877
0.010586
0.033372
0.057046
0.069077
0.064613
0.033641
0.000899
-0.038605
-0.083863
-0.130203
-0.181573
-0.212829
-0.220238
-0.228732
-0.212060
-0.193829
-0.151895
-0.112104
-0.076979
-0.030516
0.001790
0.028223
0.045777
0.065382
0.060709
0.045042
-0.002241
-0.041505
-0.085607
-0.134956
-0.184932
-0.223362
-0.239376
-0.249464
-0.238467
-0.221262
-0.187725
-0.144920
-0.100951
-0.050490
0.003268
0.029019
0.048923
0.074215
0.106724
0.113267
0.086152
0.052397
0.017664
-0.019301
-0.062091
-0.066166
-0.063695
-0.067127
-0.041422
0.011657
0.060470
0.127540
0.202985
0.280538
0.353070
0.419191
0.477347
0.513963
0.532506
0.543910
0.534218
0.507207
0.501300
0.494202
0.499530
0.516008
0.533605
0.551339
0.588526
0.613500
0.639105
0.689250
0.752269
0.779930
0.784774
0.796615
0.794580
0.770195
0.688609
0.598800
0.500242
0.385425
0.299116
0.198732
0.097955
0.011070
-0.035371
-0.054028
-0.057163
-0.039984
-0.002026
0.036269
0.075087
0.112475
0.149323
0.178460
0.186997
0.195039
0.174967
0.141817
0.113639
0.068476
0.016005
-0.032174
-0.083575
-0.118496
-0.155290
-0.167417
-0.161010
-0.138404
-0.103542
-0.061522
-0.014123
0.027583
0.073748
0.106787
0.120577
0.130723
0.112395
0.075743
0.038783
0.001926
-0.043501
-0.079411
-0.128348
-0.166556
-0.196792
-0.206776
-0.188363
-0.161761
-0.125118
-0.079077
-0.031237
0.003412
0.053674
0.089342
0.103671
0.114062
0.113175
0.100760
0.067698
0.022411
-0.030095
-0.072945
-0.124657
-0.160029
-0.185487
-0.178347
-0.185097
-0.173869
-0.136509
-0.067174
-0.016776
0.028157
0.077196
0.106189
0.124741
0.134347
0.120894
0.099753
0.079869
0.035923
-0.027025
-0.069378
-0.118738
-0.140284
-0.158820
-0.172652
-0.152851
-0.129559
-0.097382
-0.069058
-0.017509
0.048808
0.105362
0.133657
0.151999
0.147120
0.146469
0.125247
0.090667
0.056049
0.007545
-0.035673
-0.072173
-0.105155
-0.127027
-0.135300
-0.122911
-0.097748
-0.061600
-0.029604
0.012436
0.065915
0.120402
0.154935
0.171731
0.181718
0.175188
0.146210
0.113874
0.076041
0.031771
-0.010628
-0.052583
-0.079557
-0.104898
-0.111869
-0.098865
-0.076890
-0.036828
0.005464
0.047653
0.094853
0.154166
0.194863
0.231770
0.240048
0.219052
0.203258
0.162402
0.113956
0.068284
0.017689
-0.010540
-0.041033
-0.064101
-0.074400
-0.059578
-0.031367
-0.006635
0.038672
0.081876
0.128638
0.171243
0.200632
0.228105
0.236991
0.243755
0.224487
0.191325
0.144504
0.102232
0.042246
-0.020737
-0.033160
-0.054499
-0.059807
-0.054551
-0.025724
0.002067
0.031716
0.075939
0.119351
0.163406
0.207796
0.237505
0.238537
0.226852
0.202545
0.175926
0.133313
0.082030
0.034326
-0.012289
-0.055218
-0.078064
-0.082610
-0.059753
-0.024496
-0.004305
0.036931
0.065627
0.117224
0.165321
0.191000
0.210571
0.218778
0.203916
0.178381
0.141556
0.100911
0.065796
0.009325
-0.058332
-0.088235
-0.108931
-0.127905
-0.127355
-0.109057
-0.072945
-0.035041
0.002478
0.056542
0.104226
0.129882
0.160876
0.164106
0.159308
0.134703
0.099940
0.058739
0.002662
-0.048994
-0.109894
-0.144952
-0.174263
-0.193406
-0.174003
-0.148677
-0.108814
-0.072027
-0.019432
0.034279
0.079322
0.098263
0.125873
0.133046
0.117762
0.091068
0.045169
0.002263
-0.050996
-0.110525
-0.174201
-0.180309
-0.201287
-0.211962
-0.212894
-0.184126
-0.153277
-0.100392
-0.046050
0.004566
0.043306
0.088488
0.107342
0.113862
0.111492
0.079679
0.047507
-0.002802
-0.050575
-0.100386
-0.152462
-0.192158
-0.206579
-0.214437
-0.210463
-0.180574
-0.151851
-0.106159
-0.056903
-0.006350
0.047800
0.076875
0.092189
0.098468
0.087193
0.073566
0.041415
-0.005184
-0.056724
-0.107466
-0.158153
-0.174031
-0.196404
-0.213103
-0.203900
-0.168010
-0.136683
-0.089007
-0.039149
0.002823
0.042430
0.066880
0.096186
0.107455
0.095250
0.067091
0.038428
0.000873
-0.039583
-0.092298
-0.148445
-0.188233
-0.206123
-0.210959
-0.203284
-0.164281
-0.118800
-0.069157
-0.019931
0.018362
0.056015
0.083978
0.105017
0.106358
0.099226
0.079763
0.049497
-0.000365
-0.057591
-0.106342
-0.138069
-0.168316
-0.196245
-0.222131
-0.200792
-0.166630
-0.119084
-0.081835
-0.033754
0.007666
0.048297
0.079784
0.091589
0.109560
0.092820
0.074893
0.037064
-0.013937
-0.059039
-0.104469
-0.152156
-0.182349
-0.207429
-0.215865
-0.213076
-0.189534
-0.146289
-0.088233
-0.036054
0.011827
0.062824
0.080625
0.106115
0.110124
0.092417
0.068484
0.038253
-0.002549
-0.057360
-0.087597
-0.123105
-0.148646
-0.180965
-0.198264
-0.199464
-0.177720
-0.133283
-0.090921
-0.053603
-0.006487
0.045157
0.078197
0.097835
0.109229
0.095012
0.072953
0.049106
0.001885
-0.053978
-0.099212
-0.145411
-0.175712
-0.208344
-0.210064
-0.206733
-0.182768
-0.144725
-0.099962
-0.056575
0.002512
0.055808
0.077705
0.095893
0.109311
0.096207
0.074645
0.044244
0.008909
-0.041642
-0.098279
-0.148055
-0.184841
-0.208358
-0.207574
-0.212789
-0.182061
-0.153405
-0.102565
-0.055220
-0.002112
0.031398
0.062101
0.070504
0.094094
0.088142
0.060768
0.027526
-0.020783
-0.057961
-0.104054
-0.158403
-0.190951
-0.218941
-0.234989
-0.207523
-0.174894
-0.149182
-0.106196
-0.069584
-0.029751
0.026219
0.056181
0.067728
0.072090
0.070140
0.046236
0.018825
-0.029177
-0.071613
-0.126404
-0.179378
-0.202219
-0.219309
-0.228994
-0.213016
-0.193419
-0.156932
-0.110692
-0.059773
-0.024389
0.031971
0.057930
0.088653
0.095061
0.083058
0.054443
0.020549
-0.027588
-0.068767
-0.117346
-0.166730
-0.201850
-0.219620
-0.216553
-0.221665
-0.201906
-0.164571
-0.127380
-0.077027
-0.028433
0.024721
0.048170
0.060974
0.075881
0.069245
0.041592
0.000942
-0.031480
-0.080747
-0.128013
-0.172286
-0.202034
-0.215887
-0.226536
-0.202747
-0.191018
-0.165102
-0.121229
-0.089883
-0.047690
0.013977
0.052373
0.079149
0.079503
0.063088
0.043474
0.028868
-0.010541
-0.068603
-0.109948
-0.164897
-0.200143
-0.219959
-0.230391
-0.214595
-0.189747
-0.161295
-0.128250
-0.080391
-0.035045
0.028626
0.057559
0.077109
0.098917
0.105498
0.083153
0.057735
0.021684
-0.031151
-0.087628
-0.145183
-0.175895
-0.191660
-0.201551
-0.199378
-0.180527
-0.143617
-0.094819
-0.040267
-0.000975
0.052664
0.082948
0.100116
0.102878
0.102876
0.063174
0.036548
0.004076
-0.047499
-0.097384
-0.146592
-0.184786
-0.200079
-0.207296
-0.202373
-0.174714
-0.156407
-0.091578
-0.040975
0.035290
0.082190
0.086362
0.105836
0.123418
0.138298
0.113342
0.084357
0.041737
-0.023703
-0.078271
-0.129772
-0.168464
-0.187219
-0.210339
-0.197609
-0.174779
-0.142243
-0.107621
-0.067029
-0.014327
0.027548
0.060476
0.075254
0.086135
0.080611
0.055483
0.020704
-0.023889
-0.073878
-0.119404
-0.176658
-0.215719
-0.229109
-0.238509
-0.224242
-0.206363
-0.173820
-0.131893
-0.082295
-0.036103
0.004902
0.031332
0.060934
0.066977
0.056564
0.012569
-0.020718
-0.070205
-0.119061
-0.167398
-0.218024
-0.257361
-0.273863
-0.271275
-0.264987
-0.253718
-0.204792
-0.160878
-0.102296
-0.056424
-0.005043
0.009625
0.016010
0.026436
0.035067
0.008623
-0.025510
-0.065778
-0.112834
-0.170073
-0.229805
-0.250332
-0.257882
-0.272526
-0.274244
-0.249861
-0.211073
-0.159355
-0.093778
-0.049489
-0.013275
0.022421
0.038210
0.045187
0.034873
0.015925
-0.018438
-0.062865
-0.105327
-0.146917
-0.188561
-0.224898
-0.256727
-0.254792
-0.263257
-0.241095
-0.212014
-0.166844
-0.100892
-0.051185
-0.009195
0.017062
0.023755
0.031375
0.022628
-0.004464
-0.035222
-0.078152
-0.120927
-0.176084
-0.205299
-0.255087
-0.278475
-0.271050
-0.256703
-0.246373
-0.209020
-0.168534
-0.116401
-0.071439
-0.012270
0.022469
0.051478
0.068433
0.068681
0.047414
0.035958
0.013276
-0.023176
-0.058619
-0.092192
-0.115614
-0.139667
-0.115106
-0.079561
-0.041092
0.010428
0.069666
0.145909
0.228853
0.313231
0.385445
0.443669
0.489438
0.507385
0.499372
0.500864
0.488030
0.490684
0.492334
0.491396
0.507272
0.531058
0.562054
0.591981
0.609605
0.633386
0.666353
0.690964
0.713609
0.739535
0.746505
0.731616
0.689305
0.608982
0.513992
0.411832
0.325900
0.239855
0.145795
0.033354
-0.026429
-0.059101
-0.066569
-0.075342
-0.061823
-0.033443
-0.005710
0.026231
0.063088
0.098031
0.118555
0.129750
0.123010
0.117328
0.083593
0.044895
0.010533
-0.028575
-0.086296
-0.132904
-0.183573
-0.193792
-0.193392
-0.172730
-0.155225
-0.130439
-0.087303
-0.050248
-0.000812
0.036234
0.064803
0.078762
0.084490
0.078511
0.051152
0.014179
-0.029156
-0.069631
-0.126412
-0.175631
-0.194330
-0.219793
-0.232358
-0.231467
-0.216031
-0.180604
-0.130890
-0.085798
-0.035839
0.000940
0.026041
0.059129
0.055457
0.048770
0.030959
-0.007349
-0.041681
-0.085438
-0.129468
-0.169161
-0.204447
-0.221236
-0.229082
-0.224058
-0.198703
-0.166027
-0.127995
-0.062022
-0.014049
0.029621
0.060601
0.081126
0.089825
0.077758
0.053313
0.011817
-0.026112
-0.072429
-0.119471
-0.167091
-0.208618
-0.214190
-0.204037
-0.194914
-0.174135
-0.141597
-0.100801
-0.044759
0.006174
0.044400
0.083370
0.098442
0.102196
0.090913
0.067980
0.044374
-0.006699
-0.042529
-0.074286
-0.119109
-0.144292
-0.172202
-0.179950
-0.175678
-0.156399
-0.125150
-0.080231
-0.027850
0.030006
0.077354
0.113690
0.137427
0.133506
0.129365
0.106799
0.080521
0.040972
-0.007152
-0.056732
-0.092207
-0.115461
-0.144292
-0.135149
-0.131847
-0.122686
-0.090797
-0.053833
0.002538
0.056906
0.101188
0.146737
0.169364
0.170770
0.161249
0.126445
0.112588
0.071209
0.024617
-0.020977
-0.069812
-0.100449
-0.115335
-0.134850
-0.125321
-0.116383
-0.077080
-0.023925
0.032665
0.083527
0.139553
0.170446
0.190408
0.190997
0.192685
0.156093
0.126688
0.078263
0.034828
-0.020616
-0.064081
-0.106307
-0.114830
-0.118629
-0.123116
-0.098812
-0.054238
-0.002735
0.051367
0.093858
0.128019
0.170465
0.202607
0.197469
0.189314
0.155998
0.121115
0.085924
0.037637
-0.008885
-0.065257
-0.096282
-0.125119
-0.124368
-0.119541
-0.105657
-0.071462
-0.031999
0.004920
0.065395
0.103081
0.138350
0.159207
0.160706
0.151467
0.128930
0.090792
0.039699
-0.006440
-0.054167
-0.110376
-0.145164
-0.172914
-0.173455
-0.175854
-0.153391
-0.126468
-0.085432
-0.047577
0.009228
0.061183
0.096703
0.127560
0.114215
0.098708
0.072368
0.039780
-0.009972
-0.054504
-0.109785
-0.158852
-0.189931
-0.213151
-0.226129
-0.224853
-0.193560
-0.164254
-0.123025
-0.079299
-0.041653
0.003450
0.042105
0.059786
0.046406
0.036021
0.017399
-0.010749
-0.048818
-0.094990
-0.141093
-0.173450
-0.212712
-0.235432
-0.236765
-0.240541
-0.227834
-0.209534
-0.154491
-0.098417
-0.058754
-0.003091
0.031308
0.048393
0.050488
0.040915
0.020509
-0.020239
-0.064003
-0.113424
-0.162982
-0.210581
-0.238773
-0.259964
-0.258471
-0.265232
-0.231124
-0.203609
-0.161201
-0.107709
-0.059827
-0.015924
0.013188
0.029373
0.030817
0.026206
-0.001631
