-0.034244
0.001119
0.039019
0.103631
0.137894
0.131919
0.107330
0.080402
0.043176
-0.019816
-0.025202
-0.077794
-0.105559
-0.142099
-0.174017
-0.188234
-0.206726
-0.195684
-0.159178
-0.114502
-0.059269
-0.032563
0.018279
0.061808
0.096702
0.109684
0.102219
0.078673
0.054134
0.013249
-0.026556
-0.073449
-0.133971
-0.178354
-0.197194
-0.202305
-0.197261
-0.176533
-0.144995
-0.089863
-0.012936
0.014039
0.052032
0.099595
0.099039
0.107108
0.094214
0.064625
0.026321
-0.022987
-0.072723
-0.107012
-0.151253
-0.183746
-0.213719
-0.226082
-0.211459
-0.181759
-0.166988
-0.103876
-0.046755
0.006051
0.036318
0.073476
0.129377
0.163790
0.144508
0.110852
0.063074
0.013508
-0.058833
-0.102130
-0.125049
-0.166049
-0.221402
-0.244666
-0.212747
-0.198825
-0.162773
-0.107903
-0.051510
0.013699
0.063702
0.099765
0.115517
0.121162
0.144938
0.167277
0.151459
0.120593
0.082502
0.055494
-0.000654
-0.019293
-0.012060
0.013670
0.050704
0.114875
0.167112
0.242839
0.320836
0.383730
0.451049
0.509780
0.547840
0.555875
0.597817
0.644085
0.655848
0.631799
0.624464
0.605254
0.600778
0.584304
0.574213
0.568802
0.593607
0.620002
0.650623
0.660508
0.682230
0.695034
0.688695
0.650036
0.603059
0.518330
0.488132
0.459742
0.358120
0.249515
0.152546
0.072320
0.012851
-0.040811
-0.076705
-0.078050
-0.075120
-0.076162
-0.050174
-0.004605
0.044663
0.070362
0.129682
0.155610
0.168004
0.168337
0.155399
0.123212
0.084547
0.058559
0.052183
0.007754
-0.044106
-0.097094
-0.115708
-0.134077
-0.139408
-0.132848
-0.090590
-0.029194
0.006826
0.046543
0.079221
0.098300
0.142007
0.161791
0.155258
0.117809
0.079820
0.004255
-0.045936
-0.080545
-0.126744
-0.169581
-0.176278
-0.146451
-0.124507
-0.110497
-0.112274
-0.067400
0.001776
0.057711
0.089108
0.107294
0.123460
0.155156
0.166266
0.131762
0.079323
0.058377
0.001133
-0.048795
-0.120298
-0.130622
-0.157403
-0.163692
-0.165941
-0.142033
-0.115884
-0.057630
-0.012282
0.032845
0.073970
0.116767
0.165717
0.164152
0.154441
0.126155
0.092643
0.061433
0.023713
-0.037926
-0.078731
-0.108863
-0.127874
-0.130253
-0.126886
-0.108125
-0.066803
-0.018697
0.019628
0.071831
0.086543
0.139621
0.154418
0.170554
0.154405
0.111554
0.099337
0.063918
0.045389
-0.014991
-0.058043
-0.077031
-0.111151
-0.122349
-0.108915
-0.079332
-0.048402
0.015607
0.042832
0.085292
0.164730
0.214634
0.215525
0.214582
0.203407
0.186630
0.157589
0.122218
0.053958
0.006552
-0.040384
-0.079512
-0.099313
-0.123351
-0.092131
-0.054801
-0.012421
0.029252
0.088406
0.134300
0.180052
0.195501
0.225805
0.240714
0.239013
0.217782
0.188578
0.158790
0.115523
0.057985
0.019702
-0.010151
-0.029411
-0.035829
-0.023349
-0.009860
0.025884
0.060330
0.097323
0.142583
0.209939
0.227639
0.222885
0.220536
0.268582
0.247922
0.227058
0.164910
0.129947
0.083594
0.011770
-0.026130
-0.033957
-0.033942
-0.032559
-0.025671
0.008572
0.065824
0.121829
0.179045
0.209272
0.242696
0.277159
0.279221
0.253243
0.223974
0.210802
0.166070
0.100411
0.056201
0.014777
0.003145
-0.029936
-0.056491
-0.065701
-0.053755
-0.022605
0.036474
0.088606
0.118480
0.163155
0.201118
0.222594
0.243459
0.229229
0.197844
0.168471
0.130264
0.070036
0.031007
-0.014694
-0.046442
-0.082651
-0.097743
-0.102223
-0.076420
-0.022554
0.003126
0.050128
0.091072
0.141141
0.186114
0.200108
0.181014
0.164425
0.148154
0.118096
0.088322
0.056594
-0.008428
-0.076834
-0.123151
-0.134498
-0.123095
-0.117065
-0.111501
-0.077204
-0.019390
0.032852
0.075205
0.101224
0.146142
0.168118
0.167441
0.143386
0.115876
0.089087
0.044768
-0.000869
-0.072242
-0.080638
-0.131588
-0.158344
-0.165284
-0.145360
-0.120941
-0.118499
-0.099307
-0.030878
0.026034
0.073727
0.108422
0.133683
0.129499
0.145163
0.146825
0.095185
0.028436
-0.009854
-0.053647
-0.105811
-0.146990
-0.168026
-0.138050
-0.122270
-0.092103
-0.090818
-0.043100
-0.024492
0.027069
0.068565
0.113271
0.140677
0.136917
0.129701
0.094148
0.063887
0.027845
0.003726
-0.038420
-0.104768
-0.159085
-0.170666
-0.149929
-0.134900
-0.136266
-0.082021
-0.009483
0.021223
0.051125
0.095012
0.131015
0.148141
0.157678
0.147039
0.134422
0.099538
0.065066
0.003311
-0.074343
-0.133703
-0.173142
-0.167421
-0.161609
-0.141777
-0.127170
-0.091870
-0.045436
0.008198
0.034744
0.071698
0.105273
0.141451
0.126359
0.132167
0.123127
0.099164
0.057042
0.003664
-0.043183
-0.075184
-0.127478
-0.112286
-0.114624
-0.134848
-0.135739
-0.090836
-0.048673
0.003000
0.033688
0.065453
0.127950
0.152700
0.142268
0.157351
0.137268
0.098614
0.066766
0.018160
-0.055469
-0.095318
-0.124281
-0.151722
-0.165743
-0.178620
-0.129429
-0.085066
-0.038153
0.016352
0.049170
0.086048
0.127006
0.150452
0.168767
0.164979
0.160858
0.140899
0.066724
0.000512
-0.066261
-0.114577
-0.139747
-0.161452
-0.187237
-0.184105
-0.144136
-0.072201
-0.029244
0.003608
0.049928
0.082794
0.108117
0.134781
0.146453
0.131386
0.108594
0.071691
0.029089
-0.003805
-0.042431
-0.073721
-0.100218
-0.149960
-0.172146
-0.149409
-0.124417
-0.114176
-0.092837
-0.034176
0.026227
0.092486
0.111358
0.115245
0.130657
0.109198
0.068702
0.040897
-0.008625
-0.038262
-0.069968
-0.092182
-0.104123
-0.136062
-0.165066
-0.164135
-0.137375
-0.099106
-0.039214
-0.005043
0.056869
0.090289
0.118546
0.140752
0.128784
0.122919
0.116920
0.091499
0.029570
-0.033031
-0.067956
-0.102050
-0.142169
-0.174732
-0.195194
-0.171975
-0.153951
-0.122181
-0.072381
-0.028335
0.008713
0.078653
0.113018
0.121288
0.142717
0.134461
0.095239
0.106068
0.052450
-0.014857
-0.081467
-0.135658
-0.157269
-0.187078
-0.171441
-0.164375
-0.125724
-0.075402
-0.060131
-0.030996
0.024929
0.061163
0.085050
0.101967
0.132629
0.140294
0.096856
0.033838
-0.007725
-0.039613
-0.065483
-0.074037
-0.103172
-0.142839
-0.165177
-0.146551
-0.125041
-0.084908
-0.063534
-0.002995
0.081056
0.136367
0.147533
0.142980
0.156349
0.162320
0.135154
0.095589
0.041316
-0.007561
-0.061609
-0.087953
-0.121004
-0.157698
-0.151514
-0.135831
-0.128843
-0.101203
-0.060168
-0.004825
0.043865
0.066631
0.130740
0.172676
0.167572
0.153542
0.153984
0.117617
0.070908
-0.001690
-0.023726
-0.038279
-0.070894
-0.113509
-0.129481
-0.106336
-0.110978
-0.053620
-0.011594
0.015555
0.071762
0.105953
0.166823
0.183820
0.185408
0.158503
0.128114
0.077424
0.048531
0.033959
-0.017153
-0.088012
-0.118330
-0.126101
-0.147256
-0.145545
-0.138412
-0.096233
-0.059662
-0.009050
0.037445
0.076285
0.109898
0.113857
0.119309
0.091241
0.096187
0.082364
0.034804
-0.018290
-0.071765
-0.115140
-0.163874
-0.199886
-0.176036
-0.161493
-0.127748
-0.125441
-0.107758
-0.058275
0.006581
0.041333
0.075851
0.095562
0.096465
0.109982
0.114314
0.071404
0.020541
-0.038030
-0.094490
-0.133540
-0.184652
-0.218657
-0.224227
-0.210691
-0.193495
-0.151692
-0.099422
-0.042496
-0.018298
0.027628
0.061098
0.100905
0.101430
0.069340
0.031398
0.019984
0.014379
-0.037504
-0.091722
-0.142217
-0.173555
-0.194204
-0.215250
-0.212908
-0.191312
-0.157850
-0.105104
-0.031761
0.013558
0.056254
0.051551
0.109806
0.123708
0.116706
0.077338
0.020440
-0.015297
-0.060547
-0.100488
-0.156846
-0.193803
-0.218319
-0.222697
-0.197376
-0.144158
-0.110176
-0.094720
-0.058911
0.000742
0.041333
0.078302
0.092805
0.103360
0.089533
0.053298
0.015661
-0.023495
-0.039576
-0.090790
-0.157296
-0.152038
-0.175669
-0.190494
-0.206931
-0.136914
-0.087631
-0.033704
0.027691
0.117224
0.182454
0.222266
0.234021
0.267992
0.296629
0.288715
0.272204
0.257779
0.233877
0.227354
0.210609
0.223392
0.239410
0.274704
0.305742
0.349168
0.437028
0.504196
0.596235
0.670043
0.736691
0.802219
0.865628
0.877562
0.892941
0.874764
0.829692
0.794076
0.714032
0.643062
0.583348
0.519511
0.470353
0.366434
0.304996
0.261796
0.245912
0.242301
0.253932
0.265681
0.236406
0.224550
0.256351
0.291264
0.271429
0.242128
0.204179
0.165024
0.102537
0.045886
-0.026255
-0.093634
-0.116064
-0.117042
-0.092228
-0.068779
-0.059039
-0.036038
-0.010645
0.037091
0.089520
0.140614
0.156511
0.145969
0.142621
0.122814
0.117019
0.073383
0.016755
-0.046374
-0.093377
-0.114224
-0.129260
-0.148577
-0.159632
-0.144610
-0.102779
-0.056789
-0.008619
0.033647
0.075968
0.096480
0.103819
0.111458
0.088674
0.086588
0.051822
0.036260
-0.000225
-0.053015
-0.086008
-0.128893
-0.152046
-0.167078
-0.157885
-0.132825
-0.082112
-0.058687
0.008749
0.045141
0.086918
0.131694
0.130651
0.125284
0.112335
0.107621
0.084656
0.029727
-0.023645
-0.079383
-0.103434
-0.116315
-0.147025
-0.193450
-0.185006
-0.151508
-0.103768
-0.069919
-0.007800
0.030603
0.085060
0.143595
0.175330
0.164503
0.143408
0.133506
0.106486
0.061548
0.006339
-0.045890
-0.088346
-0.108807
-0.114117
-0.106780
-0.115698
-0.100244
-0.094153
-0.046765
-0.005813
0.077095
0.119812
0.148896
0.165228
0.177543
0.150638
0.131285
0.098465
0.071106
0.043978
-0.001910
-0.049572
-0.092262
-0.096030
-0.098716
-0.088868
-0.064908
-0.021029
0.000259
0.056902
0.099237
0.142912
0.181529
0.199705
0.196402
0.201419
0.186840
0.152606
0.112699
0.078881
0.015270
-0.030756
-0.034710
-0.063874
-0.120928
-0.061745
-0.064144
-0.029792
0.041682
0.094884
0.139279
0.195867
0.229268
0.234101
0.237026
0.235961
0.227560
0.209968
0.187894
0.122777
0.043317
0.009892
-0.016158
-0.029943
-0.036847
-0.013280
-0.011655
0.006992
0.045628
0.103531
0.124270
0.149704
0.206595
0.240040
0.261631
0.275478
0.241674
0.197695
0.147400
0.102554
0.059688
0.018519
-0.015504
-0.048941
-0.046346
-0.051322
-0.010577
0.012823
0.069182
0.122089
0.153696
0.182708
0.235220
0.243577
0.245572
0.231645
0.213920
0.177997
0.124622
0.077959
0.054072
0.004536
-0.045914
-0.078814
-0.103384
-0.105651
-0.076018
-0.035204
0.011110
0.062821
0.103260
0.148481
0.202911
0.204910
0.218343
0.202768
0.188301
0.148432
0.099223
0.032137
-0.009882
-0.048906
-0.083165
-0.106220
-0.115544
-0.124628
-0.111332
-0.095177
-0.050151
0.008307
0.065076
0.097065
0.122520
0.149740
0.162786
0.123215
0.108162
0.082018
0.048790
0.005994
-0.059842
-0.098464
-0.130648
-0.155733
-0.143323
-0.122602
-0.104913
-0.092607
-0.057611
-0.001455
0.054606
0.109745
0.105376
0.099397
0.088281
0.107162
0.132182
0.129964
0.074931
-0.018291
-0.094927
-0.125609
-0.140967
-0.157491
-0.171353
-0.175065
-0.155395
-0.110194
-0.061889
-0.038906
0.012305
0.097942
0.137785
0.145467
0.141793
0.130998
0.100400
0.049076
0.046948
0.001839
-0.062654
-0.108187
-0.148419
-0.160791
-0.185959
-0.194685
-0.179967
-0.116465
-0.084332
-0.038548
0.018786
0.070651
0.107978
0.131021
0.126657
0.117911
0.098913
0.078879
0.047348
0.014114
-0.044787
-0.109311
-0.145940
-0.173509
-0.180977
-0.159327
-0.140298
-0.103794
-0.063642
-0.006140
0.045871
0.075916
0.103051
0.106953
0.137138
0.124552
0.109936
0.075648
0.040404
-0.013061
-0.064997
-0.096524
-0.153983
-0.177042
-0.171213
-0.166568
-0.154485
-0.085810
-0.050951
-0.019609
0.038136
0.085863
0.153298
0.146576
0.157440
0.151104
0.145454
0.092347
0.037413
-0.017483
-0.045510
-0.090861
-0.140682
-0.167168
-0.151123
-0.144424
-0.136524
-0.100279
-0.055291
-0.013604
0.025054
0.069371
0.116534
0.134031
0.149286
0.141007
0.108296
0.074368
0.081528
0.034052
-0.030381
-0.109084
-0.144905
-0.178681
-0.184184
-0.156491
-0.144540
-0.111414
-0.045340
-0.002141
0.037752
0.084395
0.109926
0.155731
0.148839
0.105672
0.074957
0.049819
0.054161
-0.011122
-0.050731
-0.101739
-0.124998
-0.155111
-0.170221
-0.170127
-0.157268
-0.089513
-0.039264
-0.003950
0.020224
0.053742
0.105086
0.124616
0.137233
0.125564
0.101820
0.069807
0.030051
-0.026211
-0.061993
-0.104281
-0.152948
-0.194031
-0.198257
-0.173347
-0.142811
-0.124638
-0.084795
-0.031132
-0.000094
0.066141
0.102473
0.108969
0.138875
0.125202
0.110640
0.057926
0.030054
0.014457
-0.043654
-0.081321
-0.135257
-0.163492
-0.189301
-0.177802
-0.171275
-0.122775
-0.076363
-0.024000
0.008909
0.048529
0.087250
0.105948
0.104950
0.108111
0.094999
0.059844
0.014484
-0.032535
-0.095820
-0.131636
-0.173099
-0.177863
-0.156975
-0.143383
-0.122324
-0.097315
-0.061091
-0.013774
0.035684
0.069727
0.119244
0.129608
0.126578
0.099538
0.071002
0.052271
0.004254
-0.050096
-0.092658
-0.141516
-0.167101
-0.178597
-0.187040
-0.187744
-0.167699
-0.115764
-0.059410
-0.043273
0.013768
0.071001
0.101491
0.124705
0.146783
0.120504
0.101127
0.066695
0.024479
-0.020352
-0.067451
-0.101133
-0.134763
-0.167552
-0.188537
-0.192670
-0.160191
-0.130616
-0.102875
-0.064859
0.000335
0.051398
0.075448
0.086741
0.110085
0.110275
0.110520
0.105691
0.053172
-0.017121
-0.070648
-0.106992
-0.122024
-0.134172
-0.147205
-0.144693
-0.125854
-0.076719
-0.048724
-0.007351
0.046822
0.075293
0.119329
0.151650
0.165449
0.153578
0.113300
0.059626
0.027959
0.050536
-0.003598
-0.079559
-0.124857
-0.157810
-0.179413
-0.142585
-0.104706
-0.082776
-0.062514
-0.002784
0.054977
0.101510
0.145150
0.175798
0.173824
0.174684
0.169219
0.124750
0.063515
0.024567
-0.015424
-0.049414
-0.081285
-0.103139
-0.112099
-0.118937
-0.100676
-0.070546
-0.035203
0.009248
0.068204
0.105019
0.132406
0.144171
0.157946
0.144426
0.106679
0.091832
0.076291
0.013803
-0.037965
-0.107294
-0.152250
-0.176595
-0.162805
-0.142752
-0.116841
-0.111234
-0.061239
0.003857
0.066444
0.097924
0.102159
0.105104
0.109435
0.085235
0.067275
0.050246
0.021754
-0.033453
-0.075255
-0.127799
-0.192910
-0.202389
-0.196232
-0.181902
-0.165044
-0.139255
-0.101905
-0.051870
0.017136
0.090290
0.126277
0.115938
0.100626
0.081719
0.074824
0.094133
0.058910
-0.016568
-0.105479
-0.150589
-0.181793
-0.184036
-0.201299
-0.208400
-0.182524
-0.158472
-0.115400
-0.054163
-0.009852
0.018576
0.056661
0.084889
0.097097
0.095242
0.064483
0.035409
0.003637
-0.060087
-0.072011
-0.102268
-0.154384
-0.191526
-0.187585
-0.208334
-0.201188
-0.147419
-0.087260
-0.037041
0.024939
0.058857
0.067859
0.083200
0.081511
0.072610
0.056164
0.028133
-0.004587
-0.044249
-0.094858
-0.129743
-0.189739
-0.196409
-0.198869
-0.194570
-0.183526
-0.144562
-0.095429
-0.044404
0.005098
0.026058
0.064315
0.115644
0.131079
0.114122
0.040180
0.000411
-0.021208
-0.024420
-0.070770
-0.090116
-0.128843
-0.154592
-0.140110
-0.098236
-0.063753
-0.014779
0.034352
0.107037
0.141903
0.196004
0.256385
0.315276
0.377371
0.369474
0.378656
0.397711
0.399746
0.388080
0.366136
0.358666
0.359828
0.372404
0.391998
0.442114
0.507203
0.592192
0.659751
0.722815
0.802388
0.859603
0.905779
0.919471
0.932639
0.914645
0.858056
0.816028
0.752245
0.676964
0.585903
0.464045
0.369667
0.298295
0.204153
0.168678
0.154902
0.138431
0.162630
0.172920
0.207749
0.242320
0.268265
0.293476
0.291261
0.263696
0.223351
0.175366
0.127202
0.042352
-0.011629
-0.042439
-0.087259
-0.111211
-0.108762
-0.111565
-0.104354
-0.088313
-0.040723
0.003591
0.035378
0.100601
0.139333
0.194105
0.183755
0.140603
0.141938
0.109530
0.051591
-0.026991
-0.042401
-0.064023
-0.098318
-0.125843
-0.161848
-0.152855
-0.139272
-0.124742
-0.091533
-0.036947
0.006504
0.074909
0.125523
0.134086
0.134360
0.143477
0.100746
0.067299
0.018746
-0.018467
-0.075708
-0.077814
-0.104759
-0.137770
-0.161007
-0.154041
-0.122370
-0.081542
-0.041196
0.026960
0.071521
0.106307
0.147572
0.175745
0.148324
0.129066
0.103695
0.068783
0.034784
-0.020714
-0.064732
-0.105737
-0.125470
-0.152305
-0.163286
-0.162784
-0.135853
-0.094139
-0.057110
-0.000808
0.067742
0.090321
0.129257
0.163472
0.190338
0.178433
0.156572
0.124799
0.098905
0.027834
-0.047837
-0.093808
-0.124875
-0.148992
-0.147580
-0.129985
-0.096520
-0.055123
-0.021713
0.020713
0.078619
0.124532
0.156666
0.163833
0.165619
0.183723
0.167978
0.118386
0.065091
0.058037
0.012975
-0.040729
-0.069201
-0.074550
-0.092359
-0.091503
-0.064772
-0.032909
0.004236
0.046973
0.104326
0.165247
0.202628
0.215515
0.226367
0.205278
0.197564
0.169914
0.147274
0.105474
0.051742
-0.021015
-0.041621
-0.043991
-0.062464
-0.056019
-0.038271
-0.019416
0.027026
0.081764
0.149206
0.203338
0.249428
0.273324
0.267859
0.247081
0.238926
0.218768
0.181426
0.120309
0.050188
0.017698
-0.010453
-0.027211
-0.046796
-0.031169
-0.007473
0.014562
0.049481
0.094513
0.150700
0.194177
0.223135
0.242370
0.252287
0.255286
0.241178
0.211293
0.177251
0.142751
0.087508
0.034754
-0.000613
-0.033481
-0.049850
-0.057890
-0.027638
0.037435
0.074731
0.099006
0.137767
0.175090
0.214869
0.248720
0.250550
0.242903
0.195493
0.147497
0.127308
0.094747
0.071670
0.026674
-0.015852
-0.074279
-0.127753
-0.117163
-0.048065
0.019190
0.048676
0.070737
0.113338
0.151822
0.183166
0.205785
0.204562
0.196974
0.177277
0.149528
0.093670
0.035729
-0.025438
-0.054118
-0.093576
-0.139969
-0.137434
-0.124338
-0.088231
-0.063050
-0.019442
0.012437
0.055643
0.102816
0.128549
0.150169
0.163348
0.171279
0.136926
0.109741
0.064549
0.013011
-0.019981
-0.055380
-0.117463
-0.154333
-0.146359
-0.133176
-0.117641
-0.070770
-0.046006
-0.022576
0.016559
0.066903
0.097047
0.117013
0.138867
0.138577
0.118955
0.094899
0.028657
-0.016069
-0.067852
-0.111308
-0.138819
-0.142443
-0.137748
-0.117227
-0.119860
-0.103634
-0.060803
0.001072
0.049063
0.081424
0.108192
0.112806
0.134991
0.128575
0.089113
0.057295
0.035297
-0.002423
-0.057982
-0.112187
-0.169152
-0.190989
-0.173868
-0.146144
-0.159500
-0.071313
-0.032317
-0.026402
0.022760
0.105591
0.125812
0.127140
0.163066
0.150544
0.106842
0.093370
0.053584
0.000076
-0.051774
-0.096416
-0.134476
-0.151302
-0.168449
-0.158935
-0.152477
-0.122811
-0.058748
-0.020104
0.024858
0.083657
0.111358
0.143943
0.179650
0.162468
0.110299
0.082966
0.060066
-0.000221
-0.049533
-0.087274
-0.119003
-0.133254
-0.141494
-0.144021
-0.129677
-0.099331
-0.037452
0.006733
0.060780
0.093521
0.124196
0.144936
0.150200
0.153367
0.135909
0.098397
0.039820
-0.013331
-0.059556
-0.099777
-0.142113
-0.163658
-0.167679
-0.149467
-0.139838
-0.116076
-0.085119
0.011724
0.073106
0.110210
0.137081
0.154754
0.154509
0.146599
0.144930
0.089649
0.036510
-0.010600
-0.043539
-0.098610
-0.149486
-0.161354
-0.175222
-0.160163
-0.131531
-0.114597
-0.061391
-0.014762
0.031938
0.086757
0.110108
0.112282
0.102781
0.098961
0.105781
0.096194
0.050840
0.003623
-0.028592
-0.062733
-0.117198
-0.157194
-0.176087
-0.166877
-0.140078
-0.113123
-0.050203
0.000787
0.029421
0.066756
0.105860
0.129923
0.139929
0.115627
0.105819
0.066764
0.032379
-0.021762
-0.081076
-0.106944
-0.148590
-0.172092
-0.180262
-0.162495
-0.143451
-0.095678
-0.064900
-0.028376
0.031127
0.094952
0.122022
0.136225
0.134908
0.132410
0.100374
0.067746
0.014870
-0.016216
-0.072210
-0.121780
-0.156333
-0.178641
-0.191532
-0.193009
-0.177210
-0.133120
-0.085131
-0.044126
0.012255
0.052186
0.098913
0.128888
0.139697
0.130200
0.099077
0.084518
0.058000
-0.009920
-0.081635
-0.138413
-0.165564
-0.170110
-0.158087
-0.153784
-0.129368
-0.101201
-0.095779
-0.064992
0.026646
0.084228
0.106537
0.112891
0.118031
0.134257
0.089827
0.040693
-0.002217
-0.050072
-0.082807
-0.117529
-0.152431
-0.172819
-0.189316
-0.174738
-0.132611
-0.115120
-0.054432
-0.026761
0.030604
0.064151
0.076906
0.084559
0.089676
0.104638
0.101051
0.090063
0.031725
-0.034483
-0.104725
-0.146907
-0.162063
-0.182354
-0.171221
-0.196108
-0.176698
-0.118350
-0.082476
-0.037258
0.007137
0.063953
0.096816
0.117408
0.118817
0.117418
0.096007
0.068612
0.032807
-0.035702
-0.088845
-0.134733
-0.143073
-0.131005
-0.144168
-0.154715
-0.166785
-0.132972
-0.084680
-0.043737
0.021349
0.061583
0.099313
0.118446
0.113843
0.092707
0.115021
0.078471
0.025521
-0.024330
-0.067013
-0.093209
-0.112959
-0.147823
-0.159960
-0.167446
-0.153349
-0.101250
-0.046347
0.010694
0.068073
0.101024
0.136153
0.155894
0.154561
0.142615
0.112742
0.091724
0.052098
-0.020441
-0.052863
-0.091070
-0.144609
-0.183821
-0.192442
-0.171910
-0.137348
-0.090195
-0.043355
0.016287
0.077170
0.098525
0.129396
0.180543
0.205629
0.199270
0.164651
0.130264
0.087730
0.039870
-0.009925
-0.066661
-0.098105
-0.125758
-0.136674
-0.131144
-0.118138
-0.077937
-0.057495
-0.031009
0.005833
0.082042
0.085441
0.113335
0.147543
0.134322
0.101390
0.077249
0.037131
-0.020778
-0.073441
-0.124213
-0.158227
-0.178265
-0.204585
-0.185154
-0.136599
-0.102746
-0.049444
-0.041612
0.044584
0.114247
0.121592
0.108178
0.087659
0.095697
0.083484
0.056458
0.006005
-0.048002
-0.099442
-0.143138
-0.184771
-0.221118
-0.232520
-0.221749
-0.208015
-0.168175
-0.102749
-0.044295
-0.014140
0.025284
0.058745
0.103199
0.110872
0.088955
0.056849
0.042353
0.013735
-0.037645
-0.075285
-0.138719
-0.181501
-0.210452
-0.175138
-0.165830
-0.170746
-0.146677
-0.129814
-0.096356
-0.025636
-0.003362
0.030538
0.051705
0.062398
0.071347
0.068701
0.034967
-0.019193
-0.064150
-0.113930
-0.160004
-0.188833
-0.227777
-0.210306
-0.182422
-0.146006
-0.133424
-0.104498
-0.068123
-0.024085
0.027028
0.067811
0.085411
0.086483
0.076113
0.065554
0.022992
-0.029492
-0.081088
-0.147580
-0.141500
-0.170990
-0.216664
-0.220155
-0.229723
-0.209858
-0.202398
-0.125716
-0.070853
-0.016559
0.041060
0.080551
0.097511
0.106207
0.117273
0.107655
0.062370
0.062158
0.018901
-0.008900
-0.037528
-0.063894
-0.078719
-0.072116
-0.037472
0.009160
0.050915
0.105017
0.195616
0.271957
0.338952
0.404074
0.486093
0.537983
0.569833
0.551562
0.533857
0.534645
0.555072
0.544383
0.567120
0.552506
0.533932
0.565998
0.596078
0.612832
0.650287
0.686792
0.710482
0.755721
0.802911
0.814080
0.807637
0.758071
0.670511
0.580008
0.490493
0.390219
0.306887
0.179075
0.095993
0.033693
-0.027158
-0.042632
-0.031367
-0.018279
-0.004856
0.043827
0.061886
0.103489
0.157135
0.186279
0.209552
0.214308
0.189297
0.163550
0.115415
0.072666
0.031696
-0.025566
-0.062642
-0.085247
-0.129971
-0.155310
-0.147486
-0.129662
-0.110760
-0.072025
-0.000894
0.006550
0.070347
0.103785
0.107564
0.119396
0.113521
0.098956
0.060361
0.017396
-0.032126
-0.086584
-0.109036
-0.151410
-0.170707
-0.175920
-0.174067
-0.135483
-0.102560
-0.075565
-0.019298
0.046047
0.076773
0.107106
0.103243
0.076258
0.085045
0.081301
0.052555
0.003999
-0.032563
-0.075074
-0.120963
-0.148540
-0.144979
-0.161502
-0.172047
-0.155185
-0.106437
-0.091554
-0.047343
0.002819
0.054894
0.100946
0.130157
0.176691
0.163677
0.118656
0.075362
0.027921
-0.009702
-0.052600
-0.116384
-0.116957
-0.149331
-0.169504
-0.149175
-0.126449
-0.086082
-0.059514
-0.017128
0.017099
0.082077
0.110322
0.126903
0.133546
0.163229
0.142328
0.096448
0.070662
0.009530
-0.059206
-0.106423
-0.117464
-0.126988
-0.149447
-0.141286
-0.111582
-0.073708
-0.023019
0.025878
0.071516
0.104127
0.146774
0.172529
0.175628
0.166399
0.123972
0.100793
0.068865
0.034630
-0.030378
-0.050338
-0.087900
-0.099204
-0.127245
-0.113351
-0.092057
-0.061436
-0.016902
0.037811
0.085134
0.158303
0.183389
0.216629
0.234488
0.233550
0.223377
0.179951
0.135690
0.085528
0.026095
-0.034715
-0.066975
-0.075813
-0.068148
-0.064956
-0.038912
0.011976
0.064789
0.077594
0.117579
0.171413
0.210239
0.224521
0.226553
0.208509
0.183925
0.169810
0.146503
0.101983
0.069100
0.039879
-0.012343
-0.057696
-0.067128
-0.046839
-0.037808
0.016647
0.058767
0.063886
0.131309
0.178334
0.221019
0.276093
0.299352
0.239980
0.211732
0.181064
0.113022
0.082892
0.052205
-0.008160
-0.043086
-0.085266
-0.093711
-0.088106
-0.075229
-0.036691
0.011181
0.062783
0.110965
0.152649
0.198699
0.241950
0.237230
0.227471
0.188673
0.148665
0.116789
0.076686
0.014297
-0.042733
-0.082793
-0.109845
-0.132549
-0.120947
-0.093187
-0.068782
-0.012163
0.041689
0.074004
0.084830
0.123882
0.147517
0.159716
0.156676
0.149433
0.121766
0.066869
0.031059
-0.022287
-0.084266
-0.110476
-0.138271
-0.137495
-0.145742
-0.132883
-0.095962
-0.041002
0.003282
0.055058
0.106075
0.120085
0.132267
0.143400
0.145905
0.126469
0.095735
0.020636
-0.041526
-0.088498
-0.106052
-0.115686
-0.147662
-0.171754
-0.183241
-0.167948
-0.139506
-0.093205
-0.028696
0.011677
0.047784
0.087497
0.126887
0.142171
0.133198
0.109102
0.063449
-0.003695
-0.062808
-0.088559
-0.097458
-0.150424
-0.195113
-0.184002
-0.166705
-0.129668
-0.112755
-0.099109
-0.052044
0.024124
0.051709
0.056825
0.084169
0.115211
0.114362
0.085056
0.052595
0.007016
-0.031819
-0.069397
-0.123905
-0.118765
-0.136741
-0.181580
-0.185099
-0.148553
-0.090691
-0.062775
-0.030855
0.009948
0.048376
0.108878
0.134657
0.119309
0.109044
0.055666
0.061192
0.017711
-0.028801
-0.093617
-0.133026
-0.160382
-0.159351
-0.155834
-0.176366
-0.159890
-0.110739
-0.075456
-0.028097
0.023036
0.063541
0.100942
0.139181
0.154348
0.132861
0.122749
0.086730
0.027502
-0.004610
-0.039365
-0.094623
-0.123243
-0.179691
-0.184356
-0.178416
-0.169515
-0.137887
-0.085501
-0.036339
0.051359
0.079717
0.094745
0.123789
0.120999
0.109179
0.112334
0.090054
0.033965
-0.001665
-0.049897
-0.090734
-0.140037
-0.161143
-0.162136
-0.154929
-0.142596
-0.096121
-0.057077
-0.031435
0.025192
0.067555
0.128165
0.152633
0.126969
0.120030
0.105140
0.053320
0.015016
-0.035967
-0.089764
-0.140738
-0.167662
-0.191723
-0.183552
-0.156926
-0.154553
-0.118951
-0.069122
-0.017318
0.014789
0.067390
0.087198
0.109054
0.124161
0.126187
0.106111
0.078174
0.022794
-0.049515
-0.087373
-0.113883
-0.154929
-0.164334
-0.193662
-0.202447
-0.178164
-0.136785
-0.086240
-0.055413
-0.007269
0.043058
0.107051
0.125796
0.120564
0.092905
0.071277
0.061146
0.017971
-0.024759
-0.080117
-0.111236
-0.131115
-0.170195
-0.192475
-0.185503
-0.146433
-0.105444
-0.070275
-0.029855
0.009821
0.046926
0.077398
0.094825
0.111386
0.122540
0.074085
0.015539
-0.020973
-0.063737
-0.104444
-0.112012
-0.104191
-0.167758
-0.185341
-0.187706
-0.170944
-0.135432
-0.101358
-0.054431
-0.001338
0.045329
0.095319
0.127909
0.130016
0.112376
0.111527
0.080259
0.035114
-0.015382
-0.084780
-0.138232
-0.185474
-0.211091
-0.224576
-0.207031
-0.181019
-0.143819
-0.112698
-0.060000
-0.020667
0.007918
0.078152
0.110377
0.107082
0.098873
0.086862
0.046276
-0.005152
-0.039174
-0.067254
-0.114552
-0.172515
-0.203153
-0.186978
-0.193002
-0.182055
-0.121255
-0.059034
-0.034536
0.028759
0.053137
0.073739
0.072377
0.093534
0.085567
0.074060
0.023556
-0.042197
-0.063293
-0.119791
-0.149815
-0.175979
-0.174909
-0.169941
-0.180385
-0.165447
-0.134141
-0.090457
-0.052011
0.005014
0.038553
0.083603
0.111031
0.113586
0.112154
0.083068
0.037172
0.010187
-0.035948
-0.091751
-0.096176
-0.149270
-0.185492
-0.210169
-0.202074
-0.164067
-0.134070
-0.089875
-0.049858
-0.012599
0.016677
0.053799
0.097795
0.109365
0.126033
0.113080
0.071984
0.030102
-0.004239
-0.044396
-0.089950
-0.121698
-0.160010
-0.181602
-0.168848
-0.116377
-0.114860
-0.094785
-0.015618
0.064548
0.105351
0.117662
0.125497
0.119977
0.118834
0.110197
0.052982
0.017773
-0.038078
-0.107378
-0.149662
-0.141504
-0.158796
-0.175397
-0.152794
-0.133992
-0.107501
-0.060184
-0.015898
0.076195
0.100798
0.125204
0.171385
0.207152
0.179169
0.157225
0.120911
0.077181
0.022508
0.006409
-0.054687
-0.094559
-0.141752
-0.163824
-0.162679
-0.150893
-0.118489
-0.079442
-0.034679
0.010584
0.054193
0.082080
0.102624
0.126604
0.140766
0.115266
0.061009
0.013324
-0.030932
-0.078617
-0.112067
-0.127052
-0.165239
-0.192563
-0.182398
-0.167895
-0.120285
-0.071363
-0.040676
-0.001933
0.023888
0.103910
0.152390
0.102037
0.049529
0.053809
0.004058
-0.039410
-0.079241
-0.102783
-0.145041
-0.180696
-0.202967
-0.213949
-0.215195
-0.187638
-0.119958
-0.098324
-0.063195
-0.026288
0.015842
0.066882
0.086275
0.085846
0.095177
0.073819
0.026180
-0.020342
-0.067995
-0.128155
-0.172643
-0.223274
-0.255017
-0.227393
-0.185210
-0.149243
-0.172995
-0.130118
-0.087254
-0.045929
0.010071
0.066455
0.082988
0.081941
0.077833
0.062029
0.028919
-0.008966
-0.047726
-0.091581
-0.146036
-0.195736
-0.218231
-0.215141
-0.204854
-0.181305
-0.156348
-0.119315
-0.056366
-0.008238
0.018145
0.042398
0.065568
0.078452
0.082354
0.064457
0.013329
-0.040125
-0.065107
-0.104508
-0.159265
-0.214388
-0.238492
-0.230396
-0.217898
-0.206998
-0.183612
-0.139073
-0.085597
-0.044129
0.021573
0.112594
0.155001
0.152863
0.159418
0.164863
0.144406
0.101292
0.046505
0.009532
-0.024452
-0.043823
-0.062934
-0.049102
-0.018799
0.036235
0.093991
0.140906
0.251189
0.344012
0.368395
0.438156
0.488637
0.535223
0.547569
0.573004
0.593540
0.577847
0.572830
0.539889
0.554707
0.576469
0.564296
0.545507
0.547381
0.553104
0.588175
0.616048
0.691489
0.702869
0.701660
0.691379
0.648230
0.578084
0.517069
0.437172
0.343628
0.251340
0.198074
0.128226
0.038490
-0.028395
-0.068076
-0.094077
-0.108259
-0.089852
-0.055605
-0.031155
0.018973
0.082440
0.123087
0.147363
0.179959
0.184515
0.180182
0.148853
0.115802
0.062086
0.007212
-0.047506
-0.089821
-0.128118
-0.155521
-0.162739
-0.140316
-0.118199
-0.105246
-0.081411
-0.056902
-0.022381
0.043669
0.122365
0.165074
0.148266
0.112038
0.099240
0.103802
0.047686
-0.037130
-0.063916
-0.097531
-0.135607
-0.176937
-0.184407
-0.168948
-0.142242
-0.119738
-0.083455
-0.017036
0.040749
0.072702
0.089782
0.115367
0.130989
0.112281
0.090491
0.052038
0.000333
-0.041090
-0.071640
-0.122868
-0.190090
-0.160932
-0.173182
-0.173204
-0.144254
-0.109710
-0.035113
-0.003115
0.008142
0.045396
0.104743
0.139339
0.128669
0.132874
0.118566
0.088851
0.066386
0.022657
-0.034226
-0.085997
-0.131789
-0.159481
-0.173532
-0.162277
-0.132484
-0.100637
-0.076899
-0.040451
0.016145
0.094010
0.117096
0.142544
0.160022
0.136207
0.110754
0.079254
0.065774
0.041522
0.008933
-0.051121
-0.088739
-0.137438
-0.144596
-0.137682
-0.122467
-0.079616
-0.031345
0.019422
0.058806
0.128025
0.173039
0.179443
0.182280
0.164881
0.136405
0.120505
0.073720
0.025607
-0.019759
-0.027034
-0.054860
-0.084445
-0.105669
-0.112262
-0.073189
-0.019688
0.022156
0.055210
0.107535
0.153620
0.212110
0.211679
0.224030
0.247119
0.192951
0.171530
0.131642
0.079434
0.033235
0.005479
-0.042759
-0.088213
-0.082620
-0.035189
-0.043045
-0.019839
0.011057
0.065514
0.135905
0.175292
0.213957
0.236187
0.241965
0.230710
0.226526
0.177664
0.167266
0.128424
0.078065
0.030024
-0.010821
-0.035083
-0.042925
-0.040210
-0.007118
0.028107
0.066650
0.096133
0.142988
0.163110
0.204213
0.223087
0.228434
0.219402
0.204251
0.165457
0.114293
0.067232
0.039061
0.005421
-0.039211
-0.062844
-0.057701
-0.059374
-0.052078
-0.032451
0.007646
0.058759
0.143487
0.173589
0.192598
0.229310
0.292825
0.253966
0.213134
0.155501
0.118045
0.069800
0.007670
-0.061144
-0.085097
-0.085705
-0.075761
-0.099538
-0.087112
-0.068845
-0.038524
-0.002657
0.055562
0.125490
0.143307
0.166271
0.172217
0.181362
0.167986
0.118428
0.072824
0.026388
-0.004173
-0.059272
-0.096262
-0.125645
-0.138091
-0.127250
-0.122982
-0.092796
-0.038460
-0.011734
0.026919
0.089762
0.098247
0.094851
0.160936
0.144270
0.103015
0.051369
0.026751
-0.025473
-0.085216
-0.140709
-0.158368
-0.133424
-0.150512
-0.171446
-0.142999
-0.123407
-0.087709
-0.023295
0.044050
0.084345
0.118070
0.141791
0.135719
0.120071
0.081299
0.033283
-0.000873
-0.028540
-0.062938
-0.090342
-0.116643
-0.138524
-0.148362
-0.177223
-0.167573
-0.141361
-0.096461
-0.044026
0.011114
0.054113
0.061370
0.069879
0.134629
0.142449
0.102012
0.077976
0.041577
-0.003133
-0.060637
-0.109703
-0.176821
-0.185604
-0.163737
-0.166351
-0.148291
-0.108426
-0.061497
-0.033307
0.018284
0.061746
0.095078
0.131762
0.139527
0.130754
0.106905
0.063536
0.023482
-0.021364
-0.082860
-0.110127
-0.111741
-0.155172
-0.193343
-0.191761
-0.173674
-0.111565
-0.065458
-0.024201
0.020613
0.060803
0.105385
0.128846
0.138743
0.127431
0.140675
0.094377
0.032564
-0.015829
-0.058693
-0.112251
-0.142100
-0.177582
-0.182890
-0.178882
-0.150170
-0.110120
-0.073104
-0.044595
-0.012970
0.034003
0.070516
0.104287
0.120774
0.096983
0.080306
0.097058
0.069758
0.018147
-0.017217
-0.091729
-0.120151
-0.148001
-0.133695
-0.157957
-0.145967
-0.106378
-0.045808
-0.008786
0.026937
0.070706
0.090448
0.087022
0.115322
0.104152
0.090094
0.054332
-0.001033
-0.051419
-0.068099
-0.101626
-0.158845
-0.187323
-0.181831
-0.170011
-0.142304
-0.102126
-0.061316
-0.019253
0.015796
0.063849
0.090420
0.111396
0.130470
0.120546
0.103994
0.080249
0.021482
-0.025851
-0.059450
-0.128599
-0.157512
-0.178274
-0.178584
-0.163516
-0.153972
-0.139412
-0.091557
-0.036947
-0.014414
0.028954
0.058632
0.084255
0.108845
0.102425
0.093131
0.062270
0.015119
-0.029565
-0.074575
-0.111787
-0.132995
-0.154401
-0.157893
-0.161529
-0.162618
-0.125417
-0.085366
-0.045058
0.008445
0.036171
0.058359
0.076320
0.098283
0.118728
0.074946
0.043899
0.010965
-0.043094
-0.094361
-0.136290
-0.169970
-0.174808
-0.200551
-0.223678
-0.198427
-0.129386
-0.105046
-0.028698
-0.000016
0.060299
0.075511
0.079764
0.114590
0.119366
0.083942
0.050046
0.004822
-0.042516
-0.090837
-0.127246
-0.165213
-0.187197
-0.177032
-0.185552
-0.166860
-0.145583
-0.098273
-0.053925
0.003136
0.059747
0.063733
0.070665
0.115888
0.141902
0.125201
0.066423
-0.004698
-0.058760
-0.082447
-0.119458
-0.165566
-0.188808
-0.190921
-0.182004
-0.148586
-0.109892
-0.105623
-0.051223
-0.007528
0.029892
0.048276
0.070252
0.096350
0.085076
0.077624
0.055244
0.002291
-0.040174
-0.092208
-0.155642
-0.194127
-0.200593
-0.169643
-0.146268
-0.157470
-0.125229
-0.081874
-0.029744
0.021470
0.058952
0.087558
0.103196
0.100901
0.096751
0.104444
0.066886
0.018136
-0.019239
-0.060663
-0.096267
-0.121649
-0.163046
-0.178661
-0.183304
-0.140279
-0.121076
-0.067215
-0.028063
0.000547
0.055283
0.115542
0.135053
0.147034
0.152581
0.122341
0.077442
0.036141
-0.016729
-0.055695
-0.081801
-0.113196
-0.157248
-0.153277
-0.162903
-0.151984
-0.101073
-0.052850
-0.016055
0.013204
0.080268
0.143207
0.152591
0.159959
0.172870
0.156544
0.110857
0.062909
0.007535
-0.047815
-0.086778
-0.113944
-0.143442
-0.160585
-0.130716
-0.102818
-0.083661
-0.040022
-0.015168
0.037580
0.102144
0.120047
0.130536
0.135583
0.120984
0.101753
0.053244
-0.000597
-0.043650
-0.082765
-0.141276
-0.180900
-0.193731
-0.200271
-0.187934
-0.182276
-0.157345
-0.071063
-0.041955
-0.009818
0.030176
0.051706
0.058430
0.090311
0.079025
0.096492
0.054777
-0.005934
-0.053566
-0.095753
-0.144491
-0.166245
-0.173802
-0.198078
-0.206524
-0.202897
-0.158765
-0.146972
-0.107167
-0.038084
-0.013997
0.049635
0.073975
0.095268
0.074623
0.042272
0.015772
-0.034970
-0.093674
-0.131337
-0.155427
-0.170758
-0.194425
-0.198518
-0.185963
-0.179255
-0.138903
-0.109855
-0.059382
-0.023235
0.021249
0.060228
0.094377
0.083194
0.085345
0.078156
0.023064
-0.014184
-0.069353
-0.121848
-0.190198
-0.192809
-0.199817
-0.228326
-0.230024
-0.196149
-0.147453
-0.120262
-0.065374
-0.028388
0.008456
0.062333
0.092611
0.090776
0.089319
0.063814
0.024653
-0.006984
-0.040337
-0.099292
-0.151142
-0.171061
-0.214509
-0.249066
-0.233022
-0.216424
-0.182051
-0.135561
-0.080918
-0.039610
0.006781
0.039766
0.084180
0.115793
0.129418
0.137632
0.112348
0.095791
0.065874
0.029333
-0.010134
-0.033892
-0.037857
-0.028482
0.003246
0.047105
0.113071
0.190142
0.254706
0.313430
0.398601
0.471699
0.524162
0.649302
0.632559
0.603931
0.570385
0.564411
0.556946
0.595700
0.595475
0.559229
0.539238
0.528121
0.523311
0.570471
0.605743
0.621473
0.650526
0.700679
0.718867
0.673447
0.618550
0.566688
0.496818
0.423688
0.337976
0.274383
0.186628
0.087332
0.017148
-0.030186
-0.070930
-0.100100
-0.086585
-0.084719
-0.069063
-0.042392
0.014138
0.061602
0.096775
0.125691
0.162372
0.174868
0.151268
0.135845
0.092363
0.040974
0.000932
-0.041209
-0.083528
-0.132332
-0.151302
-0.161799
-0.153589
-0.134375
-0.088929
-0.031520
0.004993
0.037832
0.072596
0.106583
0.135535
0.152132
0.124780
0.097159
0.064819
0.012712
-0.047813
-0.116643
-0.152352
-0.144660
-0.168255
-0.182133
-0.178169
-0.162912
-0.121069
-0.081487
-0.052418
-0.006243
0.061085
0.110861
0.163247
0.181118
0.154437
0.084903
0.061219
0.006452
-0.012202
-0.023788
-0.067766
-0.117513
-0.162884
-0.181905
-0.178291
-0.162696
-0.119165
-0.087702
-0.035172
0.019416
0.063734
0.099857
0.119434
0.135134
0.128129
0.109531
0.076348
0.041357
-0.010591
-0.045232
-0.086164
-0.114759
-0.148593
-0.143275
-0.156921
-0.143746
-0.118889
-0.061670
0.007899
0.039763
0.091828
0.121533
0.141056
0.147950
0.154480
0.140548
0.116132
0.087769
0.028717
-0.028269
-0.070386
-0.107372
-0.143070
-0.162893
-0.146927
-0.125799
-0.088738
-0.036593
0.036285
0.085249
0.127896
0.178363
0.211252
0.217893
0.193392
0.176129
0.153373
0.097139
0.049512
0.002053
-0.049480
-0.073238
-0.096216
-0.118325
-0.113263
-0.081261
-0.028292
0.022801
0.078390
0.122877
0.155324
0.177306
0.192934
0.211117
0.216418
0.192921
0.154966
0.105161
0.047522
0.037654
0.028458
-0.018947
-0.056805
-0.039388
-0.023880
-0.011024
0.020261
0.079137
0.118130
0.153642
0.196514
0.196972
0.241899
0.263749
0.231677
0.204873
0.185946
0.142119
0.123185
0.072740
0.010714
-0.029909
-0.062780
-0.072876
-0.074436
-0.030530
-0.001276
0.023614
0.088817
0.143176
0.182995
0.211414
0.254030
0.256995
0.241576
0.216473
0.176847
0.133880
0.086239
0.043716
0.017116
-0.035110
-0.056844
-0.082055
-0.045485
-0.020897
-0.025028
0.005038
0.051443
0.109757
0.152710
0.182572
0.192671
0.213933
0.217693
0.197961
0.172516
0.125662
0.079538
0.009121
-0.028270
-0.064462
-0.091295
-0.094395
-0.095159
-0.075265
-0.042443
-0.013667
0.016883
0.066498
0.117763
0.174216
0.244629
0.221675
0.167201
0.126135
0.088934
0.050298
0.013378
-0.050412
-0.112221
-0.142521
-0.138465
-0.152581
-0.135372
-0.084591
-0.059450
-0.035912
-0.025538
-0.007580
0.070859
0.117260
0.158395
0.158563
0.132333
0.131112
0.089985
0.034234
-0.012759
-0.053378
-0.105504
-0.145774
-0.166376
-0.169410
-0.166737
-0.151383
-0.142156
-0.086008
-0.026238
0.011916
0.068444
0.097278
0.116205
0.117397
0.103626
0.083443
0.060762
0.062110
0.031337
-0.055235
-0.131417
-0.155305
-0.178157
-0.188445
-0.168417
-0.141005
-0.103128
-0.057346
-0.007567
0.022733
0.046679
0.072915
0.100828
0.127875
0.135302
0.107435
0.059405
0.014412
-0.043937
-0.079089
-0.120825
-0.144143
-0.170269
-0.187934
-0.189462
-0.163791
-0.108166
-0.070961
-0.033981
0.013633
0.067114
0.099727
0.113310
0.134243
0.179732
0.144435
0.087693
0.030535
-0.006012
-0.041020
-0.114602
-0.138036
-0.146787
-0.169364
-0.169495
-0.143247
-0.134724
-0.104266
-0.038311
0.028959
0.063471
0.092743
0.117348
0.109253
0.146205
0.144161
0.078739
0.019602
-0.018005
-0.030830
-0.096615
-0.145450
-0.147722
-0.163417
-0.156099
-0.142257
-0.103183
-0.056452
-0.003373
0.040234
0.109189
0.149585
0.142822
0.139535
0.119111
0.111219
0.072319
0.038453
-0.016237
-0.062817
-0.082645
-0.132112
-0.176252
-0.191128
-0.181956
-0.167812
-0.112693
-0.065803
-0.036067
0.032769
0.095686
0.130999
0.133957
0.142319
0.136919
0.112134
0.079977
0.044463
-0.017954
-0.058285
-0.111761
-0.153776
-0.178571
-0.185947
-0.174324
-0.142571
-0.123827
-0.107221
-0.037300
0.006631
0.046375
0.110677
0.123031
0.134047
0.141939
0.110625
0.066867
0.015125
-0.037755
-0.087149
-0.105637
-0.138897
-0.136157
-0.154047
-0.147231
-0.112939
-0.105242
-0.062481
-0.033021
0.011816
0.064760
0.083879
0.116930
0.126806
0.112888
0.083008
0.062210
0.011291
-0.032347
-0.088528
-0.128168
-0.167733
-0.206565
-0.216160
-0.209076
-0.149284
-0.114086
-0.073444
-0.010792
0.044917
0.077613
0.082380
0.095792
0.142866
0.129485
0.105156
0.092739
0.029602
-0.035936
-0.075978
-0.118415
-0.149563
-0.189446
-0.212420
-0.192313
-0.168463
-0.136083
-0.085642
-0.042627
0.001240
0.044152
0.078578
0.098761
0.104783
0.085492
0.071207
0.046896
0.016134
-0.035383
-0.087291
-0.129574
-0.155335
-0.176870
-0.185776
-0.177137
-0.146125
-0.137153
-0.087223
-0.042181
-0.002271
0.040598
0.074086
0.087421
0.085154
0.073106
0.111477
0.102156
0.049200
-0.008217
-0.087480
-0.149626
-0.193300
-0.189371
-0.171740
-0.185093
-0.176792
-0.139903
-0.097748
-0.066120
-0.001651
0.054837
0.076734
0.124609
0.121437
0.105831
0.106353
0.069545
0.021109
-0.022164
-0.068328
-0.109008
-0.145985
-0.170573
-0.188261
-0.155743
-0.117779
-0.079786
-0.067552
-0.021178
0.034063
0.064165
0.098799
0.149133
0.162088
0.125202
0.097947
0.078512
0.017932
0.004065
-0.038446
-0.081525
-0.106645
-0.137318
-0.146388
-0.151198
-0.135481
-0.101364
-0.054120
-0.005385
0.045159
0.078492
0.118008
0.148677
0.161674
0.152744
0.148106
0.109236
0.048478
-0.009554
-0.038654
-0.084042
-0.123941
-0.153072
-0.165147
-0.162396
-0.138352
-0.101322
-0.059619
-0.013166
0.046886
0.134935
0.197095
0.172963
0.147258
0.151481
0.142763
0.121274
0.052366
-0.016729
-0.028781
-0.081952
-0.149318
-0.180192
-0.169182
-0.163396
-0.153531
-0.110219
-0.067528
-0.021208
0.012824
0.035896
0.075251
0.106953
0.108427
0.112746
0.068706
0.044790
0.037024
-0.011716
-0.071715
-0.118010
-0.163429
-0.193906
-0.201418
-0.197482
-0.170638
-0.118330
-0.088047
-0.053298
-0.002860
0.037518
0.074811
0.105803
0.100176
0.075561
0.069904
0.023347
-0.040691
-0.088701
-0.131337
-0.155664
-0.198737
-0.218970
-0.220701
-0.217424
-0.198395
-0.167449
-0.129910
-0.083959
-0.030526
0.027018
0.058618
0.091542
0.106407
0.091172
0.071290
0.021994
-0.018509
-0.055433
-0.114825
-0.151608
-0.157983
-0.166617
-0.187053
-0.188693
-0.155689
-0.125486
-0.097359
-0.085232
-0.046688
0.001466
0.061830
0.081147
0.103712
0.086857
0.057555
0.026951
-0.028257
-0.058861
-0.104350
-0.160552
-0.213315
-0.225559
-0.215201
-0.165417
-0.128279
-0.132401
-0.133782
-0.082333
-0.015598
0.015814
0.050226
0.070168
0.066194
0.061817
0.043689
0.010456
-0.044242
-0.091514
-0.124683
-0.130947
-0.151177
-0.170152
-0.166988
-0.138554
-0.120410
-0.042713
0.005486
0.041330
0.088419
0.172115
0.265865
0.287914
0.293424
0.300961
0.307702
0.307151
0.313728
0.309845
0.304408
0.294568
0.270610
0.274264
0.267887
0.311397
0.388365
0.446614
0.543562
0.627252
0.709475
0.787828
0.862829
0.880543
0.877257
0.870281
0.852799
0.794050
0.725435
0.642230
0.625532
0.545039
0.452392
0.365687
0.283424
0.216060
0.200815
0.166773
0.170338
0.171883
0.184638
0.225740
0.238281
0.223543
0.216498
0.184291
0.178721
0.145018
0.125477
0.072609
-0.001390
-0.055310
-0.090122
-0.094866
-0.115227
-0.129858
-0.109725
-0.089559
-0.034936
0.004752
0.059061
0.094556
0.129051
0.149565
0.137881
0.143691
0.116013
0.074773
0.033541
-0.009458
-0.059157
-0.088252
-0.130123
-0.166004
-0.166390
-0.171576
-0.163511
-0.147185
-0.102716
-0.059748
-0.008942
0.036726
0.082167
0.131213
0.132835
0.125703
0.092972
0.038782
-0.002617
-0.053682
-0.099760
-0.094126
-0.133718
-0.145313
-0.160886
-0.155886
-0.111199
-0.082948
-0.048996
-0.013342
0.015437
0.056742
0.096566
0.109118
0.099326
0.069588
0.080783
0.058521
0.023130
-0.035159
-0.081124
-0.106715
-0.104259
-0.132833
-0.169652
-0.167518
-0.138495
-0.062442
-0.034090
-0.016684
0.033207
0.084155
0.106812
0.130111
0.144938
0.136134
0.115789
0.080710
0.038970
0.011461
-0.042013
-0.077691
-0.093532
-0.127232
-0.138860
-0.133417
-0.133932
-0.099458
-0.049552
0.010051
0.049680
0.082402
0.117479
0.136748
0.153995
0.132867
0.128868
0.092613
0.061291
0.032585
-0.001765
-0.062796
-0.083731
-0.072711
-0.074937
-0.098277
-0.085783
-0.033204
0.023587
0.070444
0.112189
0.146999
0.199119
0.215742
0.225134
0.192643
0.157587
0.116876
0.078994
0.045546
0.008809
-0.047802
-0.090303
-0.110230
-0.090314
-0.092927
-0.084049
-0.044716
0.033218
0.084294
0.152813
0.186410
0.232049
0.259146
0.255488
0.231527
0.212620
0.168172
0.131749
0.089550
0.041081
0.030243
0.020809
-0.049102
-0.061389
-0.069826
-0.035089
-0.002156
0.034879
0.075434
0.132408
0.174861
0.207496
0.226728
0.234111
0.221449
0.207082
0.204375
0.171047
0.099584
0.027623
0.016312
-0.018695
-0.036091
-0.050484
-0.063027
-0.062916
-0.031613
0.026403
0.117744
0.158626
0.182287
0.193571
0.224479
0.223420
0.208062
0.168659
0.153532
0.124410
0.081173
0.032628
-0.012265
-0.067290
-0.082088
-0.091142
-0.105776
-0.086858
-0.054940
-0.006806
0.053924
0.092565
0.157372
0.204710
0.205663
0.186727
0.184944
0.194051
0.134285
0.070215
0.030919
-0.018615
-0.083849
-0.156490
-0.113597
-0.066226
-0.094677
-0.115134
-0.101305
-0.057715
-0.015786
0.026639
0.064758
0.126567
0.153521
0.138988
0.111097
0.088199
0.078368
0.044454
-0.002791
-0.028197
-0.069788
-0.128021
-0.137717
-0.151518
-0.149642
-0.135902
-0.108421
-0.074219
-0.032136
0.030125
0.051425
0.070054
0.126864
0.124690
0.113785
0.076809
0.047730
0.021004
-0.036178
-0.094221
-0.137872
-0.176492
-0.185743
-0.172655
-0.167914
-0.137937
-0.105695
-0.071345
-0.026640
0.017585
0.046034
0.096327
0.136682
0.169160
0.154084
0.123485
0.055246
0.011049
-0.035053
-0.085209
-0.123851
-0.161700
-0.190344
-0.189249
-0.170400
-0.133484
-0.100900
-0.088264
-0.061296
-0.009665
0.022222
0.077522
0.123979
0.141795
0.128037
0.113709
0.078937
0.017911
0.018853
-0.041010
-0.114780
-0.149616
-0.176413
-0.177519
-0.173030
-0.148725
-0.106446
-0.068967
-0.025854
0.024247
0.048615
0.075149
0.076387
0.114518
0.132453
0.104250
0.063612
0.024660
-0.026350
-0.070404
-0.078769
-0.141741
-0.161665
-0.187016
-0.171854
-0.141799
-0.099198
-0.084412
-0.042832
0.021752
0.060930
0.113389
0.163373
0.160655
0.149771
0.103850
0.073462
0.039401
-0.010542
-0.056765
-0.096910
-0.148415
-0.172069
-0.181540
-0.180960
-0.160295
-0.137582
-0.074393
-0.010910
0.041549
0.077748
0.147286
0.176142
0.139246
0.100705
0.088130
0.072032
0.025960
-0.009162
-0.055958
-0.104885
-0.138505
-0.158230
-0.167529
-0.162751
-0.144299
-0.117253
-0.078392
-0.006557
0.076943
0.107174
0.079428
0.084170
0.123963
0.123396
0.115649
0.058160
0.008537
-0.042885
-0.077682
-0.116391
-0.154959
-0.180689
-0.207680
-0.172540
-0.128543
-0.124330
-0.075518
-0.012938
0.013540
0.055726
0.110668
0.127400
0.133178
0.115713
0.102739
0.081319
0.022975
-0.021956
-0.088150
-0.133426
-0.163526
-0.179978
-0.193155
-0.201838
-0.188430
-0.154210
-0.110990
-0.059422
-0.003623
0.070775
0.138410
0.146527
0.121539
0.108038
0.092622
0.067116
0.004601
-0.036993
-0.056902
-0.111164
-0.153993
-0.176586
-0.181077
-0.177183
-0.171216
-0.142875
-0.094390
-0.044878
-0.004750
0.032410
0.073581
0.101395
0.107364
0.096582
0.073528
0.042532
0.003215
-0.038527
-0.084022
-0.127253
-0.148822
-0.150832
-0.161090
-0.176967
-0.166311
-0.142792
-0.107939
-0.021795
0.023690
0.046184
0.076102
0.099435
0.093499
0.096115
0.071358
0.055089
-0.006162
-0.065870
-0.065886
-0.106018
-0.171790
-0.211736
-0.200196
-0.173763
-0.188763
-0.117137
-0.089912
-0.051767
-0.005056
0.026825
0.055092
0.149099
0.152572
0.123125
0.075944
0.052902
0.014553
-0.027863
-0.059124
-0.115649
-0.173233
-0.223407
-0.229745
-0.196586
-0.152792
-0.087560
-0.063365
-0.038262
-0.018743
0.022050
0.069889
0.095696
0.118163
0.116360
0.086987
0.055426
0.016219
-0.035136
-0.078993
-0.118309
-0.165064
-0.186714
-0.162788
-0.152862
-0.121027
-0.087862
-0.040044
-0.001235
0.047591
0.100592
0.127112
0.139353
0.146750
0.141586
0.108965
0.067755
0.030008
-0.011354
-0.068642
-0.109169
-0.131984
-0.150024
-0.162981
-0.166684
-0.148624
-0.120871
-0.080601
-0.016306
0.038822
0.090030
0.129039
0.156365
0.165091
0.176343
0.155650
0.127261
0.073485
0.029685
-0.010695
-0.060268
-0.100435
-0.145566
-0.100008
-0.101637
-0.114020
-0.094351
-0.064135
-0.003254
0.030574
0.063566
0.095520
0.120732
0.117724
0.127205
0.131958
0.083507
0.022350
-0.030781
-0.068101
-0.091859
-0.111487
-0.148729
-0.150880
-0.139207
-0.111829
-0.117232
-0.089303
-0.045798
0.014995
0.035858
0.060060
0.098084
0.107704
0.090040
0.065214
0.040139
0.003197
-0.029359
-0.100087
-0.144652
-0.168357
-0.194081
-0.202368
-0.188097
-0.180159
-0.161156
-0.107659
-0.057492
-0.002256
0.042688
0.082966
0.106307
0.105131
0.081328
0.046930
0.012538
-0.025058
-0.051395
-0.104467
-0.145433
-0.175826
-0.221260
-0.258273
-0.254291
-0.219630
-0.184294
-0.133136
-0.077477
0.013385
0.058435
0.083773
0.098904
0.102598
0.082401
0.055814
0.025614
-0.007574
-0.046506
-0.094612
-0.148208
-0.177264
-0.204251
-0.225294
-0.204842
-0.195823
-0.143876
-0.081985
-0.035935
-0.021782
-0.005618
0.048540
0.078378
0.078620
0.074741
0.050826
0.007310
-0.032843
-0.070934
-0.112959
-0.159992
-0.194278
-0.232004
-0.229296
-0.196470
-0.166933
-0.147593
-0.094937
-0.050381
-0.009199
0.016794
0.039200
0.055302
0.059369
0.053531
0.048953
0.023367
-0.016289
-0.042684
-0.070690
-0.099939
-0.132119
-0.115402
-0.125290
-0.110325
-0.059541
-0.032132
0.022585
0.083871
0.148449
0.207010
0.254115
0.313878
0.357667
0.384887
0.418669
0.402432
0.386084
0.414976
0.401993
0.379339
0.363050
0.380580
0.409503
0.459803
0.515977
0.557303
0.658372
0.742698
0.796486
0.832517
0.856585
0.901942
0.902110
0.888215
0.849522
0.794974
0.711161
0.598684
0.488191
0.379377
0.294242
0.196893
0.130777
0.087065
0.079904
0.097123
0.118568
0.162025
0.203283
0.213170
0.226366
0.236117
0.247222
0.221201
0.201304
0.147852
0.075192
0.040538
-0.017028
-0.091350
-0.119660
-0.127036
-0.136671
-0.158156
-0.137146
-0.104425
-0.063039
-0.026116
0.046215
0.109251
0.139474
0.141752
0.142877
0.133646
0.126576
0.093195
0.046676
-0.005411
-0.048843
-0.096084
-0.155491
-0.158874
-0.157343
-0.163586
-0.135725
-0.110192
-0.086255
-0.045300
-0.004243
0.047802
0.100370
0.131073
0.125959
0.108247
0.092076
0.092686
0.022099
-0.006886
-0.046881
-0.120788
-0.171347
-0.185123
-0.180001
-0.158699
-0.146013
-0.121268
-0.077330
-0.052783
0.021975
0.089694
0.145103
0.176713
0.155306
0.141542
0.127465
0.070012
0.038229
-0.020288
-0.058851
-0.097378
-0.141983
-0.165164
-0.166188
-0.175989
-0.138214
-0.126184
-0.075508
-0.036838
0.023961
0.089316
0.132101
0.133283
0.134841
0.142838
0.117746
0.085822
0.072257
0.031691
-0.037295
-0.084833
-0.118327
-0.135564
-0.131243
-0.089714
-0.067723
-0.054558
-0.035344
0.026168
0.058786
0.085425
0.117835
0.140560
0.154889
0.150822
0.145919
0.116841
0.076798
0.028818
-0.020872
-0.053516
-0.084089
-0.100862
-0.115176
-0.113855
-0.075399
-0.052274
-0.011776
0.060294
0.118800
0.164227
0.185868
0.200447
0.214805
0.193796
0.183747
0.154359
0.108133
0.064429
0.045124
0.010281
-0.014734
-0.043601
-0.071028
-0.069992
-0.062992
-0.028777
0.012669
0.067755
0.123753
0.188881
0.232481
0.235788
0.272897
0.282217
0.243340
0.196185
0.153557
0.102037
0.047587
0.013153
-0.015064
-0.043761
-0.042911
-0.016441
0.000724
0.021462
0.042082
0.087132
0.164817
0.190971
0.190000
0.213464
0.260268
0.259112
0.231859
0.182411
0.139006
0.099567
0.041070
-0.001307
-0.024428
-0.053741
-0.056735
-0.063842
-0.051470
-0.023774
0.031907
0.106730
0.146115
0.189475
0.211568
0.235780
0.248825
0.220129
0.190516
0.157087
0.130731
0.087576
0.034158
-0.027142
-0.061639
-0.094566
-0.108985
-0.105149
-0.086862
-0.043455
-0.006766
0.025671
0.098417
0.171016
0.196650
0.198242
0.181209
0.169889
0.157875
0.132405
0.102696
0.043136
-0.019277
-0.069412
-0.102089
-0.120145
-0.138969
-0.152874
-0.094806
-0.065573
-0.033327
-0.007645
0.045487
0.125642
0.150309
0.153850
0.145973
0.139708
0.090624
0.040970
0.033404
0.011183
-0.044598
-0.108408
-0.129494
-0.143577
-0.161276
-0.149596
-0.130739
-0.098485
-0.056286
-0.016569
0.024737
0.071804
0.115535
0.125847
0.123569
0.118552
0.121384
0.093080
0.036376
-0.018102
-0.056373
-0.083833
-0.124617
-0.159586
-0.185630
-0.192844
-0.161413
-0.120347
-0.076102
-0.051747
-0.012890
0.033507
0.069004
0.119693
0.135760
0.117594
0.095125
0.073484
0.036617
-0.013981
-0.061879
-0.083497
-0.100212
-0.138711
-0.159008
-0.155388
-0.120678
-0.103872
-0.086485
-0.038269
0.001071
0.039918
0.113077
0.165098
0.158162
0.133035
0.090323
0.065905
0.021253
-0.023207
-0.066311
-0.106328
-0.135340
-0.149249
-0.159365
-0.161233
-0.169717
-0.134762
-0.086279
-0.049538
-0.009298
0.068782
0.112561
0.133559
0.150332
0.177358
0.181382
0.122447
0.026832
-0.022881
-0.052033
-0.093224
-0.119627
-0.156815
-0.175954
-0.183508
-0.107487
-0.082001
-0.069811
-0.030300
0.020645
0.063888
0.093333
0.120256
0.129362
0.139294
0.121974
0.095473
0.070924
0.024652
-0.048824
-0.098970
-0.138410
-0.137626
-0.148144
-0.152612
-0.135737
-0.108620
-0.076176
0.001726
0.069399
0.107619
0.120853
0.119199
0.132094
0.132965
0.103416
0.062345
0.005990
-0.029204
-0.074020
-0.092255
-0.126758
-0.167160
-0.156781
-0.146931
-0.133884
-0.084589
-0.057783
-0.023087
0.033229
0.056332
0.073010
0.090067
0.135938
0.138952
0.108572
0.096694
0.071789
0.021084
-0.059916
-0.095355
-0.134403
-0.170941
-0.181684
-0.180862
-0.156990
-0.127600
-0.078712
-0.028090
0.015233
0.058835
0.095355
0.104049
0.109416
0.095783
0.116185
0.070014
0.028451
-0.025701
-0.061714
-0.086033
-0.150517
-0.175262
-0.170416
-0.127406
-0.112439
-0.110938
-0.083567
-0.033318
0.014759
0.067479
0.096740
0.122548
0.109020
0.104025
0.061279
0.070545
0.023163
-0.037968
-0.076761
-0.123621
-0.133895
-0.152245
-0.177961
-0.180477
-0.157509
-0.117322
-0.055916
-0.025812
0.026438
0.067520
0.088548
0.104030
0.117965
0.115720
0.092179
0.059210
0.051254
0.020808
-0.036481
-0.090221
-0.161459
-0.220754
-0.216900
-0.212182
-0.185425
-0.115291
-0.068338
-0.029581
-0.017217
0.041326
0.080860
0.106706
0.119279
0.112751
0.098414
0.057837
0.021599
-0.025201
-0.080397
-0.119074
-0.135897
-0.162819
-0.175185
-0.174206
-0.161422
-0.127812
-0.086393
-0.033159
0.010197
0.056056
0.088284
0.099053
0.131742
0.123484
0.101087
0.055086
-0.005850
-0.049332
-0.105537
-0.132000
-0.174355
-0.200215
-0.201584
-0.179463
-0.154427
-0.125136
-0.079241
-0.046303
0.014959
0.066365
0.083459
0.133732
0.141741
0.124380
0.097898
0.055159
-0.001900
-0.036652
-0.074956
-0.121350
-0.148388
-0.186209
-0.197839
-0.205726
-0.183739
-0.151039
-0.067114
-0.006395
0.068844
0.100724
0.100308
0.110841
0.095352
0.079144
0.074248
0.067685
0.051863
0.011153
-0.037377
-0.095335
-0.120238
-0.139823
-0.127043
-0.122712
-0.132913
-0.111907
-0.045557
0.000173
0.043060
0.067763
0.129122
0.137520
0.125178
0.136651
0.136330
0.099104
0.036355
-0.010076
-0.054573
-0.098254
-0.126056
-0.160811
-0.158604
-0.162599
-0.140075
-0.118423
-0.072454
0.013460
0.066674
0.104220
0.136247
0.173731
0.197316
0.180974
0.164490
0.128598
0.089544
0.049236
-0.011379
-0.073460
-0.106992
-0.121493
-0.131631
-0.138918
-0.119655
-0.085007
-0.059286
-0.023986
0.012454
0.045996
0.081102
0.132618
0.145181
0.134469
0.104415
0.083335
0.047196
0.012594
-0.050208
-0.106140
-0.135899
-0.172606
-0.195045
-0.176839
-0.147475
-0.129526
-0.100077
-0.066010
-0.004967
0.067629
0.110033
0.144480
0.128894
0.127281
0.073796
0.038000
-0.021337
-0.032199
-0.097611
-0.141347
-0.176754
-0.196121
-0.212384
-0.209379
-0.190524
-0.162310
-0.121781
-0.079647
-0.019642
0.023750
0.052631
0.077304
0.095032
0.099918
0.094423
0.045076
-0.011888
-0.056501
-0.111290
-0.149689
-0.174509
-0.177718
-0.192297
-0.191928
-0.184261
-0.178943
-0.120082
-0.061078
-0.041358
0.006358
0.071568
0.064582
0.078202
0.100118
0.087460
0.023960
-0.010287
-0.054721
-0.107471
-0.156490
-0.179029
-0.188032
-0.205479
-0.181492
-0.146748
-0.129409
-0.101348
-0.047384
-0.004573
0.032173
0.037318
0.051286
0.049055
0.041076
0.053946
0.019915
-0.000132
-0.033007
-0.096000
-0.160688
-0.196207
-0.226730
-0.243750
-0.212455
-0.181905
-0.160878
-0.136969
-0.102700
-0.022060
0.055796
0.074635
0.076506
0.087204
0.107966
0.107853
0.083913
0.059906
0.020150
0.027154
-0.020927
-0.086809
-0.073187
-0.061337
-0.050912
-0.013424
0.050939
0.132866
0.203631
0.262079
0.327098
0.397746
0.467065
0.513672
0.538121
0.567498
0.573482
0.555454
0.533733
0.523225
0.518983
0.520184
0.530561
0.565431
0.611316
0.640125
0.670528
0.686623
0.728809
0.762463
0.797416
0.813068
0.821182
0.799191
0.716618
0.601264
0.525097
0.405241
0.302310
0.197144
0.101831
0.030047
-0.013902
-0.037604
-0.031440
-0.018713
0.001798
0.053794
0.098500
0.120251
0.159317
0.195485
0.214321
0.198659
0.185017
0.164742
0.124979
0.092216
0.058178
0.000074
-0.056407
-0.105011
-0.128706
-0.137740
-0.155166
-0.148799
-0.099150
-0.060790
0.047611
0.101652
0.083193
0.076972
0.099634
0.127031
0.119809
0.092350
0.041946
-0.005276
-0.033523
-0.064520
-0.120175
-0.153156
-0.173364
-0.161495
-0.146784
-0.150018
-0.082584
-0.050865
0.000508
0.050232
0.091160
0.120091
0.124668
0.124793
0.116344
0.101860
0.064759
0.029084
-0.028251
-0.071452
-0.118098
-0.146574
-0.165895
-0.160591
-0.166752
-0.159927
-0.140015
-0.088550
-0.027606
0.043212
0.079424
0.088011
0.105489
0.125343
0.138165
0.112696
0.092496
0.060776
0.012414
-0.035881
-0.080919
-0.120798
-0.140267
-0.147310
-0.156667
-0.131273
-0.108007
-0.055141
-0.006861
0.041361
0.089301
0.104996
0.118890
0.145881
0.144466
0.122289
0.092435
0.070542
0.035296
-0.034331
-0.080902
-0.099952
-0.137121
-0.140244
-0.129555
-0.101342
-0.067334
-0.034049
0.011517
0.066249
0.123403
0.187573
0.225078
0.204679
0.187604
0.167230
0.122486
0.079870
0.047211
0.002173
-0.031956
-0.063893
-0.090504
-0.120786
-0.096066
-0.082961
-0.036378
0.013712
0.051912
0.103643
0.163425
0.194742
0.214360
0.226746
0.219145
0.189772
0.151693
0.156220
0.096243
0.039881
-0.010709
-0.018907
-0.046798
-0.050682
-0.050635
-0.042465
-0.001169
0.057114
0.114006
0.143073
0.182533
0.240176
0.253866
0.246527
0.244216
0.217769
0.193539
0.136214
0.082364
0.060011
0.012880
-0.026618
-0.052032
-0.055569
-0.045519
-0.045839
0.003487
0.062559
0.111793
0.146495
0.188589
0.228640
0.262039
0.253613
0.231343
0.221474
0.195022
0.147921
0.084918
0.046704
0.004460
-0.033790
-0.055241
-0.070537
-0.056019
-0.034103
-0.006244
0.028068
0.066115
0.121254
0.155361
0.181834
0.202336
0.212635
0.229520
0.207382
0.153019
0.132237
0.076674
0.020170
-0.035448
-0.040486
-0.045404
-0.068588
-0.088287
-0.082515
-0.047575
0.005905
0.058922
0.105305
0.135163
0.169857
0.170472
0.173976
0.156614
0.153188
0.137842
0.089581
0.009739
-0.032246
-0.049574
-0.093064
-0.123659
-0.130618
-0.135308
-0.106190
-0.058606
-0.035530
0.033642
0.072843
0.075808
0.093700
0.122962
0.133599
0.189147
0.164368
0.121231
0.059979
-0.003487
-0.043009
-0.101366
-0.142790
-0.167051
-0.180320
-0.158196
-0.158890
-0.122526
-0.082873
-0.031403
0.016067
0.065070
0.093475
0.113749
0.120467
0.112285
0.095678
0.066276
0.030920
-0.005023
-0.051038
-0.083750
-0.107929
-0.133442
-0.159965
-0.177250
-0.169275
-0.134230
-0.091367
-0.033769
0.014014
0.057905
0.087888
0.118770
0.121343
0.100371
0.094186
0.068246
0.040523
0.000195
-0.067226
-0.121398
-0.157019
-0.171693
-0.157481
-0.142176
-0.137846
-0.110721
-0.071383
-0.024353
0.016258
0.063665
0.114747
0.133265
0.129778
0.141562
0.131899
0.085290
0.035391
-0.007600
-0.042991
-0.085483
-0.122355
-0.182766
-0.185547
-0.156844
-0.146927
-0.117707
-0.088534
-0.017589
0.057315
0.076357
0.083641
0.103095
0.116964
0.132025
0.136621
0.109755
0.038735
0.027955
-0.016004
-0.067787
-0.126039
-0.144458
-0.154038
-0.138570
-0.123952
-0.102470
-0.069502
0.011158
0.074563
0.105950
0.086518
0.076795
0.099103
0.137998
0.130282
0.088937
0.034607
-0.028269
-0.079277
-0.109670
-0.116344
-0.155667
-0.170101
-0.155395
-0.127037
-0.089434
-0.035749
-0.000224
0.050576
0.090808
0.106675
0.125784
0.120397
0.121872
0.129234
0.086889
0.041179
0.000762
-0.033856
-0.097916
-0.146975
-0.167358
-0.179674
-0.182154
-0.132967
-0.102851
-0.097789
-0.048026
0.019624
0.062372
0.074496
0.114116
0.129987
0.123269
0.100388
0.067821
0.014014
-0.044755
-0.059973
-0.096870
-0.122524
-0.127414
-0.128933
-0.125592
-0.118466
-0.100446
-0.073488
-0.015049
0.028590
0.067978
0.090209
0.125408
0.129605
0.117022
0.095836
0.048001
-0.014533
-0.045358
-0.070210
-0.096491
-0.147634
-0.184208
-0.182089
-0.166320
-0.161490
-0.128979
-0.075567
-0.031210
0.003161
0.046847
0.090504
0.115989
0.117292
0.133900
0.130063
0.101496
0.059680
-0.003980
-0.053190
-0.110377
-0.159681
-0.170199
-0.171604
-0.174475
-0.153489
-0.115639
-0.092091
-0.059493
-0.018605
0.038729
0.073096
0.089259
0.108700
0.100114
0.096248
0.058766
0.017999
-0.028398
-0.076133
-0.112400
-0.133231
-0.145232
-0.166584
-0.151453
-0.170844
-0.128135
-0.058583
-0.012167
0.009221
0.052335
0.083977
0.108348
0.116332
0.097533
0.065181
0.032047
-0.011646
-0.049762
-0.077038
-0.110283
-0.149096
-0.194058
-0.203652
-0.194823
-0.161114
-0.111057
-0.086655
-0.034898
-0.005116
0.033248
0.089693
0.137277
0.123853
0.102024
0.095013
0.083810
0.038634
-0.023385
-0.089154
-0.142505
-0.183388
-0.208994
-0.176238
-0.136284
-0.122240
-0.119714
-0.076669
-0.043649
0.009623
0.055177
0.056786
0.108672
0.133554
0.112040
0.094826
0.060854
0.004755
-0.050940
-0.081105
-0.105113
-0.134077
-0.176454
-0.175614
-0.172322
-0.160019
-0.130899
-0.077767
-0.040612
0.018521
0.075707
0.112491
0.115666
0.116451
0.114018
0.105563
0.066199
0.014347
-0.023015
-0.074127
-0.111316
-0.150756
-0.177416
-0.181903
-0.177496
-0.138856
-0.076161
-0.046495
-0.019535
0.040279
0.101649
0.143681
0.165170
0.145182
0.152123
0.163544
0.121088
0.039876
-0.028398
-0.038851
-0.048607
-0.096236
-0.132823
-0.141803
-0.149127
-0.139717
-0.118180
-0.054990
-0.011181
0.048158
0.083986
0.128388
0.165858
0.171568
0.162748
0.153535
0.119894
0.068939
0.043900
-0.000590
-0.038659
-0.078026
-0.126464
-0.131983
-0.124476
-0.102138
-0.074257
-0.041905
-0.006504
0.022181
0.057116
0.084757
0.122309
0.174061
0.156813
0.112844
0.077503
0.033353
-0.021046
-0.075090
-0.137337
-0.176909
-0.181845
-0.162216
-0.169558
-0.154607
-0.127024
-0.096292
-0.040812
0.015051
0.052855
0.086847
0.111264
0.118474
0.114740
0.065126
0.040339
0.020379
-0.031339
-0.056073
-0.109324
-0.177531
-0.197412
-0.203258
-0.195427
-0.179423
-0.155750
-0.092308
-0.058133
-0.014325
0.022048
0.050307
0.060065
0.091327
0.072320
0.037170
0.016417
-0.027617
-0.067816
-0.091032
-0.135324
-0.169736
-0.196180
-0.205151
-0.206016
-0.196363
-0.165014
-0.114251
-0.070388
-0.020511
0.062430
0.107255
0.114869
0.091524
0.084365
0.072089
0.036709
-0.009309
-0.052637
-0.093251
-0.134235
-0.169168
-0.204453
-0.217476
-0.219248
-0.194642
-0.191305
-0.148412
-0.067085
-0.018833
0.021782
0.072361
0.115582
0.118981
0.098737
0.064828
0.031754
0.004471
-0.046304
-0.090399
-0.141872
-0.179309
-0.202743
-0.214999
-0.217490
-0.198504
-0.161425
-0.136662
-0.092370
-0.043174
0.011285
0.047583
0.071881
0.094142
0.099259
0.106725
0.085347
0.059998
0.027933
-0.006101
-0.031541
-0.032347
-0.066748
-0.085917
-0.044264
-0.006776
0.051854
0.100423
0.202560
0.257209
0.315932
0.379271
0.420378
0.444846
0.476367
0.546900
0.542861
0.501022
0.464688
0.465089
0.471318
0.467938
0.501619
0.528068
0.559446
0.581718
0.610612
0.646626
0.730889
0.761955
0.775133
0.787101
0.760769
0.734269
0.663247
0.583202
0.491668
0.395026
0.324937
0.220826
0.135829
0.056116
0.000156
-0.035624
-0.063844
-0.060577
-0.032845
0.003008
0.037666
0.083287
0.129159
0.163561
0.168211
0.187555
0.161736
0.132286
0.124045
0.091322
0.032980
-0.024994
-0.066551
-0.101748
-0.134010
-0.148260
-0.136543
-0.125191
-0.094707
-0.023068
0.030781
0.055720
0.082616
0.098717
0.147589
0.159450
0.135585
0.112056
0.081431
0.039442
-0.017169
-0.057441
-0.109910
-0.146677
-0.180984
-0.187602
-0.176884
-0.149533
-0.123593
-0.083244
-0.031234
0.019895
0.067207
0.105601
0.144316
0.134029
0.143993
0.130845
0.091755
0.044025
-0.053777
-0.054125
-0.086683
-0.135948
-0.136008
-0.152418
-0.162117
-0.155696
-0.135937
-0.097434
-0.032402
0.017244
0.060525
0.100436
0.122845
0.115640
0.128208
0.113467
0.085622
0.047086
-0.010295
-0.072873
-0.118434
-0.134746
-0.145388
-0.145170
-0.132862
-0.071533
-0.007990
-0.001534
-0.015553
0.031702
0.088254
0.123092
0.159598
0.170418
0.157671
0.138519
0.105340
0.063059
0.009763
-0.040515
-0.083217
-0.108203
-0.100187
-0.120380
-0.117544
-0.125112
-0.081448
-0.031632
0.010464
0.056622
0.099461
0.160149
0.169268
0.184590
0.214269
0.179193
0.130420
0.092212
0.080479
0.027877
-0.019056
-0.042429
-0.071403
-0.085853
-0.098780
-0.083955
-0.047821
-0.000711
0.052284
0.102623
0.147900
0.176551
0.195693
0.202360
0.205872
0.211152
0.183861
0.126680
0.072098
0.014310
-0.016904
-0.028192
-0.045355
-0.068563
-0.066150
-0.026642
0.007194
0.054208
0.121889
0.147162
0.183552
0.218202
0.280022
0.274935
0.236139
0.220456
0.238951
0.189226
0.123194
0.066168
0.023441
-0.018256
-0.041397
-0.071011
-0.064912
-0.035334
-0.003833
0.036332
0.096453
0.163534
0.218362
0.236474
0.215294
0.228756
0.239071
0.228601
0.199512
0.156667
0.109409
0.079211
0.048581
-0.006557
-0.039135
-0.046002
-0.047467
-0.050721
-0.019358
0.028767
0.075843
0.125857
0.149994
0.171223
0.200669
0.220968
0.219652
0.189743
0.159626
0.132497
0.088671
0.028932
-0.026729
-0.069348
-0.068813
-0.062590
-0.077714
-0.082272
-0.036374
0.055610
0.115758
0.136555
0.141459
0.142767
0.168155
0.180155
0.163969
0.152636
0.121707
0.101723
0.045658
-0.028308
-0.065784
-0.095214
-0.138823
-0.162186
-0.131124
-0.115454
-0.080265
-0.044203
0.018131
0.073940
0.091926
0.098054
0.140610
0.157488
0.148711
0.141865
0.110663
0.056367
0.001623
-0.054677
-0.108413
-0.120984
-0.150263
-0.122553
-0.121491
-0.109266
-0.095527
-0.073017
-0.028347
0.011480
0.057595
0.080148
0.072944
0.116834
0.124268
0.115488
0.062832
0.012493
0.003869
-0.058840
-0.102868
-0.134001
-0.158833
-0.165381
-0.166175
-0.160858
-0.128551
-0.089588
-0.022271
0.027885
0.045694
0.093872
0.150635
0.151535
0.114958
0.061322
0.051228
0.052786
0.007776
-0.037053
-0.068934
-0.111836
-0.143589
-0.165547
-0.196264
-0.173486
-0.170658
-0.121039
-0.067167
-0.031431
0.013126
0.059484
0.113481
0.194551
0.200369
0.163036
0.102543
0.058260
0.016893
-0.043382
-0.099586
-0.137138
-0.143214
-0.152176
-0.147274
-0.138183
-0.106011
-0.064227
-0.018199
0.028121
0.066964
0.094058
0.110616
0.136533
0.128608
0.085543
0.049896
0.021162
-0.029617
-0.086812
-0.125621
-0.146667
-0.121544
-0.121389
-0.141908
-0.126203
-0.091470
-0.057933
-0.012873
0.042677
0.088571
0.120858
0.131411
0.144128
0.150397
0.135480
0.097909
0.006684
-0.032592
-0.074164
-0.074238
-0.096918
-0.134241
-0.146433
-0.144104
-0.135731
-0.125585
-0.102245
-0.042600
0.008782
0.047308
0.087731
0.099470
0.092003
0.104917
0.086783
0.093676
0.099814
0.013661
-0.070283
-0.090883
-0.116782
-0.141578
-0.155105
-0.159845
-0.134599
-0.120820
-0.101984
-0.051659
0.018910
0.075471
0.105133
0.109168
0.126273
0.117074
0.079627
0.039025
0.032676
-0.033302
-0.094927
-0.119782
-0.146935
-0.161898
-0.182187
-0.162194
-0.126585
-0.101417
-0.077161
-0.031791
0.017295
0.048596
0.088933
0.127663
0.134547
0.114189
0.078084
0.059103
0.042538
-0.013161
-0.093160
-0.140773
-0.162161
-0.158012
-0.160281
-0.167660
-0.137501
-0.108607
-0.102190
-0.062309
-0.003195
0.035030
0.062969
0.086132
0.087472
0.056615
0.072905
0.057901
0.035769
0.016695
-0.020332
-0.097629
-0.161154
-0.181000
-0.179703
-0.181495
-0.162148
-0.137493
-0.091279
-0.040666
0.006588
0.044215
0.080167
0.090385
0.110649
0.105640
0.057800
0.055684
0.047790
-0.012194
-0.092267
-0.148610
-0.180209
-0.200942
-0.201999
-0.183349
-0.149976
-0.122599
-0.106014
-0.060919
-0.019900
0.020645
0.076869
0.118984
0.139000
0.110085
0.061702
0.057770
0.008272
-0.038912
-0.073625
-0.103472
-0.146867
-0.201269
-0.218693
-0.205395
-0.177083
-0.129870
-0.094154
-0.059522
-0.002510
0.046520
0.070343
0.087342
0.087391
0.099671
0.082780
0.058151
0.007731
-0.023194
-0.074799
-0.123106
-0.162753
-0.189416
-0.187922
-0.160370
-0.159318
-0.113638
-0.085609
-0.010639
0.010379
0.067668
0.104845
0.110429
0.094690
0.106889
0.081571
0.048409
0.003954
-0.035443
-0.076698
-0.129212
-0.174599
-0.179447
-0.134872
-0.127738
-0.119365
-0.106881
-0.062387
-0.018650
0.024866
0.063484
0.101206
0.121331
0.146096
0.135038
0.134649
0.093017
0.044190
-0.013679
-0.065786
-0.105003
-0.116322
-0.132131
-0.167288
-0.171699
-0.147424
-0.136280
-0.093687
-0.043701
0.044475
0.105649
0.145108
0.135862
0.136553
0.144192
0.145324
0.110248
0.070502
0.013431
-0.034514
-0.097274
-0.105152
-0.091439
-0.077443
-0.117536
-0.109274
-0.104729
-0.069193
-0.017971
0.024864
0.062925
0.079341
0.105158
0.104603
0.096557
0.077353
0.047609
0.020604
-0.023457
-0.067915
-0.132441
-0.158881
-0.192010
-0.226595
-0.215035
-0.148405
-0.130064
-0.085760
-0.038435
-0.016679
0.033752
0.080561
0.084466
0.088513
0.073602
0.066098
0.033178
-0.012038
-0.053173
-0.107157
-0.161841
-0.189423
-0.216787
-0.219739
-0.224472
-0.202106
-0.178343
-0.118629
-0.084407
-0.037838
0.012843
0.037811
0.051870
0.078625
0.081825
0.060435
0.017725
-0.052000
-0.092750
-0.113351
-0.156388
-0.174946
-0.152228
-0.175875
-0.179779
-0.185705
-0.177438
-0.122851
-0.067195
-0.028607
0.008078
0.042866
0.057614
0.074710
0.060711
0.013837
0.053824
0.006848
-0.078730
-0.125403
-0.161917
-0.209664
-0.246637
-0.246074
-0.238869
-0.230006
-0.199546
-0.133609
-0.081227
-0.047586
0.025590
0.052818
0.078199
0.078055
0.079211
0.074193
0.053082
-0.015527
-0.068650
-0.119265
-0.180457
-0.203094
-0.229010
-0.246500
-0.238299
-0.214585
-0.198763
-0.149028
-0.106472
-0.049995
0.014887
0.076259
0.123275
0.135071
0.133779
0.133507
0.131758
0.098883
0.052216
0.020044
-0.009983
-0.020083
-0.004941
-0.001267
0.049746
0.102397
0.143190
0.199632
0.257271
0.426705
0.507664
0.532367
0.534139
0.574181
0.612660
0.627564
0.633865
0.637035
0.654754
0.636834
0.611651
0.570672
0.543524
0.531285
0.557634
0.567029
0.568068
0.609014
0.638881
0.636620
0.610720
0.595985
0.528191
0.476852
0.428368
0.365641
0.276631
0.197214
0.104103
0.018885
-0.043211
-0.085354
-0.110031
-0.138859
-0.104911
-0.083407
-0.084648
-0.040732
-0.001153
0.045120
0.079603
0.111308
0.124955
0.132044
0.131873
0.122499
0.082375
0.025000
-0.009592
-0.045658
-0.097543
-0.148376
-0.177332
-0.186689
-0.176815
-0.160950
-0.100105
-0.066942
-0.036220
0.000784
0.032401
0.062807
0.078908
0.088140
0.117935
0.084185
0.004246
-0.071591
-0.025646
-0.028731
-0.079453
-0.145090
-0.154792
-0.161347
-0.177925
-0.174803
-0.140094
-0.091066
-0.044849
0.004279
0.025400
0.064479
0.085542
0.109285
0.104711
0.100865
0.067336
0.012550
-0.001214
-0.068601
-0.112985
-0.173649
-0.210820
-0.210182
-0.172102
-0.180411
-0.153566
-0.102926
-0.055354
-0.007920
0.041006
0.078929
0.097903
0.108606
0.096834
0.077643
0.057239
0.024120
-0.002841
-0.068036
-0.095673
-0.130625
-0.155688
-0.169298
-0.157090
-0.128198
-0.111646
-0.063482
-0.030914
0.024295
0.059571
0.098651
0.141466
0.178239
0.182203
0.127075
0.069326
0.012285
-0.019016
-0.048729
-0.088992
-0.127316
-0.149309
-0.165063
-0.174187
-0.148968
-0.103596
-0.048287
-0.011384
0.048098
0.111418
0.134738
0.149032
0.158971
0.180921
0.163498
0.166459
0.104552
0.020651
-0.017199
-0.082599
-0.126116
-0.173036
-0.137472
-0.096203
-0.056944
-0.016391
0.005632
0.047070
0.095288
0.130145
0.163583
0.156020
0.164106
0.196659
0.163490
0.124224
0.108466
0.089029
0.025057
-0.026824
-0.077256
-0.086188
-0.069768
-0.053893
-0.048305
-0.042086
0.016749
0.065115
0.094815
0.145280
0.220423
0.210236
0.219088
0.243266
0.218775
0.154566
0.112530
0.085540
0.048789
-0.002280
-0.052722
-0.060296
-0.069813
-0.074259
-0.061528
-0.028944
0.020156
0.050296
0.102589
0.157971
0.198100
0.213211
0.218556
0.206940
0.192092
0.166105
0.143409
0.073693
0.031646
-0.023663
-0.089956
-0.121031
-0.089543
-0.027752
-0.027108
-0.036188
-0.000743
0.039764
0.086173
0.131259
0.163052
0.162202
0.160422
0.152644
0.114953
0.095095
0.066585
0.039357
-0.018388
-0.068271
-0.112946
-0.132188
-0.152305
-0.161018
-0.106339
-0.048755
-0.019542
0.043943
0.067678
0.081761
0.104665
0.122839
0.124414
0.102276
0.098658
0.067065
0.028612
-0.023983
-0.084616
-0.114156
-0.153961
-0.182634
-0.186231
-0.167090
-0.148494
-0.118597
-0.081845
-0.032881
0.006178
0.043047
0.075777
0.108768
0.115686
0.109975
0.102708
0.070460
0.003239
-0.046618
-0.087751
-0.121036
-0.140526
-0.159450
-0.205305
-0.218519
-0.154857
-0.108863
-0.057882
-0.036729
-0.005799
0.021795
0.045306
0.083464
0.066510
0.053571
0.047725
0.017284
-0.024779
-0.049970
-0.090719
-0.142060
-0.175991
-0.196718
-0.202931
-0.190383
-0.162609
-0.134254
-0.106284
-0.066815
-0.038139
0.000319
0.026422
0.057039
0.122118
0.143700
0.155444
0.076613
-0.001304
-0.050963
-0.093154
-0.150412
-0.183152
-0.196264
-0.205340
-0.224128
-0.183008
-0.135494
-0.110594
-0.070215
0.001709
0.044036
0.077375
0.108838
0.112807
0.093576
0.087898
0.067629
0.018268
-0.041475
-0.080392
-0.136201
-0.188165
-0.206253
-0.201180
-0.196395
-0.171358
-0.146489
-0.116601
-0.063052
-0.025198
0.033926
0.072049
0.088041
0.116396
0.110674
0.084133
0.057261
0.035663
-0.001016
-0.061249
-0.129551
-0.189162
-0.227247
-0.194934
-0.142028
-0.140401
-0.128953
-0.092867
-0.047786
-0.013596
0.025874
0.066096
0.087904
0.110956
0.100601
0.063668
0.030262
0.010319
-0.032798
-0.084800
-0.137711
-0.173195
-0.187496
-0.181979
-0.178419
-0.175883
-0.160373
-0.117657
-0.081237
-0.057451
-0.026097
0.009098
0.067778
0.118033
0.190724
0.149149
0.075173
0.033063
-0.013853
-0.065147
-0.112307
-0.156970
-0.185726
-0.191081
-0.204120
-0.160505
-0.134304
-0.109566
-0.066433
-0.021683
0.022558
0.058792
0.091696
0.090245
0.103282
0.063007
0.017859
-0.019729
-0.062857
-0.128453
-0.160981
-0.175737
-0.198636
-0.214087
-0.204944
-0.181947
-0.144907
-0.101090
-0.053000
-0.015492
0.023530
0.054112
0.144517
0.160870
0.095668
0.041433
0.023249
-0.030533
-0.082668
-0.128466
-0.167875
-0.196313
-0.218926
-0.221911
-0.210683
-0.193251
-0.169257
-0.135786
-0.084476
-0.013379
0.022535
0.048857
0.069419
0.087255
0.078479
0.059867
0.021324
-0.010786
-0.056351
-0.106105
-0.166775
-0.195363
-0.219387
-0.238483
-0.219661
-0.204559
-0.192892
-0.177784
-0.130989
-0.045913
-0.001613
0.061473
0.109677
0.116880
0.085307
0.047692
0.010468
0.016831
-0.049274
-0.111716
-0.161897
-0.191189
-0.205578
-0.211440
-0.191864
-0.133637
-0.108796
-0.118491
-0.081924
-0.035001
0.043316
0.090013
0.093685
0.087982
0.078267
0.062561
0.029553
-0.018629
-0.056050
-0.097066
-0.078459
-0.160417
-0.204742
-0.232535
-0.200913
-0.167167
-0.138045
-0.103731
-0.044958
0.007895
0.046055
0.084935
0.101428
0.117541
0.100110
0.085296
0.061771
0.004527
-0.044432
-0.089478
-0.123562
-0.158649
-0.189579
-0.223043
-0.182251
-0.140746
-0.119758
-0.091843
-0.055239
-0.013834
0.043646
0.086921
0.102758
0.133046
0.146301
0.101802
0.047917
0.008548
-0.029873
-0.055663
-0.090425
-0.123141
-0.155673
-0.181955
-0.130662
-0.069791
-0.072689
-0.071766
-0.027278
0.025445
0.060319
0.089061
0.108301
0.093262
0.091335
0.040430
0.043909
0.011995
-0.035750
-0.103737
-0.179570
-0.214710
-0.212391
-0.206779
-0.235475
-0.224445
-0.181704
-0.126674
-0.074417
-0.045882
-0.002289
0.029645
0.058360
0.063858
0.081227
0.066103
0.002123
-0.037643
-0.087565
-0.117423
-0.171526
-0.208968
-0.246194
-0.251936
-0.247646
-0.234049
-0.206072
-0.162212
-0.126526
-0.073934
-0.040815
-0.005837
0.021354
0.025514
0.029884
0.016801
-0.021260
-0.057432
-0.103113
-0.151065
-0.197704
-0.217646
-0.243431
-0.248505
-0.260440
-0.242099
-0.219661
-0.141125
-0.103105
-0.057392
0.006427
0.039278
0.035093
0.009786
0.026062
0.037910
0.012545
-0.044653
-0.113537
-0.156534
-0.193242
-0.242367
-0.262512
-0.255190
-0.244614
-0.208409
-0.181343
-0.160358
-0.133484
-0.061515
0.005126
0.043832
0.068977
0.066290
0.046351
0.012199
-0.026269
-0.085522
-0.132413
-0.183159
-0.229962
-0.258329
-0.281641
-0.241564
-0.240447
-0.251866
-0.248016
-0.169982
-0.093961
-0.060622
-0.016011
0.025470
0.057416
0.091897
0.111995
0.103810
0.068129
0.057183
0.047342
0.014544
0.021487
-0.007651
-0.042410
-0.020554
0.016691
0.072016
0.110019
0.186017
0.250788
0.332059
0.418596
0.488142
0.568679
0.601365
0.594525
0.598000
0.599195
0.616276
0.605947
0.588922
0.599384
0.581264
0.575059
0.558989
0.580019
0.571131
0.592487
0.631337
0.648102
0.656135
0.662345
0.628764
0.567520
0.502674
0.427623
0.359452
0.271724
0.184455
0.107680
-0.005970
-0.069071
-0.111471
-0.145635
-0.131359
-0.084733
-0.087483
-0.069043
-0.002381
0.016454
0.006779
0.048384
0.070149
0.095806
0.133041
0.114161
0.088111
0.059418
0.015860
-0.048708
-0.099653
-0.135053
-0.171413
-0.196233
-0.138739
-0.131653
-0.139211
-0.135158
-0.114756
-0.039160
-0.009622
0.019322
0.053292
0.075716
0.074344
0.071970
0.041446
-0.009770
-0.039189
-0.079650
-0.125263
-0.161105
-0.195164
-0.210804
-0.219065
-0.223858
-0.208020
-0.165534
-0.126363
-0.074530
-0.021119
0.019829
0.060018
0.081950
0.083862
0.084586
0.061121
0.025060
-0.019678
-0.066155
-0.109976
-0.160206
-0.199336
-0.230864
-0.249726
-0.250109
-0.259270
-0.149058
-0.118711
-0.089048
-0.027332
0.040905
0.070905
0.078667
0.100588
0.078471
0.052040
0.033470
-0.013636
-0.067803
-0.105021
-0.137351
-0.165885
-0.194505
-0.228448
-0.236818
-0.217634
-0.188733
-0.139143
-0.040436
0.021884
0.144910
0.152944
0.115338
0.083118
0.084523
0.078384
0.052838
-0.002822
-0.046784
-0.080976
-0.129842
-0.151237
-0.174221
-0.178722
-0.176443
-0.149271
-0.114434
-0.064993
-0.009117
0.029366
0.065216
0.095551
0.139733
0.156854
0.154375
0.132590
0.092493
0.040852
-0.021928
-0.043655
-0.075399
-0.119245
-0.148934
-0.163298
-0.170252
-0.152805
-0.110526
-0.023196
0.048730
0.083192
0.117524
0.135393
0.128162
0.164419
0.154608
0.147780
0.105964
0.056934
0.030918
0.002812
-0.040561
-0.084806
-0.116445
-0.115160
-0.103428
-0.073464
-0.043929
-0.013422
0.032020
0.069571
0.118610
0.165107
0.192485
0.159780
0.160967
0.143433
0.098177
0.076394
0.034565
-0.030628
-0.047727
-0.078026
-0.110920
-0.131036
-0.076727
-0.028171
-0.022371
0.004605
0.048346
0.088605
0.123782
0.148002
0.198904
0.206408
0.179855
0.146803
0.109999
0.080203
0.021480
-0.033834
-0.084208
-0.116592
-0.131704
-0.150394
-0.158224
-0.126055
-0.094491
-0.056670
-0.009518
0.040368
0.086767
0.119181
0.133482
0.138179
0.122274
0.139598
0.117795
0.046482
-0.005451
-0.030000
-0.075108
-0.123960
-0.124060
-0.133959
-0.164543
-0.187492
-0.150651
-0.091133
-0.046083
-0.000369
0.025633
0.053339
0.064566
0.075786
0.078754
0.060344
0.032528
0.002597
-0.067343
-0.104100
-0.149072
-0.199958
-0.206018
-0.195304
-0.176490
-0.149622
-0.132201
-0.113700
-0.087249
-0.043378
0.025408
0.057061
0.092404
0.100672
0.062262
0.028868
-0.020930
-0.052990
-0.090971
-0.131538
-0.164661
-0.200619
-0.222442
-0.225202
-0.222386
-0.211000
-0.192102
-0.152082
-0.101140
-0.028186
0.004589
0.040981
0.060380
0.057922
0.049148
0.041240
0.025509
0.017366
-0.046421
-0.115423
-0.178518
-0.205538
-0.233197
-0.228018
-0.216986
-0.217342
-0.184411
-0.143011
-0.107716
-0.073589
-0.023222
0.026995
0.049726
0.054156
0.038089
0.007649
-0.012327
-0.022648
-0.038262
-0.085158
-0.147160
-0.203586
-0.223069
-0.229213
-0.216988
-0.153868
-0.137642
-0.115317
-0.082228
-0.032023
0.009614
0.032177
0.058690
0.064761
0.054605
0.024245
0.010679
-0.011883
-0.079277
-0.122668
-0.173544
-0.208049
-0.233936
-0.229989
-0.222694
-0.205937
-0.189365
-0.157489
-0.095169
-0.032635
0.009155
0.058483
0.078044
0.084983
0.093025
0.049543
0.009978
-0.013387
-0.052668
-0.092356
-0.144366
-0.218723
-0.189090
-0.202152
-0.193474
-0.195844
-0.174294
-0.133448
-0.107324
-0.071189
0.030422
0.056470
0.062401
0.066991
0.050929
0.046096
0.034899
-0.008945
-0.062551
-0.101457
-0.145163
-0.165689
-0.192155
-0.201372
-0.194963
-0.175024
-0.138842
-0.089229
-0.045215
-0.013317
0.013318
0.064398
0.075345
0.056427
0.041582
0.028417
0.027761
-0.036707
-0.079543
-0.112796
-0.117129
-0.148433
-0.201382
-0.235560
-0.240519
-0.208591
-0.179771
-0.128807
-0.075831
-0.025608
0.015615
0.057942
0.081553
0.087205
0.074264
0.044763
0.003272
-0.037290
-0.071265
-0.127697
-0.165227
-0.203267
-0.235233
-0.259444
-0.276256
-0.243758
-0.167515
-0.125104
-0.058698
-0.010817
0.017943
0.051432
0.064451
0.067348
0.062302
0.039356
0.016139
-0.024184
-0.072957
-0.124358
-0.157305
-0.203326
-0.232355
-0.221363
-0.219938
-0.205868
-0.174328
-0.150250
-0.101786
-0.053746
-0.009964
0.011387
0.046714
0.049238
0.033576
0.016231
-0.013546
-0.064013
-0.076385
-0.133795
-0.175269
-0.205198
-0.223981
-0.238283
-0.231738
-0.215265
-0.176310
-0.148659
-0.086001
-0.043285
0.034176
0.086388
0.084326
0.037495
0.038768
0.044495
0.005174
-0.029616
-0.060387
-0.104735
-0.167971
-0.209401
-0.223558
-0.263734
-0.247510
-0.173773
-0.152043
-0.094778
-0.052173
0.001902
0.025440
0.032234
0.072567
0.071167
0.105633
0.110943
0.081914
0.025656
-0.033271
-0.083161
-0.128035
-0.163984
-0.190978
-0.193697
-0.185980
-0.174712
-0.166014
-0.118062
-0.079173
-0.031621
0.011447
0.048296
0.064263
0.068226
0.109801
0.116809
0.065116
0.006474
-0.014709
-0.058435
-0.103930
-0.143611
-0.166794
-0.162941
-0.153287
-0.136840
-0.111553
-0.077604
-0.034008
0.007648
0.059767
0.092545
0.088419
0.080065
0.096906
0.087733
0.050319
-0.000384
-0.051428
-0.113493
-0.153443
-0.196740
-0.226796
-0.235755
-0.236255
-0.222563
-0.195852
-0.157613
-0.111010
-0.060717
0.000331
0.011738
0.054008
0.114916
0.100480
0.079749
0.037039
-0.006894
-0.057253
-0.105566
-0.169300
-0.217790
-0.245139
-0.256492
-0.266373
-0.239555
-0.195777
-0.165716
-0.105073
-0.067078
-0.034264
-0.009907
0.012273
0.026048
0.022404
0.000452
-0.044080
-0.079964
-0.126808
-0.160377
-0.183148
-0.210675
-0.247773
-0.277413
-0.280617
-0.279474
-0.201965
-0.113383
-0.061101
-0.041210
-0.015534
0.012417
0.023818
0.024760
0.014791
-0.011789
-0.046578
-0.085301
-0.114642
-0.175883
-0.220627
-0.240847
-0.262904
-0.254201
-0.257625
-0.237775
-0.191725
-0.139585
-0.109239
-0.075609
-0.038166
0.019750
0.011799
0.023281
0.008767
0.020005
0.021601
-0.042897
-0.100543
-0.137093
-0.195129
-0.247272
-0.278021
-0.304721
-0.278116
-0.229016
-0.180336
-0.143986
-0.121115
-0.077471
-0.041459
-0.007959
0.024243
0.021195
0.019407
0.017475
0.013974
-0.022294
-0.082247
-0.109446
-0.136969
-0.116479
-0.116086
-0.119074
-0.100859
-0.071300
-0.033463
0.006144
0.068655
0.146461
0.202877
0.262621
0.303400
0.334562
0.351648
0.366683
0.405928
0.393565
0.336313
0.324485
0.326583
0.342036
0.336895
0.365747
0.415507
0.472265
0.539608
0.618525
0.711331
0.766200
0.808393
0.841922
0.874074
0.861840
0.841856
0.793324
0.731959
0.637092
0.513628
0.386326
0.277897
0.182561
0.100024
0.039179
-0.003185
-0.020258
-0.012291
-0.005106
0.030248
0.107558
0.130719
0.139618
0.144418
0.137542
0.117966
0.107561
0.086089
0.040299
-0.016899
-0.076167
-0.068852
-0.102837
-0.154659
-0.192083
-0.165609
-0.127340
-0.130100
-0.141806
-0.034467
0.044234
0.072329
0.074518
0.092680
0.084246
0.075479
0.053101
0.027571
-0.018633
-0.068740
-0.114300
-0.143804
-0.184206
-0.201332
-0.206539
-0.209574
-0.199934
-0.150550
-0.112972
-0.082965
-0.009600
0.036831
0.078161
0.087939
0.088397
0.072279
0.042095
0.003469
-0.032935
-0.101067
-0.133721
-0.160324
-0.210522
-0.196856
-0.195673
-0.200864
-0.171338
-0.147986
-0.139637
-0.110337
-0.027023
0.016570
0.066660
0.078174
0.088411
0.100763
0.084329
0.063361
0.023969
-0.039864
-0.073728
-0.131151
-0.173980
-0.195638
-0.202552
-0.192261
-0.170726
-0.136440
-0.095490
-0.065364
-0.026572
0.016337
0.062420
0.091812
0.106172
0.105265
0.090561
0.057634
-0.008040
-0.065502
-0.127943
-0.112904
-0.118264
-0.158957
-0.171631
-0.162686
-0.151372
-0.119896
-0.051635
0.007943
0.050089
0.063651
0.080830
0.126235
0.134620
0.128659
0.091720
0.062423
0.026925
-0.003527
-0.057399
-0.099846
-0.125729
-0.149688
-0.152679
-0.151505
-0.122820
-0.091187
-0.032957
0.016664
0.046240
0.127655
0.161978
0.172898
0.175640
0.167946
0.129023
0.121208
0.095187
0.042506
0.006008
-0.032760
-0.079261
-0.137017
-0.143675
-0.104887
-0.079276
-0.035538
0.001256
0.049593
0.083110
0.107070
0.155971
0.164771
0.182043
0.184054
0.179344
0.151704
0.105232
0.056660
0.012280
-0.032740
-0.063614
-0.079501
-0.093378
-0.101361
-0.067374
-0.034584
0.005540
0.043483
0.078680
0.119232
0.157394
0.196244
0.199395
0.187683
0.184576
0.132276
0.130607
0.070835
0.000844
-0.056262
-0.093661
-0.099612
-0.106264
-0.120022
-0.090137
-0.050095
-0.022226
0.020240
0.069038
0.106183
0.142873
0.163574
0.167587
0.174762
0.163089
0.134664
0.083998
0.016805
-0.021520
-0.065104
-0.101428
-0.136686
-0.146094
-0.181759
-0.173627
-0.130237
-0.034271
-0.001387
0.019912
0.058255
0.127689
0.151893
0.159087
0.123949
0.088395
0.058765
0.040894
-0.011180
-0.034603
-0.082358
-0.128208
-0.143054
-0.135865
-0.137519
-0.132007
-0.133669
-0.115796
-0.067993
0.017179
0.093141
0.091534
0.085605
0.113992
0.114412
0.077165
0.047885
0.010070
-0.064046
-0.123617
-0.161530
-0.173305
-0.185494
-0.204470
-0.201279
-0.182872
-0.151764
-0.097017
-0.039416
-0.010727
0.032212
0.080009
0.090228
0.098966
0.088851
0.054681
0.041091
-0.003377
-0.059915
-0.100446
-0.145805
-0.200987
-0.205773
-0.207720
-0.191185
-0.166939
-0.128560
-0.111524
-0.084001
-0.017827
0.021893
0.043803
0.076921
0.076403
0.057071
0.046465
0.030013
-0.004157
-0.024471
-0.071794
-0.119255
-0.175202
-0.208656
-0.221670
-0.196729
-0.188335
-0.161665
-0.121238
-0.045018
0.002634
0.069774
0.065237
0.084173
0.099569
0.094829
0.065777
0.036792
-0.017930
-0.063640
-0.089590
-0.115288
-0.173501
-0.204520
-0.213002
-0.218135
-0.186702
-0.111895
-0.078541
-0.026078
-0.010929
0.020601
0.064122
0.079636
0.116855
0.126221
0.096557
0.037578
-0.014335
-0.045084
-0.093430
-0.134418
-0.168988
-0.199639
-0.206381
-0.188435
-0.151201
-0.117179
-0.093998
-0.037509
-0.007149
0.024972
0.062355
0.093026
0.121532
0.124160
0.112978
0.061612
0.018607
-0.029943
-0.070701
-0.122960
-0.165629
-0.181311
-0.192084
-0.175356
-0.168968
-0.146274
-0.106926
-0.052119
-0.025245
0.023948
0.107476
0.137171
0.099955
0.078277
0.056704
0.032842
-0.009237
-0.049411
-0.088311
-0.139940
-0.174161
-0.187815
-0.175755
-0.143310
-0.152392
-0.160094
-0.105412
-0.039864
-0.009388
0.031337
0.065227
0.093640
0.107431
0.079714
0.058797
0.027505
-0.004833
-0.067154
-0.119145
-0.145428
-0.133171
-0.172886
-0.204790
-0.213091
-0.192141
-0.142934
-0.105678
-0.043996
0.007062
0.043100
0.057925
0.087060
0.093413
0.077219
0.086919
0.049587
0.013024
-0.045497
-0.085592
-0.148503
-0.184584
-0.221353
-0.227190
-0.217697
-0.202287
-0.134391
-0.065464
-0.023802
-0.012059
0.007189
0.026356
0.057488
0.110526
0.094530
0.060579
0.022434
-0.026695
-0.063698
-0.106319
-0.148156
-0.185338
-0.194890
-0.193254
-0.190398
-0.158389
-0.136739
-0.108090
-0.072681
-0.039409
0.006595
0.069555
0.089371
0.071041
0.042586
0.042371
0.014171
-0.016747
-0.064146
-0.114750
-0.152906
-0.177827
-0.217039
-0.226365
-0.200837
-0.182610
-0.148494
-0.091711
-0.040626
0.001868
0.024688
0.079572
0.088049
0.079052
0.058353
0.047674
-0.001196
-0.032444
-0.071437
-0.092514
-0.135219
-0.182553
-0.206863
-0.214995
-0.214642
-0.187702
-0.170840
-0.142734
-0.079421
-0.015192
0.007443
0.032479
0.085674
0.074388
0.068587
0.051634
0.036706
-0.008261
-0.059404
-0.101070
-0.127656
-0.164363
-0.196778
-0.219522
-0.210841
-0.180835
-0.155555
-0.133200
-0.099461
-0.057072
-0.022585
0.034069
0.080595
0.084662
0.086006
0.063366
0.011631
-0.036916
-0.069030
-0.124874
-0.184482
-0.207537
-0.217793
-0.207658
-0.157361
-0.107508
-0.109739
-0.099065
-0.055584
-0.004637
0.014189
0.057464
0.070615
0.082173
0.077766
0.065597
0.033504
-0.015741
-0.043684
-0.090456
-0.137714
-0.166103
-0.187651
-0.188079
-0.170223
-0.165893
-0.151860
-0.118813
-0.048388
0.016148
0.100844
0.133638
0.130964
0.133855
0.104558
0.085921
0.062491
0.043434
-0.000249
-0.046453
-0.102055
-0.150167
-0.173920
-0.184162
-0.186614
-0.157289
-0.122550
-0.080340
-0.029769
0.014933
0.054471
0.091552
0.121118
0.131478
0.111637
0.096765
0.075031
0.052989
0.000190
-0.064378
-0.113784
-0.116231
-0.147686
-0.165093
-0.160749
-0.105744
-0.066484
-0.061996
-0.040773
0.011054
0.058015
0.077914
0.084399
0.097004
0.095314
0.072716
0.027799
-0.017540
-0.084512
-0.119767
-0.152000
-0.181332
-0.168282
-0.177341
-0.168480
-0.163695
-0.157729
-0.109220
-0.064101
-0.009383
0.032906
0.053734
0.084167
0.091804
0.071797
0.067867
0.027851
-0.022737
-0.081083
-0.074842
-0.113559
-0.186488
-0.239262
-0.236492
-0.251360
-0.224371
-0.188016
-0.152564
-0.114165
-0.041865
-0.014666
0.025543
0.052028
0.048562
0.034393
0.033369
0.011066
-0.040574
-0.085809
-0.126917
-0.171492
-0.191461
-0.215567
-0.224532
-0.220554
-0.206016
-0.163328
-0.121379
-0.084664
-0.034425
-0.000997
0.034826
0.053864
0.043163
0.063267
0.043082
0.002160
-0.057379
-0.108247
-0.179613
-0.185840
-0.209651
-0.186439
-0.236014
-0.251976
-0.229966
-0.147199
-0.119718
-0.091327
-0.036764
0.025258
0.060592
0.084666
0.081669
0.063767
0.041832
0.001004
-0.044252
-0.095257
-0.136472
-0.182335
-0.232997
-0.244769
-0.246763
-0.231127
-0.196988
-0.183813
-0.164406
-0.112170
-0.069756
0.013419
0.055786
0.077872
0.098174
0.097828
0.089646
0.066436
0.026667
0.019652
0.008591
-0.015910
-0.050958
-0.076513
-0.084894
-0.057678
-0.028546
0.014492
0.079206
0.189652
0.284588
0.351066
0.423430
0.471910
0.485798
0.508174
0.521629
0.501459
0.470672
0.474985
0.490726
0.539626
0.580826
0.563924
0.575996
0.624491
0.650908
0.685000
0.722280
0.781617
0.806771
0.791622
0.779528
0.790882
0.744696
0.653249
0.555766
0.464285
0.351132
0.286272
0.186742
0.073053
-0.032047
-0.053275
-0.071374
-0.070915
-0.058106
-0.033810
0.009807
0.035515
0.071191
0.085089
0.094980
0.149427
0.165443
0.171498
0.167057
0.131016
0.071653
0.029834
-0.026339
-0.072912
-0.118088
-0.130652
-0.136862
-0.144369
-0.167759
-0.137282
-0.089445
-0.031183
0.001819
0.037846
0.090811
0.100395
0.100929
0.082064
0.078649
0.052487
0.002060
-0.047824
-0.078316
-0.118638
-0.146275
-0.173412
-0.165704
-0.156586
-0.140785
-0.122389
-0.082234
-0.038940
0.002853
0.058381
0.102657
0.110133
0.101453
0.090528
0.072405
0.027047
-0.020266
-0.068646
-0.107697
-0.150516
-0.169544
-0.174738
-0.177738
-0.190141
-0.157980
-0.132919
-0.094439
-0.062123
-0.016890
0.035907
0.066836
0.093578
0.111786
0.107316
0.093179
0.073476
0.021234
-0.031380
-0.069774
-0.101543
-0.138092
-0.167403
-0.180943
-0.160577
-0.128403
-0.103221
-0.087558
-0.059870
0.001638
0.075089
0.120526
0.128805
0.104991
0.106118
0.096126
0.059864
0.016092
-0.017398
-0.050586
-0.068646
-0.090121
-0.125379
-0.144043
-0.132552
-0.119282
-0.100725
-0.084559
-0.057546
0.009589
0.139339
0.207105
0.197771
0.180362
0.177059
0.165735
0.121972
0.065566
0.009595
-0.027599
-0.055541
-0.104527
-0.130604
-0.126886
-0.106157
-0.076532
-0.054293
-0.019112
0.005284
0.060126
0.111195
0.143368
0.202161
0.200295
0.203313
0.188558
0.143451
0.109642
0.058779
0.010212
-0.019151
-0.033915
-0.059215
-0.067244
-0.069033
-0.050128
-0.019876
0.012006
0.037743
0.088711
0.135989
0.169796
0.198000
0.200835
0.191164
0.181272
0.159379
0.113898
0.062398
0.013139
-0.026225
-0.048709
-0.085305
-0.064438
-0.061498
-0.021308
0.025495
0.042021
0.066783
0.116313
0.174649
0.201138
0.209996
0.237411
0.225428
0.177721
0.112751
0.107312
0.056494
0.022014
-0.014329
-0.040650
-0.059216
-0.109291
-0.113201
-0.097647
-0.064400
0.000733
0.083569
0.138066
0.178590
0.193588
0.194145
0.195958
0.176799
0.163040
0.137700
0.111064
0.064049
0.014890
-0.037277
-0.093336
-0.133179
-0.161553
-0.112608
-0.107077
-0.063099
-0.042990
-0.000240
0.071318
0.099956
0.102404
0.110157
0.145097
0.142316
0.119028
0.099404
0.045435
0.007614
-0.050998
-0.084082
-0.115267
-0.140033
-0.145685
-0.124679
-0.113137
-0.096538
-0.055341
-0.015168
0.021236
0.048511
0.078939
0.107914
0.153906
0.144180
0.096310
0.066138
0.019185
-0.030110
-0.095614
-0.154560
-0.197685
-0.183077
-0.193961
-0.198948
-0.176334
-0.084906
-0.021217
0.000102
0.014767
0.063124
0.096986
0.102611
0.116080
0.106316
0.078075
0.061323
0.008573
-0.062267
-0.081254
-0.139858
-0.175719
-0.179838
-0.157825
-0.146772
-0.160012
-0.154380
-0.116281
-0.073570
-0.021385
0.034434
0.070766
0.127364
0.135824
0.116031
0.082459
0.068244
0.009508
-0.043340
-0.093245
-0.123582
-0.139933
-0.171664
-0.173229
-0.170453
-0.166053
-0.112289
-0.084667
-0.033889
0.034500
0.069629
0.077799
0.090707
0.082615
0.090636
0.076432
0.062075
0.016924
-0.040917
-0.111746
-0.138696
-0.156388
-0.174252
-0.169402
-0.155593
-0.127568
-0.089151
-0.056235
-0.006183
0.026542
0.070610
0.110657
0.126306
0.121389
0.114471
0.093292
0.049523
0.006874
-0.031142
-0.063245
-0.114714
-0.129323
-0.160322
-0.154389
-0.151373
-0.143969
-0.116687
-0.080347
-0.038844
0.028663
0.064937
0.091439
0.094164
0.097334
0.099827
0.084429
0.106015
0.050692
-0.010934
-0.049988
-0.076912
-0.125575
-0.156130
-0.176733
-0.155219
-0.121467
-0.105620
-0.074872
-0.035050
0.002806
0.039930
0.076490
0.099525
0.116035
0.123690
0.080547
0.057581
0.054305
0.009442
-0.086889
-0.136945
-0.155972
-0.168976
-0.158781
-0.160800
-0.142402
-0.108078
-0.060224
-0.022235
0.011704
0.053280
0.080928
0.108650
0.129859
0.101993
0.070231
0.058118
0.006793
-0.025604
-0.078631
-0.141025
-0.171303
-0.192935
-0.188316
-0.193446
-0.179816
-0.142662
-0.107189
-0.074396
-0.021775
0.067214
0.124743
0.134456
0.128394
0.128188
0.111417
0.076064
0.005368
-0.048838
-0.076555
-0.110884
-0.153966
-0.189959
-0.197175
-0.184183
-0.168752
-0.126922
-0.090862
-0.056661
-0.023887
0.028088
0.081741
0.102386
0.100010
0.085174
0.062127
0.028268
-0.014430
-0.063649
-0.117261
-0.135597
-0.182767
-0.182305
-0.148725
-0.122735
-0.125270
-0.091542
-0.065216
-0.034276
-0.002073
0.031608
0.077343
0.097966
0.101653
0.073055
0.040622
0.015366
-0.013794
-0.061313
-0.111553
-0.120155
-0.151576
-0.178468
-0.201570
-0.202149
-0.171046
-0.137878
-0.097577
-0.052532
-0.013617
0.018338
0.085171
0.089865
0.080353
0.101487
0.100641
0.088440
0.032378
-0.027096
-0.075986
-0.116414
-0.163498
-0.190953
-0.206204
-0.212365
-0.183629
-0.163114
-0.124177
-0.093294
-0.035906
0.019109
0.060450
0.096948
0.103584
0.088328
0.063879
0.037950
-0.002236
-0.029396
-0.068644
-0.126134
-0.158280
-0.188662
-0.198362
-0.183566
-0.179665
-0.135520
-0.108573
-0.065405
-0.018794
0.026047
0.056952
0.077295
0.069515
0.065236
0.047245
0.016762
-0.015088
-0.047455
-0.089911
-0.135804
-0.189284
-0.219423
-0.214146
-0.165430
-0.138194
-0.118262
-0.084850
-0.043855
0.004722
0.032190
0.061022
0.067289
0.105839
0.092430
0.071843
0.053559
0.000104
-0.059619
-0.102904
-0.131225
-0.176837
-0.197281
-0.193794
-0.188212
-0.172093
-0.143399
-0.106004
-0.061882
-0.005415
0.031314
0.052146
0.054026
0.098846
0.113077
0.094116
0.087972
0.040723
-0.020986
-0.041055
-0.092639
-0.112932
-0.158455
-0.181215
-0.163726
-0.135574
-0.110310
-0.075348
-0.031762
0.016075
0.062940
0.098086
0.122019
0.124643
0.127165
0.103640
0.057906
0.010982
-0.044345
-0.059266
-0.101518
-0.109505
-0.142224
-0.127492
-0.096944
-0.123637
-0.116078
-0.077148
-0.013067
0.041209
0.085133
0.117854
0.142830
0.151595
0.139502
0.111096
0.071330
0.028613
-0.016171
-0.062173
-0.086586
-0.128943
-0.162809
-0.177904
-0.179153
-0.142602
-0.102552
-0.068692
-0.001883
0.045660
0.082049
0.098200
0.117593
0.147932
0.163658
0.112619
0.095608
0.060646
-0.007325
-0.072058
-0.122065
-0.150986
-0.178641
-0.195021
-0.197944
-0.180441
-0.158186
-0.130715
-0.066309
0.010628
0.055282
0.078891
0.089035
0.096535
0.089374
0.068024
0.062290
-0.001996
-0.062926
-0.121219
-0.162538
-0.131476
-0.165103
-0.200203
-0.191317
-0.160482
-0.112879
-0.104816
-0.081782
-0.036338
-0.007565
0.027344
0.051016
0.062848
0.052433
0.039844
0.005736
-0.031739
-0.085242
-0.119544
-0.156355
-0.195744
-0.198449
-0.217193
-0.228409
-0.197489
-0.165395
-0.108419
-0.058138
-0.031314
0.006807
0.062891
0.091253
0.090787
0.072576
0.056632
0.020467
-0.022388
-0.080359
-0.140160
-0.189231
-0.205033
-0.222523
-0.230678
-0.219312
-0.203964
-0.169386
-0.128043
-0.079866
-0.034006
0.001387
0.039887
0.086665
0.072577
0.062988
0.044939
-0.001302
0.002153
0.000469
-0.084844
-0.187763
-0.187172
-0.201127
-0.205877
-0.211743
-0.198634
-0.159786
-0.134625
-0.093057
-0.039539
-0.002623
0.017689
0.048690
0.044765
0.093592
0.100195
0.058679
0.024904
0.013057
-0.007363
-0.050425
-0.071684
-0.089944
-0.069782
-0.035037
-0.002721
0.047921
0.128288
0.191156
0.259215
0.328101
0.391315
0.444719
0.492820
0.507113
0.528170
0.537024
0.520802
0.527130
0.515056
0.517770
0.536490
0.559966
0.599609
0.621955
0.654674
0.677945
0.738553
0.808856
0.817469
0.808952
0.846378
0.861503
0.836416
0.761419
0.657202
0.570820
0.480113
0.376315
0.257465
0.175375
0.100542
0.025760
-0.013726
-0.006597
0.008461
0.023941
0.047836
0.080336
0.124654
0.147053
0.169083
0.175275
0.173613
0.160868
0.146353
0.117080
0.066611
0.007748
-0.035658
-0.087631
-0.111739
-0.116098
-0.119234
-0.116948
-0.099546
-0.065313
-0.043248
-0.014970
0.022327
0.064708
0.097659
0.105685
0.112425
0.104932
0.069271
0.047835
0.000425
-0.025099
-0.066079
-0.079633
-0.138797
-0.186686
-0.183941
-0.185411
-0.164586
-0.135911
-0.088480
-0.050845
0.004765
0.068181
0.096120
0.108952
0.136715
0.151340
0.122136
0.049524
0.006013
-0.022004
-0.074153
-0.112349
-0.144159
-0.188400
-0.223412
-0.185397
-0.173911
-0.133846
-0.113395
-0.092958
-0.013595
0.033813
0.094137
0.128522
0.156424
0.132735
0.085969
0.047039
0.023103
-0.004634
-0.054803
-0.072285
-0.102988
-0.122164
-0.143819
-0.169607
-0.164218
-0.118774
-0.035674
0.009566
0.039627
0.071859
0.100487
0.120073
0.128545
0.127066
0.099982
0.071975
0.032110
-0.008475
-0.046836
-0.091944
-0.124181
-0.140718
-0.146688
-0.144266
-0.119285
-0.075329
-0.025889
0.021055
0.063688
0.106685
0.132691
0.158708
0.174881
0.172911
0.143617
0.118589
0.073134
0.022592
-0.009621
-0.036341
-0.088634
-0.129376
-0.132220
-0.100156
-0.085414
-0.051525
-0.004482
0.024315
0.075557
0.130653
0.177536
0.205430
0.196270
0.192720
0.159599
0.120704
0.092345
0.059855
0.080214
0.028272
-0.030968
-0.078762
-0.075489
-0.078304
-0.025194
-0.015256
0.027468
0.058247
0.107871
0.154846
0.166830
0.184380
0.189194
0.188170
0.187378
0.223001
0.225108
0.137624
0.061005
0.004602
-0.031168
-0.048342
-0.053132
-0.038371
-0.031916
0.018462
0.044552
0.068881
0.143938
0.192352
0.200409
0.209306
0.206974
0.206248
0.178237
0.126566
0.089120
0.065554
0.005446
-0.038819
-0.038924
-0.059538
-0.067821
-0.071891
-0.041651
-0.028603
0.008515
0.047456
0.110328
0.179217
0.195887
0.209451
0.211933
0.224663
0.198642
0.142340
0.095717
0.058027
0.001638
-0.042332
-0.085799
-0.104424
-0.129895
-0.113920
-0.089302
-0.080886
-0.022696
0.022254
0.083322
0.133079
0.148282
0.166964
0.161301
0.139247
0.099913
0.063302
0.019632
-0.025030
-0.021025
-0.044822
-0.105943
-0.130501
-0.082572
-0.092537
-0.101119
-0.073101
-0.034981
0.008198
0.044763
0.065003
0.098298
0.107332
0.126550
0.126918
0.094550
0.080633
0.012045
-0.051934
-0.080594
-0.117746
-0.176072
-0.186934
-0.203195
-0.201483
-0.172275
-0.100676
-0.067723
-0.020368
0.024437
0.049762
0.110452
0.127596
0.130907
0.118791
0.094999
0.066818
0.013923
-0.018702
-0.061066
-0.119121
-0.160459
-0.179700
-0.198408
-0.176692
-0.154940
-0.127232
-0.096976
-0.051819
-0.002465
0.032942
0.067457
0.109254
0.132355
0.110337
0.093437
0.038357
0.001761
-0.058860
-0.082109
-0.109846
-0.124461
-0.142036
-0.132771
-0.135832
-0.131353
-0.115868
-0.080704
-0.032892
0.015463
0.070464
0.084401
0.088209
0.090085
0.085321
0.084993
0.061681
0.014430
-0.028649
-0.080270
-0.082347
-0.102869
-0.142879
-0.184641
-0.167533
-0.132567
-0.106219
-0.065019
-0.003308
0.040846
0.079241
0.102366
0.115464
0.126660
0.120296
0.097775
0.054034
0.018730
-0.015740
-0.047923
-0.096919
-0.139375
-0.169812
-0.180845
-0.162609
-0.136926
-0.117566
-0.076767
-0.007521
0.030157
0.062568
0.071543
0.117714
0.125710
0.114265
0.097030
0.081779
0.037523
-0.020091
-0.078118
-0.113005
-0.117415
-0.111559
-0.145301
-0.148508
-0.137277
-0.115751
-0.064417
-0.023701
0.005312
0.044198
0.075140
0.111551
0.142400
0.121511
0.088662
0.049518
-0.000337
-0.039743
-0.084704
-0.136407
-0.162970
-0.169562
-0.158837
-0.127282
-0.108363
-0.083396
-0.056161
-0.005757
0.005255
0.060755
0.083301
0.150234
0.146180
0.127491
0.101038
0.062571
0.032600
-0.035419
-0.084538
-0.134548
-0.147303
-0.182919
-0.218535
-0.204231
-0.141664
-0.112831
-0.058797
-0.022621
-0.009039
0.037665
0.079185
0.100204
0.111550
0.110503
0.089099
0.055934
0.026244
-0.014442
-0.058542
-0.101155
-0.126132
-0.156504
-0.172278
-0.153784
-0.144621
-0.114066
-0.078350
-0.053388
-0.025471
0.006605
0.044723
0.081743
0.102927
0.118144
0.072816
0.066088
0.009358
-0.038933
-0.089814
-0.124125
-0.159398
-0.168433
-0.183408
-0.163513
-0.136034
-0.111360
-0.076500
-0.018868
0.015104
0.054971
0.092821
0.092862
0.083337
0.061810
0.103327
0.069200
0.027504
-0.016062
-0.096631
-0.150719
-0.156680
-0.169438
-0.200825
-0.202163
-0.180539
-0.153923
-0.103944
-0.050638
-0.005078
0.053026
0.066023
0.089526
0.144265
0.123938
0.090219
0.033582
0.003095
-0.036804
-0.074602
-0.126548
-0.155388
-0.173381
-0.168878
-0.169057
-0.137993
-0.124162
-0.091213
-0.061993
-0.023811
0.012021
0.067267
0.095091
0.095356
0.068293
0.065933
0.035666
0.018421
-0.024240
-0.087517
-0.130861
-0.159470
-0.177773
-0.176056
-0.167945
-0.166138
-0.125465
-0.072565
-0.035255
0.005925
0.057060
0.102582
0.127198
0.104363
0.086492
0.071751
0.038837
-0.009834
-0.070163
-0.086303
-0.116787
-0.165666
-0.190021
-0.199137
-0.187278
-0.180419
-0.139751
-0.094957
-0.007404
0.046616
0.102481
0.094211
0.101499
0.116400
0.108852
0.117072
0.075679
0.024368
-0.006497
-0.022282
-0.078503
-0.114287
-0.155162
-0.154335
-0.144530
-0.113808
-0.085373
-0.058639
-0.023231
0.030745
0.085043
0.105317
0.127599
0.133570
0.117416
0.099993
0.086279
0.048266
-0.001314
-0.030898
-0.098189
-0.142982
-0.146639
-0.132264
-0.118081
-0.083952
-0.039372
-0.015463
0.030274
0.062087
0.097760
0.132608
0.136276
0.150410
0.155534
0.145914
0.121544
0.057053
-0.015591
-0.044370
-0.086675
-0.118411
-0.111905
-0.133193
-0.151176
-0.124629
-0.082187
-0.045961
0.003963
0.031683
0.086623
0.109673
0.140914
0.133125
0.124830
0.105420
0.058473
0.012022
-0.020060
-0.064786
-0.106689
-0.169509
-0.174444
-0.186525
-0.175094
-0.157292
-0.122435
-0.085486
-0.044021
-0.012820
0.020442
0.041917
0.057082
0.073468
0.069693
0.080676
0.061847
0.053760
-0.002262
-0.064049
-0.131121
-0.155873
-0.167628
-0.183204
-0.188025
-0.157190
-0.126931
-0.102863
-0.058685
0.005119
-0.006240
0.014785
0.049637
0.062879
0.049684
0.031589
0.004235
-0.029341
-0.086211
-0.130193
-0.122495
-0.138516
-0.170113
-0.205268
-0.185063
-0.155778
-0.145619
-0.082954
-0.045886
-0.018325
0.020821
0.063521
0.101466
0.115309
0.086531
0.062203
0.032511
-0.030045
-0.071544
-0.116721
-0.150831
-0.181128
-0.204905
-0.198497
-0.195445
-0.178181
-0.151788
-0.103271
-0.058901
-0.021125
0.001591
0.039846
0.078845
0.097547
0.089609
0.056540
0.020336
-0.023322
-0.068584
-0.080113
-0.114321
-0.169582
-0.196159
-0.196681
-0.209197
-0.200336
-0.168012
-0.132301
-0.087066
-0.058277
-0.013557
0.022993
0.086670
0.151884
0.169973
0.111148
0.081060
0.071902
0.046837
0.032408
-0.000345
-0.026967
-0.046136
-0.039701
-0.037859
0.076756
0.117234
0.194362
0.307877
0.411381
0.482158
0.507773
0.539762
0.599140
0.626639
0.633224
0.627517
0.634367
0.638123
0.626235
0.615977
0.618895
0.611102
0.616973
0.600685
0.624556
0.665601
0.694591
0.747493
0.768196
0.803786
0.734769
0.689500
0.635232
0.575627
0.525665
0.481353
0.387156
0.290293
0.178223
0.097015
0.054300
-0.005453
-0.036783
-0.041678
-0.015937
0.042517
0.045205
0.088343
0.136044
0.160001
0.137775
0.138634
0.171073
0.153886
0.156850
0.125474
0.089963
0.024954
-0.030510
-0.070863
-0.082832
-0.116765
-0.137878
-0.112686
-0.120396
-0.114432
-0.055736
0.015357
0.061480
0.095918
0.112375
0.120131
0.139071
0.134771
0.108051
0.077675
0.023748
-0.019051
-0.072469
-0.113681
-0.134938
-0.151718
-0.156046
-0.139961
-0.115948
-0.097850
-0.065818
-0.044106
0.013887
0.057732
0.087442
0.116756
0.131868
0.125618
0.110885
0.078253
0.043079
-0.008797
-0.060874
-0.094894
-0.115343
-0.166209
-0.161463
-0.146109
-0.137990
-0.100309
-0.064016
-0.027942
-0.005403
0.029426
0.080443
0.133076
0.197632
0.163824
0.104789
0.058943
0.026168
-0.001452
-0.037675
-0.080472
-0.117229
-0.132269
-0.135006
-0.129177
-0.112963
-0.094314
-0.067026
-0.036964
-0.019566
0.051643
0.158265
0.192125
0.206082
0.187708
0.146678
0.102390
0.051292
0.007621
-0.021264
-0.063510
-0.088832
-0.125070
-0.143607
-0.093297
-0.059198
-0.029467
-0.011914
0.053213
0.107511
0.145027
0.175017
0.198098
0.204227
0.187514
0.173510
0.144777
0.095442
0.046384
-0.004338
-0.051663
-0.069839
-0.097639
-0.106716
-0.086320
-0.040741
-0.011426
0.002050
0.055241
0.102436
0.147867
0.184982
0.187358
0.210233
0.198213
0.199404
0.163303
0.140073
0.123146
0.097678
0.028437
-0.031013
-0.053728
-0.059441
-0.041282
-0.028351
-0.008185
0.044132
0.081827
0.103410
0.160418
0.248270
0.265869
0.252206
0.241797
0.225513
0.193394
0.143272
0.088458
0.044756
0.007441
-0.014536
-0.041252
-0.039904
-0.021767
-0.004093
0.023455
0.069444
0.121621
0.148871
0.172202
0.199208
0.231166
0.234905
0.234953
0.221462
0.186480
0.130723
0.080119
0.031722
-0.025782
-0.055384
-0.049599
-0.053926
-0.073573
-0.055145
-0.034411
0.046474
0.092226
0.133663
0.166502
0.195130
0.225176
0.221556
0.185855
0.181223
0.180651
0.132712
0.076507
0.021354
-0.010938
-0.051271
-0.089749
-0.113649
-0.108994
-0.087657
-0.056010
-0.000702
0.044419
0.074198
0.123338
0.110777
0.134200
0.136572
0.137907
0.130697
0.089633
0.060888
0.017929
-0.020592
-0.055685
-0.088262
-0.111015
-0.125500
-0.141877
-0.103946
-0.074141
-0.043380
-0.008049
0.052162
0.111407
0.133827
0.119124
0.117972
0.127676
0.146639
0.101772
0.053748
-0.018457
-0.070034
-0.109868
-0.130876
-0.153506
-0.191996
-0.171888
-0.138328
-0.099752
-0.050685
-0.011494
0.030900
0.078686
0.107883
0.109418
0.115445
0.112698
0.118991
0.064179
0.028846
-0.017463
-0.066490
-0.100177
-0.109029
-0.143812
-0.165156
-0.166774
-0.136273
-0.122037
-0.105038
-0.066998
0.028791
0.072556
0.091348
0.094964
0.126994
0.118585
0.091010
0.059555
0.028045
-0.025865
-0.067686
-0.113129
-0.142684
-0.181204
-0.184446
-0.128219
-0.116895
-0.083226
-0.054490
0.006833
0.048470
0.090228
0.109848
0.121731
0.137238
0.137976
0.110654
0.081169
0.040515
-0.011214
-0.068905
-0.130639
-0.132053
-0.151688
-0.172997
-0.179781
-0.126738
-0.079935
-0.056920
-0.016077
0.021901
0.063708
0.118968
0.179646
0.201710
0.174647
0.128442
0.077855
0.025407
0.012876
-0.061636
-0.108727
-0.139427
-0.152533
-0.153183
-0.149248
-0.122079
-0.058489
-0.032215
-0.007611
0.016607
0.072015
0.112280
0.125846
0.129261
0.115761
0.098872
0.063597
0.039238
-0.007172
-0.048952
-0.085125
-0.111609
-0.148616
-0.166363
-0.135310
-0.124644
-0.088562
-0.053906
-0.024220
0.000609
0.051891
0.089721
0.130874
0.168545
0.167431
0.123389
0.068565
0.013965
-0.031047
-0.068578
-0.114445
-0.139132
-0.138091
-0.139265
-0.141385
-0.125184
-0.088535
-0.057352
-0.007076
0.045638
0.086066
0.116776
0.147974
0.148936
0.136980
0.121967
0.073197
0.023421
-0.049881
-0.090949
-0.133590
-0.142085
-0.124077
-0.125109
-0.130891
-0.134311
-0.115181
-0.063616
-0.059019
-0.007188
0.034390
0.103616
0.145080
0.140220
0.115995
0.098746
0.064872
0.031632
-0.017800
-0.047831
-0.084848
-0.135001
-0.162886
-0.177949
-0.172938
-0.145845
-0.076136
-0.053580
-0.028894
-0.005661
0.071651
0.094094
0.111951
0.128745
0.108107
0.081568
0.033892
-0.009058
-0.033677
-0.063499
-0.110323
-0.149754
-0.170246
-0.165557
-0.152411
-0.136719
-0.100195
-0.070810
-0.026869
0.017162
0.040619
0.070501
0.107947
0.105214
0.126118
0.122572
0.088260
0.026762
-0.044361
-0.088404
-0.138564
-0.174620
-0.163779
-0.172977
-0.164351
-0.139544
-0.117666
-0.074423
-0.036713
0.004952
0.060856
0.082635
0.121375
0.139078
0.139967
0.098646
0.050948
0.005086
-0.040435
-0.084152
-0.128028
-0.120283
-0.110696
-0.130308
-0.127507
-0.129928
-0.078916
-0.036649
-0.036350
-0.010494
0.028070
0.057645
0.100063
0.120986
0.115802
0.077854
0.042163
0.006376
-0.041803
-0.074441
-0.106227
-0.143072
-0.168003
-0.179229
-0.172620
-0.163286
-0.122129
-0.052150
-0.018678
0.005900
0.091786
0.113339
0.112996
0.089836
0.081341
0.077886
0.050350
0.015283
-0.034311
-0.080741
-0.135109
-0.159831
-0.174895
-0.164971
-0.150787
-0.137006
-0.081837
-0.044949
-0.016854
0.019659
0.053015
0.092551
0.126121
0.141138
0.181970
0.161688
0.109352
0.060403
-0.017996
-0.096611
-0.101989
-0.119578
-0.110682
-0.092733
-0.085462
-0.073042
-0.071977
-0.051959
0.015344
0.041426
0.058943
0.090939
0.128435
0.130615
0.154538
0.168423
0.102547
0.023037
0.008388
-0.039283
-0.072924
-0.084592
-0.103740
-0.066454
-0.068147
-0.083995
-0.063911
-0.035268
0.015868
0.069420
0.106539
0.156547
0.190212
0.180512
0.152410
0.126906
0.104387
0.051997
0.003276
-0.045672
-0.090852
-0.128812
-0.161389
-0.138153
-0.155398
-0.169599
-0.125596
-0.075615
-0.049842
0.004857
0.102480
0.148810
0.140343
0.123262
0.119417
0.106758
0.065140
0.024637
-0.015284
-0.048676
-0.105290
-0.127718
-0.145943
-0.170275
-0.168046
-0.142760
-0.114012
-0.089855
-0.047405
-0.007100
0.021341
0.063628
0.084686
0.089454
0.070152
0.041061
0.032203
-0.022902
-0.089257
-0.104039
-0.145098
-0.177855
-0.175510
-0.155369
-0.142230
-0.119052
-0.084385
-0.092469
-0.044002
0.004520
0.064228
0.087602
0.104949
0.089597
0.070000
0.045907
0.023754
-0.014021
-0.048345
-0.106767
-0.157891
-0.178335
-0.196540
-0.197444
-0.206530
-0.180987
-0.125577
-0.095566
-0.067623
-0.006724
0.033929
0.066573
0.092694
0.087533
0.087585
0.062596
0.044392
0.018832
-0.046026
-0.092700
-0.146034
-0.181664
-0.191509
-0.208513
-0.169982
-0.158735
-0.142394
-0.104647
-0.061268
-0.013818
-0.002095
0.046309
0.091555
0.085011
0.059376
0.055815
0.043030
-0.023491
-0.067826
-0.119877
-0.167808
-0.214320
-0.192611
-0.207693
-0.181746
-0.154270
-0.095873
-0.056613
-0.018667
0.058719
0.105089
0.117453
0.139478
0.160412
0.175663
0.189967
0.155017
0.140790
0.120600
0.108432
0.099817
0.077855
0.103104
0.129179
0.156028
0.208485
0.264642
0.350123
0.464607
0.558644
0.598406
0.681169
0.755857
0.810396
0.819873
0.809355
0.804762
0.813445
0.787369
0.757116
0.707713
0.648329
0.584496
0.561943
0.546546
0.535886
0.517047
0.491268
0.473812
0.474084
0.433210
0.400890
0.367458
0.326481
0.288502
0.250081
0.215290
0.180619
0.151668
0.068398
0.035857
0.000817
-0.042638
-0.062217
-0.061959
-0.043161
-0.031636
0.019417
0.044396
0.081156
0.118720
0.148607
0.171988
0.174501
0.158531
0.116980
0.067740
0.069404
0.008322
-0.049737
-0.086023
-0.131226
-0.153371
-0.170081
-0.149138
-0.111082
-0.092789
-0.046274
-0.023508
0.020421
0.094300
0.123574
0.128453
0.118143
0.148925
0.120261
0.068861
0.016455
-0.025120
-0.072881
-0.103743
-0.135154
-0.151333
-0.182488
-0.193056
-0.169679
-0.138934
-0.094277
-0.033458
0.036034
0.067148
0.070946
0.134675
0.188886
0.176491
0.108071
0.075536
0.033030
-0.029705
-0.063894
-0.102148
-0.129123
-0.141637
-0.150233
-0.128212
-0.098097
-0.088099
-0.053772
-0.006151
0.052800
0.076126
0.089108
0.113549
0.108371
0.105373
0.103049
0.075294
0.025139
-0.002613
-0.047020
-0.083301
-0.118599
-0.129009
-0.126104
-0.136174
-0.120733
-0.065742
-0.011567
0.027248
0.054989
0.081602
0.123556
0.151463
0.202260
0.168452
0.131870
0.099560
0.076034
0.031058
-0.008452
-0.022559
-0.088702
-0.136820
-0.149967
-0.119689
-0.048871
-0.018244
0.015186
0.046068
0.087939
0.108064
0.157241
0.183314
0.177303
0.176964
0.165652
0.145442
0.104734
0.061142
0.010412
-0.008745
-0.046408
-0.060404
-0.084074
-0.082923
-0.051889
-0.016002
0.023268
0.078921
0.134615
0.116542
0.190771
0.211413
0.204452
0.234570
0.239088
0.180728
0.105564
0.070458
0.030407
0.006726
-0.024940
-0.074591
-0.078142
-0.063027
-0.054079
-0.041536
0.022211
0.121739
0.184897
0.221495
0.245336
0.250200
0.248009
0.244719
0.229054
0.200061
0.156843
0.122537
0.053716
-0.001347
-0.015487
-0.040263
-0.047433
-0.041591
-0.035185
-0.012758
0.011032
0.047558
0.144781
0.177298
0.187346
0.204917
0.212948
0.230247
0.215924
0.173300
0.109906
0.067696
0.018037
-0.019408
-0.042207
-0.058325
-0.043768
-0.050151
-0.058140
-0.016416
0.019717
0.065913
0.136655
0.161899
0.161162
0.157794
0.165193
0.192045
0.180745
0.115669
0.060958
0.021197
-0.012736
-0.053259
-0.087844
-0.109693
-0.118214
-0.122187
-0.109882
-0.065938
-0.025611
0.023575
0.083223
0.102417
0.122758
0.139568
0.160108
0.162541
0.122420
0.075090
0.032766
-0.001996
-0.029730
-0.085999
-0.130530
-0.158759
-0.164796
-0.162977
-0.152507
-0.093376
-0.065368
-0.025182
0.015873
0.063483
0.116675
0.154454
0.144682
0.118229
0.102807
0.086480
0.042127
-0.005335
-0.056609
-0.114170
-0.117152
-0.140311
-0.189392
-0.168302
-0.143952
-0.118700
-0.083653
-0.023167
0.024874
0.048215
0.040738
0.093746
0.098665
0.097554
0.073540
0.033789
-0.003757
-0.051833
-0.099870
-0.118784
-0.138124
-0.156867
-0.172394
-0.165112
-0.140260
-0.099156
-0.054809
-0.010928
0.012066
0.034229
0.064520
0.090600
0.121149
0.128444
0.114174
0.046432
-0.017280
-0.069822
-0.097038
-0.106989
-0.127936
-0.148897
-0.187281
-0.189427
-0.147099
-0.130080
-0.083873
-0.052205
-0.001210
0.043245
0.093536
0.137627
0.144461
0.163972
0.134849
0.069872
0.020663
-0.009422
-0.034180
-0.061577
-0.112836
-0.136522
-0.149782
-0.156191
-0.166829
-0.127504
-0.102963
-0.046862
-0.011175
0.034317
0.089811
0.115179
0.106846
0.109981
0.089598
0.049028
0.021556
-0.015052
-0.079736
-0.121035
-0.140642
-0.154379
-0.175339
-0.156332
-0.131110
-0.100155
-0.076336
-0.029163
0.019550
0.052068
0.086565
0.110767
0.118201
0.108465
0.066029
0.065037
0.022563
-0.028566
-0.069822
-0.114075
-0.149626
-0.191859
-0.204781
-0.195216
-0.156390
-0.118469
-0.078233
-0.033707
0.024868
0.067430
0.104654
0.120992
0.120578
0.113125
0.087839
0.055369
0.012622
-0.023172
-0.051839
-0.101168
-0.140898
-0.169132
-0.181217
-0.181629
-0.165232
-0.128123
-0.094592
-0.055140
0.001662
0.058296
0.092698
0.093502
0.090284
0.087901
0.069496
0.032061
-0.003912
-0.039929
-0.087431
-0.120171
-0.161852
-0.179281
-0.180923
-0.204664
-0.185271
-0.117056
-0.067091
0.028057
0.088690
0.094364
0.068586
0.074909
0.096495
0.101712
0.074407
0.018277
-0.033858
-0.074513
-0.089745
-0.130704
-0.171674
-0.187244
-0.164774
-0.155308
-0.164397
-0.131368
-0.068498
-0.030026
0.001105
0.030354
0.044380
0.098351
0.111297
0.116417
0.081563
0.037334
-0.012170
-0.054528
-0.093151
-0.129117
-0.179878
-0.190910
-0.192985
-0.184160
-0.179989
-0.151011
-0.138662
-0.075482
0.010135
0.053828
0.071991
0.093145
0.088478
0.073766
0.069938
0.032271
-0.013053
-0.049893
-0.086775
-0.113988
-0.148124
-0.181203
-0.210168
-0.192688
-0.184604
-0.158233
-0.089860
-0.038988
0.003980
0.041855
0.075337
0.073763
0.091565
0.076211
0.043703
0.018111
0.000746
-0.039857
-0.110592
-0.173608
-0.194204
-0.167314
-0.165368
-0.187265
-0.164180
-0.111818
-0.094008
-0.079943
-0.038287
0.027454
0.083788
0.115017
0.091361
0.115685
0.092177
0.027736
-0.033520
-0.071668
-0.118160
-0.136610
-0.162646
-0.192062
-0.211535
-0.202737
-0.171624
-0.140946
-0.109548
-0.059783
-0.023112
0.027813
0.073741
0.102666
0.097993
0.090174
0.072393
0.034860
0.003330
-0.031591
-0.083757
-0.123476
-0.158553
-0.184827
-0.204257
-0.202234
-0.175540
-0.141183
-0.110737
-0.064378
-0.024218
0.021190
0.033998
0.084321
0.094089
0.108311
0.082422
0.035583
0.000772
-0.045843
-0.076641
-0.113857
-0.146793
-0.159068
-0.160845
-0.170538
-0.155392
-0.109049
-0.059033
-0.005456
0.034253
0.065442
0.096591
0.134475
0.162469
0.151795
0.092505
0.047728
0.005590
-0.054245
-0.093499
-0.130068
-0.133426
-0.127796
-0.158287
-0.170606
-0.144728
-0.100880
-0.086883
-0.034032
0.031101
0.072808
0.102890
0.122555
0.148391
0.138959
0.113472
0.086662
0.048309
0.008748
-0.030603
-0.056862
-0.090817
-0.137950
-0.148536
-0.124840
-0.102734
-0.080217
-0.051546
-0.028078
0.009920
0.046934
0.084692
0.104604
0.100797
0.094194
0.094714
0.073585
0.019586
-0.029983
-0.075144
-0.119074
-0.176407
-0.196898
-0.158532
-0.122853
-0.144001
-0.139416
-0.076572
-0.038743
0.002610
0.059291
0.081925
0.088758
0.086088
0.073040
0.053838
0.027560
-0.019087
-0.072631
-0.123011
-0.160867
-0.192290
-0.211791
-0.218489
-0.212170
-0.191005
-0.159205
-0.124099
-0.067332
-0.022973
0.013493
0.057932
0.069150
0.049125
0.034927
0.044126
0.062088
0.033201
-0.028132
-0.092328
-0.159631
-0.188428
-0.241317
-0.200929
-0.215223
-0.216404
-0.196000
-0.139277
-0.055617
-0.013012
-0.012970
-0.010476
0.050052
0.075006
0.087355
0.071286
0.034094
-0.017136
-0.071307
-0.134576
-0.178350
-0.189725
-0.201170
-0.188010
-0.186379
-0.168493
-0.157413
-0.114404
-0.069957
-0.027822
0.009153
0.031613
0.050512
0.058429
0.068347
0.037318
0.004876
-0.041041
-0.083130
-0.120063
-0.132551
-0.162800
-0.190171
-0.221507
-0.235361
-0.240113
-0.192806
-0.114737
-0.077176
-0.025451
0.018436
0.038686
0.048198
0.074891
0.073736
0.052904
0.038428
0.003429
-0.024684
-0.066758
-0.101733
-0.136716
-0.123786
-0.115304
-0.099185
-0.054906
-0.016615
0.038927
0.091943
0.148836
0.227940
0.294533
0.339295
0.381025
0.398556
0.423731
0.424287
0.409957
0.400544
0.391680
0.383047
0.385951
0.397869
0.414160
0.465868
0.528186
0.607330
0.702076
0.768848
0.802610
0.789538
0.828088
0.842835
0.822024
0.774834
0.708285
0.657185
0.554516
0.445405
0.369411
0.261197
0.181905
0.100896
0.017277
-0.031715
-0.011340
0.010158
0.042729
0.085170
0.168128
0.167311
0.154534
0.184759
0.219749
0.212236
0.152884
0.123854
0.077161
0.051809
0.019161
-0.061069
-0.084222
-0.104975
-0.131849
-0.141678
-0.134293
-0.098300
-0.045002
-0.013616
0.019052
0.070883
0.091718
0.121236
0.121297
0.100842
0.069546
0.050096
0.047811
0.008411
-0.057414
-0.105859
-0.129638
-0.146125
-0.156605
-0.156580
-0.146349
-0.114590
-0.081636
-0.029132
0.026791
0.068281
0.096360
0.099478
0.096731
0.090647
0.076968
0.056143
0.008020
-0.041025
-0.085397
-0.125644
-0.161754
-0.182445
-0.179236
-0.169541
-0.140723
-0.100378
-0.055051
-0.026670
0.026911
0.075898
0.115759
0.136856
0.120462
0.107846
0.094877
0.084849
0.025512
-0.030649
-0.068109
-0.094604
-0.127870
-0.154476
-0.144560
-0.110373
-0.102868
-0.075159
-0.054553
-0.014977
0.039993
0.070865
0.101640
0.115402
0.127405
0.128619
0.112216
0.078501
0.017578
0.002081
-0.032813
-0.086365
-0.094894
-0.115296
-0.121028
-0.122577
-0.102177
-0.071244
-0.026241
0.021007
0.051896
0.087413
0.119718
0.151256
0.200684
0.208837
0.158913
0.113187
0.110992
0.030495
-0.037356
-0.073384
-0.073811
-0.108672
-0.116403
-0.092753
-0.083005
-0.060691
-0.020418
0.022143
0.095494
0.141215
0.183915
0.230529
0.236624
0.215644
0.197787
0.169741
0.116361
0.071165
0.020682
-0.013599
-0.042669
-0.064595
-0.069564
-0.062257
-0.044705
-0.002789
0.037408
0.082930
0.123158
0.167225
0.187613
0.198662
0.211702
0.210345
0.200016
0.171842
0.138199
0.100434
0.061976
0.040926
-0.010858
-0.048670
-0.056932
-0.050194
-0.011106
0.023091
0.063377
0.109208
0.156346
0.186699
0.216980
0.233258
0.238892
0.242496
0.212521
0.179737
0.133341
0.090041
0.025300
-0.036710
-0.060554
-0.053937
-0.027047
-0.009764
-0.008032
-0.005364
0.008935
0.037064
0.102125
0.147172
0.190128
0.217329
0.214896
0.218935
0.208715
0.187460
0.129437
0.096858
0.044168
-0.022787
-0.045388
-0.068159
-0.089373
-0.087439
-0.063792
-0.030875
-0.009955
0.031570
0.081392
0.135188
0.167761
0.183214
0.172630
0.165679
0.164477
0.098815
0.040398
0.025854
-0.009628
-0.061125
-0.097670
-0.106037
-0.109962
-0.103211
-0.077751
-0.048579
-0.018506
0.026444
0.053583
0.086891
0.108232
0.152245
0.158588
0.145056
0.116575
0.081417
0.034968
-0.015278
-0.060066
-0.097606
-0.129590
-0.158116
-0.165352
-0.169221
-0.142214
-0.115340
-0.068102
-0.018130
0.024849
0.071066
0.114691
0.125846
0.114935
0.118205
0.106213
0.070626
0.015130
-0.015200
-0.056558
-0.112456
-0.136364
-0.148016
-0.160143
-0.157066
-0.142410
-0.110888
-0.085692
-0.036996
0.022419
0.061045
0.082829
0.097708
0.111801
0.127710
0.103333
0.050239
0.026387
0.009732
-0.031429
-0.104231
-0.164024
-0.180342
-0.165536
-0.137316
-0.118859
-0.082604
-0.042449
-0.007651
0.034446
0.078719
0.096420
0.126093
0.147938
0.124076
0.120401
0.053584
0.003602
-0.047854
-0.089416
-0.130245
-0.127028
-0.133565
-0.128918
-0.114677
-0.131095
-0.103905
-0.052418
-0.003145
0.012279
0.035635
0.082523
0.149263
0.177329
0.172476
0.144668
0.093873
0.052052
-0.013434
-0.079172
-0.091910
-0.090398
-0.115739
-0.164988
-0.156740
-0.135080
-0.099448
-0.058720
-0.004913
0.052524
0.079335
0.092655
0.114775
0.137341
0.138651
0.104753
0.080017
0.041585
-0.015143
-0.075063
-0.104696
-0.126321
-0.137610
-0.140881
-0.143146
-0.120164
-0.090450
-0.050064
-0.004019
0.029786
0.101416
0.121985
0.120048
0.123368
0.131280
0.113372
0.068431
0.023474
-0.024026
-0.063590
-0.095489
-0.129017
-0.164828
-0.172289
-0.160600
-0.132276
-0.108699
-0.090677
-0.026534
0.017284
0.069515
0.115119
0.146151
0.137723
0.143550
0.122166
0.083924
0.039953
-0.008336
-0.058281
-0.091544
-0.120634
-0.161074
-0.166107
-0.153489
-0.135268
-0.093010
-0.055162
-0.024167
0.014454
0.068411
0.112693
0.123913
0.126092
0.111842
0.086360
0.069077
0.014487
-0.034051
-0.096459
-0.135155
-0.138525
-0.156901
-0.139791
-0.150880
-0.138594
-0.097448
-0.081427
0.009063
0.067633
0.111341
0.110551
0.126803
0.127481
0.119282
0.091370
0.087845
0.038451
-0.033039
-0.115792
-0.105066
-0.135258
-0.177462
-0.160210
-0.152999
-0.158574
-0.124942
-0.081485
-0.035846
0.010006
0.063982
0.100219
0.101274
0.117094
0.124523
0.086107
0.071645
0.024323
-0.016435
-0.064975
-0.108041
-0.137090
-0.158106
-0.178493
-0.172506
-0.172592
-0.148976
-0.089845
-0.013003
0.054555
0.082827
0.101393
0.098766
0.096841
0.089756
0.079644
0.052574
0.005482
-0.047174
-0.094998
-0.129574
-0.144656
-0.165232
-0.157669
-0.162378
-0.152560
-0.118747
-0.075166
-0.031206
0.013194
0.052607
0.119801
0.168259
0.131850
0.072947
0.090716
0.073824
0.046497
-0.026118
-0.103176
-0.132287
-0.141996
-0.141126
-0.167564
-0.150009
-0.128276
-0.107740
-0.072769
-0.001086
0.036680
0.096964
0.111296
0.125370
0.125605
0.148967
0.127526
0.095392
0.043083
-0.004201
-0.029292
-0.066914
-0.099371
-0.117452
-0.125200
-0.131566
-0.108893
-0.056498
-0.027540
0.005746
0.053139
0.093806
0.121130
0.141710
0.141162
0.124658
0.105792
0.074196
0.035858
-0.009742
-0.037186
-0.080381
-0.097338
-0.109352
-0.105173
-0.096119
-0.075994
-0.050826
-0.011054
0.040601
0.066946
0.148907
0.161695
0.181010
0.175217
0.161397
0.156872
0.129513
0.094069
0.042491
-0.015880
-0.057477
-0.088359
-0.122319
-0.135393
-0.099898
-0.085416
-0.075338
-0.039258
0.015711
0.056329
0.097829
0.129384
0.135312
0.144202
0.134151
0.119603
0.079617
