-0.055711
-0.008285
0.036000
0.073511
0.098869
0.101114
0.097344
0.074925
0.041978
0.001564
-0.039518
-0.084676
-0.119796
-0.158533
-0.181784
-0.183660
-0.190182
-0.168965
-0.136153
-0.102693
-0.049591
-0.008051
0.011205
0.059209
0.075717
0.083339
0.075997
0.059214
0.027531
-0.010591
-0.052152
-0.099280
-0.119365
-0.169456
-0.200492
-0.196462
-0.198564
-0.183028
-0.146411
-0.106877
-0.057059
-0.010199
0.019898
0.056947
0.087311
0.098876
0.109687
0.084432
0.042939
0.001626
-0.037636
-0.089972
-0.120193
-0.155365
-0.178543
-0.201707
-0.188777
-0.163615
-0.124779
-0.079309
-0.019543
0.033539
0.074261
0.112656
0.119385
0.126983
0.120895
0.097691
0.063528
0.025018
-0.020047
-0.057681
-0.094667
-0.137524
-0.158885
-0.167786
-0.163967
-0.141161
-0.108779
-0.070460
-0.031241
0.023755
0.060327
0.102680
0.124108
0.131371
0.131247
0.112309
0.076086
0.041188
-0.005989
-0.045157
-0.083637
-0.109994
-0.138906
-0.138139
-0.127440
-0.108684
-0.078120
-0.049965
-0.008661
0.033236
0.062473
0.096470
0.122851
0.124187
0.120385
0.096312
0.052935
0.015174
-0.025151
-0.078403
-0.118026
-0.153079
-0.184752
-0.193045
-0.193194
-0.168600
-0.136184
-0.096952
-0.041803
0.002677
0.042577
0.070392
0.081966
0.086488
0.072626
0.052530
0.019363
-0.011388
-0.060992
-0.113976
-0.156633
-0.200075
-0.209149
-0.216243
-0.215850
-0.187558
-0.160810
-0.119245
-0.077221
-0.026895
0.001175
0.039977
0.068688
0.067587
0.058972
0.032027
0.002955
-0.035221
-0.076171
-0.131184
-0.160530
-0.201029
-0.222898
-0.237020
-0.234798
-0.204629
-0.169976
-0.134309
-0.090036
-0.046029
-0.017556
0.024508
0.051319
0.057508
0.050052
0.037202
0.006894
-0.037905
-0.072842
-0.118863
-0.154708
-0.198556
-0.220923
-0.223165
-0.226780
-0.213822
-0.186988
-0.141799
-0.095247
-0.043570
-0.013605
0.020619
0.050781
0.050305
0.063078
0.046826
0.015652
-0.034952
-0.088315
-0.134724
-0.161251
-0.193602
-0.217848
-0.228563
-0.213863
-0.200612
-0.175151
-0.135720
-0.094210
-0.048329
-0.022939
0.013095
0.040845
0.052397
0.042622
0.025369
-0.013611
-0.043765
-0.079551
-0.127282
-0.164058
-0.189302
-0.199439
-0.198519
-0.191603
-0.157976
-0.118803
-0.070259
-0.009447
0.055828
0.119611
0.176131
0.198266
0.220595
0.239984
0.248929
0.231328
0.227132
0.207235
0.183960
0.179698
0.163037
0.179420
0.202987
0.250899
0.302938
0.366788
0.437798
0.517122
0.610183
0.686282
0.755522
0.804701
0.821782
0.866058
0.866262
0.832235
0.790005
0.748398
0.674015
0.610716
0.548960
0.502555
0.445961
0.390798
0.348346
0.320967
0.300295
0.291923
0.291448
0.272777
0.270478
0.270653
0.269140
0.256118
0.218300
0.177056
0.132926
0.074855
0.027380
-0.023303
-0.053590
-0.090047
-0.115789
-0.116210
-0.100182
-0.060130
-0.025310
0.005676
0.045643
0.067187
0.105005
0.124756
0.134458
0.126256
0.106238
0.071094
0.030763
-0.019356
-0.077255
-0.112240
-0.145961
-0.164229
-0.178469
-0.178997
-0.152566
-0.108501
-0.067314
-0.022477
0.018879
0.037364
0.059668
0.088587
0.114906
0.111844
0.078060
0.047409
0.003016
-0.027370
-0.070729
-0.114701
-0.156957
-0.180042
-0.198658
-0.179131
-0.158815
-0.123479
-0.073428
-0.024903
0.014876
0.036447
0.079559
0.106123
0.115914
0.099087
0.082667
0.047750
0.004596
-0.039338
-0.084660
-0.117831
-0.150738
-0.168492
-0.175660
-0.172016
-0.144881
-0.107576
-0.067457
-0.034352
0.013704
0.049878
0.089710
0.120359
0.117049
0.117300
0.107957
0.078470
0.038825
-0.004738
-0.051545
-0.089343
-0.122993
-0.158985
-0.158914
-0.148020
-0.137380
-0.111418
-0.065599
-0.021421
0.029067
0.063180
0.111221
0.149773
0.152003
0.141849
0.123576
0.075491
0.039303
-0.004551
-0.040493
-0.071754
-0.103789
-0.117203
-0.118927
-0.099061
-0.079822
-0.053802
-0.017115
0.030895
0.074862
0.110619
0.137289
0.154182
0.168850
0.167298
0.141953
0.117150
0.088272
0.038651
-0.000496
-0.034536
-0.066057
-0.093236
-0.097298
-0.092669
-0.073429
-0.038933
0.002094
0.046943
0.088354
0.124963
0.171718
0.188404
0.204294
0.198596
0.175438
0.142721
0.101879
0.053752
0.006256
-0.021849
-0.068017
-0.090301
-0.089496
-0.081711
-0.063224
-0.038315
0.001579
0.040468
0.092857
0.128417
0.164686
0.192167
0.191425
0.181448
0.176575
0.137877
0.091997
0.049558
-0.006963
-0.038349
-0.075217
-0.088154
-0.093390
-0.085334
-0.062292
-0.038151
-0.001841
0.048101
0.081223
0.124407
0.150175
0.169109
0.179736
0.181268
0.165003
0.124098
0.078388
0.035803
-0.027937
-0.063434
-0.094643
-0.115901
-0.114598
-0.104315
-0.102457
-0.081592
-0.049509
-0.006829
0.042744
0.084832
0.126213
0.144137
0.151754
0.146563
0.140713
0.088197
0.048187
0.005619
-0.044009
-0.086012
-0.120300
-0.140370
-0.153624
-0.155183
-0.132454
-0.097561
-0.064724
-0.030153
0.020493
0.056227
0.097574
0.124132
0.141458
0.139740
0.117791
0.079352
0.031616
-0.014098
-0.068717
-0.112102
-0.148249
-0.172077
-0.185110
-0.170760
-0.149400
-0.116729
-0.066064
-0.039275
0.014286
0.042923
0.078742
0.098361
0.103199
0.086827
0.079108
0.056634
0.008829
-0.040552
-0.090150
-0.133625
-0.164575
-0.190535
-0.205270
-0.216544
-0.200562
-0.161984
-0.108394
-0.064552
-0.019862
0.019392
0.063358
0.088916
0.106102
0.112608
0.084919
0.053135
0.009194
-0.037445
-0.078264
-0.113500
-0.162539
-0.174355
-0.190994
-0.197200
-0.171023
-0.125152
-0.079859
-0.041870
-0.007287
0.030334
0.070303
0.092537
0.093258
0.090963
0.085183
0.055155
0.014494
-0.029462
-0.079622
-0.118489
-0.147690
-0.168430
-0.184712
-0.184896
-0.175130
-0.142690
-0.095785
-0.041484
0.002086
0.037247
0.074821
0.101277
0.112248
0.115234
0.081967
0.052593
0.014873
-0.029202
-0.072818
-0.118494
-0.150304
-0.175381
-0.184005
-0.179462
-0.149572
-0.125715
-0.080540
-0.042085
0.010012
0.051715
0.087134
0.117849
0.126536
0.123053
0.107843
0.061853
0.008135
-0.038581
-0.086105
-0.114297
-0.160165
-0.177122
-0.186151
-0.181534
-0.162372
-0.116978
-0.087186
-0.041966
0.014229
0.046140
0.081596
0.107839
0.115158
0.109808
0.102642
0.067380
0.018222
-0.039400
-0.083186
-0.117901
-0.152144
-0.178503
-0.188389
-0.185253
-0.158196
-0.122319
-0.087317
-0.046945
0.008511
0.054595
0.081655
0.098831
0.100037
0.091213
0.078531
0.047212
0.012517
-0.021323
-0.078914
-0.124665
-0.161899
-0.184027
-0.191220
-0.185469
-0.170326
-0.136650
-0.097835
-0.044832
0.000176
0.035325
0.069906
0.098492
0.101217
0.086639
0.069161
0.031937
-0.016935
-0.059260
-0.100451
-0.134052
-0.160754
-0.182308
-0.191593
-0.194887
-0.179563
-0.146212
-0.102298
-0.055660
-0.010146
0.026731
0.063828
0.081660
0.099204
0.101028
0.076297
0.045683
0.011722
-0.054743
-0.096636
-0.134648
-0.167178
-0.193456
-0.208591
-0.218919
-0.182580
-0.141526
-0.098650
-0.051407
-0.000931
0.029160
0.058629
0.088114
0.089842
0.089598
0.070605
0.041124
-0.012465
-0.052532
-0.108816
-0.144757
-0.171501
-0.196346
-0.206540
-0.203835
-0.170407
-0.141218
-0.108201
-0.059510
-0.023144
0.014451
0.058175
0.084832
0.093563
0.094483
0.071021
0.035853
-0.001201
-0.047449
-0.098877
-0.137414
-0.171952
-0.189395
-0.190601
-0.176010
-0.164396
-0.144645
-0.104074
-0.053557
-0.001819
0.046054
0.091951
0.126339
0.131588
0.129359
0.106212
0.069586
0.027293
-0.002917
-0.053816
-0.098596
-0.139766
-0.165882
-0.184791
-0.181071
-0.157034
-0.124594
-0.088707
-0.032600
0.015820
0.048258
0.085378
0.111713
0.126829
0.112009
0.096183
0.069316
0.037643
-0.005597
-0.046869
-0.077040
-0.122071
-0.148227
-0.164573
-0.156713
-0.145278
-0.115506
-0.063580
-0.013171
0.041601
0.081965
0.119241
0.126496
0.124801
0.105423
0.094471
0.051466
0.017463
-0.040673
-0.094883
-0.134786
-0.166624
-0.186262
-0.199774
-0.190011
-0.163342
-0.125129
-0.087527
-0.041986
-0.009152
0.023436
0.064722
0.089642
0.091644
0.092384
0.070144
0.044344
-0.010031
-0.049843
-0.093960
-0.129662
-0.171534
-0.206381
-0.217559
-0.210661
-0.199318
-0.173997
-0.133777
-0.086965
-0.042835
0.017206
0.046620
0.068377
0.068339
0.056895
0.036153
-0.001007
-0.045759
-0.091255
-0.151353
-0.195431
-0.219840
-0.235939
-0.238230
-0.240328
-0.214251
-0.174378
-0.140472
-0.088602
-0.042658
0.005547
0.031561
0.059851
0.076399
0.069883
0.052016
0.016695
-0.041639
-0.094381
-0.140413
-0.179289
-0.208695
-0.234144
-0.232848
-0.222790
-0.203775
-0.179173
-0.144469
-0.099793
-0.044124
-0.013001
0.024963
0.042078
0.047002
0.043425
0.029773
-0.005360
-0.043271
-0.091402
-0.117489
-0.163479
-0.207863
-0.230987
-0.237326
-0.237131
-0.212148
-0.178327
-0.140752
-0.098253
-0.047814
-0.022856
0.030618
0.051968
0.049417
0.044794
0.025688
-0.014474
-0.048855
-0.091185
-0.136768
-0.191173
-0.221554
-0.246788
-0.249142
-0.229650
-0.217116
-0.172961
-0.127666
-0.059243
0.008683
0.060534
0.110858
0.140863
0.167548
0.190325
0.187351
0.164526
0.149305
0.128271
0.092984
0.064033
0.055288
0.058520
0.071245
0.121485
0.175635
0.231999
0.319524
0.400143
0.483657
0.550217
0.620948
0.672193
0.717278
0.763841
0.790681
0.791476
0.778102
0.755530
0.708154
0.657567
0.621132
0.582589
0.549010
0.525809
0.534440
0.538975
0.532818
0.507471
0.490152
0.459164
0.444664
0.415298
0.380516
0.324507
0.267689
0.208418
0.157235
0.111001
0.058701
0.009774
-0.042982
-0.072882
-0.097427
-0.102242
-0.092549
-0.061474
-0.028664
0.012461
0.066135
0.084104
0.121076
0.152522
0.154134
0.148462
0.127939
0.090780
0.045015
-0.010057
-0.062858
-0.107623
-0.147038
-0.169412
-0.183078
-0.176164
-0.158211
-0.123233
-0.079147
-0.037696
0.022110
0.050380
0.084576
0.095421
0.108031
0.097551
0.073734
0.040921
0.007217
-0.033557
-0.089976
-0.124737
-0.159837
-0.193816
-0.200330
-0.191092
-0.170387
-0.119684
-0.076415
-0.040217
-0.002844
0.034524
0.071508
0.096754
0.114074
0.111367
0.088690
0.052291
0.012370
-0.027099
-0.075062
-0.119612
-0.164419
-0.180166
-0.184620
-0.178610
-0.155370
-0.123928
-0.075434
-0.032565
0.008618
0.036981
0.079933
0.106167
0.118114
0.125084
0.113880
0.074302
0.038616
-0.008795
-0.056988
-0.098844
-0.142808
-0.164628
-0.156301
-0.152659
-0.136031
-0.105976
-0.068436
-0.035112
0.018246
0.068809
0.107872
0.139108
0.144870
0.144063
0.127762
0.102112
0.062405
0.025869
-0.029608
-0.076050
-0.117027
-0.130318
-0.143235
-0.138199
-0.115735
-0.083191
-0.047419
0.002478
0.055788
0.112639
0.157453
0.171001
0.171924
0.161113
0.149515
0.128001
0.078972
0.039563
-0.006417
-0.045849
-0.081634
-0.099033
-0.116274
-0.121114
-0.096985
-0.067885
-0.008628
0.027225
0.076710
0.114916
0.153791
0.183550
0.203822
0.188658
0.174835
0.136344
0.105081
0.066247
0.021161
-0.016622
-0.055194
-0.079820
-0.085917
-0.085318
-0.065358
-0.030895
-0.001527
0.048778
0.091425
0.137884
0.161280
0.182681
0.202616
0.193764
0.178895
0.158415
0.122005
0.074109
0.015597
-0.029846
-0.068859
-0.087015
-0.104382
-0.099234
-0.081284
-0.056557
-0.012855
0.033211
0.077874
0.115549
0.153233
0.168234
0.181600
0.174507
0.175415
0.152679
0.107312
0.045591
-0.002822
-0.031829
-0.077518
-0.107852
-0.145321
-0.125693
-0.101971
-0.068385
-0.029116
0.021512
0.056411
0.096506
0.134199
0.156257
0.162670
0.162614
0.144343
0.097961
0.052673
0.006134
-0.037476
-0.081802
-0.115253
-0.132284
-0.146263
-0.144947
-0.129414
-0.095484
-0.064036
-0.025033
0.020999
0.067829
0.102980
0.127223
0.137866
0.129744
0.101478
0.067076
0.029255
-0.021426
-0.064170
-0.106831
-0.144379
-0.160619
-0.166831
-0.163822
-0.150433
-0.127404
-0.089677
-0.039067
-0.002275
0.025502
0.074528
0.093414
0.108319
0.104917
0.087788
0.058539
0.016512
-0.024068
-0.066669
-0.112577
-0.151692
-0.176829
-0.194827
-0.190832
-0.169709
-0.128366
-0.095350
-0.059047
-0.013453
0.017927
0.061087
0.094017
0.107155
0.102478
0.074684
0.044564
-0.005990
-0.046704
-0.083743
-0.127113
-0.143017
-0.164432
-0.187174
-0.185789
-0.168781
-0.139300
-0.097580
-0.049120
0.003790
0.039959
0.062880
0.097787
0.102347
0.103873
0.087213
0.043938
0.001065
-0.030828
-0.071046
-0.105936
-0.150978
-0.168638
-0.187187
-0.185059
-0.163421
-0.127347
-0.088810
-0.044807
0.007179
0.047935
0.086140
0.102294
0.121159
0.108111
0.092721
0.071985
0.024060
-0.017433
-0.066502
-0.109039
-0.133546
-0.160219
-0.174062
-0.173364
-0.159572
-0.132696
-0.080538
-0.038988
0.011976
0.058205
0.089889
0.108103
0.120251
0.108770
0.092433
0.065729
0.031974
-0.022144
-0.066324
-0.108316
-0.147688
-0.167494
-0.192673
-0.178187
-0.156188
-0.132155
-0.097826
-0.037579
-0.004689
0.040931
0.086283
0.120306
0.136694
0.131569
0.108319
0.074952
0.035491
-0.012771
-0.063382
-0.100876
-0.144185
-0.169159
-0.190440
-0.192841
-0.173978
-0.134974
-0.086291
-0.035120
0.001627
0.046999
0.077200
0.101071
0.113902
0.110304
0.102614
0.083398
0.032099
-0.023077
-0.077525
-0.117867
-0.143954
-0.157657
-0.167211
-0.167819
-0.151938
-0.127243
-0.084344
-0.044776
-0.005117
0.019341
0.062811
0.092232
0.105961
0.114743
0.090387
0.053947
0.012682
-0.029271
-0.082717
-0.118653
-0.149220
-0.176714
-0.196793
-0.182895
-0.168550
-0.143928
-0.100535
-0.043520
0.003420
0.047286
0.083506
0.095385
0.105747
0.102161
0.079415
0.046556
0.005114
-0.030213
-0.089135
-0.133321
-0.169767
-0.191647
-0.199271
-0.191110
-0.170308
-0.146673
-0.110052
-0.058269
-0.017986
0.028975
0.058497
0.078971
0.102235
0.102738
0.080329
0.032537
-0.006775
-0.055800
-0.098397
-0.137865
-0.181253
-0.198209
-0.209673
-0.199585
-0.177296
-0.161012
-0.128588
-0.071838
-0.028019
0.016020
0.059110
0.075316
0.087056
0.089283
0.073228
0.039461
0.004766
-0.043935
-0.096143
-0.144715
-0.182133
-0.201379
-0.219459
-0.202513
-0.180714
-0.153089
-0.114509
-0.073346
-0.022076
0.024715
0.048361
0.080542
0.086700
0.084422
0.059630
0.044227
0.011277
-0.039005
-0.088812
-0.135344
-0.185745
-0.201854
-0.220331
-0.224568
-0.193280
-0.155186
-0.117571
-0.063603
-0.019070
0.017826
0.055126
0.088464
0.109395
0.096797
0.075431
0.046575
-0.002551
-0.052823
-0.086158
-0.131500
-0.159166
-0.173422
-0.178038
-0.168966
-0.162496
-0.139852
-0.091374
-0.041523
0.007056
0.056947
0.086339
0.108885
0.125987
0.120472
0.115153
0.079002
0.031067
-0.019485
-0.068632
-0.105517
-0.129424
-0.154815
-0.170410
-0.164543
-0.141424
-0.112652
-0.073732
-0.032947
0.012000
0.052946
0.087635
0.109491
0.120948
0.130422
0.122505
0.090382
0.052278
0.008521
-0.038361
-0.092337
-0.110425
-0.133529
-0.146213
-0.137413
-0.113260
-0.088255
-0.054846
-0.005262
0.022830
0.055317
0.096590
0.119146
0.123360
0.103112
0.091813
0.069872
0.032433
-0.025851
-0.064226
-0.112391
-0.148039
-0.176248
-0.200969
-0.193525
-0.180968
-0.148700
-0.114812
-0.075514
-0.037340
0.002846
0.055054
0.090248
0.090527
0.083536
0.060608
0.039357
-0.010710
-0.060923
-0.105493
-0.163610
-0.191952
-0.203694
-0.227593
-0.212979
-0.188779
-0.161876
-0.135778
-0.094369
-0.045206
-0.001282
0.023996
0.050627
0.064318
0.057943
0.035687
0.004202
-0.030188
-0.072568
-0.113190
-0.168510
-0.207481
-0.228035
-0.240102
-0.230925
-0.210287
-0.186463
-0.144849
-0.103386
-0.063237
-0.011610
0.031609
0.055714
0.069901
0.061002
0.056826
0.017836
-0.029850
-0.072704
-0.118881
-0.166102
-0.200533
-0.222239
-0.235275
-0.229802
-0.207433
-0.171843
-0.135432
-0.097367
-0.055685
0.005179
0.030163
0.047587
0.061134
0.060639
0.037219
0.007870
-0.041606
-0.093374
-0.116131
-0.147731
-0.184921
-0.217831
-0.236316
-0.227403
-0.200325
-0.171968
-0.133427
-0.088771
-0.046944
-0.001396
0.027920
0.044847
0.057223
0.040102
0.014468
-0.026786
-0.066245
-0.098049
-0.143383
-0.176855
-0.202622
-0.193506
-0.194273
-0.184908
-0.163399
-0.109209
-0.056278
0.002502
0.066706
0.131621
0.173072
0.203395
0.227435
0.242770
0.239199
0.236441
0.227573
0.222213
0.217500
0.202404
0.218420
0.226771
0.247558
0.287765
0.331618
0.388696
0.458283
0.543841
0.645099
0.724490
0.794407
0.847308
0.890664
0.903021
0.887481
0.841875
0.804364
0.730905
0.670357
0.603200
0.555257
0.501471
0.446221
0.379705
0.331194
0.290633
0.278807
0.267758
0.252863
0.264860
0.266773
0.285261
0.292450
0.275725
0.252446
0.202553
0.137233
0.078026
0.013208
-0.042156
-0.089952
-0.102215
-0.116552
-0.117941
-0.099711
-0.070450
-0.027296
0.011738
0.054456
0.096269
0.127636
0.138884
0.142608
0.128178
0.107258
0.082407
0.041003
-0.017518
-0.056413
-0.099181
-0.125808
-0.154806
-0.170707
-0.173997
-0.150993
-0.125600
-0.094848
-0.052531
-0.007232
0.038756
0.068691
0.100647
0.115501
0.107171
0.084256
0.059983
0.014537
-0.039574
-0.073878
-0.107935
-0.150788
-0.159752
-0.190673
-0.172146
-0.155475
-0.120524
-0.085011
-0.042410
0.005613
0.051904
0.085516
0.102140
0.118815
0.110638
0.087521
0.064885
0.019392
-0.025211
-0.058005
-0.101388
-0.132235
-0.164363
-0.169142
-0.164690
-0.145371
-0.122504
-0.067645
-0.025681
0.016662
0.059009
0.095286
0.103955
0.126346
0.127938
0.101125
0.080139
0.047231
0.003436
-0.039933
-0.095590
-0.122361
-0.145837
-0.155478
-0.149301
-0.136370
-0.101948
-0.055399
-0.009118
0.025944
0.071272
0.113544
0.130016
0.155714
0.144069
0.123544
0.097243
0.054842
0.007804
-0.033192
-0.066494
-0.091944
-0.123990
-0.139227
-0.130779
-0.100354
-0.080835
-0.037804
0.016294
0.053787
0.105967
0.150095
0.172913
0.173504
0.170538
0.152973
0.130908
0.087491
0.046034
-0.006441
-0.039404
-0.065597
-0.084916
-0.088058
-0.084291
-0.068222
-0.043726
-0.001175
0.043955
0.087276
0.131796
0.167090
0.177202
0.204600
0.192629
0.176469
0.159934
0.114232
0.074077
0.027215
-0.015572
-0.054970
-0.082042
-0.094400
-0.088090
-0.068449
-0.042792
0.004573
0.052746
0.094305
0.143274
0.186777
0.204137
0.223018
0.209456
0.177154
0.150831
0.109347
0.056813
0.007250
-0.043903
-0.068980
-0.096933
-0.106733
-0.094734
-0.078395
-0.044978
0.002404
0.043584
0.073254
0.120645
0.165008
0.182362
0.187542
0.190173
0.161239
0.125779
0.080427
0.038876
-0.011418
-0.061178
-0.086014
-0.118311
-0.116023
-0.121091
-0.101422
-0.062595
-0.038349
0.009380
0.045405
0.097057
0.120643
0.151680
0.158396
0.142640
0.122875
0.091200
0.046889
-0.000486
-0.043137
-0.090644
-0.125513
-0.152163
-0.163939
-0.151769
-0.133954
-0.087980
-0.052073
-0.009438
0.033729
0.068211
0.091460
0.114315
0.127720
0.113838
0.091147
0.066527
0.011678
-0.026914
-0.056023
-0.108306
-0.136130
-0.153810
-0.174504
-0.174660
-0.154818
-0.119356
-0.079675
-0.039464
0.002691
0.041483
0.074530
0.097515
0.119796
0.105700
0.084760
0.056082
0.012932
-0.033283
-0.073771
-0.121417
-0.145811
-0.164285
-0.186981
-0.177915
-0.172481
-0.143992
-0.092151
-0.054409
-0.003837
0.052628
0.091960
0.098051
0.110664
0.114949
0.090978
0.041718
0.000743
-0.050820
-0.080893
-0.123437
-0.154881
-0.174993
-0.192313
-0.187874
-0.161615
-0.133703
-0.092830
-0.037529
-0.000887
0.034984
0.072854
0.093025
0.107562
0.112186
0.089165
0.046703
0.002322
-0.030676
-0.068366
-0.110474
-0.150015
-0.165674
-0.178478
-0.172597
-0.155068
-0.120566
-0.074918
-0.024688
0.009945
0.056077
0.086160
0.114157
0.127751
0.119024
0.095203
0.063710
0.015741
-0.026222
-0.071183
-0.120342
-0.150921
-0.169042
-0.179763
-0.166979
-0.145602
-0.115568
-0.077795
-0.026839
0.018508
0.059740
0.092195
0.110005
0.124823
0.113209
0.106628
0.077128
0.033512
-0.008508
-0.051555
-0.102041
-0.145902
-0.169439
-0.185343
-0.165065
-0.139247
-0.110833
-0.061076
-0.023105
0.015921
0.066054
0.087671
0.105360
0.117561
0.115229
0.102343
0.072600
0.025089
-0.023484
-0.073752
-0.106454
-0.144180
-0.162215
-0.177831
-0.169774
-0.142287
-0.108726
-0.075475
-0.022834
0.025204
0.065289
0.099862
0.122754
0.125848
0.116481
0.096975
0.072164
0.021794
-0.034062
-0.076184
-0.122015
-0.151233
-0.173793
-0.183873
-0.169527
-0.158127
-0.129185
-0.082187
-0.039842
-0.001680
0.039798
0.074484
0.112022
0.123188
0.116115
0.087982
0.052079
0.005156
-0.025682
-0.057761
-0.106852
-0.150957
-0.171085
-0.191615
-0.172723
-0.142362
-0.124184
-0.088149
-0.044038
-0.018784
0.042249
0.080924
0.106301
0.116159
0.101087
0.072635
0.048876
0.008291
-0.036800
-0.090264
-0.135704
-0.168507
-0.178329
-0.185333
-0.185585
-0.156770
-0.128350
-0.082691
-0.040802
0.007692
0.043926
0.076927
0.095090
0.112651
0.110336
0.091779
0.051280
0.012315
-0.038229
-0.088196
-0.131446
-0.164421
-0.173224
-0.180501
-0.183910
-0.163308
-0.131503
-0.085731
-0.039669
-0.008693
0.032134
0.074265
0.093533
0.101514
0.106429
0.088469
0.053642
0.001335
-0.044830
-0.082895
-0.137650
-0.169993
-0.199615
-0.216041
-0.199390
-0.177560
-0.141117
-0.094509
-0.042609
-0.002608
0.042062
0.066925
0.091949
0.106566
0.103196
0.082604
0.048283
0.008524
-0.048226
-0.077307
-0.132670
-0.160428
-0.183666
-0.201992
-0.197529
-0.171094
-0.132514
-0.110998
-0.049354
0.005153
0.056342
0.074633
0.090217
0.107764
0.095185
0.073736
0.049201
0.021642
-0.017851
-0.062463
-0.091012
-0.130248
-0.156394
-0.176598
-0.159026
-0.141361
-0.110854
-0.058927
-0.019454
0.012781
0.064338
0.105492
0.120390
0.135669
0.130258
0.120819
0.099644
0.047580
-0.006314
-0.046970
-0.095653
-0.109559
-0.127832
-0.147380
-0.142705
-0.126675
-0.100372
-0.063232
-0.014393
0.026801
0.078317
0.099522
0.126321
0.146737
0.147313
0.125434
0.099111
0.059179
0.013867
-0.027166
-0.070002
-0.103478
-0.119472
-0.133044
-0.127009
-0.117744
-0.094058
-0.050380
-0.001832
0.034917
0.068612
0.108459
0.130390
0.133006
0.124535
0.090154
0.058970
0.033185
-0.010021
-0.052550
-0.096410
-0.129185
-0.166205
-0.171479
-0.171944
-0.160416
-0.127054
-0.079713
-0.038207
0.004607
0.050424
0.080880
0.097072
0.107463
0.101192
0.085733
0.055703
0.007738
-0.060521
-0.102380
-0.149688
-0.175507
-0.195945
-0.211887
-0.205154
-0.179884
-0.152746
-0.111948
-0.065788
-0.015591
0.031334
0.064172
0.081450
0.082842
0.063934
0.046929
0.021612
-0.011786
-0.055058
-0.096739
-0.138384
-0.176614
-0.202693
-0.209566
-0.199429
-0.191048
-0.154385
-0.112401
-0.060216
-0.016232
0.025612
0.048143
0.067688
0.091133
0.079782
0.060680
0.027722
-0.014765
-0.068669
-0.114118
-0.155726
-0.194795
-0.215553
-0.221139
-0.209276
-0.176044
-0.155861
-0.121961
-0.078375
-0.041450
0.016324
0.058100
0.080271
0.093920
0.091425
0.065334
0.024476
-0.022909
-0.074623
-0.122992
-0.163526
-0.190922
-0.201055
-0.207850
-0.211411
-0.191013
-0.161640
-0.117953
-0.072733
-0.019875
0.024298
0.044322
0.059536
0.074324
0.073109
0.047780
0.016219
-0.020580
-0.067534
-0.101273
-0.142561
-0.166055
-0.181979
-0.174746
-0.159938
-0.124342
-0.085120
-0.026754
0.033557
0.098291
0.167933
0.208350
0.228219
0.268621
0.273834
0.274352
0.296159
0.291967
0.271363
0.247319
0.233653
0.240889
0.247031
0.263916
0.299289
0.335681
0.402964
0.477888
0.568422
0.650412
0.729186
0.803208
0.859903
0.889042
0.890095
0.858612
0.819600
0.774848
0.695483
0.627642
0.538265
0.476970
0.410904
0.340701
0.297777
0.258883
0.240179
0.228244
0.230054
0.227627
0.238275
0.243995
0.248804
0.253119
0.240631
0.217065
0.173065
0.125396
0.077521
0.029022
-0.008662
-0.050017
-0.080725
-0.096512
-0.090141
-0.080324
-0.059848
-0.010886
0.027951
0.062093
0.109970
0.133921
0.141217
0.159873
0.148060
0.132085
0.094145
0.042995
-0.001736
-0.040640
-0.095268
-0.128216
-0.143945
-0.151307
-0.143319
-0.127435
-0.096961
-0.046300
-0.007491
0.020843
0.060328
0.093125
0.125548
0.138580
0.131289
0.110654
0.075584
0.032238
-0.005149
-0.056325
-0.099997
-0.137650
-0.164863
-0.170719
-0.149771
-0.133616
-0.102035
-0.060052
-0.017514
0.023589
0.057825
0.095904
0.122922
0.138716
0.131506
0.109684
0.073416
0.047071
0.003876
-0.036315
-0.082966
-0.118567
-0.141212
-0.166280
-0.159572
-0.133117
-0.104974
-0.062203
-0.005728
0.035498
0.080984
0.116204
0.130907
0.141635
0.146494
0.117157
0.099107
0.066290
0.019771
-0.021918
-0.066615
-0.108423
-0.115782
-0.127812
-0.125276
-0.113412
-0.079910
-0.035264
0.018108
0.065107
0.114408
0.138120
0.170463
0.178904
0.173770
0.160946
0.128893
0.087263
0.031230
-0.007442
-0.046382
-0.077210
-0.091927
-0.113988
-0.112625
-0.089881
-0.052807
-0.012873
0.032213
0.085088
0.126185
0.168837
0.187004
0.207770
0.213296
0.191317
0.152118
0.127028
0.074124
0.024924
-0.019146
-0.033570
-0.068427
-0.083196
-0.077828
-0.057650
-0.033878
0.016159
0.074241
0.111217
0.163814
0.201594
0.219250
0.225217
0.235952
0.207283
0.175335
0.137246
0.088106
0.046146
-0.005705
-0.046955
-0.066320
-0.076420
-0.065639
-0.047868
-0.004966
0.035153
0.086326
0.132032
0.186242
0.199957
0.216447
0.224462
0.213441
0.188830
0.164085
0.123938
0.084783
0.040419
-0.013348
-0.053008
-0.080500
-0.090260
-0.086888
-0.065876
-0.026643
0.022371
0.066942
0.107606
0.149800
0.179657
0.208317
0.209042
0.200015
0.187709
0.152495
0.107742
0.063505
0.017245
-0.031538
-0.067779
-0.095190
-0.111005
-0.109981
-0.079186
-0.047564
-0.013074
0.037313
0.071468
0.122997
0.154567
0.186996
0.184028
0.177986
0.157542
0.125699
0.082306
0.041161
-0.003242
-0.055640
-0.098386
-0.123655
-0.141627
-0.136612
-0.106354
-0.087676
-0.048878
-0.000325
0.044053
0.096703
0.126530
0.140918
0.146828
0.150434
0.119603
0.086535
0.040181
-0.014158
-0.059239
-0.097502
-0.134067
-0.170097
-0.173481
-0.160360
-0.141318
-0.110489
-0.057442
0.002160
0.041348
0.078762
0.107563
0.124920
0.135691
0.141067
0.118286
0.074944
0.029391
-0.018020
-0.065775
-0.106262
-0.137967
-0.163694
-0.177017
-0.170142
-0.161792
-0.123068
-0.090572
-0.042726
-0.001084
0.045197
0.086716
0.108224
0.130899
0.132196
0.102079
0.075844
0.047044
-0.023405
-0.070268
-0.094964
-0.128561
-0.155104
-0.180348
-0.169765
-0.140794
-0.104676
-0.069507
-0.022230
0.010693
0.058100
0.086906
0.114121
0.122448
0.124895
0.108662
0.089202
0.041598
-0.004966
-0.052019
-0.097971
-0.126770
-0.149795
-0.165209
-0.166377
-0.134086
-0.114136
-0.063828
-0.019601
0.026911
0.065056
0.104580
0.130258
0.138678
0.129077
0.099520
0.080058
0.038470
-0.008274
-0.056198
-0.102550
-0.146468
-0.162735
-0.169058
-0.162664
-0.132013
-0.098545
-0.068723
-0.020219
0.026061
0.076842
0.121333
0.133938
0.140553
0.138683
0.125370
0.090275
0.045289
0.005058
-0.035934
-0.088505
-0.115341
-0.146371
-0.164098
-0.152809
-0.138886
-0.117149
-0.068213
-0.024612
0.014634
0.068848
0.108692
0.140607
0.148726
0.140754
0.125218
0.097813
0.040262
-0.007490
-0.054324
-0.084678
-0.121342
-0.141957
-0.156468
-0.148059
-0.133218
-0.104321
-0.068629
-0.026619
0.021006
0.060569
0.103788
0.122570
0.121976
0.128641
0.119260
0.092559
0.049701
-0.003553
-0.050138
-0.092460
-0.129700
-0.165198
-0.185943
-0.168546
-0.147250
-0.121812
-0.074967
-0.026137
0.015523
0.053185
0.093821
0.112669
0.130388
0.110582
0.092506
0.066473
0.026457
-0.009539
-0.052591
-0.099949
-0.133677
-0.160357
-0.167700
-0.165791
-0.149844
-0.108358
-0.078962
-0.027776
0.004238
0.061292
0.087477
0.110624
0.120113
0.107447
0.101284
0.073742
0.028808
-0.027858
-0.073555
-0.108719
-0.154329
-0.177394
-0.190988
-0.183653
-0.158352
-0.127007
-0.082258
-0.042562
0.003391
0.046584
0.090347
0.106767
0.121863
0.106779
0.087613
0.052163
0.026555
-0.004849
-0.066002
-0.109017
-0.151611
-0.169981
-0.186494
-0.174391
-0.149061
-0.124736
-0.090767
-0.048894
-0.003612
0.043729
0.067673
0.106657
0.113929
0.114758
0.087523
0.057510
0.014510
-0.030359
-0.083752
-0.124271
-0.155106
-0.174915
-0.193088
-0.178652
-0.162917
-0.131440
-0.091799
-0.045637
0.006194
0.043712
0.074719
0.092644
0.109694
0.113878
0.093010
0.058454
0.018573
-0.022435
-0.062088
-0.103123
-0.138555
-0.172063
-0.177101
-0.169828
-0.140037
-0.097104
-0.057855
-0.010326
0.026268
0.058275
0.106796
0.145910
0.157550
0.151486
0.127402
0.091884
0.045199
-0.004890
-0.044981
-0.090567
-0.136645
-0.151713
-0.157884
-0.159810
-0.135224
-0.109778
-0.070564
-0.008244
0.035381
0.091744
0.118125
0.142066
0.159185
0.158486
0.144051
0.102842
0.071869
0.025406
-0.018220
-0.066517
-0.103403
-0.120814
-0.119355
-0.115501
-0.099336
-0.065116
-0.026874
0.009923
0.043462
0.080091
0.113619
0.136998
0.130277
0.128952
0.105633
0.064134
0.017898
-0.026485
-0.065578
-0.112272
-0.147991
-0.172530
-0.178989
-0.176611
-0.164641
-0.132703
-0.097276
-0.054814
-0.003608
0.045338
0.079010
0.099201
0.101181
0.098007
0.065200
0.040026
0.000014
-0.042166
-0.095179
-0.139281
-0.184042
-0.196822
-0.200526
-0.210329
-0.196128
-0.158097
-0.112092
-0.072712
-0.027541
0.005232
0.050385
0.077302
0.091453
0.075058
0.057788
0.019603
-0.018034
-0.066346
-0.106587
-0.154230
-0.188597
-0.214009
-0.218612
-0.203875
-0.182650
-0.150055
-0.111477
-0.070281
-0.035581
0.004982
0.044200
0.075160
0.081700
0.077879
0.056152
0.031314
-0.007224
-0.055534
-0.110730
-0.144653
-0.183964
-0.209210
-0.220958
-0.219733
-0.187263
-0.164012
-0.123875
-0.074283
-0.025900
0.032129
0.050086
0.073032
0.085576
0.081524
0.053482
0.029396
-0.020486
-0.055830
-0.103363
-0.158149
-0.194043
-0.214498
-0.232605
-0.228292
-0.208802
-0.172150
-0.133849
-0.085767
-0.043623
-0.003009
0.039459
0.064127
0.089780
0.092080
0.072764
0.034874
-0.017493
-0.078105
-0.116915
-0.146347
-0.171873
-0.180571
-0.182272
-0.160533
-0.117804
-0.069419
-0.017642
0.047630
0.104859
0.163309
0.207131
0.245871
0.267463
0.286120
0.302881
0.309424
0.296847
0.283008
0.263880
0.240310
0.227096
0.231510
0.251894
0.269226
0.326963
0.397863
0.474609
0.546455
0.617317
0.702698
0.778480
0.829811
0.852076
0.841154
0.826604
0.794960
0.747006
0.692362
0.630369
0.545961
0.453720
0.364143
0.298947
0.248293
0.208775
0.204015
0.195025
0.199065
0.201354
0.222714
0.233858
0.239143
0.223436
0.199234
0.170657
0.138456
0.090591
0.036124
-0.012522
-0.052303
-0.095456
-0.120210
-0.130745
-0.118903
-0.099576
-0.066331
-0.017762
0.029590
0.069196
0.096640
0.119252
0.139980
0.151806
0.148022
0.128701
0.084217
0.034464
-0.011656
-0.050370
-0.084629
-0.127667
-0.154812
-0.166948
-0.159375
-0.140881
-0.108054
-0.068825
-0.027498
0.024290
0.065379
0.096055
0.121295
0.127544
0.124355
0.108495
0.073305
0.026486
-0.019342
-0.070963
-0.109627
-0.146632
-0.177702
-0.194410
-0.186519
-0.169267
-0.133673
-0.079198
-0.039960
0.011656
0.052485
0.092086
0.115398
0.128305
0.135649
0.116123
0.079271
0.042085
-0.005721
-0.053229
-0.095658
-0.123427
-0.152254
-0.156429
-0.157173
-0.147520
-0.124965
-0.065793
-0.011903
0.036511
0.078521
0.109728
0.135859
0.153399
0.155450
0.130176
0.092943
0.048541
0.013843
-0.033917
-0.077581
-0.108040
-0.133265
-0.140082
-0.143113
-0.124659
-0.089029
-0.037327
-0.005008
0.040842
0.080369
0.122163
0.157159
0.175034
0.162743
0.150138
0.118166
0.089867
0.035583
-0.011606
-0.062760
-0.096060
-0.124760
-0.127423
-0.113001
-0.096014
-0.060981
-0.010212
0.040988
0.086674
0.125005
0.177046
0.206495
0.209025
0.190193
0.177359
0.144390
0.100787
0.048147
0.008968
-0.028627
-0.061436
-0.092417
-0.104982
-0.094079
-0.061724
-0.030649
0.011598
0.056875
0.100997
0.141331
0.178811
0.203344
0.219042
0.209542
0.187686
0.148087
0.100087
0.063196
0.030730
-0.006410
-0.049533
-0.078512
-0.077249
-0.070402
-0.066737
-0.025077
0.008592
0.050234
0.099670
0.138460
0.174234
0.198007
0.218095
0.209715
0.188297
0.157236
0.116722
0.070074
0.012223
-0.027988
-0.066421
-0.085318
-0.096516
-0.091147
-0.072785
-0.054918
-0.006596
0.044532
0.092461
0.141251
0.173195
0.190073
0.190538
0.186535
0.163842
0.125031
0.078743
0.031934
-0.013549
-0.045436
-0.085211
-0.121150
-0.136875
-0.137880
-0.102727
-0.066914
-0.026471
0.029314
0.069986
0.122007
0.155031
0.164339
0.175259
0.168120
0.137558
0.103328
0.062859
0.013696
-0.036456
-0.084302
-0.120283
-0.147506
-0.153773
-0.157530
-0.141724
-0.105562
-0.060909
-0.015289
0.027629
0.079978
0.117645
0.128444
0.138900
0.134737
0.110257
0.075191
0.039042
-0.015839
-0.068097
-0.112647
-0.141276
-0.162159
-0.178911
-0.168924
-0.146555
-0.120616
-0.080270
-0.038871
0.014678
0.063789
0.102158
0.122007
0.131434
0.110266
0.086308
0.061240
0.015713
-0.025910
-0.065247
-0.122617
-0.155613
-0.189874
-0.197994
-0.189444
-0.171308
-0.131192
-0.091420
-0.053322
0.001467
0.050714
0.091991
0.125250
0.134328
0.121340
0.093993
0.063287
0.022872
-0.018125
-0.062165
-0.121108
-0.158578
-0.185143
-0.184619
-0.174558
-0.148669
-0.118351
-0.077554
-0.034724
0.009208
0.054580
0.090773
0.108550
0.119240
0.105343
0.089191
0.048009
0.011895
-0.022616
-0.071718
-0.116293
-0.149297
-0.181490
-0.193333
-0.181023
-0.156650
-0.120104
-0.074753
-0.023384
0.020888
0.066128
0.089973
0.120090
0.130689
0.127324
0.106799
0.074023
0.023403
-0.019460
-0.065375
-0.107872
-0.145201
-0.166834
-0.185777
-0.167415
-0.150765
-0.116141
-0.079120
-0.025607
0.024581
0.076144
0.099658
0.119368
0.126975
0.121494
0.102731
0.070049
0.035646
-0.016682
-0.060434
-0.114053
-0.147206
-0.167352
-0.171177
-0.165581
-0.147390
-0.125272
-0.088258
-0.043265
0.014224
0.076608
0.116379
0.138797
0.139673
0.141263
0.113616
0.076735
0.030662
-0.015219
-0.072092
-0.109782
-0.141750
-0.173465
-0.176951
-0.174050
-0.149428
-0.123211
-0.077774
-0.042560
-0.001646
0.038671
0.083783
0.117252
0.127755
0.121333
0.094232
0.052480
0.004250
-0.039849
-0.081995
-0.124062
-0.160012
-0.182614
-0.194865
-0.181120
-0.149616
-0.126467
-0.090465
-0.048340
0.000665
0.031046
0.070087
0.103332
0.112758
0.100721
0.086869
0.062755
0.011912
-0.033621
-0.081593
-0.120536
-0.149478
-0.183479
-0.201383
-0.189679
-0.177867
-0.151172
-0.105346
-0.053072
-0.004838
0.035184
0.069654
0.099954
0.105427
0.107917
0.080408
0.049457
0.022204
-0.021384
-0.080244
-0.129088
-0.165332
-0.201081
-0.204222
-0.207273
-0.178235
-0.154858
-0.122504
-0.076624
-0.019440
0.019856
0.064066
0.088341
0.094930
0.093610
0.074617
0.037892
0.006980
-0.032445
-0.066385
-0.126017
-0.151529
-0.175813
-0.190631
-0.190848
-0.181510
-0.137707
-0.097823
-0.063741
-0.015996
0.032121
0.059416
0.082002
0.088545
0.082901
0.073218
0.028458
-0.010658
-0.060331
-0.104514
-0.139819
-0.175805
-0.210788
-0.214009
-0.195348
-0.176361
-0.145273
-0.095954
-0.036840
0.009374
0.043930
0.074141
0.098909
0.115035
0.105845
0.092227
0.059056
0.014491
-0.033495
-0.074181
-0.114472
-0.135397
-0.164462
-0.177516
-0.168687
-0.137841
-0.105452
-0.063216
-0.024585
0.021737
0.062617
0.091230
0.124771
0.137063
0.131091
0.120544
0.092163
0.044016
-0.006157
-0.056350
-0.096390
-0.134247
-0.169717
-0.177305
-0.158344
-0.136872
-0.104885
-0.063957
-0.021623
0.026839
0.075958
0.108116
0.135108
0.145448
0.149109
0.123533
0.089569
0.049031
0.016963
-0.039207
-0.096328
-0.121256
-0.156870
-0.179574
-0.167938
-0.135972
-0.102325
-0.075016
-0.032595
0.006947
0.046167
0.085383
0.103280
0.112336
0.111272
0.082293
0.046914
0.000974
-0.039866
-0.091028
-0.133770
-0.168779
-0.204801
-0.206534
-0.213219
-0.188647
-0.154606
-0.121228
-0.070690
-0.027351
0.014844
0.053264
0.068446
0.075384
0.068257
0.051778
0.013967
-0.026679
-0.071427
-0.112768
-0.163711
-0.190095
-0.209284
-0.221203
-0.224640
-0.209467
-0.177069
-0.139483
-0.094536
-0.043607
0.005516
0.045552
0.063561
0.069081
0.062329
0.035506
0.005520
-0.035839
-0.075722
-0.120694
-0.163642
-0.212764
-0.235473
-0.241498
-0.236773
-0.210140
-0.176967
-0.131631
-0.086549
-0.056787
-0.013709
0.025017
0.053346
0.062810
0.053652
0.039551
0.010167
-0.022731
-0.059753
-0.114888
-0.170208
-0.203419
-0.231488
-0.232111
-0.232053
-0.209771
-0.183121
-0.140742
-0.105285
-0.052284
-0.012414
0.020566
0.051632
0.070024
0.056204
0.031297
0.001728
-0.049080
-0.082831
-0.132760
-0.172150
-0.205812
-0.235370
-0.240472
-0.232763
-0.209431
-0.185923
-0.155582
-0.125132
-0.066786
-0.018547
0.024091
0.053404
0.073199
0.082383
0.072505
0.045296
0.019530
-0.009743
-0.037058
-0.072049
-0.083115
-0.089387
-0.094539
-0.090248
-0.053305
0.001970
0.062157
0.127022
0.207882
0.277878
0.331062
0.386781
0.423541
0.451744
0.464425
0.487132
0.474390
0.458100
0.424671
0.424864
0.426874
0.436490
0.469637
0.511493
0.557965
0.607626
0.653933
0.688900
0.749107
0.787631
0.810341
0.814875
0.784116
0.752023
0.674195
0.571741
0.474545
0.370900
0.278783
0.187691
0.114290
0.037001
-0.005295
-0.032198
-0.037572
-0.009181
0.029948
0.067790
0.105671
0.143013
0.170381
0.185309
0.191877
0.179772
0.150693
0.113176
0.061490
0.012235
-0.038114
-0.080410
-0.114310
-0.144546
-0.168838
-0.167430
-0.141303
-0.114795
-0.076174
-0.036225
0.020281
0.054264
0.087294
0.109590
0.117401
0.105596
0.090710
0.060008
0.006768
-0.043394
-0.093697
-0.131163
-0.161831
-0.187988
-0.201637
-0.197130
-0.171137
-0.149202
-0.104054
-0.063891
-0.027391
0.011473
0.058442
0.084585
0.094771
0.090824
0.076941
0.041092
0.003065
-0.054340
-0.098000
-0.143547
-0.172386
-0.200669
-0.203939
-0.198890
-0.174200
-0.136891
-0.086214
-0.052275
-0.004795
0.026967
0.062950
0.089508
0.094414
0.083595
0.069277
0.046293
0.018491
-0.024600
-0.081458
-0.119639
-0.153497
-0.181161
-0.188172
-0.184812
-0.158811
-0.108826
-0.076781
-0.046633
0.001112
0.054479
0.091929
0.120662
0.129913
0.121871
0.086945
0.053236
0.015965
-0.025751
-0.071888
-0.105570
-0.132723
-0.162800
-0.171104
-0.173998
-0.152585
-0.115309
-0.061233
-0.006756
0.042776
0.076678
0.106488
0.135753
0.143956
0.138027
0.115836
0.089637
0.045673
0.008806
-0.036554
-0.080546
-0.105029
-0.136533
-0.146665
-0.141578
-0.134272
-0.091129
-0.049992
0.002224
0.051658
0.106050
0.132991
0.159801
0.156816
0.157033
0.138285
0.111069
0.074991
0.030044
-0.012524
-0.052784
-0.085609
-0.122727
-0.123077
-0.126807
-0.101666
-0.068649
-0.032772
0.014383
0.057421
0.109867
0.151890
0.172963
0.191164
0.188620
0.152772
0.111030
0.076731
0.027503
-0.026207
-0.060358
-0.095804
-0.117897
-0.132970
-0.128756
-0.107084
-0.079529
-0.036575
0.020548
0.057996
0.093593
0.121379
0.147033
0.154435
0.155640
0.129177
0.106420
0.063166
0.013934
-0.046848
-0.086289
-0.123345
-0.149826
-0.160962
-0.148396
-0.123475
-0.092817
-0.054446
-0.013770
0.032650
0.083632
0.111808
0.122758
0.133980
0.134628
0.114908
0.071813
0.029768
-0.007418
-0.059048
-0.112288
-0.138036
-0.167240
-0.171759
-0.171801
-0.152977
-0.127530
-0.084266
-0.046447
0.001145
0.044303
0.060606
0.095226
0.097675
0.091181
0.066451
0.035800
-0.000918
-0.040211
-0.092043
-0.146280
-0.167495
-0.198702
-0.220067
-0.206666
-0.188244
-0.173224
-0.130408
-0.097684
-0.050728
-0.002760
0.022800
0.060916
0.069797
0.063035
0.035621
0.009769
-0.040748
-0.076867
-0.111371
-0.154324
-0.190285
-0.209708
-0.229868
-0.213650
-0.185101
-0.159464
-0.124664
-0.082355
-0.042581
-0.001556
0.023447
0.051662
0.056612
0.047141
0.030843
-0.007339
-0.044190
-0.090275
-0.133905
-0.174955
-0.204707
-0.228600
-0.229548
-0.226778
-0.218370
-0.184528
-0.142631
-0.105178
-0.066769
-0.013552
0.022592
0.049156
0.049902
0.047578
0.036575
-0.010136
-0.039751
-0.075991
-0.123944
-0.176837
-0.209801
-0.234099
-0.236044
-0.226113
-0.224532
-0.189884
-0.136857
-0.107828
-0.060485
-0.008054
0.025990
0.046998
0.056375
0.052493
0.039293
-0.002626
-0.045231
-0.090431
-0.137387
-0.183121
-0.205802
-0.239618
-0.256797
-0.246423
-0.229943
-0.188479
-0.153053
-0.110069
-0.053560
-0.003174
0.026305
0.037385
0.053147
0.054689
0.042570
0.010373
-0.031810
-0.071555
-0.121390
-0.166840
-0.199158
-0.237097
-0.235291
-0.234342
-0.209096
-0.191927
-0.143755
-0.098326
-0.049625
-0.000018
0.014971
0.052655
0.060269
0.050801
0.017390
-0.015335
-0.046592
-0.094299
-0.142706
-0.173238
-0.205299
-0.226820
-0.241901
-0.233603
-0.222249
-0.183531
-0.141375
-0.096744
-0.056960
-0.029072
0.011982
0.033299
0.043375
0.048110
0.031687
0.002006
-0.040849
-0.082287
-0.133241
-0.179860
-0.217679
-0.256679
-0.257671
-0.249871
-0.231742
-0.193142
-0.158328
-0.109315
-0.060670
-0.022262
0.005895
0.033651
0.044851
0.040418
0.021110
-0.004112
-0.058609
-0.111689
-0.160210
-0.223702
-0.257664
-0.276276
-0.259540
-0.257767
-0.244120
-0.215423
-0.181129
-0.120587
-0.074456
-0.037404
-0.009829
0.021253
0.033995
0.025017
0.013658
-0.017258
-0.063248
-0.107558
-0.153204
-0.196237
-0.231589
-0.277058
-0.288969
-0.275086
-0.251170
-0.215339
-0.177678
-0.141453
-0.092060
-0.049448
-0.018721
0.021914
0.027912
0.018509
-0.014558
-0.049644
-0.086561
-0.139427
-0.194299
-0.234133
-0.250150
-0.261960
-0.288749
-0.275097
-0.257432
-0.215744
-0.183867
-0.159689
-0.115575
-0.070720
-0.035521
0.003451
0.015721
0.014030
-0.007565
-0.037722
-0.071868
-0.109913
-0.163958
-0.222131
-0.250732
-0.281872
-0.281447
-0.270086
-0.262182
-0.237697
-0.199279
-0.159983
-0.109376
-0.077011
-0.040826
0.004936
0.017515
0.007558
-0.008153
-0.047053
-0.090924
-0.121932
-0.171170
-0.218707
-0.246085
-0.266790
-0.282334
-0.272144
-0.248875
-0.214557
-0.173054
-0.130934
-0.071522
-0.033780
0.001021
0.020632
0.030848
0.032481
0.015614
-0.007945
-0.032718
-0.085455
-0.141912
-0.187885
-0.228736
-0.255341
-0.266273
-0.264555
-0.247940
-0.205688
-0.155006
-0.112048
-0.072764
-0.034355
-0.007368
0.025356
0.034572
0.031443
0.018275
-0.004594
-0.039413
-0.081304
-0.127743
-0.172496
-0.211993
-0.242624
-0.251169
-0.229347
-0.208019
-0.197756
-0.160002
-0.114015
-0.053811
-0.029725
-0.003397
0.023952
0.022780
0.012109
-0.009646
-0.041120
-0.072988
-0.119828
-0.169910
-0.212059
-0.246279
-0.271856
-0.282901
-0.281949
-0.262747
-0.236976
-0.205013
-0.164691
-0.113173
-0.070081
-0.041564
-0.004882
-0.002619
-0.011725
-0.029336
-0.068228
-0.107288
-0.156840
-0.211905
-0.258010
-0.295444
-0.324320
-0.330048
-0.322365
-0.286938
-0.262873
-0.225151
-0.192159
-0.145953
-0.109770
-0.067866
-0.035755
-0.023085
-0.038074
-0.057339
-0.092254
-0.127347
-0.173218
-0.224708
-0.270355
-0.302332
-0.329390
-0.334003
-0.323839
-0.287035
-0.255586
-0.225452
-0.206073
-0.161750
-0.114288
-0.075636
-0.047177
-0.029993
-0.036511
-0.063123
-0.091095
-0.137501
-0.176775
-0.233089
-0.268474
-0.307260
-0.325263
-0.333535
-0.331754
-0.316138
-0.289589
-0.246054
-0.216802
-0.164328
-0.116309
-0.084059
-0.054560
-0.044422
-0.043735
-0.070101
-0.115251
-0.139751
-0.184556
-0.233608
-0.274053
-0.301913
-0.337035
-0.339535
-0.336048
-0.326405
-0.292991
-0.241757
-0.203380
-0.154634
-0.116103
-0.086688
-0.067400
-0.064690
-0.058852
-0.076023
-0.118255
-0.163842
-0.215705
-0.263706
-0.292234
-0.317573
-0.339383
-0.337472
-0.315853
-0.282242
-0.243356
-0.177733
-0.121587
-0.061106
0.006994
0.050156
0.085455
0.107473
0.131855
0.139226
0.120761
0.111656
0.095028
0.076184
0.058127
0.061317
0.076843
0.099279
0.140202
0.193362
0.242312
0.316858
0.402287
0.494610
0.596217
0.654100
0.712678
0.758629
0.781673
0.777833
0.735444
0.689112
0.641439
0.562229
0.507534
0.455109
0.407974
0.365758
0.302302
0.256368
0.226221
0.203033
0.195953
0.191195
0.189203
0.193407
0.176287
0.177054
0.171606
0.152684
0.105557
0.054361
-0.002531
-0.065262
-0.122362
-0.175941
-0.205065
-0.235595
-0.238244
-0.216620
-0.184481
-0.139110
-0.106250
-0.072456
-0.031859
-0.004527
0.016529
0.019685
0.011469
-0.021891
-0.049756
-0.094266
-0.142314
-0.180408
-0.222349
-0.249993
-0.283097
-0.286511
-0.279662
-0.271753
-0.242579
-0.201986
-0.172377
-0.111642
-0.063633
-0.031267
-0.016247
-0.000256
-0.014879
-0.028527
-0.051813
-0.088451
-0.134467
-0.188763
-0.228072
-0.262398
-0.295043
-0.313107
-0.299239
-0.284199
-0.248674
-0.205539
-0.162562
-0.115366
-0.064963
-0.029724
-0.001708
-0.010468
-0.007156
-0.026447
-0.054850
-0.092925
-0.130505
-0.185643
-0.228450
-0.261877
-0.287901
-0.296989
-0.287408
-0.265243
-0.238186
-0.193057
-0.154385
-0.107594
-0.071330
-0.032954
-0.012216
0.001564
-0.004841
-0.019275
-0.053024
-0.088669
-0.121517
-0.168641
-0.222430
-0.254012
-0.272568
-0.291045
-0.285903
-0.253509
-0.219962
-0.181215
-0.142096
-0.089422
-0.035833
-0.008498
0.022771
0.034374
0.030007
0.022916
-0.016418
-0.062675
-0.093335
-0.150323
-0.187550
-0.220358
-0.244650
-0.259612
-0.254264
-0.231203
-0.198519
-0.153416
-0.111662
-0.059722
-0.013251
0.020951
0.052557
0.054936
0.045333
0.018576
-0.002147
-0.046699
-0.079797
-0.122035
-0.162173
-0.206473
-0.218892
-0.223064
-0.218060
-0.201886
-0.168108
-0.124927
-0.085857
-0.036487
0.018445
0.053788
0.076702
0.088772
0.081525
0.056990
0.044916
-0.002582
-0.054009
-0.108253
-0.148092
-0.174850
-0.206510
-0.225106
-0.213574
-0.191427
-0.159879
-0.117964
-0.085458
-0.036499
0.000691
0.031172
0.067727
0.076670
0.067440
0.041944
0.012007
-0.038062
-0.075104
-0.120371
-0.147794
-0.181932
-0.216750
-0.221185
-0.209520
-0.193998
-0.166668
-0.131932
-0.092535
-0.048285
-0.008897
0.023114
0.041216
0.047250
0.048846
0.037267
-0.001112
-0.030745
-0.079748
-0.128517
-0.179259
-0.214819
-0.249044
-0.258331
-0.259538
-0.240415
-0.208203
-0.166060
-0.130536
-0.076572
-0.039538
-0.019012
0.019468
0.036725
0.024730
0.002282
-0.034605
-0.089908
-0.132009
-0.182602
-0.215524
-0.253876
-0.273662
-0.296260
-0.279453
-0.261911
-0.226885
-0.192541
-0.163674
-0.106256
-0.071640
-0.026894
0.002677
0.007883
-0.000002
-0.022595
-0.052579
-0.097819
-0.142975
-0.197944
-0.250213
-0.285315
-0.306981
-0.321854
-0.305939
-0.274755
-0.246200
-0.211354
-0.181700
-0.135846
-0.097415
-0.056932
-0.028629
-0.026298
-0.019895
-0.035659
-0.075206
-0.119000
-0.153598
-0.198851
-0.250827
-0.302210
-0.314586
-0.317119
-0.318925
-0.297508
-0.278367
-0.229383
-0.188718
-0.126878
-0.094804
-0.062623
-0.040135
-0.026582
-0.031817
-0.042037
-0.086024
-0.132208
-0.165839
-0.215531
-0.254458
-0.287128
-0.305975
-0.323517
-0.323254
-0.292801
-0.271461
-0.219872
-0.172972
-0.122247
-0.089954
-0.064705
-0.028427
-0.017128
-0.023706
-0.052232
-0.090117
-0.132397
-0.169258
-0.215494
-0.248247
-0.281954
-0.313460
-0.323043
-0.311091
-0.287199
-0.248206
-0.205905
-0.161242
-0.115812
-0.069125
-0.039303
-0.007543
-0.003989
-0.021652
-0.041230
-0.067697
-0.114935
-0.151892
-0.212020
-0.253292
-0.282269
-0.296823
-0.300128
-0.290489
-0.287291
-0.250123
-0.209434
-0.155619
-0.108014
-0.066886
-0.038214
-0.014646
-0.005515
-0.011070
-0.038527
-0.065941
-0.101049
-0.144798
-0.193834
-0.238436
-0.272283
-0.298616
-0.302363
-0.294490
-0.281162
-0.247295
-0.208105
-0.165159
-0.105867
-0.075638
-0.046188
-0.015861
-0.001828
-0.011002
-0.031967
-0.045223
-0.092195
-0.134779
-0.195625
-0.235675
-0.270388
-0.297338
-0.305394
-0.303920
-0.284523
-0.264281
-0.233251
-0.192415
-0.146192
-0.103949
-0.064075
-0.036585
-0.014468
-0.023392
-0.033845
-0.052700
-0.105124
-0.141121
-0.185372
-0.238226
-0.275708
-0.295054
-0.302254
-0.293963
-0.280900
-0.258326
-0.215374
-0.168161
-0.109205
-0.077053
-0.049797
-0.031972
-0.018489
-0.030105
-0.053712
-0.077636
-0.128247
-0.162267
-0.214465
-0.253825
-0.272797
-0.294919
-0.321281
-0.308926
-0.287656
-0.262836
-0.229025
-0.187359
-0.138620
-0.091133
-0.057533
-0.024785
-0.011314
-0.016252
-0.042826
-0.076059
-0.112802
-0.146667
-0.202443
-0.256071
-0.283357
-0.313118
-0.320549
-0.307388
-0.283338
-0.267865
-0.230796
-0.197881
-0.148999
-0.097882
-0.056611
-0.040119
-0.030713
-0.020984
-0.050876
-0.075300
-0.116424
-0.165219
-0.219734
-0.270213
-0.304144
-0.316239
-0.342781
-0.335177
-0.314423
-0.272759
-0.231872
-0.202924
-0.145375
-0.096889
-0.063566
-0.039441
-0.014547
-0.017495
-0.039727
-0.081567
-0.131209
-0.166459
-0.217055
-0.261294
-0.284195
-0.317220
-0.339053
-0.331904
-0.313711
-0.277926
-0.227627
-0.187762
-0.130378
-0.091912
-0.058873
-0.045367
-0.042788
-0.036859
-0.048845
-0.074660
-0.106503
-0.153153
-0.183367
-0.217777
-0.265341
-0.287628
-0.301975
-0.296978
-0.274197
-0.242710
-0.202107
-0.164553
-0.113564
-0.067807
-0.041567
-0.012988
0.008210
-0.000001
-0.030686
-0.053967
-0.089418
-0.132066
-0.191720
-0.235653
-0.265891
-0.293150
-0.297264
-0.289800
-0.271119
-0.246288
-0.205777
-0.155034
-0.106213
-0.058271
-0.018751
0.007354
0.007624
0.005615
-0.014980
-0.028721
-0.054222
-0.098915
-0.155467
-0.218727
-0.249861
-0.264794
-0.274902
-0.270231
-0.260542
-0.231125
-0.183283
-0.135967
-0.092144
-0.052442
-0.017467
0.008299
0.010573
-0.001502
-0.021008
-0.057542
-0.095297
-0.141244
-0.185277
-0.232935
-0.258447
-0.304787
-0.329648
-0.327510
-0.306893
-0.264710
-0.224007
-0.184054
-0.126195
-0.093340
-0.058199
-0.038613
-0.034166
-0.043312
-0.058448
-0.086001
-0.132321
-0.163056
-0.217839
-0.278097
-0.310333
-0.338009
-0.336891
-0.340273
-0.322504
-0.291557
-0.252718
-0.219900
-0.165170
-0.118871
-0.081871
-0.061719
-0.060954
-0.060582
-0.078633
-0.112663
-0.143648
-0.184829
-0.229461
-0.280489
-0.315017
-0.334194
-0.355736
-0.347376
-0.330340
-0.297031
-0.247488
-0.211711
-0.165873
-0.119387
-0.079869
-0.061492
-0.046545
-0.061009
-0.072908
-0.105064
-0.147968
-0.194976
-0.248280
-0.291206
-0.324837
-0.347856
-0.354336
-0.354149
-0.318504
-0.282598
-0.244494
-0.208693
-0.167486
-0.111091
-0.077623
-0.055423
-0.044496
-0.049570
-0.072374
-0.108959
-0.147043
-0.192832
-0.247116
-0.291429
-0.330221
-0.351915
-0.357149
-0.350623
-0.326525
-0.288820
-0.240865
-0.202505
-0.155743
-0.112630
-0.073575
-0.056111
-0.044954
-0.049587
-0.078468
-0.118887
-0.158766
-0.203983
-0.246929
-0.273365
-0.301715
-0.322984
-0.313944
-0.290639
-0.259064
-0.219818
-0.154898
-0.109855
-0.039494
0.004283
0.066235
0.107787
0.140513
0.147474
0.153805
0.149156
0.135516
0.123084
0.106150
0.105341
0.119402
0.132407
0.151800
0.185518
0.220464
0.289236
0.382197
0.472949
0.559733
0.638840
0.698495
0.762927
0.786699
0.771262
0.748121
0.714680
0.653307
0.605416
0.532848
0.467545
0.392210
0.309234
0.231339
0.172673
0.136980
0.104137
0.104677
0.101537
0.111005
0.127565
0.157326
0.160801
0.169757
0.153108
0.127565
0.086405
0.029683
-0.021021
-0.093827
-0.157602
-0.213036
-0.240315
-0.249421
-0.244894
-0.221336
-0.186379
-0.137339
-0.107396
-0.066798
-0.031925
0.006207
0.034614
0.039426
0.022787
0.007163
-0.028577
-0.080361
-0.118779
-0.163445
-0.212520
-0.252291
-0.285022
-0.295985
-0.301486
-0.269374
-0.241103
-0.204876
-0.169000
-0.119276
-0.075261
-0.043998
-0.019293
-0.005036
-0.010876
-0.028010
-0.064727
-0.110994
-0.146599
-0.190007
-0.230429
-0.259911
-0.283510
-0.303964
-0.288784
-0.268970
-0.234904
-0.200644
-0.147629
-0.098159
-0.046383
-0.008696
0.008995
0.020344
0.016232
-0.007556
-0.045415
-0.088991
-0.125734
-0.181114
-0.232353
-0.266039
-0.283511
-0.297437
-0.283575
-0.267579
-0.228936
-0.181216
-0.144216
-0.091858
-0.046390
-0.017190
0.015059
0.037522
0.039177
0.017984
-0.016644
-0.064720
-0.104972
-0.162338
-0.200261
-0.235755
-0.257566
-0.271927
-0.260949
-0.241123
-0.207446
-0.163941
-0.121794
-0.070953
-0.021244
0.021234
0.054387
0.056735
0.063472
0.036043
-0.004687
-0.049055
-0.082909
-0.123863
-0.161792
-0.200930
-0.222311
-0.234837
-0.236378
-0.221770
-0.177857
-0.130480
-0.086886
-0.032173
0.019431
0.062935
0.078662
0.081537
0.071964
0.059621
0.021734
-0.019474
-0.058226
-0.094562
-0.148309
-0.172191
-0.200105
-0.206738
-0.198527
-0.175812
-0.148418
-0.098310
-0.069761
-0.020664
0.026997
0.073705
0.101514
0.110192
0.097579
0.074853
0.049181
0.010077
-0.038321
-0.078799
-0.130486
-0.153854
-0.178891
-0.190797
-0.198621
-0.175493
-0.137694
-0.091826
-0.054969
-0.003579
0.039044
0.083472
0.104707
0.106593
0.103489
0.090414
0.064841
0.015978
-0.023618
-0.081635
-0.138704
-0.172458
-0.204693
-0.218213
-0.207624
-0.191835
-0.162917
-0.132005
-0.089109
-0.032906
0.011356
0.043141
0.070045
0.077380
0.070442
0.060347
0.034464
-0.011283
-0.050390
-0.100715
-0.152224
-0.194815
-0.215654
-0.227499
-0.229310
-0.206677
-0.177054
-0.136539
-0.090255
-0.047739
0.000362
0.035613
0.048021
0.069359
0.064906
0.045782
0.011219
-0.049110
-0.088490
-0.141024
-0.191529
-0.225846
-0.244665
-0.256502
-0.253531
-0.231101
-0.210610
-0.164669
-0.126680
-0.074120
-0.033916
0.004589
0.021988
0.036357
0.039036
0.016108
-0.026124
-0.073574
-0.127719
-0.175363
-0.209206
-0.259725
-0.294179
-0.302733
-0.291992
-0.274228
-0.235991
-0.188008
-0.133349
-0.083184
-0.027605
0.008052
0.029656
0.027209
0.003740
-0.011035
-0.033848
-0.075684
-0.117882
-0.174823
-0.217321
-0.261963
-0.295586
-0.295163
-0.288787
-0.265988
-0.230424
-0.182253
-0.157098
-0.104567
-0.055511
-0.025309
-0.001277
0.020818
0.001095
-0.027921
-0.054321
-0.100093
-0.132282
-0.190130
-0.224697
-0.256586
-0.281059
-0.276500
-0.273163
-0.267072
-0.242733
-0.201839
-0.153446
-0.102151
-0.048989
-0.016518
0.011524
0.021451
0.021465
-0.003516
-0.033541
-0.077699
-0.123382
-0.168750
-0.225243
-0.260298
-0.272389
-0.276179
-0.271854
-0.248116
-0.220654
-0.183479
-0.132822
-0.089588
-0.056737
-0.018094
0.006368
0.024167
0.022317
0.005560
-0.026941
-0.072743
-0.117078
-0.170774
-0.202729
-0.238481
-0.275471
-0.286420
-0.276538
-0.246303
-0.215134
-0.178326
-0.120683
-0.073903
-0.031419
0.009361
0.024876
0.026303
0.029336
0.012736
-0.020763
-0.068517
-0.112137
-0.152257
-0.200243
-0.234804
-0.256307
-0.266818
-0.253614
-0.234029
-0.194965
-0.155265
-0.117153
-0.074642
-0.036466
0.001163
0.020983
0.032767
0.022531
0.004322
-0.021452
-0.066114
-0.111571
-0.161356
-0.199085
-0.229679
-0.258737
-0.267989
-0.268116
-0.244034
-0.209726
-0.172169
-0.134483
-0.072114
-0.024071
0.006612
0.025703
0.022540
0.024813
-0.004613
-0.025796
-0.064839
-0.105304
-0.161366
-0.205462
-0.239086
-0.257228
-0.265710
-0.263921
-0.241122
-0.215519
-0.183074
-0.126783
-0.078517
-0.028960
0.001777
0.022755
0.034809
0.014781
0.002080
-0.032232
-0.076288
-0.121055
-0.173863
-0.221373
-0.259444
-0.289912
-0.300717
-0.289467
-0.267300
-0.233879
-0.191845
-0.143698
-0.100983
-0.056200
-0.011719
0.007768
0.035800
0.026276
0.000108
-0.028618
-0.064959
-0.112956
-0.174896
-0.222114
-0.257714
-0.277110
-0.282883
-0.278003
-0.255303
-0.221403
-0.181072
-0.131241
-0.089904
-0.048401
-0.008271
0.018220
0.017848
0.001423
-0.021287
-0.048565
-0.079710
-0.128884
-0.183319
-0.225132
-0.264632
-0.288475
-0.293953
-0.294971
-0.278021
-0.247649
-0.199947
-0.157251
-0.098058
-0.047654
-0.002493
0.018320
0.030870
0.013562
-0.000608
-0.030123
-0.074263
-0.124361
-0.175679
-0.222690
-0.263307
-0.281500
-0.292420
-0.292423
-0.270141
-0.236146
-0.194566
-0.148460
-0.101313
-0.064533
-0.022063
0.007157
0.015535
0.003795
-0.023354
-0.054428
-0.089750
-0.125327
-0.189326
-0.234469
-0.274328
-0.276651
-0.283430
-0.276103
-0.254147
-0.221968
-0.181628
-0.133346
-0.077286
-0.047080
-0.006449
0.020413
0.028641
0.008572
-0.006966
-0.036060
-0.080597
-0.117765
-0.153620
-0.197890
-0.236031
-0.266766
-0.280922
-0.263715
-0.235896
-0.195378
-0.154564
-0.103040
-0.051657
-0.011621
0.011367
0.030876
0.041235
0.026260
0.021443
-0.002239
-0.059198
-0.100980
-0.144381
-0.190264
-0.237475
-0.257613
-0.269853
-0.263856
-0.226683
-0.186418
-0.161334
-0.108870
-0.043511
0.011677
0.041508
0.055992
0.059332
0.057727
0.046296
0.009551
-0.029188
-0.077869
-0.127013
-0.175410
-0.206288
-0.226427
-0.244306
-0.245570
-0.221880
-0.205387
-0.163958
-0.114479
-0.071114
-0.034351
0.002155
0.027685
0.046855
0.037780
0.017036
-0.028316
-0.067738
-0.117849
-0.170930
-0.205376
-0.254842
-0.277355
-0.288985
-0.286504
-0.261960
-0.231027
-0.179394
-0.137961
-0.092877
-0.054380
-0.027217
-0.009932
0.001677
0.000754
-0.023479
-0.066548
-0.095732
-0.135145
-0.185741
-0.235968
-0.273658
-0.300648
-0.292551
-0.288735
-0.272789
-0.239297
-0.206383
-0.172357
-0.133372
-0.078617
-0.038003
-0.020685
-0.012812
-0.016832
-0.044843
-0.075555
-0.106485
-0.145512
-0.201828
-0.243918
-0.276670
-0.302004
-0.311954
-0.296713
-0.275154
-0.252875
-0.204691
-0.154868
-0.108964
-0.071138
-0.039107
-0.013672
-0.015665
-0.019267
-0.041726
-0.070942
-0.121388
-0.154274
-0.197950
-0.244920
-0.290885
-0.314924
-0.318327
-0.306838
-0.285608
-0.241634
-0.208935
-0.160888
-0.112654
-0.084405
-0.049177
-0.022880
-0.007789
-0.008719
-0.030800
-0.068556
-0.105075
-0.157747
-0.206758
-0.238033
-0.276574
-0.298309
-0.311452
-0.310667
-0.283896
-0.253081
-0.216320
-0.159279
-0.112544
-0.067184
-0.037585
-0.016867
-0.002044
-0.008358
-0.010017
-0.038909
-0.071135
-0.100387
-0.133401
-0.160341
-0.179718
-0.192149
-0.179973
-0.159053
-0.138863
-0.095036
-0.038030
0.031867
0.101628
0.163654
0.232511
0.286777
0.328046
0.349313
0.360391
0.355733
0.346997
0.334291
0.311129
0.295709
0.289111
0.303993
0.325033
0.376343
0.440894
0.506579
0.567634
0.602997
0.642911
0.691628
0.722210
0.720570
0.720612
0.683147
0.627012
0.562173
0.466000
0.363891
0.251868
0.162174
0.082736
0.014832
-0.041215
-0.074798
-0.083280
-0.073653
-0.048452
-0.015319
0.035463
0.082653
0.099402
0.109848
0.115011
0.103847
0.061631
0.030191
-0.006876
-0.051690
-0.102739
-0.144413
-0.185110
-0.210963
-0.230381
-0.221731
-0.203898
-0.169501
-0.126991
-0.083172
-0.041301
-0.001556
0.030295
0.040909
0.055770
0.049880
0.026483
-0.011737
-0.046665
-0.094786
-0.141039
-0.174859
-0.207017
-0.237950
-0.257676
-0.256725
-0.227362
-0.206010
-0.167914
-0.110201
-0.065657
-0.020588
0.012261
0.025307
0.039315
0.035827
0.013287
-0.004053
-0.028282
-0.079206
-0.135579
-0.190927
-0.227074
-0.252614
-0.249385
-0.232706
-0.215831
-0.190746
-0.154500
-0.109371
-0.061283
-0.019540
0.021088
0.055547
0.060614
0.064563
0.039534
0.001544
-0.042179
-0.087854
-0.136813
-0.187540
-0.230448
-0.237173
-0.246548
-0.228031
-0.208580
-0.172471
-0.141456
-0.093150
-0.037765
0.000923
0.036830
0.057887
0.074384
0.061753
0.050783
0.022588
-0.022851
-0.067970
-0.108249
-0.157741
-0.188222
-0.219849
-0.221378
-0.205329
-0.183319
-0.149070
-0.117902
-0.078439
-0.037081
0.019508
0.057671
0.083297
0.095522
0.092658
0.070661
0.039899
-0.000768
-0.044968
-0.099289
-0.140003
-0.174281
-0.188549
-0.197504
-0.187763
-0.158022
-0.113786
-0.072611
-0.024042
0.034429
0.064819
0.100399
0.122550
0.145634
0.132539
0.096867
0.050340
0.016352
-0.031792
-0.068879
-0.112967
-0.137949
-0.156600
-0.149329
-0.131157
-0.110716
-0.069524
-0.031735
0.003827
0.047932
0.084982
0.121430
0.142106
0.150937
0.134518
0.116805
0.086644
0.054015
0.004598
-0.052943
-0.086115
-0.121893
-0.142868
-0.154623
-0.152579
-0.140642
-0.110046
-0.069650
-0.026348
0.010665
0.065080
0.100634
0.131777
0.133601
0.132100
0.109289
0.081709
0.044762
-0.006673
-0.058946
-0.110712
-0.155451
-0.168022
-0.184170
-0.186267
-0.162916
-0.130915
-0.083254
-0.042075
0.012088
0.056759
0.097848
0.114361
0.109432
0.104197
0.087927
0.048562
0.012352
-0.018002
-0.063633
-0.109036
-0.152684
-0.184670
-0.212153
-0.196087
-0.170317
-0.145771
-0.112656
-0.073724
-0.015534
0.031574
0.060912
0.077631
0.074537
0.067226
0.057970
0.021754
-0.019111
-0.063167
-0.130778
-0.176096
-0.193668
-0.208736
-0.229791
-0.226005
-0.196737
-0.163742
-0.134866
-0.089204
-0.039897
-0.006803
0.034687
0.050937
0.065398
0.050630
0.031247
-0.005100
-0.040787
-0.093218
-0.143466
-0.183870
-0.218589
-0.247103
-0.251336
-0.248305
-0.225797
-0.204728
-0.164954
-0.115809
-0.060899
-0.025658
0.012411
0.042949
0.059387
0.043650
0.018652
-0.018900
-0.061371
-0.098263
-0.140463
-0.196479
-0.233969
-0.246312
-0.255292
-0.261747
-0.242737
-0.205257
-0.169294
-0.120792
-0.063513
-0.021331
0.020617
0.035253
0.034901
0.028143
0.008771
-0.019080
-0.053676
-0.102646
-0.133093
-0.187591
-0.222498
-0.249940
-0.252118
-0.246643
-0.229362
-0.199726
-0.148007
-0.105891
-0.065781
-0.022227
0.018793
0.045740
0.060673
0.054387
0.029234
-0.001685
-0.049073
-0.092623
-0.143749
-0.186558
-0.227429
-0.249028
-0.248617
-0.241450
-0.218424
-0.183844
-0.133314
-0.075656
-0.041281
-0.004396
0.038472
0.048198
0.057413
0.052113
0.035721
0.002259
-0.037215
-0.091844
-0.139457
-0.184652
-0.222795
-0.250819
-0.251642
-0.246293
-0.220139
-0.190689
-0.150128
-0.096014
-0.049741
-0.006011
0.044177
0.054037
0.059489
0.051178
0.030919
-0.000465
-0.027088
-0.064999
-0.118366
-0.174601
-0.217024
-0.250304
-0.249413
-0.247283
-0.212075
-0.185481
-0.154472
-0.108539
-0.071914
-0.020503
0.025969
0.057386
0.060309
0.049472
0.027286
0.005902
-0.035444
-0.079811
-0.130252
-0.173834
-0.223459
-0.234231
-0.251552
-0.245810
-0.223357
-0.194573
-0.163900
-0.107108
-0.050632
-0.003497
0.030776
0.050828
0.060954
0.061133
0.040951
0.008190
-0.041415
-0.092864
-0.139306
-0.173904
-0.212596
-0.233642
-0.249030
-0.248650
-0.228480
-0.203710
-0.171212
-0.125913
-0.075754
-0.040076
0.005383
0.038190
0.047004
0.047436
0.037596
0.005210
-0.034557
-0.081432
-0.141023
-0.183381
-0.220788
-0.240298
-0.237302
-0.235225
-0.228618
-0.197539
-0.166240
-0.112258
-0.066720
-0.030144
0.004308
0.032475
0.040004
0.031435
0.011971
-0.011771
-0.069233
-0.118171
-0.156114
-0.198599
-0.229150
-0.247937
-0.263436
-0.254539
-0.240457
-0.204211
-0.174392
-0.131059
-0.081627
-0.038918
0.005046
0.026126
0.047658
0.044196
0.023859
-0.014810
-0.044696
-0.104602
-0.154763
-0.189478
-0.236211
-0.259324
-0.261856
-0.265407
-0.243862
-0.208518
-0.163084
-0.110950
-0.057978
-0.017501
0.019840
0.033485
0.043338
0.032199
0.003422
-0.024474
-0.060172
-0.110574
-0.161108
-0.185736
-0.222256
-0.240736
-0.250026
-0.246448
-0.237727
-0.215810
-0.178693
-0.129491
-0.077879
-0.037399
0.002284
0.026377
0.041763
0.043010
0.014936
-0.024584
-0.054745
-0.095857
-0.137577
-0.176296
-0.211662
-0.236678
-0.247578
-0.242185
-0.206223
-0.176100
-0.134586
-0.093852
-0.038250
0.011499
0.052813
0.071078
0.078461
0.071710
0.051691
0.022411
-0.006402
-0.051905
-0.103846
-0.155028
-0.204394
-0.221261
-0.224901
-0.224748
-0.208568
-0.176026
-0.148092
-0.101939
-0.045741
0.004785
0.046829
0.068896
0.082691
0.081468
0.063832
0.027126
-0.005188
-0.046880
-0.099301
-0.138138
-0.167016
-0.187068
-0.194876
-0.185036
-0.167593
-0.148836
-0.115874
-0.082008
-0.029010
0.012380
0.051513
0.079403
0.079749
0.061689
0.038435
-0.001189
-0.030743
-0.076079
-0.131872
-0.186493
-0.215969
-0.242716
-0.259270
-0.251103
-0.227756
-0.196870
-0.163046
-0.112971
-0.067407
-0.019318
0.016332
0.038383
0.036328
0.026411
0.005500
-0.019864
-0.071733
-0.113030
-0.158346
-0.203737
-0.253712
-0.262417
-0.262951
-0.259523
-0.238104
-0.220176
-0.189360
-0.140288
-0.101359
-0.063009
-0.016480
0.004053
0.018069
0.015077
-0.003938
-0.039739
-0.073354
-0.121222
-0.162703
-0.188450
-0.236946
-0.264345
-0.284286
-0.284219
-0.264074
-0.224513
-0.187758
-0.139920
-0.088838
-0.048810
-0.006064
0.008183
0.023298
0.015688
-0.006449
-0.040452
-0.078221
-0.125451
-0.172861
-0.217284
-0.258966
-0.285223
-0.292393
-0.274232
-0.251736
-0.216840
-0.176357
-0.129575
-0.081034
-0.044010
-0.002715
0.024751
0.037701
0.029638
0.002863
-0.033199
-0.073288
-0.117147
-0.175598
-0.215981
-0.259584
-0.294137
-0.298578
-0.290716
-0.278131
-0.241095
-0.203334
-0.161240
-0.105211
-0.070758
-0.026595
-0.007495
0.010566
0.012282
-0.008527
-0.040111
-0.067298
-0.116415
-0.153548
-0.188918
-0.227099
-0.238804
-0.230627
-0.214979
-0.180700
-0.132585
-0.068692
-0.005924
0.044866
0.096631
0.156578
0.197479
0.231631
0.240580
0.248261
0.241248
0.227629
0.211083
0.195943
0.188111
0.179585
0.185392
0.189972
0.215207
0.269424
0.351414
0.424305
0.506403
0.567868
0.644573
0.725590
0.782256
0.799251
0.797049
0.780778
0.738909
0.678806
0.620096
0.551253
0.476807
0.387404
0.305058
0.238434
0.191536
0.173208
0.150032
0.144543
0.144290
0.154830
0.175273
0.188037
0.185879
0.176790
0.153452
0.119014
0.086308
0.046043
-0.009015
-0.056537
-0.095074
-0.134525
-0.170937
-0.176941
-0.176598
-0.159937
-0.131904
-0.104130
-0.050335
-0.008565
0.040858
0.068085
0.090030
0.092090
0.083344
0.066252
0.022494
-0.012144
-0.050832
-0.098314
-0.142908
-0.190462
-0.222026
-0.230312
-0.227804
-0.206887
-0.174142
-0.134929
-0.086822
-0.042470
0.001228
0.037185
0.062234
0.071851
0.059172
0.032529
0.016768
-0.018271
-0.066987
-0.120014
-0.169357
-0.211378
-0.234899
-0.250325
-0.250751
-0.222406
-0.193624
-0.149671
-0.095902
-0.052789
0.002214
0.040576
0.065900
0.072789
0.074868
0.045909
0.015503
-0.023722
-0.069657
-0.112494
-0.141642
-0.187182
-0.212369
-0.230971
-0.216555
-0.203040
-0.160712
-0.118875
-0.077161
-0.022153
0.009855
0.065118
0.094358
0.093533
0.083858
0.070820
0.046326
0.026201
-0.032945
-0.084439
-0.136044
-0.176757
-0.211832
-0.213557
-0.198109
-0.163803
-0.133388
-0.089068
-0.039278
0.004088
0.032143
0.079737
0.106185
0.098038
0.090929
0.093517
0.074728
0.038378
0.000392
-0.051775
-0.094988
-0.133780
-0.153970
-0.169096
-0.167160
-0.147826
-0.120308
-0.074772
-0.013868
0.037111
0.079798
0.119644
0.144842
0.154298
0.141649
0.122223
0.088452
0.047550
0.002342
-0.052933
-0.087384
-0.132134
-0.145212
-0.149930
-0.141107
-0.110598
-0.078905
-0.039378
0.012014
0.052815
0.099844
0.146287
0.176825
0.174695
0.166657
0.139004
0.108100
0.069449
0.017197
-0.033391
-0.067855
-0.107373
-0.119968
-0.134383
-0.137698
-0.118252
-0.077363
-0.040545
0.005014
0.066182
0.106303
0.142323
0.163833
0.166117
0.152281
0.135965
0.105409
0.068319
0.011668
-0.044566
-0.079709
-0.122062
-0.153862
-0.157437
-0.158800
-0.130939
-0.095997
-0.061707
-0.015228
0.038992
0.094673
0.137080
0.151700
0.159727
0.148486
0.123492
0.083136
0.048385
-0.012827
-0.057587
-0.095688
-0.129953
-0.158756
-0.164469
-0.171694
-0.143657
-0.110796
-0.084944
-0.042667
0.013742
0.053648
0.097053
0.105681
0.102804
0.112720
0.090631
0.053465
0.007040
-0.041585
-0.099060
-0.136294
-0.169355
-0.192463
-0.196434
-0.207330
-0.184802
-0.151458
-0.116388
-0.072968
-0.033091
0.016969
0.067724
0.088772
0.090466
0.085592
0.069310
0.025210
0.000948
-0.055384
-0.112723
-0.152007
-0.193195
-0.227308
-0.229080
-0.218485
-0.199442
-0.165438
-0.116723
-0.063855
-0.037331
-0.004946
0.043448
0.061873
0.073133
0.068225
0.057200
0.023076
-0.027724
-0.081750
-0.130287
-0.163419
-0.198172
-0.216219
-0.217593
-0.220501
-0.206913
-0.164392
-0.129942
-0.079150
-0.043530
-0.006934
0.039310
0.067913
0.072930
0.071778
0.051070
0.019100
-0.017501
-0.060196
-0.118403
-0.167422
-0.194769
-0.223962
-0.239856
-0.245744
-0.227398
-0.180552
-0.138517
-0.090190
-0.038976
0.018860
0.051440
0.083101
0.089329
0.075293
0.046115
0.017456
-0.025056
-0.072722
-0.116298
-0.159183
-0.195626
-0.220247
-0.227230
-0.219155
-0.196979
-0.164625
-0.133555
-0.083123
-0.032238
0.012935
0.056807
0.081904
0.094951
0.087498
0.065856
0.032603
-0.002354
-0.051805
-0.108135
-0.148816
-0.196048
-0.216093
-0.222894
-0.206610
-0.185712
-0.154502
-0.123247
-0.072508
-0.022346
0.022002
0.059901
0.084645
0.093894
0.089170
0.075584
0.041918
0.001400
-0.044997
-0.103063
-0.131608
-0.186179
-0.209845
-0.220324
-0.218749
-0.205982
-0.161945
-0.124381
-0.080125
-0.027618
0.022311
0.063233
0.077268
0.084964
0.088454
0.066192
0.020474
-0.011636
-0.077415
-0.113642
-0.143350
-0.188505
-0.205435
-0.217551
-0.215851
-0.206435
-0.168436
-0.126828
-0.074743
-0.026934
0.009963
0.061237
0.082738
0.090960
0.087510
0.069624
0.042149
-0.005106
-0.066767
-0.117037
-0.155499
-0.200649
-0.234036
-0.236972
-0.226374
-0.199982
-0.164860
-0.117110
-0.068838
-0.001248
0.028044
0.053196
0.067337
0.079459
0.072977
0.048913
0.015346
-0.020882
-0.067779
-0.118435
-0.164503
-0.207296
-0.225623
-0.225575
-0.230254
-0.203804
-0.171743
-0.137321
-0.081339
-0.041271
0.015019
0.059483
0.073517
0.080531
0.080560
0.051458
0.021876
-0.016349
-0.065926
-0.120292
-0.161360
-0.205675
-0.226989
-0.241383
-0.232369
-0.214873
-0.182905
-0.142064
-0.086305
-0.045309
-0.002658
0.038938
0.063863
0.072384
0.073253
0.050272
0.005304
-0.025651
-0.077491
-0.133176
-0.181816
-0.209678
-0.228453
-0.240669
-0.234099
-0.215331
-0.181778
-0.142888
-0.089130
-0.039545
-0.008797
0.027750
0.060824
0.067916
0.071434
0.052920
0.016980
-0.026227
-0.073783
-0.117416
-0.157134
-0.211123
-0.230640
-0.243459
-0.238413
-0.219647
-0.189361
-0.149048
-0.098941
-0.048157
-0.013520
0.023659
0.044318
0.052821
0.060655
0.042645
0.006360
-0.036823
-0.083841
-0.140539
-0.178133
-0.199098
-0.213974
-0.225174
-0.230855
-0.213266
-0.176523
-0.142166
-0.092322
-0.041914
0.016354
0.052953
0.069754
0.093012
0.093266
0.064191
0.038715
0.001613
-0.059277
-0.099589
-0.132498
-0.173066
-0.199313
-0.197549
-0.195494
-0.190068
-0.155343
-0.113004
-0.056407
-0.011814
0.034730
0.067888
0.087306
0.096052
0.095295
0.079698
0.054814
0.026256
-0.030942
-0.089575
-0.127811
-0.161717
-0.187142
-0.205829
-0.212940
-0.187681
-0.155387
-0.111800
-0.044344
-0.002076
0.045855
0.079330
0.113675
0.136927
0.135918
0.120540
0.076336
0.033762
-0.022566
-0.067623
-0.112455
-0.153365
-0.180883
-0.194975
-0.194564
-0.176616
-0.149198
-0.115341
-0.066789
-0.019304
0.019416
0.058474
0.082642
0.084369
0.083383
0.067867
0.029438
-0.007591
-0.072381
-0.124285
-0.167602
-0.210258
-0.222211
-0.224662
-0.217056
-0.205292
-0.179009
-0.139753
-0.081932
-0.032613
-0.006181
0.038415
0.057786
0.052565
0.042010
0.017958
-0.007026
-0.048014
-0.101282
-0.127076
-0.169425
-0.211061
-0.239551
-0.240757
-0.247718
-0.226138
-0.192994
-0.160619
-0.108164
-0.062102
-0.027004
0.016175
0.040978
0.043722
0.036348
0.012076
-0.005690
-0.044449
-0.092371
-0.152368
-0.197226
-0.232854
-0.256053
-0.259435
-0.265043
-0.240846
-0.199780
-0.164343
-0.119792
-0.066895
-0.013360
0.020206
0.042151
0.039676
0.040989
0.018712
-0.015190
-0.050515
-0.105662
-0.157240
-0.189072
-0.235777
-0.260601
-0.261586
-0.264585
-0.233634
-0.194426
-0.157474
-0.106067
-0.057730
-0.023308
0.016687
0.042418
0.051248
0.045078
0.019742
-0.017046
-0.041259
-0.084872
-0.141256
-0.187812
-0.226579
-0.244279
-0.256262
-0.254178
-0.231283
-0.203549
-0.170711
-0.136867
-0.074871
-0.026176
0.018188
0.038782
0.051856
0.048524
0.036718
0.016484
-0.001362
-0.047452
-0.077724
-0.108759
-0.139209
-0.144927
-0.142854
-0.131497
-0.098370
-0.037112
0.030576
0.092111
0.152686
0.221910
0.290471
0.329708
0.373721
0.409553
0.427483
0.429488
0.434085
0.426277
0.397888
0.380726
0.376498
0.397592
0.428771
0.478428
0.516108
0.588517
0.660364
0.714183
0.755205
0.801967
0.842802
0.843994
0.832832
0.798076
0.751295
0.676089
0.570986
0.456349
0.345857
0.238029
0.155564
0.092159
0.038041
-0.004662
-0.023016
-0.009163
0.018865
0.066907
0.122765
0.153386
0.189423
0.206015
0.198271
0.182790
0.154818
0.117270
0.078972
0.025589
-0.023136
-0.076902
-0.121576
-0.143565
-0.158201
-0.151140
-0.139186
-0.117728
-0.071716
-0.026172
0.017705
0.051761
0.092579
0.115784
0.119685
0.118803
0.091894
0.045387
0.016675
-0.037264
-0.094198
-0.140394
-0.165113
-0.189993
-0.198378
-0.186390
-0.170181
-0.132396
-0.103945
-0.046443
0.004611
0.036499
0.068032
0.088297
0.088347
0.077930
0.048998
0.037541
0.004357
-0.034502
-0.088317
-0.127793
-0.168523
-0.206847
-0.212959
-0.208046
-0.174082
-0.126706
-0.100071
-0.058130
-0.017026
0.040160
0.075494
0.096881
0.103462
0.098306
0.071141
0.038671
0.006453
-0.035375
-0.087010
-0.133527
-0.172118
-0.181323
-0.193908
-0.186235
-0.145768
-0.105109
-0.078800
-0.034840
0.010801
0.054254
0.090857
0.116937
0.141599
0.139280
0.109646
0.064627
0.018764
-0.028880
-0.070084
-0.115021
-0.150027
-0.173323
-0.170279
-0.153575
-0.137836
-0.104232
-0.061029
-0.009390
0.043184
0.080997
0.131136
0.157929
0.165103
0.165137
0.142654
0.105075
0.071260
0.022478
-0.023499
-0.069582
-0.096652
-0.121936
-0.128250
-0.124146
-0.100705
-0.074200
-0.034291
0.018288
0.068572
0.110031
0.146917
0.166450
0.170827
0.174090
0.160460
0.137098
0.113206
0.048205
-0.009250
-0.057763
-0.094706
-0.110349
-0.111869
-0.103998
-0.081355
-0.052923
-0.022760
0.048562
0.091763
0.134971
0.170287
0.192998
0.183718
0.176185
0.159698
0.138633
0.096035
0.051437
0.009202
-0.035304
-0.080270
-0.102719
-0.115602
-0.104720
-0.087130
-0.055830
-0.010856
0.043679
0.097166
0.135931
0.167845
0.193215
0.195292
0.188581
0.162637
0.132130
0.084288
0.034138
-0.016765
-0.067827
-0.102004
-0.122389
-0.127172
-0.128523
-0.103692
-0.073482
-0.036307
0.020173
0.074057
0.122930
0.163911
0.181429
0.190910
0.175325
0.143155
0.103127
0.065487
0.021083
-0.035161
-0.079827
-0.132608
-0.154987
-0.161037
-0.149360
-0.120303
-0.088390
-0.051819
-0.006060
0.023916
0.071050
0.108645
0.135296
0.137500
0.134130
0.111522
0.080757
0.052337
-0.006092
-0.058141
-0.100399
-0.142732
-0.172570
-0.176881
-0.177855
-0.164900
-0.131473
-0.087572
-0.039702
0.009728
0.056901
0.093598
0.116160
0.117031
0.107882
0.079701
0.052905
0.018873
-0.034043
-0.086454
-0.129202
-0.168818
-0.197326
-0.200325
-0.183670
-0.159887
-0.128374
-0.102179
-0.057457
-0.013125
0.035651
0.069804
0.100495
0.102935
0.103800
0.085652
0.043162
0.002651
-0.051014
-0.090543
-0.137876
-0.175932
-0.203328
-0.215395
-0.202761
-0.184730
-0.153093
-0.107807
-0.062711
-0.011088
0.041355
0.080155
0.097152
0.102452
0.100755
0.087217
0.045459
0.003008
-0.040492
-0.086511
-0.135293
-0.177079
-0.189691
-0.199471
-0.196639
-0.176519
-0.144715
-0.104720
-0.057842
-0.013181
0.034727
0.077218
0.113269
0.107367
0.112284
0.089590
0.054191
0.014567
-0.038621
-0.085683
-0.120461
-0.165492
-0.196144
-0.201786
-0.201694
-0.179283
-0.137669
-0.095613
-0.039672
0.001698
0.055737
0.089221
0.113195
0.119254
0.118369
0.099332
0.074414
0.032215
-0.024262
-0.080176
-0.118727
-0.155719
-0.188363
-0.187486
-0.177556
-0.160490
-0.124119
-0.095945
-0.044015
0.015996
0.073143
0.113535
0.123245
0.116497
0.109214
0.082851
0.051033
0.014451
-0.013896
-0.069394
-0.125444
-0.159851
-0.182461
-0.191714
-0.176853
-0.158857
-0.134842
-0.098994
-0.041229
0.004074
0.047782
0.076834
0.119543
0.125851
0.117793
0.087443
0.061265
0.021042
-0.024811
-0.084798
-0.117083
-0.160913
-0.188806
-0.191826
-0.186024
-0.164479
-0.125074
-0.084855
-0.040744
0.010988
0.060863
0.087887
0.106865
0.112493
0.115791
0.106283
0.058203
0.021613
-0.028239
-0.078736
-0.123285
-0.160550
-0.194557
-0.195026
-0.193906
-0.163393
-0.118770
-0.085764
-0.046650
-0.000837
0.050428
0.093820
0.119412
0.127052
0.117006
0.096755
0.061297
0.025247
-0.012175
-0.078686
-0.119313
-0.174082
-0.191625
-0.195093
-0.190617
-0.177758
-0.146121
-0.101699
-0.037785
0.002619
0.060962
0.082294
0.098852
0.105994
0.106645
0.087015
0.042910
-0.002891
-0.059674
-0.101496
-0.140640
-0.177487
-0.204914
-0.212820
-0.210017
-0.194952
-0.153090
-0.111974
-0.064516
-0.020308
0.026662
0.060580
0.081588
0.081740
0.092703
0.072613
0.046248
0.016982
-0.045965
-0.108538
-0.141939
-0.181290
-0.199292
-0.193110
-0.197823
-0.184657
-0.160146
-0.122005
-0.063156
-0.013866
0.042368
0.071807
0.094016
0.095403
0.093935
0.083588
0.032482
-0.001496
-0.049570
-0.095436
-0.146368
-0.190658
-0.208808
-0.219175
-0.214421
-0.195148
-0.144424
-0.104697
-0.043067
0.010113
0.033725
0.070256
0.089962
0.096308
0.098529
0.076874
0.037501
0.003993
-0.057114
-0.103988
-0.153168
-0.175190
-0.199750
-0.204133
-0.203899
-0.181016
-0.147899
-0.108441
-0.048398
0.003172
0.041429
0.073761
0.090620
0.089828
0.094232
0.076719
0.042500
0.006564
-0.043861
-0.101730
-0.150517
-0.190547
-0.213177
-0.209457
-0.204121
-0.175359
-0.139042
-0.092854
-0.033357
0.015122
0.071354
0.104868
0.131853
0.145735
0.138903
0.118910
0.076746
0.047411
-0.000605
-0.059882
-0.110104
-0.145385
-0.174086
-0.178453
-0.176640
-0.150941
-0.120515
-0.079355
-0.031224
0.018249
0.063584
0.103772
0.127341
0.132817
0.135598
0.109518
0.087583
0.061816
-0.005901
-0.042955
-0.088982
-0.126052
-0.143707
-0.154382
-0.142842
-0.129989
-0.094066
-0.055954
-0.008128
0.058974
0.095699
0.123160
0.142094
0.142726
0.132675
0.107481
0.068511
0.030352
-0.026931
-0.072317
-0.113082
-0.142777
-0.162316
-0.176197
-0.182450
-0.158808
-0.120324
-0.081139
-0.033130
0.010686
0.044761
0.075771
0.094052
0.092097
0.089494
0.075448
0.035405
0.011265
-0.038635
-0.097564
-0.143048
-0.178193
-0.197935
-0.219772
-0.218119
-0.194462
-0.162287
-0.117685
-0.072346
-0.021361
0.018721
0.047177
0.074195
0.086628
0.086470
0.061524
0.017113
-0.030153
-0.080837
-0.136516
-0.175679
-0.206637
-0.221236
-0.230714
-0.226268
-0.197249
-0.165500
-0.136694
-0.072806
-0.032012
0.017653
0.052302
0.080424
0.090880
0.081913
0.049441
0.022948
-0.008802
-0.064025
-0.118266
-0.167485
-0.200950
-0.232429
-0.233180
-0.230231
-0.205897
-0.173100
-0.128842
-0.083159
-0.028130
0.011545
0.040410
0.070217
0.075104
0.079031
0.058403
0.010392
-0.035771
-0.076331
-0.122564
-0.171168
-0.211344
-0.238778
-0.241103
-0.217929
-0.205710
-0.165229
-0.128509
-0.073336
-0.027838
0.010342
0.049142
0.067500
0.071802
0.062070
0.049168
0.020677
-0.025422
-0.084972
-0.137615
-0.176320
-0.216065
-0.234907
-0.246910
-0.238177
-0.213063
-0.163040
-0.115851
-0.043425
0.010984
0.065045
0.113104
0.157625
0.184636
0.202259
0.184212
0.174170
0.149304
0.116948
0.096662
0.067548
0.053071
0.061108
0.103689
0.142072
0.197369
0.283340
0.347661
0.427878
0.500837
0.577161
0.648993
0.724924
0.779150
0.809881
0.821160
0.813068
0.806444
0.784805
0.739613
0.684443
0.644122
0.612648
0.582347
0.573378
0.571372
0.584529
0.572414
0.565949
0.547168
0.522762
0.492410
0.468118
0.424725
0.368131
0.310810
0.256208
0.213144
0.153760
0.090331
0.023819
-0.018221
-0.062536
-0.069769
-0.071050
-0.066289
-0.053031
-0.020526
0.028438
0.081301
0.118669
0.163815
0.172195
0.163150
0.153552
0.138100
0.108459
0.069345
0.024493
-0.023930
-0.073614
-0.117350
-0.148412
-0.162090
-0.149633
-0.143953
-0.110935
-0.080518
-0.026965
0.024589
0.079027
0.112385
0.122261
0.128873
0.125702
0.110670
0.063679
0.025410
-0.019433
-0.078376
-0.120479
-0.149868
-0.171223
-0.170574
-0.161580
-0.146955
-0.119065
-0.077890
-0.033280
0.017069
0.056564
0.096377
0.126153
0.120245
0.108652
0.099439
0.063784
0.015464
-0.023135
-0.073778
-0.118716
-0.143852
-0.156382
-0.171163
-0.161301
-0.128768
-0.105543
-0.069530
-0.010605
0.020657
0.070829
0.116508
0.141953
0.142117
0.139854
0.117352
0.090667
0.051712
-0.002039
-0.046719
-0.082021
-0.117495
-0.136999
-0.142623
-0.135389
-0.098642
-0.079915
-0.042768
0.014449
0.061280
0.100885
0.125884
0.154668
0.150750
0.154565
0.143297
0.105067
0.070117
0.015116
-0.022331
-0.069385
-0.097527
-0.121339
-0.111998
-0.112517
-0.089294
-0.061398
-0.013846
0.036453
0.085525
0.120439
0.155984
0.186214
0.208871
0.205299
0.174839
0.143355
0.094784
0.045942
0.000347
-0.050608
-0.084909
-0.098817
-0.093914
-0.070483
-0.051072
-0.013015
0.015467
0.064680
0.103527
0.154361
0.189874
0.215142
0.219754
0.220215
0.193348
0.166166
0.129648
0.076685
0.033430
-0.000770
-0.049255
-0.071247
-0.064151
-0.057419
-0.050262
-0.016923
0.025849
0.065056
0.112231
0.160182
0.192365
0.214751
0.229685
0.232159
0.208679
0.177414
0.133236
0.082220
0.035159
-0.001231
-0.035981
-0.069820
-0.084160
-0.069949
-0.057918
-0.034733
0.009155
0.071688
0.119027
0.154676
0.203274
0.209776
0.220442
0.215424
0.178029
0.145591
0.101495
0.048378
-0.001521
-0.049529
-0.081832
-0.101587
-0.101802
-0.094106
-0.069980
-0.041335
-0.003850
0.041050
0.082836
0.110697
0.133394
0.169659
0.167004
0.168071
0.156153
0.127415
0.088318
0.026429
-0.021840
-0.066467
-0.099633
-0.123103
-0.138939
-0.120818
-0.105689
-0.080707
-0.046996
-0.009369
0.044614
0.091845
0.117043
0.142201
0.145816
0.146959
0.127684
0.093536
0.050150
-0.002851
-0.043200
-0.098423
-0.133275
-0.155433
-0.172466
-0.149997
-0.134944
-0.104726
-0.060081
-0.008211
0.037048
0.075271
0.108578
0.118297
0.127434
0.130664
0.110554
0.088781
0.042800
-0.005924
-0.063640
-0.117450
-0.163051
-0.190694
-0.190044
-0.177834
-0.158649
-0.124388
-0.069561
-0.025765
0.019012
0.071104
0.089494
0.099388
0.107855
0.105270
0.093025
0.060244
0.033692
-0.023644
-0.074374
-0.129265
-0.156585
-0.172423
-0.184950
-0.177012
-0.153335
-0.128148
-0.082969
-0.034240
0.018118
0.058661
0.096892
0.124480
0.123790
0.117806
0.104146
0.077498
0.026034
-0.030073
-0.082751
-0.127633
-0.153677
-0.181310
-0.168613
-0.153389
-0.138640
-0.099250
-0.066632
-0.021368
0.027230
0.076233
0.122031
0.139028
0.136064
0.125404
0.101788
0.072849
0.038740
-0.015030
-0.059953
-0.114263
-0.146274
-0.165337
-0.166596
-0.162825
-0.152185
-0.129023
-0.086724
-0.034590
0.011222
0.065817
0.103909
0.131322
0.143702
0.140063
0.111878
0.079933
0.045871
-0.005840
-0.058180
-0.097873
-0.135317
-0.154305
-0.153566
-0.156638
-0.130444
-0.104316
-0.056409
-0.015746
0.038566
0.068699
0.107566
0.138556
0.146703
0.159629
0.115618
0.085066
0.045746
0.001457
-0.052463
-0.089158
-0.123267
-0.151130
-0.160015
-0.162251
-0.142912
-0.113054
-0.068963
-0.020550
0.018085
0.073603
0.112750
0.124560
0.119873
0.129816
0.123125
0.074699
0.032172
-0.014650
-0.066809
-0.105131
-0.138640
-0.160094
-0.175899
-0.167842
-0.145492
-0.112978
-0.071564
-0.025301
0.013403
0.066717
0.107904
0.140169
0.145938
0.130341
0.101084
0.074779
0.032992
-0.016456
-0.056096
-0.100547
-0.141487
-0.167582
-0.172537
-0.165168
-0.152224
-0.114815
-0.074517
-0.024451
0.014686
0.056098
0.092207
0.113274
0.125111
0.112985
0.101781
0.064425
0.023802
-0.043928
-0.083947
-0.125832
-0.155233
-0.183279
-0.177400
-0.170177
-0.151715
-0.108301
-0.070704
-0.032076
0.019632
0.065245
0.092712
0.116682
0.131927
0.115042
0.086673
0.060271
0.023250
-0.020958
-0.080723
-0.115944
-0.144572
-0.173603
-0.178531
-0.175699
-0.158599
-0.121627
-0.078272
-0.028632
0.004590
0.046227
0.086285
0.114728
0.133400
0.118020
0.094841
0.071335
0.035714
-0.019847
-0.085839
-0.129639
-0.164737
-0.194249
-0.200173
-0.188288
-0.167431
-0.144576
-0.095679
-0.049422
-0.002243
0.042491
0.065863
0.097359
0.112972
0.115132
0.103617
0.069708
0.011372
-0.029204
-0.075374
-0.121039
-0.164685
-0.192238
-0.190125
-0.182112
-0.162414
-0.117357
-0.078768
-0.028243
0.012065
0.047577
0.084249
0.095244
0.100616
0.090756
0.073622
0.049675
0.004076
-0.050737
-0.084117
-0.124555
-0.167303
-0.182972
-0.199216
-0.186484
-0.161803
-0.129078
-0.087466
-0.036395
0.018305
0.049459
0.089823
0.114501
0.116798
0.101381
0.079128
0.044899
-0.003995
-0.045787
-0.086164
-0.137371
-0.164505
-0.187888
-0.191943
-0.176687
-0.156334
-0.120642
-0.096406
-0.043444
0.013809
0.058207
0.086964
0.120976
0.132012
0.129190
0.117202
0.072098
0.034656
-0.010169
-0.058078
-0.096143
-0.116100
-0.140668
-0.153130
-0.154077
-0.136243
-0.103823
-0.066083
-0.005082
0.045065
0.084664
0.113511
0.135890
0.152161
0.140153
0.126236
0.087649
0.046899
-0.007678
-0.063376
-0.107372
-0.136523
-0.156141
-0.160482
-0.158375
-0.128312
-0.099567
-0.056836
-0.002324
0.048221
0.094809
0.125812
0.163093
0.174678
0.158150
0.128964
0.102868
0.075093
0.021562
-0.036969
-0.082515
-0.110155
-0.139856
-0.155771
-0.155211
-0.131817
-0.105171
-0.069704
-0.035486
0.005881
0.065832
0.106422
0.129312
0.150988
0.149460
0.113799
0.069408
0.022485
-0.028421
-0.075513
-0.116959
-0.147927
-0.175580
-0.190840
-0.189069
-0.168741
-0.149212
-0.089418
-0.037822
0.016731
0.048644
0.078386
0.091805
0.097319
0.077322
0.059479
0.047603
0.000936
-0.048935
-0.100208
-0.145572
-0.163844
-0.198404
-0.213345
-0.209434
-0.178778
-0.149686
-0.113936
-0.076579
-0.025014
0.025927
0.051956
0.079421
0.091197
0.080853
0.058979
0.040279
-0.008669
-0.050753
-0.099391
-0.147846
-0.190323
-0.209019
-0.208110
-0.202088
-0.182921
-0.163074
-0.107815
-0.063357
-0.015645
0.029758
0.058557
0.076746
0.081108
0.076879
0.051622
0.010425
-0.024896
-0.073104
-0.117957
-0.165861
-0.198365
-0.219634
-0.229016
-0.219975
-0.205165
-0.168895
-0.125814
-0.080871
-0.027192
0.031367
0.057523
0.084561
0.083504
0.066648
0.062870
0.041576
-0.006374
-0.053719
-0.096589
-0.155508
-0.193549
-0.218670
-0.225129
-0.215419
-0.202130
-0.186673
-0.144836
-0.095758
-0.034804
0.004166
0.041747
0.075602
0.086728
0.073554
0.066414
0.045111
0.013690
-0.025470
-0.053206
-0.081306
-0.093982
-0.100449
-0.092601
-0.078157
-0.043916
0.006685
0.076619
0.139421
0.218541
0.294506
0.358592
0.407915
0.455053
0.482392
0.496995
0.489053
0.484204
0.471892
0.457130
0.444475
0.443078
0.469278
0.502318
0.541102
0.583955
0.655568
0.713626
0.752293
0.796047
0.856400
0.867270
0.861169
0.856636
0.828276
0.779232
0.706260
0.589932
0.477510
0.356843
0.262724
0.179156
0.106100
0.045387
0.023230
0.035964
0.046837
0.080638
0.123206
0.163796
0.197076
0.231442
0.236650
0.237106
0.216653
0.183162
0.142112
0.106341
0.059406
0.001326
-0.062731
-0.099812
-0.117964
-0.126181
-0.123744
-0.099746
-0.071240
-0.034885
0.004857
0.042072
0.081632
0.114849
0.138781
0.146178
0.143610
0.122871
0.091390
0.042491
0.000860
-0.046505
-0.096710
-0.122550
-0.141164
-0.164191
-0.138775
-0.124621
-0.097723
-0.074071
-0.030080
0.014603
0.065655
0.095260
0.117238
0.123860
0.117429
0.096986
0.072796
0.039343
-0.012265
-0.052796
-0.098560
-0.125357
-0.154201
-0.155387
-0.146449
-0.134355
-0.099547
-0.058097
-0.019930
0.028534
0.079985
0.108127
0.130250
0.138851
0.139891
0.115750
0.090246
0.042629
-0.005433
-0.058627
-0.105587
-0.129441
-0.149290
-0.151307
-0.146184
-0.133414
-0.102512
-0.047443
0.009828
0.053478
0.094933
0.127108
0.154755
0.164891
0.160561
0.145467
0.106172
0.064437
0.002603
-0.037710
-0.083192
-0.107894
-0.131735
-0.136304
-0.133735
-0.102429
-0.068504
-0.028437
0.009263
0.062820
0.114653
0.154944
0.181144
0.183881
0.186897
0.169817
0.145350
0.105568
0.056691
0.008741
-0.035892
-0.065699
-0.091843
-0.111809
-0.094979
-0.069269
-0.045742
0.000313
0.062437
0.116546
0.156570
0.187744
0.217695
0.220614
0.208059
0.196079
0.178163
0.133969
0.075075
0.035321
-0.014442
-0.055138
-0.073749
-0.082198
-0.076654
-0.042004
-0.010124
0.030304
0.077926
0.129422
0.179251
0.213381
0.232393
0.233355
0.227485
0.208273
0.183630
0.127364
0.085021
0.037842
-0.003990
-0.047024
-0.081037
-0.080816
-0.055683
-0.034336
-0.018169
0.024371
0.060877
0.114429
0.156950
0.205420
0.229822
0.245109
0.231918
0.204703
0.168273
0.120985
0.076332
0.034949
-0.010174
-0.050990
-0.077194
-0.099434
-0.084111
-0.068268
-0.041907
0.011482
0.059982
0.096293
0.150224
0.170875
0.201701
0.214468
0.204149
0.178099
0.149166
0.110025
0.064175
0.012024
-0.040842
-0.081730
-0.121703
-0.136290
-0.128076
-0.106195
-0.071502
-0.033576
0.031212
0.069285
0.108999
0.134539
0.161399
0.164952
0.157716
0.139821
0.118794
0.067745
0.023917
-0.013810
-0.063519
-0.104249
-0.134964
-0.146746
-0.137712
-0.125945
-0.085096
-0.034339
0.002038
0.030462
0.079299
0.116647
0.147730
0.154251
0.154936
0.129390
0.091122
0.043946
0.001769
-0.047546
-0.101520
-0.136937
-0.160511
-0.171505
-0.166972
-0.145340
-0.108766
-0.060651
-0.022589
0.022759
0.064806
0.110032
0.120491
0.120209
0.116342
0.100778
0.059737
0.024119
-0.012907
-0.058992
-0.109640
-0.146856
-0.177764
-0.178200
-0.183202
-0.151451
-0.115127
-0.074785
-0.024608
0.023340
0.067387
0.096098
0.130675
0.128559
0.119339
0.100306
0.071907
0.026034
-0.027501
-0.066940
-0.114593
-0.145432
-0.168055
-0.182783
-0.179143
-0.148309
-0.122643
-0.081873
-0.021818
0.029565
0.084169
0.111626
0.132332
0.132278
0.135076
0.113396
0.080496
0.041942
-0.006503
-0.057545
-0.116120
-0.147920
-0.179669
-0.175141
-0.167374
-0.148862
-0.120178
-0.074361
-0.030943
0.018687
0.077178
0.114566
0.141570
0.154306
0.153465
0.123581
0.099296
0.059152
0.006257
-0.045056
-0.097063
-0.128336
-0.154047
-0.162802
-0.149403
-0.119042
-0.091965
-0.055947
-0.003673
0.037911
0.087412
0.113197
0.143201
0.148294
0.136769
0.113590
0.092861
0.044721
0.002818
-0.052241
-0.107389
-0.136746
-0.164970
-0.168941
-0.156611
-0.138500
-0.115080
-0.058602
-0.006047
0.036698
0.084985
0.127914
0.144678
0.153020
0.149550
0.114436
0.086118
0.037400
-0.018426
-0.049434
-0.097187
-0.115346
-0.140626
-0.159004
-0.148192
-0.119949
-0.102676
-0.055098
-0.018562
0.031831
0.079335
0.113243
0.138507
0.135382
0.127748
0.107923
0.074719
0.027235
-0.020545
-0.079594
-0.111350
-0.141649
-0.165157
-0.179858
-0.169061
-0.155807
-0.125807
-0.068714
-0.025714
0.010867
0.054408
0.096267
0.129868
0.141882
0.123622
0.104374
0.081008
0.034980
-0.014097
-0.062023
-0.110405
-0.146189
-0.170223
-0.179288
-0.165726
-0.148645
-0.125065
-0.081578
-0.029049
0.017383
0.070746
0.104711
0.119660
0.123952
0.101215
0.083776
0.047448
0.011883
-0.037669
-0.076653
-0.119032
-0.165952
-0.181904
-0.170892
-0.164296
-0.156894
-0.132284
-0.078676
-0.043503
0.004246
0.060457
0.100696
0.126053
0.125376
0.119552
0.093487
0.068033
0.014724
-0.040869
-0.083099
-0.139273
-0.168642
-0.183383
-0.188370
-0.178908
-0.150244
-0.118725
-0.066186
-0.023119
0.007147
0.056501
0.095091
0.120381
0.122264
0.107107
0.088309
0.059368
0.005137
-0.035449
-0.080885
-0.137803
-0.159130
-0.184882
-0.197078
-0.185133
-0.159066
-0.117332
-0.065152
-0.024444
0.015000
0.064177
0.091721
0.110672
0.104317
0.106417
0.089944
0.053973
0.012329
-0.033914
-0.075672
-0.113628
-0.159233
-0.187790
-0.194420
-0.193557
-0.168559
-0.144940
-0.098866
-0.044867
-0.002229
0.062330
0.098306
0.120784
0.125665
0.119204
0.100356
0.062333
0.009587
-0.033990
-0.079460
-0.128998
-0.163004
-0.177421
-0.170133
-0.170396
-0.159054
-0.130071
-0.079952
-0.038101
0.003791
0.049968
0.090893
0.107920
0.113158
0.113418
0.098856
0.068503
0.028639
-0.015809
-0.060387
-0.098947
-0.136942
-0.153530
-0.156970
-0.146649
-0.128969
-0.102472
-0.052174
-0.010241
0.041520
0.092987
0.128342
0.143119
0.152475
0.149911
0.134902
0.099555
0.060070
0.017039
-0.035488
-0.097618
-0.133274
-0.154636
-0.158967
-0.160538
-0.125858
-0.095653
-0.058890
-0.009026
0.049837
0.098665
0.148123
0.185635
0.192835
0.183124
0.155640
0.111933
0.068918
0.012535
-0.026428
-0.072331
-0.096015
-0.130026
-0.147675
-0.143499
-0.127288
-0.099938
-0.054999
-0.002667
0.038430
0.078509
0.119056
0.146677
0.138236
0.123549
0.103461
0.082405
0.031860
-0.004424
-0.052487
-0.099062
-0.137585
-0.165176
-0.180847
-0.190859
-0.164946
-0.132161
-0.092016
-0.042430
0.016967
0.060248
0.083893
0.103172
0.124093
0.115252
0.087477
0.054664
0.004638
-0.039285
-0.093158
-0.137543
-0.167227
-0.188954
-0.185928
-0.180707
-0.164380
-0.136736
-0.103875
-0.065891
-0.023707
0.028924
0.058268
0.078348
0.098489
0.095796
0.063705
0.041977
0.004497
-0.061850
-0.108753
-0.156698
-0.188088
-0.211933
-0.221110
-0.203410
-0.177646
-0.146081
-0.110291
-0.062578
-0.010189
0.039316
0.070665
0.093278
0.094294
0.085562
0.067989
0.039233
-0.007437
-0.055859
-0.101092
-0.157709
-0.188921
-0.211378
-0.221783
-0.215014
-0.184790
-0.158564
-0.115173
-0.064701
-0.028153
0.011485
0.066599
0.095438
0.103151
0.093468
0.077646
0.047452
0.005018
-0.042613
-0.098302
-0.156232
-0.181900
-0.198148
-0.211203
-0.190612
-0.175269
-0.153174
-0.116378
-0.070246
-0.035889
0.009737
0.039441
0.082623
0.091469
0.089657
0.058241
0.029615
-0.023840
-0.048931
-0.075344
-0.111319
-0.134126
-0.147099
-0.136039
-0.127992
-0.078215
-0.028134
0.031022
0.097729
0.150957
0.222946
0.270471
0.316687
0.351345
0.360769
0.365677
0.369324
0.373445
0.361388
0.344460
0.327991
0.326321
0.319016
0.349041
0.392423
0.466069
0.526817
0.612385
0.685923
0.764247
0.836438
0.885312
0.898366
0.900532
0.881838
0.830648
0.772289
0.710767
0.637014
0.547163
0.418339
0.322184
0.238777
0.179516
0.144484
0.124483
0.105592
0.111590
0.134561
0.167884
0.210753
0.244052
0.261274
0.262694
0.253265
0.222496
0.180092
0.119143
0.069778
0.023493
-0.031542
-0.074095
-0.098500
-0.113953
-0.104177
-0.079017
-0.063582
-0.028757
0.017394
0.057069
0.106076
0.144904
0.159136
0.160850
0.152750
0.129859
0.102182
0.051673
-0.004804
-0.053448
-0.094042
-0.133258
-0.146718
-0.148153
-0.139503
-0.122990
-0.096256
-0.043865
-0.007888
0.035025
0.080996
0.115765
0.132328
0.145492
0.137071
0.119310
0.089743
0.032319
-0.011778
-0.056302
-0.104309
-0.132062
-0.155086
-0.163084
-0.160311
-0.137964
-0.113167
-0.057162
-0.011049
0.030168
0.085657
0.125917
0.149140
0.156634
0.147962
0.129126
0.097159
0.049203
-0.000988
-0.044228
-0.080649
-0.108923
-0.137673
-0.142706
-0.137400
-0.111855
-0.096935
-0.050399
0.001663
0.045803
0.098903
0.133569
0.156788
0.154314
0.155424
0.140140
0.113728
0.067306
0.021535
-0.023710
-0.068110
-0.100163
-0.116288
-0.116644
-0.096303
-0.083321
-0.056483
-0.024739
0.026857
0.063701
0.114414
0.147006
0.185183
0.201491
0.189892
0.170157
0.147723
0.108146
0.075820
0.028182
-0.032902
-0.069131
-0.099368
-0.095814
-0.093809
-0.069841
-0.044393
0.007235
0.052285
0.106859
0.154191
0.184909
0.201355
0.207852
0.202007
0.192896
0.178817
0.120456
0.079898
0.046961
-0.016158
-0.053041
-0.066129
-0.074481
-0.067412
-0.029772
-0.009555
0.030493
0.087099
0.141949
0.199363
0.220669
0.240479
0.246190
0.247234
0.218676
0.182580
0.148051
0.090131
0.051047
-0.013627
-0.040299
-0.056417
-0.059014
-0.059941
-0.024556
-0.000179
0.032397
0.074933
0.122753
0.168328
0.210568
0.222778
0.229901
0.235139
0.214606
0.193661
0.144602
0.087339
0.040089
-0.006045
-0.039861
-0.060255
-0.076461
-0.069034
-0.055157
-0.029183
0.022330
0.070241
0.117526
0.163173
0.194445
0.216388
0.223559
0.225136
0.194316
0.169637
0.114034
0.052992
0.004999
-0.033309
-0.067913
-0.094623
-0.110184
-0.101748
-0.072740
-0.046558
0.006847
0.036514
0.077172
0.125799
0.153738
0.187436
0.190414
0.185991
0.161570
0.114922
0.070898
0.024673
-0.005029
-0.050260
-0.085995
-0.117902
-0.136766
-0.135790
-0.115030
-0.099059
-0.055128
-0.009716
0.036152
0.083960
0.125011
0.135333
0.144170
0.142464
0.131044
0.112157
0.077483
0.024798
-0.039140
-0.096712
-0.137879
-0.149181
-0.160478
-0.154968
-0.128115
-0.108471
-0.063811
-0.009243
0.029511
0.078653
0.116278
0.132007
0.141209
0.125453
0.102398
0.085417
0.038749
-0.030381
-0.074782
-0.120905
-0.160326
-0.184133
-0.190524
-0.168763
-0.137177
-0.110643
-0.061382
-0.017925
0.024641
0.071424
0.099616
0.126330
0.122889
0.111356
0.102542
0.100844
0.041350
-0.008167
-0.052540
-0.111056
-0.153515
-0.172747
-0.186529
-0.171894
-0.139358
-0.118412
-0.081287
-0.031421
0.027971
0.074734
0.101254
0.129965
0.133779
0.132562
0.105331
0.079566
0.036510
-0.015272
-0.070349
-0.105530
-0.137127
-0.161547
-0.162802
-0.146412
-0.134948
-0.120159
-0.069848
-0.021696
0.024455
0.067570
0.101414
0.129510
0.153497
0.141626
0.123340
0.100765
0.047484
0.003338
-0.040440
-0.084341
-0.129198
-0.154715
-0.163769
-0.163280
-0.132536
-0.103334
-0.052431
-0.004826
0.043927
0.095951
0.124513
0.137916
0.136290
0.137242
0.118262
0.097012
0.042314
-0.004675
-0.053350
-0.094946
-0.125969
-0.146965
-0.166720
-0.164436
-0.142205
-0.125136
-0.083397
-0.024024
0.033740
0.094818
0.123978
0.142910
0.154077
0.150967
0.132209
0.094397
0.046774
-0.014603
-0.056181
-0.106228
-0.138205
-0.162009
-0.168784
-0.155898
-0.135618
-0.104671
-0.056917
-0.012737
0.032099
0.083699
0.118644
0.150123
0.152248
0.136652
0.109781
0.087493
0.030261
-0.011229
-0.060244
-0.113523
-0.137845
-0.164147
-0.167575
-0.161316
-0.146547
-0.121760
-0.081961
-0.033827
0.000546
0.048370
0.094329
0.120934
0.132708
0.132492
0.111253
0.087563
0.030617
-0.018189
-0.075344
-0.117657
-0.159218
-0.168035
-0.179742
-0.170813
-0.146534
-0.125586
-0.078763
-0.034596
0.005338
0.062236
0.111076
0.115694
0.128167
0.126840
0.119021
0.103177
0.041989
-0.016601
-0.066961
-0.110827
-0.150317
-0.174607
-0.168249
-0.158182
-0.145137
-0.113165
-0.075005
-0.033621
0.008441
0.047355
0.078249
0.100946
0.112471
0.122941
0.105552
0.071094
0.029231
-0.029032
-0.070776
-0.117598
-0.155175
-0.179776
-0.183068
-0.173732
-0.158887
-0.138035
-0.081895
-0.038476
0.008670
0.061116
0.086300
0.109496
0.116149
0.104768
0.081386
0.065016
0.016257
-0.037855
-0.080727
-0.136290
-0.178139
-0.188298
-0.200570
-0.200470
-0.178497
-0.141416
-0.095685
-0.050016
0.003537
0.053475
0.093546
0.119292
0.123655
0.109816
0.092294
0.065174
0.023780
-0.031175
-0.075553
-0.115783
-0.150077
-0.174114
-0.183176
-0.182813
-0.158122
-0.130512
-0.098838
-0.053576
-0.007048
0.044956
0.081410
0.108551
0.113723
0.120862
0.092961
0.073360
0.032747
-0.018646
-0.071821
-0.115298
-0.152612
-0.161172
-0.178366
-0.171290
-0.147540
-0.129280
-0.072549
-0.018070
0.042057
0.078377
0.116641
0.126012
0.137778
0.144265
0.133429
0.103629
0.060818
0.014245
-0.032059
-0.084825
-0.128076
-0.157606
-0.163366
-0.155917
-0.139404
-0.104067
-0.060566
-0.015765
0.024984
0.070553
0.104469
0.129999
0.150663
0.148909
0.128806
0.097639
0.063174
0.019531
-0.028681
-0.069819
-0.112767
-0.133287
-0.142337
-0.124863
-0.098600
-0.072239
-0.015791
0.021575
0.052436
0.094750
0.124975
0.146975
0.154518
0.152335
0.121565
0.084037
0.036161
-0.017153
-0.054315
-0.098967
-0.146824
-0.173804
-0.182551
-0.180046
-0.156064
-0.129826
-0.090994
-0.052136
0.011888
0.054364
0.094053
0.121661
0.119077
0.104640
0.083009
0.059566
0.015628
-0.032862
-0.087117
-0.137013
-0.162421
-0.189685
-0.202171
-0.201578
-0.181778
-0.155832
-0.125578
-0.062571
-0.018458
0.032219
0.071464
0.097746
0.109968
0.096046
0.077817
0.036704
-0.003092
-0.048687
-0.100902
-0.141438
-0.174946
-0.196812
-0.221244
-0.210567
-0.193277
-0.169424
-0.115829
-0.064927
-0.022001
0.021425
0.057463
0.071249
0.085657
0.078182
0.054349
0.034174
-0.002357
-0.044284
-0.089312
-0.149773
-0.193003
-0.214795
-0.222505
-0.214159
-0.193105
-0.158487
-0.115264
-0.065482
-0.017719
0.020079
0.051817
0.071704
0.081673
0.080444
0.076607
0.048755
-0.007184
-0.061393
-0.117873
-0.164017
-0.189601
-0.207011
-0.207350
-0.200822
-0.189487
-0.162263
-0.115669
-0.067915
-0.016824
0.027227
0.060757
0.079633
0.079910
0.071643
0.048191
0.009240
-0.029272
-0.083359
-0.115933
-0.155674
-0.188911
-0.209626
-0.212891
-0.201730
-0.157129
-0.115862
-0.051428
0.010376
0.076213
0.147472
0.202060
0.227638
0.237689
0.254201
0.251689
0.254644
0.220481
0.203637
0.185525
0.158795
0.142908
0.149072
0.180307
0.218647
0.265977
0.326355
0.390112
0.465610
0.563728
0.629838
0.692893
0.751383
0.800618
0.828504
0.830409
0.801448
0.750660
0.713608
0.652385
0.588100
0.538486
0.500767
0.476065
0.428380
0.375990
0.339867
0.325185
0.338239
0.333975
0.324475
0.320646
0.305942
0.286369
0.256807
0.205173
0.172341
0.113519
0.064217
0.011501
-0.050850
-0.103889
-0.118973
-0.119440
-0.122843
-0.092529
-0.074197
-0.037239
0.014418
0.063449
0.103458
0.145138
0.163701
0.177979
0.163871
0.131696
0.109523
0.052811
0.001892
-0.042600
-0.090601
-0.134142
-0.161997
-0.174510
-0.166840
-0.139077
-0.103081
-0.059995
-0.016887
0.036492
0.077683
0.117617
0.133063
0.145038
0.132881
0.110477
0.091332
0.038258
-0.025345
-0.076347
-0.111581
-0.142334
-0.162767
-0.177875
-0.180742
-0.154043
-0.130298
-0.077263
-0.035525
0.008188
0.051962
0.098239
0.128019
0.149075
0.137662
0.116174
0.086195
0.050375
0.001312
-0.046998
-0.087640
-0.127597
-0.152640
-0.162432
-0.156481
-0.132392
-0.105296
-0.058214
-0.015277
0.021557
0.066979
0.108458
0.124475
0.147214
0.148369
0.132602
0.121084
0.077032
0.025403
-0.024517
-0.077794
-0.119767
-0.140596
-0.144974
-0.139521
-0.114752
-0.089243
-0.041026
0.007061
0.052662
0.101698
0.138347
0.156978
0.161615
0.153889
0.150678
0.125668
0.078577
0.029019
-0.021093
-0.067891
-0.092191
-0.112480
-0.122629
-0.120011
-0.096506
-0.066307
-0.010501
0.038874
0.089331
0.129969
0.166746
0.194800
0.200001
0.204899
0.170810
0.134497
0.083487
0.040840
0.013339
-0.019377
-0.059285
-0.080885
-0.092626
-0.090893
-0.058666
-0.018990
0.022568
0.076746
0.123220
0.167216
0.209037
0.222607
0.237612
0.234622
0.207350
0.170257
0.120320
0.067996
0.026626
-0.018815
-0.060788
-0.078325
-0.081354
-0.077650
-0.054882
-0.036315
0.025675
0.080975
0.129085
0.171343
0.198494
0.220809
0.235703
0.234844
0.204497
0.174442
0.131209
0.071064
0.020198
-0.033933
-0.057324
-0.069177
-0.087002
-0.087116
-0.066644
-0.041520
0.014020
0.061661
0.104234
0.150523
0.183355
0.206890
0.214861
0.204538
0.180205
0.154867
0.113325
0.066849
0.017741
-0.036587
-0.076785
-0.099559
-0.107782
-0.111699
-0.089830
-0.061420
-0.019240
0.028979
0.078027
0.116990
0.154512
0.176094
0.185531
0.170082
0.142663
0.120174
0.074823
0.025204
-0.029499
-0.078524
-0.110866
-0.124178
-0.134598
-0.123525
-0.098373
-0.064271
-0.023926
0.022832
0.064542
0.105297
0.133965
0.155371
0.151176
0.150873
0.125065
0.107425
0.049010
-0.003620
-0.069205
-0.116644
-0.154914
-0.180072
-0.180172
-0.175648
-0.139006
-0.120892
-0.080500
-0.032861
0.024697
0.073858
0.114327
0.139169
0.142413
0.130947
0.115326
0.078346
0.018568
-0.038867
-0.073985
-0.121783
-0.156559
-0.171098
-0.172876
-0.178342
-0.152589
-0.138540
-0.092420
-0.025731
0.022821
0.053245
0.089981
0.112968
0.134963
0.126064
0.113972
0.075882
0.009432
-0.041674
-0.094057
-0.129813
-0.159058
-0.173902
-0.185582
-0.174868
-0.150231
-0.128952
-0.090342
-0.041858
0.004616
0.062717
0.111856
0.130693
0.134131
0.119985
0.097618
0.081942
0.035844
-0.022762
-0.069330
-0.109441
-0.146576
-0.170502
-0.180553
-0.177928
-0.152881
-0.125607
-0.070279
-0.013062
0.021237
0.068779
0.107993
0.127505
0.144012
0.143006
0.120389
0.086013
0.031529
-0.023873
-0.074580
-0.112541
-0.147289
-0.173214
-0.184235
-0.162692
-0.139507
-0.109766
-0.086152
-0.025438
0.022118
0.063088
0.106677
0.129178
0.143553
0.127260
0.091393
0.065789
0.024637
-0.015475
-0.058495
-0.099973
-0.139632
-0.153428
-0.172366
-0.174681
-0.152955
-0.131338
-0.087961
-0.028798
0.026687
0.073067
0.100898
0.129455
0.132542
0.112532
0.086133
0.058097
0.029517
-0.011139
-0.064534
-0.101506
-0.145312
-0.165576
-0.161118
-0.168866
-0.141586
-0.119210
-0.073731
-0.023299
0.024134
0.070117
0.105023
0.125895
0.133139
0.122217
0.105205
0.076850
0.021662
-0.015248
-0.065206
-0.099476
-0.139546
-0.161898
-0.170323
-0.169650
-0.145255
-0.126470
-0.087270
-0.033221
0.025093
0.065757
0.088371
0.106699
0.119362
0.116862
0.096814
0.073066
0.027531
-0.023208
-0.074976
-0.117934
-0.155661
-0.180343
-0.186048
-0.177798
-0.158919
-0.126209
-0.079549
-0.046351
0.004898
0.053406
0.090948
0.109854
0.116411
0.111264
0.099098
0.060499
0.016316
-0.016738
-0.074869
-0.117105
-0.161053
-0.181783
-0.196623
-0.184879
-0.157088
-0.132861
-0.093208
-0.039216
0.010133
0.045043
0.075176
0.105784
0.108629
0.101341
0.072887
0.048028
0.009992
-0.023605
-0.075246
-0.135625
-0.161007
-0.186551
-0.195453
-0.194311
-0.167929
-0.140982
-0.100485
-0.047990
0.012959
0.058197
0.101998
0.106552
0.100748
0.093098
0.079526
0.052766
0.010914
-0.038285
-0.078281
-0.135231
-0.178690
-0.194531
-0.193443
-0.191364
-0.172338
-0.134123
-0.091943
-0.048773
-0.006933
0.050870
0.095430
0.120041
0.126974
0.116577
0.095728
0.064276
0.018830
-0.026864
-0.077886
-0.124301
-0.166358
-0.167309
-0.174280
-0.156166
-0.143025
-0.119270
-0.067022
-0.020705
0.033931
0.071054
0.102736
0.119668
0.136970
0.128610
0.107329
0.079240
0.034708
-0.008136
-0.059387
-0.100699
-0.140497
-0.154953
-0.161328
-0.151897
-0.135933
-0.111780
-0.059363
-0.022320
0.033724
0.080698
0.114713
0.140996
0.158646
0.157805
0.129743
0.101423
0.048498
-0.004517
-0.050577
-0.096434
-0.129136
-0.145135
-0.143392
-0.133577
-0.110149
-0.085967
-0.049627
0.000446
0.042153
0.086873
0.109117
0.128600
0.120568
0.119913
0.097359
0.072367
0.031032
-0.016219
-0.071226
-0.112602
-0.145720
-0.174673
-0.188411
-0.181255
-0.160932
-0.132479
-0.087644
-0.048000
-0.006253
0.033743
0.085135
0.113457
0.121634
0.102541
0.084492
0.043501
-0.001553
-0.044872
-0.093519
-0.144465
-0.181120
-0.197504
-0.208889
-0.203829
-0.174229
-0.161276
-0.121028
-0.073646
-0.031678
0.004854
0.051880
0.066682
0.071485
0.081169
0.061617
0.029958
-0.023513
-0.082436
-0.129087
-0.169989
-0.203157
-0.230667
-0.242115
-0.214514
-0.190432
-0.169480
-0.118101
-0.077627
-0.021845
0.019673
0.060437
0.087726
0.087527
0.076243
0.056188
0.031715
-0.024766
-0.081786
-0.118278
-0.159938
-0.196475
-0.220560
-0.217876
-0.202897
-0.190984
-0.157239
-0.105197
-0.056223
-0.014083
0.028699
0.052704
0.062162
0.064989
0.055486
0.038743
0.017097
-0.020416
-0.079317
-0.120376
-0.159051
-0.193123
-0.221536
-0.227930
-0.217468
-0.187107
-0.171737
-0.132678
-0.094447
-0.039551
0.022582
0.059386
0.076142
0.083019
0.065045
0.047226
0.005386
-0.038827
-0.088385
-0.142957
-0.160106
-0.185480
-0.189219
-0.185853
-0.169182
-0.127683
-0.082729
-0.035911
0.032533
0.104391
0.147851
0.200932
0.240546
0.273004
0.289834
0.301339
0.290808
0.268389
0.250216
0.222525
0.210525
0.209722
0.214259
0.239435
0.280411
0.335459
0.394030
0.484507
0.563949
0.648303
0.727304
0.795175
0.837601
0.868387
0.872304
0.847569
0.806988
0.764153
0.703218
0.628500
0.560783
0.485278
0.416030
0.331636
0.284854
0.247546
0.242840
0.227852
0.242185
0.233188
0.246595
0.261006
0.260266
0.249487
0.227159
0.203486
0.167770
0.109959
0.047857
-0.015211
-0.049047
-0.095362
-0.120825
-0.122760
-0.117970
-0.090764
-0.069580
-0.020663
0.018419
0.064738
0.102244
0.127389
0.142041
0.151215
0.136240
0.127505
0.085192
0.036245
-0.008943
-0.060527
-0.101038
-0.134649
-0.148498
-0.168508
-0.159847
-0.145809
-0.123429
-0.077078
-0.020959
0.027609
0.061673
0.094357
0.110551
0.122588
0.111150
0.084558
0.064566
0.011387
-0.035118
-0.086266
-0.127371
-0.155795
-0.167379
-0.183723
-0.185242
-0.150653
-0.120065
-0.069161
-0.013242
0.033408
0.076198
0.100522
0.129607
0.139605
0.126648
0.107925
0.074511
0.035103
-0.021042
-0.073407
-0.116443
-0.144682
-0.159769
-0.170483
-0.164199
-0.130710
-0.100847
-0.062749
-0.016541
0.028299
0.073550
0.103424
0.129451
0.147646
0.125981
0.102630
0.080927
0.045964
-0.008845
-0.048242
-0.086905
-0.123627
-0.150920
-0.157481
-0.156159
-0.128840
-0.103273
-0.047445
0.003206
0.053423
0.101376
0.134411
0.141920
0.154323
0.158230
0.146522
0.116957
0.067084
0.012393
-0.030421
-0.062691
-0.085617
-0.102641
-0.103115
-0.092836
-0.081686
-0.058195
-0.020038
0.029843
0.076845
0.118165
0.160862
0.190290
0.200573
0.182175
0.173647
0.153252
0.105562
0.044706
-0.002767
-0.038482
-0.076771
-0.099692
-0.102426
-0.090998
-0.072233
-0.038576
0.018471
0.068431
0.120893
0.158825
0.184419
0.198418
0.197661
0.204898
0.181052
0.153133
0.106269
0.061691
0.008208
-0.022286
-0.050637
-0.073833
-0.085683
-0.080634
-0.059236
-0.021757
0.026591
0.072015
0.118141
0.152833
0.179807
0.198431
0.199511
0.189512
0.176032
0.136601
0.095331
0.055341
-0.002684
-0.048143
-0.094000
-0.108310
-0.114369
-0.099656
-0.077245
-0.038164
-0.001609
0.059868
0.111551
0.150272
0.183928
0.197822
0.202974
0.196782
0.169887
0.127024
0.075546
0.034506
-0.015392
-0.058404
-0.091765
-0.104966
-0.119303
-0.114605
-0.103582
-0.068306
-0.038317
0.011694
0.062183
0.099078
0.148404
0.168747
0.172958
0.169443
0.150796
0.104759
0.065376
0.020289
-0.028783
-0.082039
-0.123011
-0.142264
-0.148175
-0.143874
-0.130648
-0.096595
-0.048564
-0.007834
0.041653
0.075243
0.110683
0.150131
0.162021
0.133629
0.110739
0.076081
0.028658
-0.022765
-0.077509
-0.126838
-0.156018
-0.175747
-0.176006
-0.170816
-0.153769
-0.125430
-0.080732
-0.052179
0.002094
0.050928
0.090618
0.122033
0.123500
0.124354
0.084796
0.038637
0.003320
-0.043175
-0.096605
-0.143355
-0.193724
-0.202877
-0.204168
-0.183381
-0.163294
-0.122121
-0.073804
-0.026698
0.019101
0.056177
0.081252
0.091865
0.106160
0.106160
0.093143
0.055684
0.008394
-0.035416
-0.087704
-0.131791
-0.163520
-0.181633
-0.191735
-0.187652
-0.160372
-0.128679
-0.082544
-0.033831
0.022630
0.070048
0.102288
0.119896
0.111952
0.105515
0.094365
0.081680
0.033869
-0.011555
-0.065246
-0.127036
-0.166331
-0.187901
-0.185168
-0.167095
-0.154309
-0.123747
-0.080324
-0.039085
0.006058
0.046349
0.094451
0.114866
0.118710
0.119741
0.093702
0.062121
0.026628
-0.019614
-0.062064
-0.115244
-0.164271
-0.191144
-0.197933
-0.179951
-0.152610
-0.116362
-0.071525
-0.022369
0.027540
0.075854
0.116079
0.136913
0.144553
0.139644
0.115985
0.076876
0.024466
-0.036976
-0.086868
-0.123157
-0.154943
-0.170993
-0.180796
-0.173692
-0.157323
-0.126458
-0.092914
-0.041180
0.025906
0.075682
0.112592
0.132284
0.133305
0.116070
0.090089
0.063394
0.009422
-0.026657
-0.074696
-0.116828
-0.145631
-0.171396
-0.181060
-0.175674
-0.159914
-0.126491
-0.079873
-0.037144
0.021802
0.066627
0.104271
0.122872
0.127298
0.113587
0.099971
0.061088
0.014149
-0.029677
-0.085073
-0.141465
-0.171946
-0.186854
-0.189012
-0.168975
-0.159584
-0.120852
-0.085808
-0.041628
0.020535
0.072749
0.103128
0.122810
0.126792
0.110822
0.095625
0.058613
0.022128
-0.035142
-0.088501
-0.143212
-0.180574
-0.199252
-0.205360
-0.199242
-0.176050
-0.148811
-0.111150
-0.058940
0.015638
0.045648
0.092662
0.133192
0.134322
0.124437
0.095963
0.050683
0.010981
-0.034194
-0.088976
-0.128519
-0.170560
-0.192785
-0.193247
-0.191278
-0.171982
-0.132490
-0.090459
-0.057236
-0.006819
0.046056
0.083662
0.101622
0.102424
0.098508
0.079048
0.064419
0.019484
-0.030224
-0.090246
-0.142010
-0.190452
-0.218991
-0.204668
-0.202055
-0.178346
-0.150755
-0.103638
-0.050381
0.007258
0.062072
0.096027
0.117281
0.121671
0.112910
0.092278
0.058292
0.015173
-0.047306
-0.094225
-0.140998
-0.168717
-0.205958
-0.215469
-0.213379
-0.184591
-0.160872
-0.106899
-0.063412
0.003829
0.059748
0.096720
0.114338
0.118820
0.101377
0.082657
0.052017
0.015793
-0.026060
-0.074485
-0.127999
-0.170143
-0.183542
-0.175830
-0.158578
-0.148623
-0.111156
-0.055969
-0.008887
0.025938
0.070373
0.104819
0.134246
0.135438
0.136406
0.120880
0.082596
0.053883
-0.001082
-0.065108
-0.099324
-0.144123
-0.171596
-0.169834
-0.160095
-0.145319
-0.102899
-0.058569
-0.005896
0.048635
0.104066
0.140501
0.163610
0.165247
0.156996
0.135692
0.087517
0.038541
-0.002591
-0.047950
-0.082601
-0.112357
-0.133465
-0.140207
-0.135160
-0.132613
-0.108483
-0.067708
-0.011755
0.025848
0.066638
0.097758
0.119468
0.122274
0.122921
0.101782
0.060130
0.009588
-0.025305
-0.084592
-0.123633
-0.157408
-0.190119
-0.197342
-0.184353
-0.173516
-0.131905
-0.092491
-0.051876
-0.002601
0.030281
0.068493
0.100877
0.096193
0.076626
0.051089
0.011637
-0.013428
-0.061665
-0.105503
-0.150500
-0.188353
-0.217309
-0.221165
-0.215760
-0.189850
-0.162227
-0.116078
-0.077488
-0.022358
0.014632
0.052874
0.079235
0.087610
0.091459
0.068175
0.022202
-0.018872
-0.068683
-0.128777
-0.165597
-0.196865
-0.218750
-0.242416
-0.231335
-0.206738
-0.173530
-0.123184
-0.069273
-0.021027
0.017917
0.042165
0.055902
0.069162
0.069104
0.037572
-0.001082
-0.033808
-0.081993
-0.134835
-0.177856
-0.202397
-0.222067
-0.224764
-0.211818
-0.196043
-0.166851
-0.118056
-0.072933
-0.026884
0.020920
0.056919
0.081972
0.087161
0.081228
0.068276
0.028573
-0.009340
-0.059406
-0.121232
-0.173997
-0.203035
-0.227424
-0.233170
-0.230818
-0.210783
-0.174057
-0.135510
-0.090487
-0.037524
0.011009
0.043672
0.054360
0.061303
0.054662
0.040149
0.019461
-0.012842
-0.043280
-0.091895
-0.127414
-0.150796
-0.156426
-0.150460
-0.124478
-0.075228
-0.033472
0.025857
0.096009
0.173419
0.217002
0.279802
0.344249
0.387684
0.410723
0.426806
0.419149
0.419506
0.396396
0.377959
0.367219
0.365646
0.385423
0.418428
0.482690
0.554643
0.620546
0.681333
0.754307
0.818745
0.859109
0.903471
0.931866
0.908246
0.877444
0.825842
0.778111
0.712054
0.616718
0.488531
0.383467
0.287436
0.213703
0.142731
0.099390
0.075213
0.078015
0.123421
0.155874
0.202303
0.221236
0.248959
0.270472
0.263464
0.245614
0.208160
0.151393
0.102323
0.051297
0.000189
-0.051431
-0.089877
-0.129353
-0.136307
-0.137288
-0.124414
-0.092989
-0.049744
-0.003637
0.046762
0.093057
0.133687
0.159888
0.155415
0.150668
0.127636
0.075627
0.026645
-0.017987
-0.073644
-0.116772
-0.153091
-0.159857
-0.175926
-0.171917
-0.154601
-0.118288
-0.068600
-0.017284
0.025667
0.058241
0.095924
0.114798
0.127607
0.120038
0.092367
0.057257
0.011029
-0.035051
-0.085388
-0.120630
-0.149386
-0.173862
-0.185422
-0.176430
-0.152930
-0.099533
-0.057335
-0.011001
0.019313
0.073696
0.116136
0.139178
0.142436
0.128104
0.127263
0.090359
0.039593
0.003858
-0.055919
-0.097592
-0.134157
-0.163128
-0.172828
-0.170257
-0.139476
-0.099340
-0.053688
-0.008402
0.042448
0.081289
0.124327
0.148531
0.154548
0.149427
0.136731
0.101240
0.061039
0.016353
-0.044739
-0.080874
-0.109511
-0.131037
-0.132214
-0.124908
-0.107652
-0.081067
-0.029836
0.015923
0.063157
0.106053
0.148527
0.165250
0.171598
0.171709
0.150598
0.111502
0.075550
0.034136
-0.025866
-0.054889
-0.083377
-0.116665
-0.108522
-0.099127
-0.085542
-0.043133
0.001152
0.044119
0.107136
0.135696
0.181248
0.210317
0.216629
0.189270
0.168885
0.132544
0.099835
0.064198
0.013877
-0.024459
-0.060376
-0.072827
-0.083759
-0.082858
-0.066179
-0.028597
0.024962
0.086426
0.133717
0.157789
0.202806
0.228635
0.231787
0.228270
0.197458
0.172178
0.123459
0.080321
0.018173
-0.027510
-0.053237
-0.070272
-0.083641
-0.073352
-0.056176
-0.027416
0.020401
0.070155
0.116778
0.156927
0.183154
0.215852
0.225463
0.206623
0.197688
0.167272
0.121795
0.063060
0.007919
-0.031138
-0.080315
-0.090766
-0.083460
-0.068379
-0.052839
-0.015730
0.021872
0.066293
0.111949
0.134812
0.159652
0.192002
0.190273
0.191213
0.176410
0.142698
0.095603
0.041639
-0.015935
-0.050965
-0.099352
-0.116872
-0.117958
-0.113184
-0.097148
-0.059532
-0.013780
0.029316
0.084932
0.114104
0.160390
0.184769
0.192549
0.174639
0.151013
0.104719
0.062158
0.016540
-0.043119
-0.098598
-0.132426
-0.147432
-0.158257
-0.153609
-0.136137
-0.104930
-0.054791
-0.009851
0.040922
0.080480
0.109208
0.133026
0.136338
0.129748
0.104499
0.083606
0.038097
-0.025235
-0.069429
-0.106859
-0.143240
-0.169815
-0.190431
-0.178095
-0.154609
-0.119798
-0.067810
-0.020567
0.025617
0.058233
0.090532
0.111533
0.134271
0.122482
0.091324
0.056862
0.017630
-0.019966
-0.077822
-0.116241
-0.144915
-0.177939
-0.194124
-0.182967
-0.162945
-0.131542
-0.079296
-0.031666
0.027961
0.064475
0.103949
0.117521
0.129424
0.114750
0.099162
0.062415
0.018943
-0.013957
-0.072199
-0.112994
-0.145954
-0.169857
-0.184072
-0.176214
-0.154591
-0.124569
-0.086140
-0.036543
0.019265
0.072460
0.110462
0.136238
0.137169
0.132795
0.115758
0.072127
0.013434
-0.019289
-0.070643
-0.108746
-0.135779
-0.162868
-0.171615
-0.165643
-0.144766
-0.111886
-0.060365
-0.017743
0.034376
0.071217
0.115393
0.139268
0.146058
0.135542
0.112766
0.074153
0.034818
-0.014323
-0.069617
-0.102921
-0.131424
-0.156341
-0.168043
-0.155801
-0.139271
-0.095052
-0.053248
-0.004470
0.048544
0.078913
0.111240
0.128813
0.135906
0.127515
0.105059
0.079823
0.031335
-0.015511
-0.059733
-0.098060
-0.136910
-0.163698
-0.169412
-0.158334
-0.139594
-0.092891
-0.062935
-0.024820
0.032196
0.083370
0.112721
0.131704
0.135752
0.134306
0.107123
0.084908
0.043954
0.002863
-0.055749
-0.099320
-0.130563
-0.157153
-0.162479
-0.158804
-0.151269
-0.113664
-0.064383
-0.024904
0.023748
0.063506
0.093965
0.116641
0.135214
0.125164
0.107299
0.071930
0.033571
-0.010745
-0.073095
-0.107823
-0.143332
-0.166799
-0.165966
-0.162190
-0.138560
-0.113465
-0.061991
-0.017502
0.031024
0.071340
0.105330
0.130841
0.128299
0.135730
0.121857
0.071912
0.020717
-0.023406
-0.081900
-0.121620
-0.160654
-0.177052
-0.180917
-0.179588
-0.158871
-0.126056
-0.076513
-0.015701
0.032525
0.063016
0.103163
0.126521
0.128421
0.126706
0.107919
0.074924
0.029875
-0.019496
-0.076244
-0.125664
-0.161273
-0.185997
-0.195909
-0.180179
-0.164036
-0.131459
-0.088038
-0.028927
0.027833
0.062123
0.095704
0.113995
0.121499
0.114836
0.094825
0.069055
0.013780
-0.027218
-0.079693
-0.134437
-0.170021
-0.187093
-0.188315
-0.182301
-0.166104
-0.107701
-0.076209
-0.027683
0.022209
0.059623
0.092841
0.104006
0.101479
0.092602
0.076092
0.046736
0.016549
-0.034503
-0.090086
-0.124918
-0.163595
-0.187857
-0.179509
-0.163476
-0.146075
-0.103837
-0.066403
-0.017857
0.040053
0.070085
0.102265
0.121328
0.137989
0.129352
0.103830
0.075429
0.031163
-0.012729
-0.058459
-0.097640
-0.131446
-0.165337
-0.169754
-0.156520
-0.135987
-0.102590
-0.058768
0.003763
0.061479
0.106970
0.140633
0.169974
0.166034
0.150515
0.116572
0.092048
0.043348
-0.014307
-0.063833
-0.097892
-0.121652
-0.137456
-0.142194
-0.136387
-0.112992
-0.083531
-0.034784
0.020268
0.081702
0.130798
0.162572
0.180324
0.183154
0.179592
0.165488
0.115939
0.064200
0.027516
-0.034186
-0.078585
-0.116692
-0.142644
-0.145685
-0.148992
-0.138434
-0.104737
-0.063948
-0.020513
0.040302
0.089458
0.122700
0.131979
0.126784
0.129116
0.114248
0.071394
0.019661
-0.021929
-0.084927
-0.117716
-0.147454
-0.175208
-0.179064
-0.166964
-0.162172
-0.128546
-0.074662
-0.031687
0.020210
0.067403
0.089894
0.100148
0.104558
0.092378
0.086903
0.052402
0.007124
-0.048707
-0.099546
-0.154694
-0.200920
-0.221754
-0.231101
-0.216611
-0.194739
-0.154346
-0.107768
-0.054530
-0.008528
0.042656
0.077938
0.100854
0.105364
0.097396
0.086628
0.045960
-0.003720
-0.063685
-0.108622
-0.145169
-0.184144
-0.217317
-0.225135
-0.216788
-0.188967
-0.146825
-0.100960
-0.071367
-0.020967
0.020616
0.067759
0.095623
0.101403
0.096516
0.084340
0.039250
-0.006562
-0.053494
-0.108444
-0.155397
-0.180791
-0.214300
-0.218334
-0.202956
-0.184270
-0.142737
-0.117719
-0.077509
-0.030411
0.030441
0.077605
0.095732
0.106736
0.099260
0.085200
0.044847
0.003648
-0.048133
-0.106492
-0.159521
-0.191635
-0.214847
-0.215804
-0.210511
-0.202633
-0.173517
-0.139104
-0.092078
-0.036270
0.010349
0.057439
0.095222
0.114811
0.119099
0.107135
0.064595
0.029240
0.001849
-0.033895
-0.055889
-0.079165
-0.075965
-0.072269
-0.063012
-0.033678
0.027159
0.082892
0.145210
0.227848
0.301377
0.362111
0.442330
0.486976
0.516419
0.534955
0.522439
0.516313
0.501174
0.460157
0.453072
0.475428
0.500421
0.510454
0.542739
0.607095
0.676496
0.730031
0.757956
0.811061
0.845020
0.863715
0.875880
0.862492
0.825346
0.760931
0.662609
0.545089
0.442623
0.328493
0.231166
0.149193
0.063821
0.018370
0.012081
0.019099
0.053861
0.090076
0.124811
0.167545
0.192548
0.223806
0.232511
0.227703
0.213949
0.190932
0.144460
0.102322
0.068845
0.005396
-0.032657
-0.079606
-0.116979
-0.124575
-0.123147
-0.107768
-0.080439
-0.040196
0.003086
0.046569
0.095610
0.135617
0.154715
0.169745
0.157052
0.156063
0.096894
0.048567
-0.001938
-0.043012
-0.090878
-0.122256
-0.142241
-0.154465
-0.150656
-0.137822
-0.111670
-0.063124
-0.019522
0.045186
0.081761
0.115106
0.144062
0.145233
0.136010
0.117929
0.080190
0.031386
-0.003890
-0.044242
-0.080440
-0.119093
-0.144451
-0.155326
-0.156248
-0.127765
-0.093875
-0.049051
-0.010906
0.041811
0.092749
0.121744
0.133466
0.157094
0.154982
0.142926
0.098348
0.044652
-0.000236
-0.051147
-0.084334
-0.128420
-0.150127
-0.153185
-0.144531
-0.131929
-0.084168
-0.039780
0.017260
0.072783
0.120451
0.152888
0.167617
0.174846
0.176352
0.166375
0.131977
0.089110
0.045997
-0.007351
-0.060634
-0.100715
-0.111736
-0.131136
-0.121101
-0.110825
-0.068884
-0.015121
0.019861
0.084051
0.134391
0.177632
0.203703
0.203640
0.187085
0.182483
0.145050
0.118515
0.065124
0.013698
-0.019619
-0.054890
-0.082561
-0.103913
-0.089059
-0.069115
-0.034247
0.021337
0.057197
0.111945
0.157297
0.182292
0.215995
0.229717
0.219825
0.197548
0.167921
0.147557
0.100583
0.039940
-0.003467
-0.039299
-0.067441
-0.071063
-0.057955
-0.036483
-0.008579
0.028890
0.079013
0.124675
0.172985
0.207191
0.241400
0.253032
0.257881
0.234672
0.182771
0.126010
0.096145
0.053844
-0.001954
-0.036698
-0.068848
-0.065603
-0.058852
-0.041841
0.001817
0.047614
0.088456
0.134396
0.171285
0.209353
0.238174
0.256053
0.239394
0.224519
0.176146
0.135614
0.085708
0.029872
-0.014842
-0.051379
-0.089203
-0.096143
-0.086120
-0.060316
-0.014041
0.021375
0.057370
0.115602
0.158991
0.188940
0.210716
0.230641
0.213276
0.191060
0.154883
0.103598
0.043366
0.001041
-0.043366
-0.072952
-0.098886
-0.106822
-0.095258
-0.089773
-0.058622
-0.016285
0.023268
0.069395
0.113952
0.129426
0.159801
0.162632
0.157672
0.138327
0.104143
0.068232
0.021139
-0.018945
-0.066292
-0.112869
-0.141123
-0.145644
-0.139188
-0.122897
-0.082645
-0.041431
0.000282
0.044503
0.094336
0.128696
0.161224
0.163981
0.147391
0.127493
0.097002
0.051910
-0.008455
-0.051216
-0.086359
-0.124408
-0.153752
-0.159367
-0.152740
-0.155433
-0.108804
-0.050895
-0.007924
0.042863
0.079888
0.106501
0.138506
0.143030
0.142803
0.114231
0.076452
0.034496
-0.014169
-0.056822
-0.093620
-0.124064
-0.155855
-0.176632
-0.168239
-0.143547
-0.103103
-0.065888
-0.012397
0.030025
0.059462
0.095300
0.128317
0.143139
0.138701
0.122339
0.078379
0.039424
-0.004134
-0.053446
-0.091775
-0.131904
-0.155875
-0.167617
-0.157915
-0.146135
-0.106548
-0.061894
-0.017104
0.026694
0.066981
0.112950
0.142980
0.152592
0.134442
0.108866
0.078470
0.040785
-0.012635
-0.068802
-0.101361
-0.131652
-0.153203
-0.156650
-0.152036
-0.137217
-0.089216
-0.039952
0.008188
0.064608
0.088125
0.123775
0.142265
0.144723
0.139292
0.131001
0.085027
0.052888
0.001417
-0.053873
-0.095682
-0.127229
-0.154535
-0.159299
-0.150902
-0.129626
-0.084173
-0.040303
0.000481
0.046302
0.079113
0.120240
0.136190
0.150168
0.146613
0.130932
0.094906
0.054858
0.014198
-0.039857
-0.072969
-0.116563
-0.134853
-0.144543
-0.140483
-0.125510
-0.093528
-0.038567
0.004254
0.045405
0.087771
0.111294
0.143778
0.148796
0.135575
0.120792
0.080319
0.051967
0.006312
-0.045146
-0.085128
-0.117841
-0.144869
-0.153181
-0.150005
-0.135400
-0.107095
-0.063599
-0.005586
0.051914
0.108909
0.147228
0.158870
0.168439
0.145599
0.124894
0.077280
0.032685
0.000783
-0.065832
-0.110163
-0.139844
-0.152798
-0.156143
-0.152546
-0.148392
-0.101129
-0.056321
-0.018976
0.047069
0.081690
0.110638
0.133314
0.143555
0.135779
0.116134
0.073535
0.032030
-0.016714
-0.061652
-0.110418
-0.138664
-0.154958
-0.170217
-0.160040
-0.146784
-0.115418
-0.063473
-0.009847
0.043546
0.077929
0.098134
0.122548
0.134968
0.139557
0.116870
0.077216
0.035915
-0.005512
-0.060021
-0.109487
-0.135666
-0.166351
-0.180468
-0.166451
-0.148210
-0.113732
-0.062801
-0.018755
0.019460
0.059302
0.100370
0.121078
0.129465
0.127484
0.121283
0.083054
0.024685
-0.010793
-0.067706
-0.103181
-0.135786
-0.171983
-0.182541
-0.160382
-0.154893
-0.118195
-0.078063
-0.028031
0.034720
0.079241
0.110498
0.126898
0.144107
0.130557
0.106373
0.073921
0.029502
-0.011565
-0.068336
-0.110595
-0.146684
-0.167512
-0.166934
-0.160859
-0.145176
-0.119627
-0.072694
-0.017938
0.025524
0.068616
0.098517
0.116461
0.129725
0.124003
0.093993
0.062086
0.020038
-0.021735
-0.088217
-0.131097
-0.149621
-0.165887
-0.171483
-0.154712
-0.134351
-0.095714
-0.056048
-0.005798
0.055989
0.099951
0.120824
0.134857
0.138438
0.146729
0.140653
0.110108
0.071300
0.019361
-0.032463
-0.069988
-0.106285
-0.125860
-0.135477
-0.132386
-0.109875
-0.071011
-0.022195
0.025217
0.075168
0.103276
0.127532
0.156473
0.168025
0.166457
0.141949
0.102911
0.057156
0.010092
-0.038587
-0.071173
-0.087336
-0.095988
-0.110119
-0.105399
-0.093701
-0.061426
-0.015910
0.030826
0.074616
0.131503
0.166970
0.204370
0.214338
0.194117
0.160279
0.117888
0.063750
0.011744
-0.034946
-0.077911
-0.112545
-0.144094
-0.158387
-0.148039
-0.137486
-0.105644
-0.059879
-0.016134
0.026444
0.072538
0.106122
0.135335
0.142773
0.132733
0.108193
0.069938
0.030727
-0.027353
-0.067523
