-0.080350
-0.025536
0.044297
0.065222
0.091053
0.093620
0.093077
0.068988
0.035851
0.004277
-0.048303
-0.079330
-0.137535
-0.162298
-0.191084
-0.192857
-0.191295
-0.171018
-0.128761
-0.080806
-0.049091
-0.002102
0.031558
0.051521
0.088705
0.102691
0.098284
0.077780
0.048774
0.003378
-0.046128
-0.102704
-0.131738
-0.168699
-0.186726
-0.194466
-0.171751
-0.150062
-0.115800
-0.064517
-0.025512
0.018684
0.065726
0.095109
0.102879
0.096666
0.087991
0.071865
0.057209
0.005347
-0.033618
-0.069224
-0.097319
-0.135123
-0.158180
-0.165055
-0.153060
-0.139756
-0.101271
-0.056675
-0.007235
0.032694
0.063054
0.086441
0.110754
0.122633
0.122618
0.093958
0.070823
0.031807
-0.005257
-0.063672
-0.113664
-0.150525
-0.172384
-0.173903
-0.184580
-0.173444
-0.147948
-0.085900
-0.020326
0.032852
0.079353
0.096728
0.123537
0.151106
0.156479
0.133125
0.102427
0.060516
0.010791
-0.034717
-0.073325
-0.107196
-0.142133
-0.152746
-0.142946
-0.132330
-0.096342
-0.054860
-0.021542
0.022779
0.069616
0.098790
0.127231
0.132440
0.134995
0.092919
0.038036
-0.003526
-0.036869
-0.069046
-0.118804
-0.165345
-0.185057
-0.190455
-0.170243
-0.149572
-0.126996
-0.079796
-0.044186
-0.000267
0.036392
0.051683
0.075382
0.077602
0.058701
0.050128
0.021666
-0.017478
-0.052822
-0.106356
-0.154771
-0.202181
-0.214663
-0.231799
-0.220162
-0.182192
-0.134647
-0.097741
-0.057360
-0.011403
0.012430
0.038368
0.056143
0.062307
0.044603
0.026208
0.003389
-0.046689
-0.088685
-0.123257
-0.177119
-0.207861
-0.233657
-0.230432
-0.230258
-0.200993
-0.174088
-0.132573
-0.099588
-0.044761
0.017264
0.039579
0.069533
0.082615
0.085448
0.045334
-0.002101
-0.029304
-0.075350
-0.119468
-0.162834
-0.189182
-0.218997
-0.234826
-0.219508
-0.203715
-0.174087
-0.135306
-0.094144
-0.042525
-0.008325
0.023319
0.048263
0.063121
0.060793
0.052840
0.023326
-0.024380
-0.075956
-0.130583
-0.177243
-0.208390
-0.228870
-0.229592
-0.206699
-0.205141
-0.182733
-0.146705
-0.104887
-0.052568
-0.020600
0.011534
0.071331
0.062904
0.067112
0.053982
0.034326
-0.000922
-0.034217
-0.073225
-0.086877
-0.097039
-0.079710
-0.072883
-0.065956
-0.050943
-0.005058
0.046772
0.125770
0.181208
0.245413
0.317434
0.353836
0.397419
0.421743
0.445271
0.449103
0.449511
0.448081
0.418481
0.412047
0.404644
0.413047
0.442194
0.461083
0.501960
0.578837
0.645926
0.726378
0.781346
0.804526
0.833757
0.829440
0.835669
0.812927
0.771759
0.699669
0.599262
0.480845
0.371373
0.277667
0.192387
0.115443
0.060117
0.018879
-0.021667
-0.023534
-0.000742
0.021261
0.048739
0.085182
0.117766
0.132849
0.142795
0.154764
0.133040
0.098080
0.067453
0.019948
-0.038680
-0.082235
-0.129990
-0.154891
-0.171656
-0.163784
-0.132744
-0.121520
-0.072561
-0.011364
0.050593
0.063589
0.088294
0.115613
0.130291
0.117658
0.091768
0.065453
0.016253
-0.027256
-0.080956
-0.125417
-0.146933
-0.179350
-0.199489
-0.188139
-0.162024
-0.135199
-0.105516
-0.065671
-0.001412
0.054652
0.093671
0.119048
0.118926
0.114483
0.099099
0.060344
0.014590
-0.034281
-0.074822
-0.115212
-0.140004
-0.172736
-0.185049
-0.189509
-0.177271
-0.134606
-0.087186
-0.042083
0.004564
0.041792
0.074005
0.104808
0.130405
0.115327
0.102718
0.064825
0.013454
-0.035523
-0.078893
-0.118765
-0.154545
-0.184589
-0.200655
-0.185603
-0.177612
-0.112549
-0.076731
-0.032181
0.007881
0.065970
0.091894
0.109684
0.110198
0.107122
0.088941
0.077648
0.048406
0.013880
-0.046945
-0.099717
-0.138383
-0.159880
-0.162692
-0.146064
-0.121773
-0.092248
-0.054425
-0.008066
0.047586
0.101191
0.138483
0.144722
0.145503
0.148396
0.134877
0.105210
0.061810
0.028925
-0.028430
-0.065454
-0.090546
-0.105423
-0.119264
-0.103147
-0.095258
-0.065557
-0.029626
0.016300
0.079937
0.128834
0.153382
0.176956
0.192254
0.191234
0.159099
0.142136
0.092825
0.057455
0.013617
-0.036323
-0.068102
-0.087354
-0.104296
-0.102440
-0.065195
-0.034321
0.012146
0.049006
0.094900
0.137044
0.164974
0.186981
0.211150
0.208705
0.182200
0.161640
0.116897
0.072474
0.016241
-0.019641
-0.043232
-0.068750
-0.088926
-0.094399
-0.072439
-0.037236
0.004196
0.044492
0.095421
0.138487
0.159717
0.184580
0.196511
0.187514
0.160393
0.117223
0.089953
0.051306
-0.012618
-0.053194
-0.078875
-0.101587
-0.105787
-0.106948
-0.089845
-0.065437
-0.026822
0.018746
0.070940
0.114218
0.148656
0.168266
0.186601
0.170540
0.147730
0.112803
0.081701
0.034581
-0.023030
-0.073295
-0.100192
-0.122610
-0.141154
-0.135141
-0.106623
-0.086402
-0.057613
-0.018073
0.028533
0.074146
0.098947
0.122894
0.137932
0.117397
0.102614
0.082168
0.043974
0.010987
-0.038858
-0.084992
-0.113727
-0.140492
-0.164166
-0.157428
-0.138939
-0.090001
-0.058586
-0.020424
0.029297
0.072993
0.104054
0.114601
0.125930
0.120384
0.098264
0.060225
0.015641
-0.032950
-0.078120
-0.115396
-0.135862
-0.157940
-0.167407
-0.169219
-0.153912
-0.124608
-0.080703
-0.046137
-0.006420
0.041100
0.071138
0.096430
0.109853
0.098575
0.076032
0.044045
-0.000309
-0.031531
-0.094655
-0.121438
-0.143796
-0.173310
-0.186581
-0.180973
-0.163345
-0.125952
-0.090760
-0.066121
-0.013223
0.033290
0.074574
0.092583
0.102301
0.100425
0.073574
0.052755
0.008287
-0.032519
-0.075048
-0.120195
-0.155444
-0.194563
-0.197985
-0.186120
-0.161868
-0.124516
-0.088670
-0.052009
-0.005727
0.040129
0.077736
0.094765
0.101032
0.101097
0.073592
0.034093
0.000798
-0.040466
-0.089641
-0.136153
-0.157077
-0.169032
-0.176013
-0.171704
-0.169574
-0.137500
-0.097734
-0.047897
0.010529
0.052403
0.076906
0.106482
0.113565
0.112050
0.096323
0.067147
0.027065
-0.021579
-0.075338
-0.107914
-0.147398
-0.176415
-0.187638
-0.170437
-0.151104
-0.120324
-0.070632
-0.021974
0.011199
0.062335
0.074916
0.097210
0.105730
0.100631
0.082001
0.054996
0.028230
-0.014448
-0.069191
-0.112112
-0.138066
-0.153056
-0.178220
-0.177070
-0.157307
-0.119547
-0.075380
-0.033641
0.012333
0.058441
0.085008
0.108758
0.109270
0.107603
0.097195
0.075193
0.035539
-0.015757
-0.051376
-0.096712
-0.137001
-0.157657
-0.177126
-0.171901
-0.151835
-0.126884
-0.082831
-0.037797
0.002737
0.055915
0.085357
0.106201
0.129380
0.119026
0.099103
0.056330
0.025543
-0.016583
-0.072107
-0.120997
-0.155196
-0.173382
-0.184618
-0.178329
-0.166441
-0.127787
-0.096999
-0.070113
-0.017838
0.038328
0.072404
0.107489
0.122219
0.114596
0.088044
0.067954
0.035793
-0.004034
-0.055710
-0.109370
-0.156635
-0.182815
-0.184792
-0.172877
-0.152235
-0.121287
-0.077384
-0.031500
0.011876
0.053474
0.085298
0.112276
0.117406
0.108333
0.084710
0.054797
0.012908
-0.024621
-0.065103
-0.111729
-0.140469
-0.181038
-0.205498
-0.190641
-0.161968
-0.133158
-0.082587
-0.025994
0.006549
0.036699
0.078179
0.113869
0.110308
0.102869
0.092688
0.053463
0.013831
-0.036968
-0.078026
-0.122433
-0.163924
-0.184131
-0.195950
-0.188888
-0.171570
-0.129750
-0.089798
-0.052714
0.008751
0.041852
0.076858
0.113414
0.112671
0.097298
0.079701
0.058994
0.018340
-0.044041
-0.070190
-0.118644
-0.156032
-0.179640
-0.179982
-0.176235
-0.142212
-0.106581
-0.061117
-0.021397
0.030198
0.087862
0.123615
0.153364
0.159275
0.140279
0.111951
0.085956
0.049551
0.005694
-0.039255
-0.098348
-0.131550
-0.156274
-0.162825
-0.153797
-0.133866
-0.102055
-0.060845
-0.000206
0.043209
0.094254
0.146453
0.164206
0.172030
0.164504
0.129743
0.097182
0.070526
0.018585
-0.041132
-0.080972
-0.113580
-0.134726
-0.134746
-0.136420
-0.115210
-0.068271
-0.028832
0.007419
0.051761
0.093556
0.127213
0.140000
0.149647
0.136854
0.121233
0.095646
0.052256
-0.002135
-0.061516
-0.117373
-0.155233
-0.169247
-0.190424
-0.182568
-0.164300
-0.119111
-0.077973
-0.037373
0.003881
0.056138
0.087929
0.105368
0.119758
0.101654
0.083192
0.048436
-0.008548
-0.068129
-0.115939
-0.147958
-0.186973
-0.213869
-0.209768
-0.200826
-0.182581
-0.144741
-0.119749
-0.067971
-0.021270
0.019264
0.054893
0.074201
0.083964
0.073244
0.056124
0.017302
-0.032397
-0.074708
-0.128437
-0.161586
-0.195445
-0.212366
-0.217175
-0.212617
-0.197847
-0.155234
-0.118244
-0.067878
-0.026365
0.011497
0.045374
0.076170
0.080766
0.074444
0.047031
0.015319
-0.024297
-0.075810
-0.117980
-0.162107
-0.200087
-0.220219
-0.224639
-0.223667
-0.195361
-0.150383
-0.123894
-0.079475
-0.023683
0.009239
0.048744
0.077177
0.084965
0.071434
0.053223
0.021912
-0.015173
-0.062692
-0.120294
-0.161542
-0.188406
-0.212951
-0.216159
-0.216796
-0.200137
-0.163786
-0.123234
-0.076317
-0.024638
0.007107
0.026730
0.051596
0.065461
0.059511
0.053144
0.021481
-0.023665
-0.068541
-0.101580
-0.126472
-0.148010
-0.158371
-0.154781
-0.128863
-0.091885
-0.051638
0.019354
0.069943
0.121209
0.167615
0.226140
0.265106
0.291616
0.310075
0.312675
0.306867
0.294062
0.283433
0.278274
0.263992
0.284157
0.300223
0.310403
0.354209
0.406903
0.469256
0.546618
0.631214
0.696536
0.768157
0.828656
0.867761
0.874452
0.871480
0.861115
0.809858
0.757037
0.696762
0.628449
0.555707
0.457146
0.358934
0.280649
0.219653
0.194126
0.174136
0.173902
0.181386
0.189424
0.199123
0.220591
0.224442
0.234807
0.233882
0.211439
0.163007
0.123046
0.059704
-0.001575
-0.030855
-0.070233
-0.088616
-0.102330
-0.103146
-0.096922
-0.082703
-0.044467
0.022096
0.046887
0.088030
0.126085
0.144833
0.157483
0.157062
0.133736
0.097108
0.058226
0.000953
-0.047928
-0.079951
-0.130187
-0.165066
-0.177634
-0.164483
-0.126575
-0.092020
-0.065228
-0.030075
0.018765
0.059292
0.093506
0.116296
0.139922
0.125845
0.103167
0.074453
0.027467
-0.016853
-0.067621
-0.105358
-0.152268
-0.180098
-0.174587
-0.162131
-0.138586
-0.104700
-0.073475
-0.015437
0.024775
0.055255
0.094680
0.113012
0.128926
0.126108
0.113612
0.081334
0.040974
-0.009794
-0.051978
-0.085397
-0.134223
-0.154198
-0.162951
-0.165785
-0.139353
-0.103324
-0.051622
-0.012745
0.037741
0.075442
0.107044
0.128840
0.146393
0.148302
0.132327
0.097425
0.055985
0.005202
-0.037154
-0.069654
-0.113941
-0.125566
-0.129532
-0.122429
-0.104080
-0.061949
-0.036792
0.005127
0.066753
0.115165
0.144922
0.174001
0.191251
0.185960
0.158344
0.133109
0.095820
0.056795
0.011986
-0.040012
-0.070744
-0.097030
-0.105556
-0.102240
-0.066347
-0.030587
-0.000915
0.043695
0.079504
0.123374
0.169087
0.193577
0.207931
0.200977
0.190726
0.159628
0.133193
0.077880
0.031724
-0.008301
-0.053920
-0.081655
-0.072870
-0.075300
-0.055500
-0.006611
0.032989
0.072637
0.129672
0.171408
0.205899
0.227622
0.236080
0.222333
0.209009
0.179301
0.148860
0.093046
0.051061
0.017735
-0.027861
-0.054920
-0.067729
-0.062942
-0.036646
-0.000969
0.032261
0.082437
0.123666
0.164630
0.203941
0.221523
0.226915
0.219612
0.196300
0.175480
0.139980
0.087622
0.040729
-0.007604
-0.048990
-0.070588
-0.094412
-0.085773
-0.060898
-0.022815
0.019009
0.073354
0.115598
0.143269
0.178276
0.207745
0.223051
0.200815
0.182786
0.150294
0.111700
0.058448
0.014572
-0.027231
-0.079692
-0.100661
-0.105723
-0.093531
-0.085586
-0.044422
-0.008202
0.031863
0.078946
0.117475
0.161705
0.168736
0.172542
0.173310
0.155706
0.116503
0.076065
0.024861
-0.026459
-0.068396
-0.103966
-0.120878
-0.134417
-0.137537
-0.129660
-0.098682
-0.061117
-0.013028
0.048180
0.088127
0.126207
0.162094
0.170343
0.164021
0.136842
0.101280
0.061256
0.014787
-0.039383
-0.087794
-0.122090
-0.156195
-0.178696
-0.179632
-0.150199
-0.109130
-0.087739
-0.036047
0.006504
0.057940
0.085984
0.111858
0.126240
0.129753
0.108025
0.076470
0.038610
-0.019124
-0.059575
-0.100282
-0.140527
-0.167379
-0.174512
-0.174825
-0.153939
-0.122017
-0.097360
-0.050542
-0.000679
0.042251
0.093726
0.120139
0.121626
0.119193
0.105414
0.072545
0.032422
-0.019527
-0.069175
-0.095553
-0.141262
-0.163393
-0.177541
-0.164162
-0.158338
-0.120889
-0.086365
-0.037924
0.017703
0.055734
0.082800
0.113619
0.126750
0.123722
0.110156
0.075100
0.037442
-0.012237
-0.055937
-0.101545
-0.145560
-0.170414
-0.185262
-0.173266
-0.147962
-0.123061
-0.093907
-0.039503
0.013253
0.057534
0.106758
0.125166
0.134190
0.119358
0.096353
0.063746
0.013877
-0.042267
-0.088267
-0.107783
-0.135400
-0.159566
-0.164653
-0.163227
-0.146753
-0.113084
-0.089891
-0.016597
0.032125
0.070625
0.115572
0.132425
0.132573
0.130115
0.116825
0.087968
0.032717
-0.014169
-0.072059
-0.093799
-0.128557
-0.159001
-0.165798
-0.152603
-0.127721
-0.099048
-0.085414
-0.028416
0.039254
0.092024
0.133753
0.151246
0.145954
0.139042
0.117795
0.079924
0.050761
-0.001767
-0.051847
-0.098415
-0.130442
-0.156600
-0.167014
-0.159808
-0.135137
-0.105866
-0.071746
-0.011335
0.033040
0.081330
0.109667
0.134858
0.133683
0.134810
0.112498
0.075265
0.046711
0.001343
-0.051703
-0.089251
-0.121020
-0.154042
-0.161921
-0.158941
-0.145767
-0.103132
-0.063135
-0.014109
0.040030
0.069823
0.100822
0.112931
0.113992
0.109809
0.108914
0.074140
0.041968
-0.007143
-0.060056
-0.115158
-0.161684
-0.166959
-0.169984
-0.165085
-0.145169
-0.108208
-0.085548
-0.021127
0.028582
0.065397
0.093601
0.131602
0.140836
0.135669
0.114953
0.074704
0.033539
-0.013485
-0.051084
-0.103128
-0.139040
-0.159582
-0.173734
-0.170512
-0.155398
-0.120289
-0.082320
-0.031571
0.010258
0.049446
0.080241
0.102990
0.118337
0.108456
0.073769
0.034685
0.015540
-0.024884
-0.073000
-0.113510
-0.146368
-0.174117
-0.183132
-0.172215
-0.151433
-0.119829
-0.083341
-0.033385
0.020382
0.060496
0.086625
0.111227
0.108024
0.116010
0.095468
0.056700
0.026776
-0.019210
-0.072070
-0.117421
-0.149375
-0.174996
-0.182749
-0.181885
-0.166000
-0.139533
-0.097452
-0.052827
-0.007414
0.041887
0.072932
0.100458
0.107834
0.106486
0.086808
0.059682
0.034448
-0.011111
-0.065068
-0.124610
-0.160050
-0.169297
-0.178390
-0.181686
-0.154190
-0.108848
-0.074649
-0.042966
-0.001798
0.060921
0.089165
0.109981
0.119774
0.110634
0.086744
0.058559
0.017512
-0.024117
-0.076984
-0.121087
-0.151013
-0.167179
-0.181488
-0.170269
-0.145642
-0.106164
-0.078325
-0.034643
0.004732
0.057508
0.097448
0.115527
0.116659
0.120463
0.101263
0.068113
0.035596
-0.005622
-0.056172
-0.100885
-0.135514
-0.159433
-0.167214
-0.149884
-0.116874
-0.085150
-0.047554
-0.000159
0.040407
0.087181
0.130139
0.153636
0.150028
0.143658
0.119899
0.081448
0.056943
0.014997
-0.028946
-0.083271
-0.124433
-0.142996
-0.151577
-0.143420
-0.123954
-0.090563
-0.049137
0.014306
0.063223
0.103811
0.132611
0.145527
0.165427
0.161385
0.143022
0.106516
0.081305
0.035295
-0.008872
-0.074037
-0.105442
-0.116630
-0.119710
-0.123482
-0.110013
-0.090002
-0.055813
-0.002807
0.026121
0.059698
0.083440
0.129922
0.151676
0.134492
0.103660
0.082258
0.026885
-0.008735
-0.052861
-0.100919
-0.143575
-0.161396
-0.167075
-0.167125
-0.161781
-0.130689
-0.085394
-0.036765
-0.000206
0.038283
0.060199
0.133863
0.135855
0.100748
0.061906
0.040642
0.014556
-0.031994
-0.081855
-0.144114
-0.174639
-0.202887
-0.212313
-0.204256
-0.180724
-0.158767
-0.117087
-0.065705
-0.031132
0.003480
0.041089
0.061005
0.072766
0.082366
0.064080
0.028535
-0.007342
-0.057729
-0.101745
-0.141548
-0.180970
-0.202510
-0.202433
-0.188544
-0.171778
-0.159684
-0.126992
-0.080445
-0.028235
0.008330
0.041417
0.076930
0.086713
0.092838
0.081494
0.037169
-0.000059
-0.043306
-0.097103
-0.137767
-0.178177
-0.207125
-0.221417
-0.208262
-0.179913
-0.146426
-0.104258
-0.066214
-0.022371
0.021563
0.061035
0.090041
0.108306
0.093944
0.073481
0.028030
-0.007671
-0.061125
-0.094642
-0.141173
-0.178936
-0.204221
-0.222856
-0.209806
-0.186915
-0.165138
-0.128547
-0.082222
-0.053121
-0.001160
0.046065
0.067331
0.082227
0.079474
0.071390
0.056103
0.016670
-0.002843
-0.033108
-0.076415
-0.096009
-0.106020
-0.093014
-0.062619
-0.046921
0.006477
0.063849
0.138874
0.216997
0.279137
0.340002
0.398227
0.453463
0.487952
0.508995
0.510378
0.514175
0.500463
0.474570
0.463136
0.459862
0.486049
0.530005
0.562832
0.602468
0.662318
0.740620
0.808668
0.853807
0.889086
0.936228
0.925284
0.912922
0.877803
0.838549
0.770683
0.663016
0.540853
0.425776
0.322390
0.216730
0.141459
0.093299
0.068549
0.063867
0.069300
0.107293
0.132951
0.174175
0.208422
0.239703
0.250324
0.247698
0.220459
0.181418
0.149305
0.104781
0.064690
0.025743
-0.021199
-0.062287
-0.097322
-0.115223
-0.122074
-0.103937
-0.073914
-0.041112
0.022215
0.068921
0.103550
0.135319
0.150181
0.147386
0.144313
0.125366
0.104987
0.059059
0.015164
-0.032207
-0.092291
-0.148574
-0.182020
-0.180702
-0.153153
-0.132720
-0.112439
-0.074120
-0.030975
0.023336
0.071206
0.106825
0.130165
0.133798
0.117646
0.101197
0.070929
0.032262
-0.018150
-0.059245
-0.104239
-0.134868
-0.154937
-0.161238
-0.167397
-0.142121
-0.115089
-0.070732
-0.026091
0.018446
0.067311
0.107612
0.144964
0.148137
0.152665
0.118468
0.085754
0.047070
-0.000711
-0.044186
-0.094932
-0.127115
-0.151920
-0.150879
-0.152941
-0.129350
-0.093542
-0.045957
0.004093
0.045892
0.102145
0.139189
0.160749
0.171709
0.160393
0.146369
0.114127
0.074376
0.026949
-0.020425
-0.066082
-0.101845
-0.121184
-0.126675
-0.127618
-0.100928
-0.060526
-0.017735
0.022666
0.066538
0.124818
0.147579
0.165028
0.171575
0.187884
0.165704
0.130875
0.089159
0.051574
0.009401
-0.047492
-0.087227
-0.098656
-0.097906
-0.091553
-0.065996
-0.030302
0.013198
0.071225
0.118028
0.162368
0.198799
0.224961
0.237730
0.223730
0.197585
0.169606
0.122467
0.075912
0.036122
0.001572
-0.028458
-0.050904
-0.054935
-0.054721
-0.027597
-0.002629
0.050949
0.084419
0.140503
0.186636
0.215009
0.239203
0.237434
0.223483
0.199501
0.175059
0.156213
0.097850
0.052758
0.005561
-0.021183
-0.039282
-0.052616
-0.047708
-0.035572
-0.004756
0.038636
0.097454
0.138621
0.182029
0.212902
0.229604
0.230668
0.230323
0.222959
0.198928
0.151953
0.100366
0.054082
-0.003430
-0.027357
-0.048120
-0.059090
-0.050887
-0.035502
-0.008170
0.040558
0.092630
0.121079
0.166071
0.202485
0.225624
0.228871
0.227532
0.204624
0.165174
0.103070
0.052110
0.012457
-0.025240
-0.064063
-0.078253
-0.098104
-0.085446
-0.066436
-0.044008
-0.004363
0.049564
0.085738
0.132521
0.161024
0.178450
0.181779
0.179523
0.153348
0.122062
0.085112
0.039849
-0.009011
-0.059782
-0.103843
-0.122955
-0.126018
-0.125050
-0.108828
-0.092345
-0.047960
0.001907
0.044031
0.091639
0.115082
0.142813
0.146822
0.126456
0.105351
0.083910
0.039644
-0.010892
-0.052323
-0.098144
-0.138778
-0.158765
-0.163367
-0.159696
-0.145865
-0.109934
-0.071832
-0.026236
0.021597
0.068018
0.097532
0.116261
0.119676
0.113462
0.092384
0.056731
0.016526
-0.032145
-0.075927
-0.121849
-0.163917
-0.181855
-0.179448
-0.168377
-0.142128
-0.135891
-0.101338
-0.042224
0.015021
0.054275
0.085470
0.101804
0.106565
0.106325
0.089576
0.067013
0.019664
-0.026080
-0.062423
-0.121273
-0.158903
-0.165763
-0.175383
-0.168457
-0.145770
-0.122947
-0.074907
-0.031558
0.010527
0.052849
0.085660
0.113103
0.109270
0.103939
0.080007
0.057131
0.011842
-0.026778
-0.063018
-0.106812
-0.137939
-0.165277
-0.165583
-0.152146
-0.143401
-0.106362
-0.054148
-0.011090
0.031041
0.067181
0.099525
0.124647
0.129282
0.122920
0.088128
0.071043
0.027821
-0.025229
-0.059322
-0.099844
-0.137367
-0.164489
-0.171613
-0.168136
-0.138633
-0.110675
-0.061964
-0.017874
0.039740
0.078598
0.103717
0.127824
0.137343
0.131722
0.111767
0.083134
0.036866
-0.017655
-0.063235
-0.104861
-0.131608
-0.148031
-0.167073
-0.160313
-0.132422
-0.105103
-0.058664
-0.019107
0.021047
0.054476
0.093844
0.123420
0.126922
0.118745
0.107310
0.073748
0.038624
-0.005225
-0.055156
-0.103814
-0.126662
-0.153369
-0.164453
-0.158902
-0.128869
-0.102124
-0.069019
-0.029303
0.015301
0.068726
0.094613
0.119844
0.130641
0.128693
0.105559
0.084227
0.035712
-0.005869
-0.062909
-0.101962
-0.144761
-0.165412
-0.186788
-0.178260
-0.167457
-0.133899
-0.063863
-0.023354
0.025447
0.064762
0.094370
0.124658
0.134556
0.118078
0.090987
0.055384
0.018325
-0.034423
-0.078385
-0.116553
-0.147035
-0.171773
-0.187488
-0.180135
-0.158649
-0.132788
-0.084995
-0.040231
0.008713
0.053872
0.095352
0.109001
0.123487
0.111450
0.089982
0.066123
0.022147
-0.021644
-0.074295
-0.114891
-0.139902
-0.156060
-0.158159
-0.159124
-0.150190
-0.134821
-0.087084
-0.038606
-0.006204
0.046712
0.091645
0.118636
0.121875
0.109153
0.085656
0.063159
0.018708
-0.032235
-0.082219
-0.119395
-0.153749
-0.178566
-0.191229
-0.178714
-0.159722
-0.137172
-0.094925
-0.052844
-0.004137
0.040067
0.081922
0.094704
0.099784
0.085765
0.075597
0.065977
0.021443
-0.014190
-0.056965
-0.113054
-0.159022
-0.174767
-0.188156
-0.176292
-0.162397
-0.138277
-0.097788
-0.054174
0.001202
0.045126
0.089420
0.103151
0.120656
0.116588
0.091776
0.060272
0.013122
-0.043922
-0.100884
-0.131569
-0.146905
-0.167589
-0.187306
-0.188457
-0.165195
-0.132051
-0.090004
-0.047511
0.010523
0.048405
0.088568
0.107690
0.119516
0.114253
0.095862
0.070898
0.021183
-0.012866
-0.061016
-0.101127
-0.140351
-0.165107
-0.175828
-0.173741
-0.143698
-0.105270
-0.065959
-0.034062
0.016430
0.065172
0.102813
0.126438
0.137924
0.157912
0.133494
0.095386
0.064891
0.022062
-0.031721
-0.089692
-0.124735
-0.149708
-0.164169
-0.171573
-0.132269
-0.113698
-0.063105
-0.006817
0.052916
0.096071
0.136175
0.147118
0.157106
0.166295
0.154567
0.122144
0.075389
0.037995
-0.025194
-0.065321
-0.118169
-0.140882
-0.152826
-0.153101
-0.122724
-0.090358
-0.046805
-0.014006
0.043998
0.093700
0.119001
0.156870
0.159936
0.146603
0.114881
0.096139
0.037351
-0.018177
-0.061163
-0.123735
-0.157843
-0.173863
-0.173624
-0.168150
-0.151577
-0.126834
-0.076942
-0.026193
0.016034
0.054410
0.087206
0.107275
0.120249
0.110572
0.085480
0.052181
0.000919
-0.049649
-0.099173
-0.143490
-0.180203
-0.203146
-0.193767
-0.185541
-0.175564
-0.147939
-0.105344
-0.063437
-0.011320
0.030274
0.063682
0.078726
0.088854
0.075770
0.048633
0.023889
-0.012787
-0.064625
-0.112196
-0.169439
-0.196724
-0.202136
-0.210753
-0.213931
-0.219674
-0.188676
-0.141113
-0.072769
-0.016675
0.013788
0.049804
0.072076
0.074126
0.064622
0.039862
0.017762
-0.029004
-0.071690
-0.114759
-0.155889
-0.182769
-0.192978
-0.201286
-0.202465
-0.202358
-0.160485
-0.114115
-0.073496
-0.026321
0.014397
0.039612
0.077366
0.086548
0.072090
0.040441
0.030023
-0.009565
-0.053078
-0.120383
-0.150149
-0.188876
-0.214129
-0.228044
-0.222479
-0.199506
-0.162349
-0.122733
-0.080173
-0.021792
0.020910
0.055770
0.054541
0.057614
0.063588
0.041439
0.001046
-0.033537
-0.060491
-0.100628
-0.160051
-0.186391
-0.177143
-0.168506
-0.148042
-0.111818
-0.063081
-0.005992
0.054104
0.124943
0.159545
0.196520
0.241897
0.280909
0.292703
0.295050
0.300836
0.291443
0.278643
0.263907
0.265152
0.269702
0.281505
0.309837
0.357468
0.410256
0.476423
0.562063
0.654783
0.730039
0.796307
0.863382
0.913378
0.937528
0.917222
0.901400
0.872466
0.813531
0.732456
0.666087
0.594188
0.518523
0.431949
0.359060
0.295436
0.262616
0.246369
0.235917
0.238980
0.228419
0.242717
0.262457
0.273259
0.264455
0.253149
0.220395
0.172781
0.140179
0.084384
0.020249
-0.036518
-0.082965
-0.109514
-0.120007
-0.123217
-0.108335
-0.073893
-0.037741
-0.001084
0.044722
0.100819
0.141117
0.159441
0.158603
0.150830
0.138734
0.092977
0.045843
0.002286
-0.051170
-0.099415
-0.148370
-0.184250
-0.195316
-0.174835
-0.157774
-0.127971
-0.077786
-0.019653
0.031864
0.081954
0.097435
0.118481
0.127158
0.114756
0.091465
0.056953
0.040935
0.004734
-0.053754
-0.114921
-0.153455
-0.155664
-0.168168
-0.160892
-0.134383
-0.104374
-0.056824
-0.011533
0.037076
0.074924
0.102900
0.127167
0.138204
0.125186
0.115617
0.074729
0.037930
-0.005627
-0.050237
-0.093343
-0.124593
-0.152550
-0.158767
-0.157429
-0.135756
-0.119940
-0.082155
-0.023012
0.044004
0.075117
0.107059
0.137524
0.151289
0.136991
0.144332
0.108832
0.054409
0.017802
-0.039486
-0.070771
-0.104638
-0.140913
-0.151199
-0.146672
-0.121972
-0.081531
-0.039934
0.003708
0.054984
0.101955
0.134179
0.166035
0.176775
0.170982
0.143052
0.109844
0.082733
0.049461
0.002536
-0.040078
-0.085560
-0.112854
-0.119214
-0.117344
-0.102328
-0.071716
-0.042391
0.022125
0.105815
0.134481
0.175988
0.188348
0.202336
0.207824
0.213623
0.163551
0.105410
0.081810
0.029186
-0.024170
-0.056765
-0.072415
-0.082752
-0.067692
-0.053366
-0.027258
0.011352
0.063538
0.117519
0.161405
0.199190
0.217008
0.227623
0.216389
0.199262
0.184074
0.149251
0.100849
0.046785
-0.004274
-0.039050
-0.055364
-0.055984
-0.063910
-0.041256
-0.004366
0.049004
0.084770
0.136958
0.170431
0.194898
0.216096
0.233236
0.226933
0.216860
0.185394
0.140424
0.095017
0.037492
-0.013417
-0.046136
-0.082319
-0.086633
-0.051741
-0.031723
0.001596
0.021502
0.064118
0.120020
0.162973
0.186627
0.201605
0.203324
0.193861
0.187754
0.169426
0.124302
0.065225
0.018416
-0.033305
-0.079114
-0.108601
-0.120028
-0.122592
-0.108518
-0.054902
0.000976
0.036725
0.087891
0.128946
0.161770
0.180390
0.189647
0.176840
0.157758
0.099079
0.072433
0.024005
-0.034702
-0.077472
-0.117689
-0.144491
-0.165538
-0.158641
-0.132633
-0.086972
-0.031131
0.009343
0.051229
0.076733
0.113360
0.145428
0.149137
0.126349
0.107847
0.067508
0.023952
-0.021607
-0.079863
-0.123907
-0.161632
-0.177746
-0.190932
-0.186198
-0.171237
-0.141328
-0.095846
-0.047272
0.006026
0.044711
0.081001
0.104111
0.115816
0.099130
0.084800
0.043879
-0.010263
-0.055289
-0.106215
-0.155228
-0.195143
-0.214116
-0.217245
-0.213132
-0.191245
-0.144068
-0.100692
-0.058182
-0.005045
0.040336
0.061957
0.091990
0.101436
0.090747
0.068184
0.020975
-0.022383
-0.069187
-0.120608
-0.165168
-0.198078
-0.203207
-0.203094
-0.197965
-0.189234
-0.139417
-0.097831
-0.059007
-0.024259
0.026440
0.070760
0.081320
0.083071
0.080866
0.049871
0.017824
-0.012827
-0.049440
-0.094725
-0.144882
-0.159950
-0.198347
-0.213331
-0.204568
-0.186764
-0.149972
-0.107293
-0.058502
-0.006003
0.037113
0.069237
0.087514
0.101176
0.105511
0.090840
0.033707
-0.019021
-0.056819
-0.097897
-0.138506
-0.177373
-0.201510
-0.212688
-0.195636
-0.181226
-0.160832
-0.109786
-0.051850
-0.003161
0.039409
0.064904
0.071381
0.086618
0.087812
0.067999
0.031061
-0.005276
-0.046603
-0.088366
-0.138678
-0.174981
-0.200896
-0.202255
-0.200562
-0.184975
-0.147528
-0.095681
-0.046907
0.001579
0.035667
0.048226
0.076728
0.102253
0.103385
0.079571
0.029640
-0.016445
-0.041929
-0.092289
-0.126402
-0.162942
-0.189870
-0.199652
-0.202772
-0.190300
-0.172834
-0.138889
-0.081818
-0.001984
0.045452
0.076398
0.097970
0.086292
0.085704
0.066045
0.023110
-0.029154
-0.074077
-0.122091
-0.147606
-0.160091
-0.190499
-0.210908
-0.205270
-0.200026
-0.191630
-0.132872
-0.067832
-0.031869
-0.001664
0.054942
0.090409
0.103905
0.086630
0.065559
0.021263
-0.016310
-0.057451
-0.109391
-0.146209
-0.188323
-0.211497
-0.224763
-0.215706
-0.205160
-0.151074
-0.113674
-0.079602
-0.040451
-0.001085
0.026359
0.054427
0.063213
0.061311
0.053727
0.018732
-0.028530
-0.065042
-0.118068
-0.168315
-0.193839
-0.215648
-0.227031
-0.227859
-0.218730
-0.174385
-0.139673
-0.095822
-0.042860
-0.002362
0.021902
0.053476
0.055614
0.054706
0.034896
0.019789
-0.044887
-0.095896
-0.126551
-0.158897
-0.186733
-0.217790
-0.228455
-0.245045
-0.220174
-0.183429
-0.137480
-0.099179
-0.059467
-0.006901
0.048968
0.057196
0.049312
0.037302
0.017602
-0.022706
-0.055270
-0.085173
-0.141070
-0.192610
-0.222640
-0.252262
-0.255769
-0.234243
-0.218652
-0.191550
-0.129482
-0.084439
-0.050790
-0.017880
0.022122
0.043483
0.039372
0.037489
0.030766
0.007748
-0.044059
-0.094072
-0.141894
-0.192416
-0.218858
-0.237111
-0.248084
-0.234346
-0.240843
-0.196135
-0.152493
-0.106516
-0.069835
-0.027358
-0.005045
0.017783
0.024258
0.024032
0.010037
-0.009289
-0.038392
-0.084494
-0.133509
-0.157617
-0.196370
-0.226157
-0.242390
-0.243217
-0.218096
-0.182494
-0.147099
-0.102301
-0.047166
-0.001521
0.034099
0.056944
0.067984
0.063190
0.033183
0.004330
-0.041006
-0.090712
-0.131137
-0.157366
-0.183279
-0.202885
-0.217274
-0.210207
-0.188388
-0.156626
-0.106544
-0.068931
-0.044452
-0.016715
0.038901
0.069271
0.075761
0.075769
0.054246
0.030973
-0.016936
-0.050323
-0.099066
-0.147323
-0.187539
-0.210578
-0.208521
-0.208006
-0.195839
-0.154116
-0.105906
-0.063001
-0.028474
0.020661
0.072579
0.086528
0.087882
0.074584
0.061599
0.029815
-0.017723
-0.069631
-0.121491
-0.171965
-0.207791
-0.228924
-0.245293
-0.246052
-0.235879
-0.206452
-0.167306
-0.126745
-0.082464
-0.028382
0.005446
0.029846
0.047591
0.046084
0.039942
-0.001567
-0.049130
-0.097577
-0.154075
-0.202398
-0.242524
-0.273100
-0.299169
-0.296163
-0.265686
-0.209460
-0.183635
-0.143300
-0.106215
-0.055824
-0.017434
0.006172
-0.002105
0.008911
-0.007985
-0.037521
-0.078771
-0.140036
-0.181656
-0.234912
-0.269361
-0.305249
-0.286960
-0.288247
-0.286911
-0.270903
-0.221982
-0.162123
-0.098112
-0.058677
-0.020004
0.000836
0.004585
-0.012158
-0.030728
-0.058092
-0.094494
-0.144270
-0.196664
-0.240841
-0.277402
-0.307311
-0.313976
-0.313063
-0.297609
-0.257584
-0.213981
-0.160142
-0.110578
-0.077412
-0.036147
-0.017133
-0.015603
-0.026668
-0.040411
-0.079090
-0.122262
-0.174754
-0.212986
-0.261597
-0.285844
-0.313997
-0.315818
-0.296847
-0.273312
-0.261126
-0.219353
-0.178504
-0.134956
-0.088291
-0.049426
-0.031735
-0.013561
-0.015357
-0.029432
-0.064548
-0.109095
-0.154309
-0.216481
-0.253998
-0.302122
-0.316117
-0.322964
-0.327433
-0.311211
-0.279659
-0.240140
-0.189604
-0.147820
-0.097758
-0.050010
0.014420
0.020233
0.054470
0.047049
0.007194
-0.006454
-0.031413
-0.081349
-0.139818
-0.148918
-0.153407
-0.141995
-0.124006
-0.065696
-0.009505
0.065750
0.145752
0.233713
0.319574
0.372259
0.438677
0.491261
0.515627
0.508968
0.520078
0.521754
0.544727
0.521996
0.502139
0.476067
0.483041
0.483308
0.475590
0.485592
0.531055
0.563714
0.587467
0.601432
0.636004
0.635616
0.575588
0.506154
0.439030
0.369153
0.298690
0.213318
0.102882
0.010985
-0.055722
-0.110388
-0.152345
-0.170604
-0.168416
-0.146308
-0.125519
-0.097783
-0.049143
-0.006702
0.022267
0.052066
0.062100
0.064930
0.063937
0.048267
0.021318
-0.031125
-0.101051
-0.168403
-0.217538
-0.275531
-0.266108
-0.264143
-0.270907
-0.258870
-0.212313
-0.162357
-0.105099
-0.084810
-0.035250
0.006316
0.003565
0.000540
0.002980
-0.014042
-0.047382
-0.088389
-0.136749
-0.181723
-0.238769
-0.267470
-0.300251
-0.314400
-0.301576
-0.286748
-0.252387
-0.209987
-0.165743
-0.118640
-0.091999
-0.058267
-0.007492
0.025658
0.034709
0.000960
-0.048824
-0.087373
-0.138066
-0.188679
-0.230045
-0.263113
-0.277949
-0.288823
-0.284818
-0.249958
-0.214775
-0.193588
-0.135712
-0.092185
-0.047089
-0.016443
0.014664
0.011307
0.004693
-0.020077
-0.051988
-0.086865
-0.136293
-0.186029
-0.224270
-0.257604
-0.274120
-0.274179
-0.276558
-0.239057
-0.207648
-0.164750
-0.122476
-0.085719
-0.060542
-0.007761
0.026687
0.030039
0.019408
0.000394
-0.039023
-0.058592
-0.096390
-0.142253
-0.190369
-0.239952
-0.240620
-0.248774
-0.246024
-0.225730
-0.194169
-0.150467
-0.101542
-0.060380
-0.007399
0.029333
0.050954
0.060732
0.058886
0.029932
0.006149
-0.034792
-0.089389
-0.121560
-0.163776
-0.205083
-0.237369
-0.237625
-0.246566
-0.201703
-0.163189
-0.119807
-0.068779
-0.020721
0.018498
0.041775
0.062178
0.083762
0.101826
0.087952
0.044945
-0.018952
-0.055457
-0.090684
-0.139750
-0.183157
-0.192652
-0.194955
-0.185499
-0.167434
-0.138846
-0.098215
-0.042457
-0.011210
0.034677
0.062969
0.078561
0.072544
0.101638
0.076607
0.041618
0.007207
-0.045851
-0.088291
-0.136173
-0.161604
-0.177860
-0.198310
-0.191769
-0.165311
-0.138867
-0.103066
-0.056428
-0.010522
0.036052
0.059480
0.084485
0.105308
0.094915
0.067743
0.029077
-0.007955
-0.054364
-0.111498
-0.165102
-0.191310
-0.208764
-0.219989
-0.224570
-0.206299
-0.171285
-0.143812
-0.081097
-0.047116
-0.010148
0.017034
0.058184
0.077776
0.074132
0.046302
0.016694
-0.027254
-0.089017
-0.160181
-0.189167
-0.223124
-0.235727
-0.243820
-0.253496
-0.241181
-0.221284
-0.176923
-0.117539
-0.061407
-0.040586
-0.011611
0.003885
0.003796
0.006897
-0.009996
-0.055766
-0.099388
-0.144334
-0.188550
-0.226840
-0.267312
-0.297722
-0.308467
-0.318257
-0.295743
-0.255879
-0.214935
-0.168967
-0.133291
-0.088989
-0.056661
-0.029120
-0.017098
-0.021852
-0.047036
-0.079288
-0.124693
-0.171031
-0.220155
-0.248798
-0.286878
-0.309886
-0.318525
-0.321476
-0.298812
-0.272869
-0.235290
-0.182264
-0.140264
-0.100308
-0.071876
-0.055682
-0.021540
-0.031885
-0.067228
-0.105740
-0.127255
-0.180096
-0.205741
-0.259497
-0.303514
-0.328415
-0.336589
-0.350239
-0.317455
-0.283639
-0.243510
-0.209029
-0.165545
-0.121351
-0.082419
-0.068886
-0.069721
-0.062407
-0.068539
-0.092568
-0.115731
-0.174678
-0.238731
-0.286145
-0.321008
-0.332030
-0.346554
-0.347220
-0.328044
-0.290517
-0.250976
-0.205380
-0.156644
-0.117675
-0.085673
-0.067618
-0.060301
-0.064310
-0.080753
-0.101781
-0.148184
-0.226670
-0.270266
-0.282407
-0.289315
-0.310832
-0.327211
-0.328959
-0.309666
-0.282700
-0.252414
-0.201969
-0.149696
-0.125736
-0.079137
-0.026425
-0.017073
-0.008374
-0.039517
-0.071290
-0.118726
-0.174316
-0.228335
-0.267332
-0.306199
-0.332626
-0.335537
-0.331349
-0.313386
-0.286768
-0.238537
-0.170850
-0.120613
-0.098642
-0.081886
-0.063286
-0.043669
-0.034691
-0.047536
-0.075111
-0.113299
-0.163236
-0.223519
-0.272164
-0.308544
-0.328509
-0.339766
-0.344065
-0.327443
-0.306087
-0.234701
-0.183030
-0.131155
-0.088694
-0.052146
-0.041575
-0.027529
-0.027433
-0.055826
-0.085360
-0.128191
-0.195542
-0.244196
-0.273823
-0.322004
-0.354178
-0.358488
-0.351958
-0.329583
-0.290374
-0.239245
-0.192148
-0.142071
-0.087838
-0.045056
-0.031586
-0.029591
-0.025889
-0.056106
-0.086719
-0.133918
-0.184766
-0.236340
-0.281138
-0.317778
-0.340334
-0.345462
-0.347200
-0.316760
-0.287984
-0.241615
-0.186473
-0.142795
-0.103522
-0.078919
-0.047041
-0.037385
-0.044863
-0.067152
-0.096531
-0.155893
-0.209892
-0.262542
-0.303054
-0.321541
-0.347244
-0.327482
-0.336766
-0.332079
-0.291617
-0.240218
-0.203709
-0.163418
-0.112632
-0.071782
-0.040518
-0.034708
-0.040628
-0.073273
-0.098938
-0.145991
-0.192618
-0.258377
-0.309370
-0.328712
-0.354099
-0.370364
-0.369347
-0.332952
-0.296887
-0.248828
-0.200251
-0.152676
-0.090195
-0.059874
-0.047730
-0.051302
-0.060320
-0.083396
-0.113459
-0.164569
-0.208036
-0.256457
-0.288160
-0.318997
-0.343671
-0.360093
-0.359237
-0.309849
-0.284899
-0.256218
-0.212881
-0.140189
-0.112057
-0.074828
-0.055108
-0.050754
-0.065991
-0.083327
-0.124758
-0.151474
-0.204485
-0.258854
-0.298237
-0.328543
-0.349557
-0.355310
-0.357608
-0.325860
-0.286054
-0.243062
-0.206243
-0.153082
-0.122482
-0.086689
-0.065092
-0.065085
-0.063278
-0.089374
-0.120320
-0.172339
-0.206828
-0.258790
-0.296383
-0.334804
-0.371683
-0.365459
-0.345625
-0.326317
-0.293305
-0.254110
-0.200803
-0.164236
-0.120601
-0.064512
-0.050886
-0.059404
-0.058101
-0.083963
-0.119374
-0.156548
-0.196538
-0.238771
-0.276526
-0.306182
-0.325508
-0.334445
-0.338462
-0.330572
-0.296406
-0.241883
-0.160753
-0.104660
-0.067444
-0.036442
-0.010529
-0.010139
-0.008950
-0.027522
-0.071005
-0.111451
-0.161073
-0.208328
-0.257003
-0.292584
-0.308013
-0.299513
-0.285846
-0.277340
-0.280902
-0.205349
-0.161947
-0.111590
-0.065538
-0.038218
-0.017695
-0.001519
-0.010303
-0.029310
-0.062999
-0.106369
-0.149162
-0.187381
-0.224838
-0.257587
-0.281341
-0.289495
-0.286083
-0.263947
-0.233112
-0.191208
-0.157815
-0.104954
-0.068638
-0.033057
-0.023912
-0.015051
-0.011277
-0.042537
-0.091091
-0.134020
-0.182726
-0.232658
-0.267621
-0.298357
-0.316779
-0.326645
-0.326456
-0.308241
-0.286635
-0.246498
-0.196227
-0.150492
-0.118548
-0.075683
-0.037255
-0.033973
-0.043603
-0.070856
-0.100951
-0.155312
-0.198365
-0.257053
-0.294637
-0.328711
-0.347211
-0.364147
-0.359086
-0.337289
-0.289449
-0.239177
-0.214206
-0.181970
-0.129695
-0.101014
-0.074116
-0.069553
-0.087791
-0.108057
-0.132058
-0.165072
-0.199253
-0.262917
-0.316596
-0.336488
-0.343203
-0.366856
-0.378436
-0.335046
-0.306176
-0.264790
-0.223499
-0.169382
-0.132029
-0.092957
-0.072890
-0.047663
-0.044923
-0.084428
-0.118347
-0.169803
-0.212046
-0.268367
-0.317003
-0.355207
-0.369960
-0.388417
-0.372929
-0.357664
-0.324734
-0.270202
-0.219108
-0.159226
-0.122258
-0.103703
-0.077723
-0.059985
-0.072796
-0.092823
-0.126954
-0.171580
-0.228752
-0.269995
-0.301435
-0.346887
-0.369100
-0.378317
-0.375245
-0.350013
-0.323054
-0.272459
-0.226931
-0.180606
-0.121345
-0.091842
-0.065306
-0.056507
-0.080171
-0.110646
-0.145962
-0.181417
-0.210799
-0.267152
-0.310090
-0.323563
-0.339929
-0.331527
-0.317591
-0.285856
-0.236331
-0.197851
-0.135502
-0.082009
-0.017059
0.036018
0.076007
0.094090
0.113072
0.130676
0.129981
0.100702
0.125812
0.093449
0.060589
0.059566
0.063547
0.079081
0.121219
0.180641
0.238210
0.326277
0.419686
0.524837
0.607388
0.668593
0.718934
0.741564
0.750979
0.728017
0.687117
0.637048
0.577265
0.511941
0.440824
0.384912
0.326624
0.233657
0.163690
0.131325
0.107486
0.111971
0.098741
0.107540
0.121013
0.121290
0.126888
0.126841
0.116347
0.094332
0.056718
-0.008323
-0.065029
-0.116650
-0.155280
-0.200101
-0.246698
-0.276507
-0.257104
-0.229158
-0.204959
-0.165634
-0.114847
-0.069636
-0.030282
0.005083
0.025636
0.036080
0.020242
-0.013588
-0.037560
-0.091007
-0.135317
-0.187564
-0.234919
-0.270176
-0.291102
-0.308339
-0.299890
-0.276417
-0.245314
-0.197217
-0.154709
-0.104463
-0.061065
-0.039376
-0.017473
-0.001719
-0.006448
-0.000997
-0.034723
-0.125324
-0.153471
-0.203376
-0.247617
-0.278978
-0.296571
-0.299075
-0.299341
-0.280387
-0.240387
-0.178427
-0.136480
-0.087318
-0.040336
-0.013414
0.005083
0.015646
0.009911
-0.008558
-0.038584
-0.087920
-0.136469
-0.197622
-0.248574
-0.285949
-0.305886
-0.316593
-0.299318
-0.269213
-0.221504
-0.187682
-0.140029
-0.079803
-0.023447
0.005529
0.031969
0.044959
0.025541
0.013215
-0.018258
-0.073007
-0.124613
-0.162699
-0.204584
-0.241704
-0.258981
-0.271080
-0.268108
-0.237597
-0.204548
-0.149854
-0.105720
-0.069373
-0.025642
0.004727
0.050842
0.082040
0.056223
0.032188
0.020564
-0.030633
-0.080871
-0.132593
-0.176919
-0.211195
-0.231453
-0.236877
-0.220802
-0.197082
-0.165252
-0.111284
-0.067934
-0.020923
0.019594
0.069449
0.096829
0.097463
0.090781
0.066154
0.039451
-0.007925
-0.060483
-0.107566
-0.161715
-0.200165
-0.210540
-0.182083
-0.170032
-0.146934
-0.107110
-0.070355
-0.041101
0.012011
0.072151
0.117420
0.140054
0.149509
0.134735
0.105074
0.073068
0.020922
-0.034741
-0.084862
-0.119312
-0.141882
-0.155083
-0.163419
-0.153710
-0.136553
-0.107942
-0.053116
-0.008937
0.042137
0.084041
0.122328
0.137150
0.144683
0.132305
0.105930
0.075452
0.022599
-0.020548
-0.068225
-0.106794
-0.134190
-0.157766
-0.159454
-0.148822
-0.135454
-0.128497
-0.082041
-0.038108
0.015022
0.052738
0.089018
0.110803
0.125274
0.107711
0.084613
0.053712
0.018957
-0.035268
-0.075381
-0.121224
-0.171798
-0.190569
-0.193476
-0.164476
-0.146692
-0.132466
-0.089017
-0.046620
-0.019995
0.006210
0.072408
0.088345
0.086414
0.066234
0.055569
0.032372
-0.011926
-0.058523
-0.113787
-0.165147
-0.211135
-0.229060
-0.237250
-0.224811
-0.201635
-0.179904
-0.129103
-0.077118
-0.034449
0.016387
0.033439
0.037989
0.056195
0.061218
0.020416
-0.009976
-0.044735
-0.089914
-0.142036
-0.189437
-0.236808
-0.255255
-0.260985
-0.247734
-0.220130
-0.200526
-0.135901
-0.085450
-0.054550
-0.024985
0.004543
0.038816
0.038802
0.027936
0.019156
-0.027695
-0.084454
-0.139223
-0.171177
-0.192584
-0.235874
-0.258749
-0.256799
-0.254924
-0.249924
-0.227246
-0.182902
-0.147303
-0.088912
-0.036073
0.017233
0.037912
0.032323
0.017367
-0.004967
-0.031657
-0.073069
-0.134075
-0.165365
-0.197579
-0.224300
-0.260665
-0.269002
-0.252745
-0.239460
-0.228990
-0.177681
-0.125457
-0.081893
-0.036804
-0.000173
0.026755
0.048802
0.040245
0.018975
-0.014931
-0.070067
-0.112678
-0.157366
-0.195278
-0.231912
-0.250306
-0.263090
-0.250875
-0.239573
-0.197759
-0.161430
-0.117071
-0.080983
-0.040100
0.002734
0.023287
0.041843
0.045026
0.032238
-0.003393
-0.051564
-0.108261
-0.146513
-0.192008
-0.213104
-0.240868
-0.252653
-0.249047
-0.224336
-0.193040
-0.157427
-0.100607
-0.057324
-0.019599
0.017518
0.034254
0.065963
0.058169
0.028927
-0.006972
-0.048125
-0.094961
-0.129478
-0.177834
-0.206236
-0.238471
-0.256815
-0.249327
-0.231808
-0.200902
-0.152924
-0.103315
-0.065095
0.012951
0.037067
0.040165
0.053347
0.047794
0.041424
0.005506
-0.048475
-0.087514
-0.132511
-0.171080
-0.215521
-0.229820
-0.248627
-0.243388
-0.223098
-0.190071
-0.150168
-0.108615
-0.065047
-0.021417
0.025198
0.047029
0.062608
0.046564
0.030860
0.010178
-0.037481
-0.092005
-0.138494
-0.174768
-0.210802
-0.237513
-0.253246
-0.246509
-0.225593
-0.184494
-0.147454
-0.102918
-0.044855
-0.001488
0.021748
0.050577
0.058310
0.040104
0.012521
-0.015969
-0.065433
-0.117740
-0.156201
-0.175595
-0.203670
-0.214434
-0.244891
-0.235087
-0.207352
-0.193755
-0.151136
-0.099766
-0.051294
-0.003600
0.024632
0.043698
0.057697
0.065058
0.035372
-0.014237
-0.054916
-0.112520
-0.132393
-0.158223
-0.206172
-0.241192
-0.264286
-0.252142
-0.234561
-0.192914
-0.152299
-0.082227
-0.059736
-0.035758
0.010130
0.043682
0.073890
0.068338
0.048195
0.004323
-0.054065
-0.092688
-0.140078
-0.185179
-0.221038
-0.239342
-0.238215
-0.234378
-0.213798
-0.193341
-0.150288
-0.091093
-0.041205
-0.005323
0.025262
0.037941
0.039291
0.020113
0.011296
-0.010618
-0.031881
-0.086822
-0.132922
-0.180950
-0.219494
-0.247822
-0.261156
-0.225536
-0.213882
-0.191276
-0.153744
-0.093054
-0.046143
0.008111
0.043547
0.061166
0.066904
0.063319
0.038994
-0.002800
-0.051636
-0.092362
-0.141789
-0.185272
-0.210555
-0.216475
-0.229245
-0.225564
-0.222496
-0.194545
-0.148993
-0.099669
-0.059894
-0.015840
0.032991
0.074480
0.104258
0.088187
0.043954
0.013072
-0.032026
-0.086090
-0.126882
-0.168425
-0.211971
-0.224764
-0.227565
-0.216364
-0.180231
-0.149025
-0.108324
-0.067685
-0.013427
0.029353
0.061826
0.096529
0.109414
0.102639
0.076722
0.038466
-0.001640
-0.045495
-0.093317
-0.128885
-0.170255
-0.191372
-0.202013
-0.203150
-0.180114
-0.146512
-0.108922
-0.054293
-0.010194
0.041974
0.079645
0.098519
0.108254
0.099481
0.078213
0.044798
0.000333
-0.045376
-0.080112
-0.120330
-0.149670
-0.167779
-0.190372
-0.180397
-0.150560
-0.115353
-0.067939
-0.032567
0.016036
0.059196
0.098068
0.116705
0.129206
0.120235
0.094066
0.049426
-0.007460
-0.061246
-0.088195
-0.142860
-0.188278
-0.210696
-0.199764
-0.188011
-0.186650
-0.159450
-0.102964
-0.069999
-0.022483
0.026473
0.053056
0.076862
0.077241
0.063430
0.044704
-0.020371
-0.045261
-0.074647
-0.108758
-0.144194
-0.190131
-0.229375
-0.242627
-0.238591
-0.218873
-0.189540
-0.156306
-0.104614
-0.041631
-0.006760
0.031092
0.062882
0.064825
0.054849
0.023409
-0.015104
-0.048337
-0.099813
-0.147800
-0.198038
-0.230987
-0.243703
-0.245622
-0.241538
-0.236210
-0.206822
-0.165671
-0.104439
-0.054727
-0.010995
0.029727
0.050373
0.065946
0.057889
0.035669
-0.005357
-0.055123
-0.104193
-0.148654
-0.196572
-0.231667
-0.253184
-0.263351
-0.263290
-0.240072
-0.194428
-0.145444
-0.100001
-0.055071
-0.020975
0.032224
0.072193
0.070357
0.067586
0.034274
-0.006509
-0.060820
-0.106087
-0.153124
-0.188845
-0.222829
-0.249464
-0.256925
-0.246807
-0.231414
-0.192033
-0.147194
-0.096587
-0.044104
-0.003359
0.033078
0.055248
0.058890
0.046179
0.022770
-0.016254
-0.054477
-0.111832
-0.154500
-0.190898
-0.220448
-0.246540
-0.244494
-0.236054
-0.192411
-0.146054
-0.091622
-0.025883
0.029579
0.085773
0.144538
0.187786
0.199346
0.196503
0.199125
0.177268
0.167275
0.140170
0.114738
0.099962
0.096459
0.102935
0.129374
0.170087
0.232154
0.298776
0.370258
0.452264
0.540212
0.608899
0.691165
0.747890
0.791524
0.827543
0.827503
0.803982
0.747945
0.698889
0.649004
0.583131
0.529071
0.476778
0.451929
0.417722
0.371196
0.341953
0.333200
0.334042
0.335044
0.345055
0.328662
0.307108
0.269896
0.250541
0.221601
0.174426
0.127641
0.061747
0.005720
-0.050704
-0.091652
-0.146428
-0.127525
-0.135927
-0.134798
-0.077044
-0.028836
0.023038
0.073048
0.107110
0.134773
0.159055
0.155738
0.153269
0.127270
0.088216
0.044859
-0.012668
-0.085710
-0.124334
-0.157875
-0.186015
-0.188890
-0.167313
-0.149961
-0.113014
-0.083256
-0.032138
0.023829
0.067048
0.092642
0.116240
0.119059
0.108058
0.090489
0.059647
0.012535
-0.034901
-0.094188
-0.135824
-0.171444
-0.188556
-0.177451
-0.157252
-0.161474
-0.141993
-0.086778
-0.032812
0.006780
0.058664
0.086166
0.115086
0.135360
0.123253
0.101024
0.061236
0.017359
-0.027742
-0.082511
-0.128676
-0.152191
-0.163375
-0.174385
-0.166446
-0.158164
-0.128661
-0.057584
-0.005162
0.035971
0.078409
0.111765
0.134288
0.131214
0.122441
0.107350
0.074358
0.038301
-0.008496
-0.046199
-0.090774
-0.129732
-0.147800
-0.142091
-0.137240
-0.121719
-0.078837
-0.033588
0.019373
0.062123
0.093032
0.136229
0.161833
0.165022
0.156840
0.136260
0.108951
0.068943
0.019445
-0.028850
-0.074724
-0.111477
-0.135915
-0.131529
-0.118072
-0.103741
-0.054979
-0.010628
0.044408
0.091822
0.120311
0.152834
0.214766
0.226795
0.215955
0.186043
0.141148
0.086928
0.043604
0.006645
-0.037830
-0.066150
-0.099343
-0.079026
-0.075954
-0.055318
-0.023682
0.011350
0.049740
0.098850
0.147580
0.194385
0.236049
0.258542
0.247562
0.214083
0.173794
0.123729
0.081953
0.052279
0.011953
-0.035469
-0.058303
-0.069839
-0.066366
-0.039320
-0.009527
0.038494
0.088441
0.133846
0.177682
0.208681
0.239514
0.237570
0.223501
0.206995
0.170185
0.133160
0.084454
0.040874
-0.008717
-0.037807
-0.058857
-0.068958
-0.073832
-0.035637
0.006293
0.044562
0.081612
0.131736
0.163720
0.205956
0.231005
0.225921
0.224107
0.186695
0.153596
0.118575
0.080986
0.020289
-0.012697
-0.055037
-0.083722
-0.084421
-0.081816
-0.056295
-0.029692
0.012727
0.062408
0.098300
0.139641
0.168674
0.195852
0.194520
0.174975
0.147250
0.132230
0.095336
0.036054
-0.009059
-0.063221
-0.090503
-0.117607
-0.113439
-0.111353
-0.096563
-0.068253
-0.039732
0.006396
0.050759
0.096937
0.125160
0.159234
0.164621
0.149292
0.122950
0.094432
0.049296
0.001990
-0.054343
-0.097119
-0.131291
-0.156653
-0.169241
-0.159221
-0.149727
-0.116164
-0.081639
-0.035696
0.019473
0.064007
0.103354
0.131767
0.132867
0.127746
0.102863
0.058546
0.017081
-0.018839
-0.061911
-0.105141
-0.151170
-0.180014
-0.189532
-0.180413
-0.157132
-0.132077
-0.081050
-0.035821
0.007654
0.050338
0.082522
0.120291
0.125554
0.119168
0.094901
0.058606
0.022661
-0.024562
-0.071019
-0.119365
-0.158011
-0.176824
-0.190279
-0.177047
-0.165209
-0.133033
-0.099384
-0.041611
0.012847
0.059159
0.088627
0.111152
0.118787
0.115613
0.094651
0.060756
0.013578
-0.037051
-0.079557
-0.123450
-0.147581
-0.171015
-0.182233
-0.178336
-0.163436
-0.128252
-0.089488
-0.056095
-0.010226
0.067465
0.123503
0.136996
0.141705
0.142785
0.114622
0.088405
0.033576
-0.020988
-0.063555
-0.100727
-0.137638
-0.165393
-0.185725
-0.171741
-0.149659
-0.119409
-0.086702
-0.045875
0.011596
0.068710
0.114765
0.143791
0.140467
0.142920
0.117865
0.078305
0.028988
-0.008831
-0.052103
-0.089638
-0.134019
-0.173922
-0.177420
-0.168775
-0.142521
-0.107068
-0.078897
-0.035342
0.016040
0.060064
0.096198
0.119795
0.129043
0.117091
0.111531
0.093991
0.047077
-0.012002
-0.058691
-0.111477
-0.153337
-0.149961
-0.154090
-0.160331
-0.142111
-0.107140
-0.065876
-0.015138
0.022310
0.059260
0.101639
0.132785
0.132712
0.121837
0.104207
0.067492
0.032455
-0.011351
-0.060905
-0.109174
-0.138482
-0.160887
-0.178245
-0.150468
-0.134750
-0.103656
-0.064086
-0.009704
0.020326
0.054104
0.093250
0.112591
0.122503
0.122399
0.106860
0.081369
0.027660
-0.024743
-0.057693
-0.098320
-0.143549
-0.175395
-0.183342
-0.167084
-0.140946
-0.107588
-0.065622
-0.024980
0.024950
0.059671
0.092383
0.116378
0.132245
0.126924
0.098621
0.072837
0.030194
-0.026863
-0.084894
-0.123463
-0.163097
-0.187188
-0.189544
-0.186130
-0.156508
-0.132871
-0.069411
-0.006700
0.025521
0.049996
0.086140
0.102083
0.116346
0.123675
0.107586
0.073576
0.026351
-0.024270
-0.075454
-0.125329
-0.158959
-0.182717
-0.187257
-0.182664
-0.157397
-0.124800
-0.086926
-0.040409
0.008126
0.045924
0.076565
0.086083
0.123767
0.115568
0.078829
0.038832
-0.009647
-0.021396
-0.057456
-0.107965
-0.148262
-0.166274
-0.176383
-0.175027
-0.150416
-0.124739
-0.074762
-0.036014
0.008062
0.054767
0.086460
0.107569
0.123594
0.133535
0.122070
0.083630
0.025893
-0.031922
-0.078296
-0.125243
-0.168665
-0.176974
-0.189270
-0.202405
-0.180835
-0.137758
-0.086477
-0.018959
0.011642
0.050831
0.090267
0.117201
0.116660
0.122150
0.099406
0.060686
0.017503
-0.023990
-0.076033
-0.121788
-0.163837
-0.183242
-0.186068
-0.181189
-0.155672
-0.132337
-0.098580
-0.054175
0.001217
0.049407
0.099104
0.118621
0.129576
0.119733
0.096658
0.056000
0.019253
-0.015961
-0.071380
-0.120720
-0.147605
-0.175281
-0.162322
-0.161865
-0.150580
-0.118333
-0.070318
-0.024228
0.028895
0.070204
0.122212
0.147726
0.151744
0.159059
0.123037
0.089638
0.042173
0.001835
-0.050482
-0.089313
-0.129104
-0.153705
-0.166111
-0.158024
-0.126747
-0.085639
-0.046552
-0.008441
0.040468
0.091432
0.129894
0.159563
0.165673
0.151443
0.118958
0.082584
0.040837
-0.016436
-0.055382
-0.102279
-0.148573
-0.146333
-0.119485
-0.112905
-0.089876
-0.052742
-0.007081
0.044696
0.078906
0.125247
0.156125
0.181631
0.190376
0.193219
0.161922
0.119118
0.067108
0.008642
-0.039307
-0.079431
-0.127610
-0.148378
-0.159192
-0.155679
-0.141403
-0.119226
-0.076566
-0.009762
0.051053
0.094438
0.121998
0.127640
0.134116
0.144144
0.113693
0.075662
0.029258
-0.021584
-0.070677
-0.114142
-0.155607
-0.181996
-0.187747
-0.184829
-0.165236
-0.130585
-0.082803
-0.034747
0.007779
0.046464
0.080759
0.102783
0.110449
0.113205
0.088125
0.046215
-0.001634
-0.059085
-0.103166
-0.145034
-0.189419
-0.210327
-0.230705
-0.218595
-0.195705
-0.159490
-0.123196
-0.075604
-0.007644
0.037882
0.080251
0.103860
0.115494
0.112294
0.078759
0.033972
-0.008866
-0.053344
-0.109752
-0.159926
-0.190383
-0.215213
-0.230611
-0.220019
-0.193947
-0.154524
-0.109878
-0.070158
-0.019522
0.039954
0.075080
0.101042
0.100871
0.108878
0.073161
0.033382
-0.013585
-0.070102
-0.114389
-0.142521
-0.182070
-0.200211
-0.218382
-0.229472
-0.171713
-0.145571
-0.112429
-0.056173
0.004927
0.069429
0.101562
0.097750
0.090560
0.086732
0.069603
0.026630
-0.028456
-0.074443
-0.122340
-0.170986
-0.200721
-0.212705
-0.214579
-0.201541
-0.187189
-0.153690
-0.102270
-0.044150
0.006860
0.059923
0.116691
0.136393
0.144104
0.152287
0.137420
0.117890
0.095173
0.058549
0.023765
-0.008216
-0.035473
-0.029341
-0.001672
0.036210
0.079977
0.147822
0.211184
0.288129
0.387105
0.451025
0.518343
0.573365
0.613083
0.634537
0.653175
0.669987
0.654838
0.638035
0.617959
0.610120
0.586899
0.579803
0.571334
0.574213
0.601070
0.625362
0.661738
0.688739
0.705529
0.699553
0.681262
0.636309
0.578057
0.500812
0.445909
0.376903
0.288867
0.187717
0.080232
0.009536
-0.043713
-0.034847
-0.031895
-0.036918
-0.035426
-0.004117
0.039744
0.080945
0.114108
0.139178
0.156788
0.181764
0.177888
0.164585
0.147812
0.138053
0.102027
0.044654
-0.020988
-0.063479
-0.110443
-0.125797
-0.134255
-0.129373
-0.101526
-0.067312
-0.026791
0.013179
0.058047
0.093584
0.135454
0.160583
0.173422
0.140279
0.117147
0.069365
0.037647
-0.009317
-0.060771
-0.100622
-0.149508
-0.161407
-0.162114
-0.158773
-0.135463
-0.092125
-0.054931
-0.008135
0.034519
0.083579
0.114195
0.137513
0.137768
0.124727
0.103579
0.071974
0.040501
-0.016207
-0.065249
-0.106555
-0.133783
-0.151946
-0.160070
-0.153476
-0.113407
-0.077328
-0.038756
0.008455
0.054141
0.097273
0.125460
0.145525
0.150400
0.142553
0.123945
0.087171
0.046003
-0.004294
-0.043747
-0.091457
-0.119885
-0.145155
-0.143164
-0.135417
-0.115929
-0.077942
-0.036103
0.008403
0.065721
0.116243
0.146829
0.170923
0.167252
0.151486
0.160692
0.103708
0.061896
0.020726
-0.027969
-0.086907
-0.114835
-0.098402
-0.095059
-0.087230
-0.075646
-0.032928
0.010248
0.046644
0.097176
0.145947
0.185913
0.212363
0.225002
0.207898
0.183581
0.141945
0.105600
0.058237
0.018850
-0.030821
-0.060890
-0.073089
-0.079812
-0.067093
-0.051249
-0.026913
0.017131
0.073969
0.130037
0.179620
0.208728
0.219439
0.234383
0.229484
0.205468
0.178849
0.141305
0.090508
0.043247
0.004308
-0.039872
-0.057752
-0.054674
-0.048964
-0.027451
0.003995
0.049440
0.098212
0.147567
0.189451
0.218848
0.229444
0.244061
0.239797
0.223178
0.184882
0.143832
0.095370
0.054951
0.010220
-0.029379
-0.049886
-0.069192
-0.059027
-0.027576
0.008417
0.045164
0.092507
0.130985
0.193035
0.218752
0.239279
0.239378
0.230597
0.211638
0.181688
0.135471
0.079856
0.037884
-0.010241
-0.067421
-0.074541
-0.067480
-0.041980
-0.010827
0.014345
0.030781
0.064349
0.108100
0.156869
0.193330
0.201567
0.218028
0.212587
0.197460
0.161876
0.127267
0.076457
0.028659
-0.014589
-0.055858
-0.100914
-0.098496
-0.086643
-0.065556
-0.045957
-0.009725
0.036757
0.076267
0.119232
0.150204
0.190523
0.185980
0.166557
0.133210
0.105412
0.070056
0.031901
-0.031688
-0.084405
-0.118761
-0.138138
-0.147681
-0.143018
-0.132604
-0.077813
-0.039667
-0.003578
0.045964
0.076885
0.117793
0.132342
0.137269
0.153461
0.123014
0.086963
0.033645
-0.013173
-0.058908
-0.112661
-0.144470
-0.170822
-0.180739
-0.180902
-0.156385
-0.110388
-0.063104
-0.030269
0.004037
0.041155
0.078895
0.107614
0.137226
0.137214
0.112916
0.076099
0.040889
-0.009418
-0.063231
-0.117633
-0.148553
-0.176879
-0.192502
-0.174083
-0.157521
-0.136374
-0.074055
-0.020990
0.008253
0.054075
0.106881
0.128894
0.135605
0.125692
0.089995
0.061870
0.021397
-0.030294
-0.074166
-0.114924
-0.145081
-0.166921
-0.182816
-0.174621
-0.153270
-0.119327
-0.084502
-0.040155
0.009589
0.064750
0.106984
0.125593
0.144638
0.126907
0.104814
0.077340
0.034140
-0.007536
-0.059244
-0.116835
-0.144652
-0.166583
-0.185836
-0.180167
-0.154278
-0.090743
-0.059299
-0.024458
0.005432
0.048666
0.091520
0.121504
0.120173
0.109583
0.078617
0.070316
0.050398
-0.011002
-0.061345
-0.096696
-0.135856
-0.156954
-0.169587
-0.157276
-0.142943
-0.118798
-0.084313
-0.034795
0.025809
0.072090
0.115949
0.149961
0.161059
0.138343
0.111485
0.067852
0.026505
-0.015417
-0.063040
-0.117577
-0.146268
-0.165899
-0.168978
-0.161319
-0.148042
-0.113863
-0.074727
-0.029154
0.021060
0.069724
0.109266
0.135648
0.133517
0.121325
0.095369
0.055838
0.026802
-0.015325
-0.065253
-0.110484
-0.151375
-0.166912
-0.179379
-0.179146
-0.171007
-0.142543
-0.114165
-0.055216
0.016125
0.051271
0.086467
0.141565
0.150015
0.111189
0.098892
0.068923
0.041624
-0.011054
-0.066522
-0.122864
-0.156461
-0.167110
-0.172853
-0.173354
-0.160483
-0.126411
-0.084774
-0.032882
0.003217
0.058434
0.081056
0.112480
0.134929
0.123220
0.090686
0.061566
0.013725
-0.033189
-0.101940
-0.149452
-0.183617
-0.217371
-0.220762
-0.197753
-0.178465
-0.136919
-0.075316
-0.025712
0.022169
0.061572
0.114469
0.132282
0.107065
0.085389
0.076306
0.044201
-0.000483
-0.045478
-0.083217
-0.144038
-0.184459
-0.206674
-0.208745
-0.195970
-0.163469
-0.124600
-0.082908
-0.041020
-0.005133
0.044506
0.083143
0.118359
0.130253
0.110693
0.084787
0.049197
-0.004044
-0.045746
-0.090427
-0.133312
-0.176512
-0.204418
-0.207963
-0.193060
-0.174899
-0.144281
-0.109941
-0.078206
0.001387
0.043242
0.067881
0.083756
0.117657
0.116339
0.092867
0.050392
-0.001169
-0.029872
-0.091361
-0.143985
-0.168996
-0.191926
-0.212377
-0.188615
-0.160433
-0.131943
-0.092482
-0.050196
0.001431
0.049458
0.082419
0.103754
0.110336
0.089211
0.076979
0.035966
-0.002255
-0.054902
-0.109602
-0.165882
-0.183662
-0.197904
-0.214110
-0.211072
-0.186187
-0.133442
-0.090399
-0.044450
0.010892
0.062794
0.091617
0.106063
0.104914
0.090308
0.058432
0.026713
-0.012098
-0.052476
-0.098364
-0.144163
-0.185030
-0.202834
-0.211271
-0.200470
-0.168498
-0.136434
-0.088114
-0.044430
-0.000439
0.037740
0.063525
0.098660
0.109341
0.084883
0.056508
0.039527
-0.012724
-0.071436
-0.129008
-0.173485
-0.184744
-0.178480
-0.192708
-0.161862
-0.125984
-0.108161
-0.060094
-0.035890
0.007827
0.061731
0.105515
0.125455
0.136293
0.116207
0.087276
0.068148
0.020109
-0.032229
-0.081717
-0.122304
-0.140579
-0.166917
-0.177748
-0.151329
-0.125644
-0.092414
-0.049029
0.002967
0.042815
0.089861
0.111557
0.140072
0.133343
0.114716
0.093395
0.071442
0.024976
-0.029362
-0.061420
-0.110023
-0.149896
-0.159733
-0.168627
-0.155049
-0.125206
-0.098445
-0.048283
0.013645
0.052050
0.092324
0.124843
0.152381
0.151245
0.136406
0.117483
0.088886
0.052052
0.005822
-0.049209
-0.099367
-0.140418
-0.169848
-0.157717
-0.150892
-0.127033
-0.099332
-0.065429
-0.019077
0.024233
0.072385
0.100651
0.114980
0.126244
0.119688
0.087631
0.053422
0.001055
-0.043818
-0.093950
-0.140720
-0.166502
-0.185427
-0.213680
-0.220923
-0.177219
-0.133253
-0.089645
-0.050032
-0.012612
0.041677
0.074350
0.100716
0.106292
0.088502
0.053954
0.025542
-0.016367
-0.066146
-0.121264
-0.171173
-0.199898
-0.227058
-0.234812
-0.227828
-0.213152
-0.168397
-0.109399
-0.061877
-0.011716
0.027270
0.049193
0.062896
0.063977
0.085787
0.063888
0.017917
-0.026416
-0.079463
-0.123317
-0.175252
-0.198473
-0.208135
-0.220978
-0.217563
-0.183353
-0.159655
-0.121690
-0.070362
-0.020583
0.027791
0.055629
0.069621
0.083270
0.063771
0.044718
0.014973
-0.032713
-0.081544
-0.126802
-0.164002
-0.194595
-0.207055
-0.213434
-0.210014
-0.189534
-0.163023
-0.116557
-0.079720
-0.035686
0.020467
0.050275
0.067634
0.071166
0.060694
0.032100
0.008774
-0.031401
-0.067273
-0.098537
-0.151691
-0.200696
-0.210179
-0.217150
-0.226430
-0.206012
-0.162064
-0.126396
-0.078903
-0.038333
0.008629
0.039291
0.077832
0.090901
0.091436
0.066458
0.070171
0.058791
0.020966
-0.002018
-0.039314
-0.070102
-0.085503
-0.087785
-0.050770
0.000974
0.069385
0.122908
0.170547
0.252960
0.334706
0.396037
0.456094
0.488314
0.528692
0.528474
0.513427
0.497406
0.501560
0.507444
0.492804
0.495149
0.504765
0.526816
0.561930
0.589908
0.611432
0.645914
0.704604
0.743397
0.771703
0.767934
0.757889
0.724443
0.657717
0.566786
0.469696
0.367222
0.282300
0.191899
0.101719
0.020252
-0.014984
-0.041832
-0.050332
-0.042739
-0.019590
0.014378
0.054479
0.102116
0.140844
0.169185
0.180135
0.200149
0.184580
0.149307
0.114260
0.078734
0.028465
-0.031610
-0.079350
-0.116267
-0.140861
-0.148335
-0.135367
-0.118278
-0.087273
-0.061004
-0.021144
0.024871
0.073337
0.110588
0.139694
0.150990
0.136280
0.108219
0.075226
0.029978
-0.019438
-0.071907
-0.111203
-0.141461
-0.169157
-0.173157
-0.167919
-0.143746
-0.111697
-0.078364
-0.036322
0.018437
0.071548
0.095893
0.108075
0.118684
0.107079
0.088782
0.064083
0.019729
-0.033136
-0.075733
-0.115085
-0.147677
-0.170779
-0.160446
-0.123707
-0.117538
-0.112177
-0.082943
-0.035977
0.018122
0.051148
0.088889
0.119864
0.119414
0.123535
0.145928
0.120790
0.061100
0.004538
-0.053279
-0.096339
-0.128043
-0.147026
-0.157722
-0.156021
-0.126747
-0.086464
-0.045018
-0.006149
0.043268
0.090702
0.136911
0.156818
0.180666
0.174117
0.137965
0.094767
0.053196
0.003711
-0.036445
-0.073780
-0.104281
-0.132935
-0.128599
-0.099646
-0.086434
-0.067541
-0.029311
0.018457
0.081740
0.127192
0.156095
0.190235
0.188039
0.185488
0.169243
0.138236
0.100587
0.052076
0.007245
-0.034316
-0.076793
-0.101047
-0.103437
-0.099543
-0.070777
-0.020037
0.006320
0.042622
0.093245
0.151390
0.182615
0.220335
0.223443
0.199457
0.174735
0.151473
0.126836
0.082394
0.032371
-0.001368
0.002767
-0.049664
-0.063240
-0.066598
-0.042169
-0.009910
0.045791
0.097501
0.141320
0.183907
0.217933
0.239930
0.246426
0.241664
0.223939
0.188936
0.142243
0.095233
0.034445
0.006786
-0.029471
-0.056108
-0.060609
-0.059704
-0.035724
-0.007833
0.032587
0.089471
0.134613
0.175971
0.201443
0.241016
0.242784
0.241116
0.231087
0.187830
0.128956
0.069745
0.020324
-0.016931
-0.055997
-0.083545
-0.083891
-0.072998
-0.041504
-0.003556
0.031943
0.073199
0.126282
0.170087
0.192746
0.214111
0.223436
0.217048
0.188389
0.145510
0.109153
0.062894
0.000101
-0.040102
-0.084980
-0.122423
-0.117532
-0.109127
-0.084302
-0.041318
-0.001816
0.040316
0.082676
0.118457
0.162861
0.182728
0.180733
0.177010
0.145828
0.105656
0.056030
0.010287
-0.040306
-0.081949
-0.122167
-0.129862
-0.121604
-0.137332
-0.124033
-0.074490
-0.035627
0.002942
0.036609
0.086889
0.115210
0.137223
0.121762
0.107318
0.091449
0.073018
0.050561
0.006854
-0.053702
-0.108867
-0.145104
-0.170346
-0.175905
-0.149777
-0.139947
-0.115545
-0.074762
-0.025101
0.024290
0.070663
0.101872
0.121587
0.117441
0.121855
0.105818
0.064869
0.011622
-0.043440
-0.100363
-0.137360
-0.166736
-0.185154
-0.193072
-0.180789
-0.159372
-0.117915
-0.077432
-0.035955
0.005174
0.045344
0.086450
0.110906
0.118346
0.105595
0.077070
0.036099
-0.012567
-0.059313
-0.111733
-0.140995
-0.157456
-0.185710
-0.199590
-0.190028
-0.141158
-0.088102
-0.068997
-0.026506
0.028448
0.058183
0.095931
0.122664
0.132865
0.127311
0.097873
0.063660
0.003185
-0.045326
-0.087240
-0.128231
-0.162080
-0.184494
-0.186444
-0.165188
-0.144503
-0.119430
-0.081096
-0.016752
0.040466
0.061657
0.095108
0.108835
0.126626
0.120157
0.095025
0.054917
0.020577
-0.020374
-0.076405
-0.128558
-0.151851
-0.165706
-0.174321
-0.161419
-0.141132
-0.107159
-0.067150
-0.016776
0.035703
0.084121
0.104052
0.131047
0.137948
0.117125
0.090599
0.052977
0.009711
-0.033883
-0.082062
-0.130161
-0.151829
-0.154195
-0.170616
-0.179330
-0.153310
-0.106424
-0.064940
-0.021688
0.030624
0.069646
0.102796
0.123624
0.128571
0.114230
0.096437
0.059776
0.018852
-0.052601
-0.106567
-0.136380
-0.154539
-0.188132
-0.185023
-0.167056
-0.144410
-0.120356
-0.077025
-0.025168
0.029343
0.068193
0.097598
0.101997
0.113222
0.120819
0.096923
0.062748
0.007792
-0.052071
-0.091216
-0.125935
-0.161228
-0.196182
-0.202695
-0.197432
-0.132506
-0.114442
-0.076808
-0.018311
0.031861
0.087830
0.103783
0.117557
0.122911
0.119373
0.078525
0.048877
0.007613
-0.038112
-0.094676
-0.146330
-0.180994
-0.197524
-0.198707
-0.187158
-0.167327
-0.126635
-0.080855
-0.009681
0.039881
0.054917
0.084981
0.103316
0.100451
0.098437
0.079451
0.049240
0.006163
-0.052925
-0.111934
-0.147599
-0.173662
-0.192868
-0.190239
-0.182079
-0.154652
-0.125947
-0.091946
-0.046782
0.000794
0.045181
0.077233
0.103958
0.091805
0.067726
0.065655
0.036266
-0.006883
-0.049034
-0.109905
-0.142580
-0.170803
-0.199057
-0.198404
-0.187216
-0.164447
-0.132563
-0.105302
-0.052194
0.016076
0.049607
0.084510
0.107732
0.103736
0.092259
0.080208
0.038009
-0.014705
-0.066443
-0.121341
-0.173947
-0.193162
-0.202114
-0.210773
-0.190420
-0.155039
-0.118564
-0.085587
-0.034099
0.015478
0.051185
0.079940
0.093418
0.099089
0.087204
0.067185
0.030584
-0.014394
-0.058191
-0.113614
-0.149244
-0.171906
-0.180162
-0.178816
-0.163041
-0.154087
-0.122529
-0.082877
-0.033510
0.006762
0.050624
0.083444
0.098629
0.110219
0.091373
0.066644
0.030181
-0.006545
-0.048148
-0.081791
-0.133939
-0.181942
-0.202321
-0.196079
-0.188700
-0.166075
-0.120447
-0.068495
-0.015198
0.027773
0.069895
0.105425
0.129054
0.133381
0.121490
0.090704
0.054039
0.018851
-0.025167
-0.085879
-0.114492
-0.153766
-0.165177
-0.163750
-0.155031
-0.130351
-0.090861
-0.049521
-0.011710
0.029760
0.065455
0.102601
0.142949
0.135750
0.111999
0.092022
0.052985
0.008554
-0.042197
-0.073253
-0.092952
-0.122683
-0.154426
-0.159848
-0.133229
-0.110911
-0.073321
-0.035856
0.016932
0.074112
0.095019
0.100591
0.116771
0.145325
0.141167
0.119752
0.091503
0.041136
-0.014474
-0.063666
-0.103995
-0.119667
-0.154920
-0.160924
-0.160941
-0.127550
-0.098194
-0.063233
-0.015343
0.034157
0.065520
0.098256
0.098177
0.098433
0.094420
0.080664
0.043709
-0.005551
-0.050328
-0.100799
-0.151075
-0.183834
-0.204110
-0.204639
-0.186300
-0.151095
-0.125339
-0.095257
-0.052045
-0.005522
0.013772
0.066718
0.089297
0.088275
0.065902
0.039614
0.020705
-0.023115
-0.072512
-0.130484
-0.171664
-0.209202
-0.242640
-0.217154
-0.188103
-0.187278
-0.152415
-0.102013
-0.067019
-0.038847
-0.006829
0.040347
0.076465
0.083411
0.066499
0.039458
0.009613
-0.030885
-0.076454
-0.123913
-0.168540
-0.203732
-0.223045
-0.239202
-0.232665
-0.209130
-0.165724
-0.120065
-0.068475
-0.023786
0.008281
0.045511
0.055606
0.070878
0.067297
0.048849
0.004369
-0.046223
-0.092361
-0.133189
-0.160606
-0.200410
-0.220565
-0.227262
-0.211937
-0.193510
-0.163656
-0.124419
-0.088056
-0.046015
-0.003503
0.030388
0.054568
0.053778
0.043611
0.047861
0.051497
0.006600
-0.083470
-0.137142
-0.173554
-0.205633
-0.213398
-0.229804
-0.226963
-0.199289
-0.169934
-0.121495
-0.073712
-0.013355
0.029340
0.065591
0.105262
0.127133
0.134561
0.129968
0.107394
0.089970
0.045884
-0.004764
-0.013004
-0.040067
-0.033525
-0.007588
0.019024
0.062079
0.121568
0.191230
0.275281
0.344642
0.412990
0.478741
0.518965
0.556633
0.582338
0.598716
0.579034
0.568618
0.563439
0.564555
0.571668
0.576551
0.563258
0.538034
0.535024
0.558634
0.571157
0.609403
0.648360
0.648385
0.630296
0.596633
0.572238
0.519563
0.455030
0.386346
0.308576
0.224648
0.132975
0.055312
-0.008358
-0.059675
-0.087649
-0.110478
-0.108549
-0.092031
-0.056845
-0.027453
0.021709
0.061108
0.103240
0.141100
0.140784
0.149361
0.135566
0.119006
0.076265
0.033279
-0.015218
-0.051066
-0.095217
-0.141470
-0.154446
-0.152427
-0.145355
-0.126495
-0.078889
-0.053916
-0.012240
0.032649
0.069459
0.095284
0.103784
0.108922
0.102426
0.067560
0.053622
0.013122
-0.048020
-0.081839
-0.123377
-0.153183
-0.160492
-0.165434
-0.165996
-0.151678
-0.114181
-0.055238
-0.010636
0.013490
0.041398
0.083085
0.091332
0.089916
0.105990
0.097692
0.065278
0.033663
-0.012255
-0.071398
-0.114904
-0.128538
-0.147551
-0.167173
-0.155384
-0.131700
-0.108048
-0.060399
-0.013175
0.029311
0.067906
0.092835
0.112587
0.115402
0.108133
0.102050
0.073362
0.015536
-0.030939
-0.068407
-0.095423
-0.132521
-0.137489
-0.141139
-0.139003
-0.112354
-0.083452
-0.035427
0.015456
0.059311
0.089816
0.120319
0.143981
0.156153
0.152828
0.130845
0.100058
0.054394
-0.000825
-0.045107
-0.083073
-0.112450
-0.127658
-0.131138
-0.124564
-0.097518
-0.073362
-0.024042
0.027758
0.067281
0.107043
0.148592
0.174678
0.175706
0.157893
0.146650
0.124135
0.085457
0.036610
0.002166
-0.044371
-0.077749
-0.096591
-0.096021
-0.085330
-0.075164
-0.042316
0.005068
0.065875
0.103689
0.149263
0.181560
0.193038
0.201162
0.201846
0.183547
0.153684
0.122273
0.069501
0.027422
-0.008830
-0.046469
-0.069507
-0.072045
-0.052449
-0.023647
0.009099
0.049966
0.096168
0.134786
0.177622
0.209919
0.222181
0.224836
0.231159
0.203759
0.142492
0.138918
0.095469
0.040718
-0.012977
-0.040662
-0.054405
-0.060716
-0.055120
-0.029612
0.002310
0.041424
0.105054
0.150289
0.177425
0.215055
0.221973
0.225381
0.218418
0.205386
0.174243
0.116804
0.062678
0.029198
-0.026040
-0.065819
-0.088017
-0.081075
-0.060249
-0.032922
-0.006161
0.028366
0.068994
0.113775
0.146158
0.174825
0.195112
0.194151
0.193123
0.161511
0.115409
0.072463
0.022899
-0.015603
-0.056931
-0.076091
-0.100999
-0.111811
-0.105724
-0.092933
-0.054545
-0.015838
0.026305
0.071890
0.110358
0.139888
0.157894
0.164157
0.147761
0.128527
0.099112
0.053278
-0.004388
-0.050454
-0.096771
-0.117813
-0.148218
-0.144372
-0.140161
-0.118682
-0.085727
-0.050652
-0.014643
0.029137
0.072764
0.103283
0.120278
0.130966
0.118897
0.096450
0.052655
0.006609
-0.043892
-0.084133
-0.137990
-0.172931
-0.207747
-0.202094
-0.191042
-0.161447
-0.111243
-0.070178
-0.028248
0.010878
0.054543
0.079386
0.094787
0.094221
0.090437
0.070104
0.026966
-0.007587
-0.057533
-0.104777
-0.119380
-0.160408
-0.207111
-0.223935
-0.218605
-0.193579
-0.107993
-0.063956
-0.037356
0.013523
0.060357
0.085200
0.107525
0.105375
0.098832
0.079527
0.044419
-0.002423
-0.045184
-0.072795
-0.120134
-0.150995
-0.175594
-0.181824
-0.182451
-0.151443
-0.133098
-0.092517
-0.028161
0.017653
0.060569
0.092654
0.099832
0.090959
0.091472
0.074973
0.039536
0.005870
-0.032664
-0.074329
-0.113773
-0.155345
-0.171158
-0.189268
-0.189072
-0.160408
-0.127030
-0.082736
-0.037793
0.011361
0.053237
0.085404
0.109830
0.112973
0.100282
0.080261
0.051502
0.013169
-0.043941
-0.087480
-0.120556
-0.159957
-0.172108
-0.167048
-0.156534
-0.138799
-0.117469
-0.068334
-0.010983
0.018926
0.060204
0.091292
0.108235
0.108944
0.109619
0.091335
0.072546
0.023564
-0.023233
-0.079679
-0.110246
-0.141769
-0.163847
-0.169363
-0.164316
-0.145204
-0.116486
-0.077411
-0.023058
0.028434
0.056883
0.083295
0.095029
0.099709
0.077663
0.061723
0.042720
0.010403
-0.042384
-0.077148
-0.130096
-0.168419
-0.181352
-0.182792
-0.166213
-0.147066
-0.120902
-0.081148
-0.048093
0.000512
0.059428
0.093970
0.126337
0.123924
0.103573
0.071600
0.042480
0.016165
-0.027512
-0.074173
-0.111235
-0.146501
-0.171696
-0.185397
-0.170111
-0.153391
-0.128102
-0.091115
-0.035987
0.023737
0.064373
0.076567
0.101067
0.112239
0.112219
0.084593
0.047513
-0.006977
-0.047842
-0.084670
-0.131897
-0.165224
-0.182550
-0.192830
-0.189706
-0.168276
-0.137098
-0.088933
-0.041610
0.002753
0.049990
0.078548
0.090287
0.096117
0.089652
0.071506
0.041966
0.003469
-0.055912
-0.095256
-0.132799
-0.154020
-0.177849
-0.189452
-0.201834
-0.177638
-0.144191
-0.097547
-0.042603
0.004938
0.052152
0.075653
0.091462
0.087345
0.086211
0.076146
0.037069
-0.013375
-0.070122
-0.102953
-0.141733
-0.179528
-0.210028
-0.221771
-0.216612
-0.191839
-0.150437
-0.100054
-0.044336
0.011838
0.041704
0.066507
0.086472
0.084053
0.078907
0.061294
0.020371
-0.010748
-0.056472
-0.097839
-0.137715
-0.167949
-0.191924
-0.195616
-0.190355
-0.170569
-0.149528
-0.116817
-0.063337
-0.014992
0.023355
0.057377
0.083627
0.074266
0.067783
0.054677
0.022593
-0.023242
-0.072795
-0.125046
-0.146715
-0.172774
-0.199349
-0.199472
-0.198644
-0.182928
-0.143457
-0.096574
-0.037591
0.017764
0.053344
0.085031
0.107710
0.105339
0.097347
0.085672
0.067194
0.021942
-0.046683
-0.079259
-0.108410
-0.149239
-0.171552
-0.183258
-0.168850
-0.151445
-0.114002
-0.051677
0.000238
0.028819
0.074427
0.100380
0.119051
0.131720
0.122545
0.107427
0.077115
0.013261
-0.042668
-0.093038
-0.118819
-0.160098
-0.181752
-0.183513
-0.184292
-0.162026
-0.125454
-0.078706
-0.027175
0.031971
0.079956
0.118022
0.145545
0.163139
0.148846
0.116352
0.089155
0.051197
0.013641
-0.055232
-0.106036
-0.135431
-0.161777
-0.172024
-0.164992
-0.136328
-0.098143
-0.069812
-0.035470
0.019992
0.056695
0.071532
0.102439
0.109925
0.128200
0.097162
0.065809
0.009478
-0.058037
-0.101174
-0.130982
-0.150884
-0.181390
-0.185533
-0.177515
-0.158424
-0.130790
-0.094956
-0.046353
0.003186
0.043734
0.075559
0.096002
0.095461
0.087761
0.070271
0.036600
-0.017379
-0.074668
-0.123032
-0.173219
-0.198938
-0.231198
-0.230286
-0.208882
-0.194777
-0.166195
-0.133582
-0.067275
-0.024033
0.030363
0.048597
0.074265
0.072511
0.064179
0.030804
0.013289
-0.038618
-0.088378
-0.136331
-0.178769
-0.214293
-0.230527
-0.231714
-0.234425
-0.207963
-0.170428
-0.130591
-0.091523
-0.038045
0.001559
0.037800
0.059600
0.070173
0.046905
0.026978
0.000972
-0.035907
-0.104729
-0.141811
-0.185279
-0.208040
-0.245801
-0.259406
-0.237707
-0.229690
-0.194689
-0.146579
-0.082748
-0.015000
0.010064
0.020290
0.075169
0.102619
0.075811
0.037756
0.007934
-0.045033
-0.072214
-0.130012
-0.190529
-0.213378
-0.230813
-0.240099
-0.238531
-0.215580
-0.180247
-0.140949
-0.095684
-0.041603
0.007429
0.038854
0.056257
0.054376
0.039733
0.028491
-0.013063
-0.046378
-0.067030
-0.097805
-0.149869
-0.152872
-0.150995
-0.147027
-0.128138
-0.085471
-0.020669
0.037453
0.090594
0.153756
0.197253
0.252533
0.307284
0.338687
0.356452
0.356436
0.351444
0.340656
0.330479
0.309560
0.298072
0.285906
0.298063
0.340206
0.378071
0.447992
0.507548
0.602752
0.678170
0.739642
0.809570
0.816085
0.847559
0.864179
0.836534
0.787283
0.738323
0.656519
0.565874
0.460078
0.330926
0.228330
0.157359
0.120140
0.064102
0.057895
0.051676
0.056314
0.079477
0.119918
0.143835
0.146442
0.163853
0.167434
0.159613
0.123810
0.079562
0.032477
-0.024341
-0.058680
-0.107146
-0.136233
-0.167087
-0.183582
-0.165691
-0.128622
-0.087605
-0.038338
0.002589
0.036255
0.083432
0.104584
0.122897
0.129848
0.116022
0.098138
0.080187
0.016426
-0.061986
-0.112342
-0.129411
-0.149110
-0.194052
-0.198523
-0.183021
-0.159231
-0.137525
-0.098375
-0.033576
0.027553
0.067359
0.087978
0.116757
0.134586
0.113582
0.080913
0.039665
-0.019693
-0.067807
-0.111188
-0.152707
-0.179363
-0.197108
-0.205071
-0.188476
-0.162722
-0.113559
-0.056141
-0.015586
0.020583
0.061268
0.089629
0.123931
0.112034
0.095944
0.069674
0.051426
0.002226
-0.049761
-0.087640
-0.130059
-0.161970
-0.173546
-0.180786
-0.180737
-0.159912
-0.134801
-0.080897
-0.024392
0.033849
0.076387
0.094499
0.131821
0.148156
0.126902
0.104766
0.078170
0.029101
-0.015667
-0.060949
-0.099892
-0.124531
-0.141021
-0.143577
-0.138725
-0.116457
-0.071471
-0.028848
0.013093
0.055334
0.083418
0.127999
0.153975
0.150981
0.149194
0.130032
0.095599
0.054858
0.013264
-0.043560
-0.084016
-0.110469
-0.124733
-0.131615
-0.123825
-0.093216
-0.050475
0.007971
0.078615
0.104824
0.145872
0.192764
0.191281
0.203647
0.185520
0.158874
0.122087
0.077059
0.050618
0.013136
-0.046218
-0.067825
-0.070301
-0.100639
-0.094147
-0.066864
-0.033348
0.026171
0.078575
0.105412
0.165182
0.201238
0.204886
0.206804
0.190962
0.186640
0.133181
0.071654
0.010462
-0.002415
-0.037163
-0.080519
-0.085056
-0.100113
-0.076068
-0.071752
-0.030932
0.010319
0.057722
0.105375
0.143865
0.176423
0.192790
0.169266
0.176413
0.166493
0.144562
0.106795
0.047243
-0.000851
-0.073480
-0.076266
-0.089641
-0.114790
-0.095735
-0.066041
-0.026707
0.021125
0.059356
0.096845
0.130254
0.173075
0.169629
0.186371
0.177936
0.157232
0.122493
0.051766
-0.007059
-0.041284
-0.069313
-0.091478
-0.111908
-0.124735
-0.137692
-0.118552
-0.061756
-0.020911
0.015274
0.061851
0.101137
0.123927
0.139505
0.161582
0.136082
0.114963
0.064122
0.027084
-0.010680
-0.045578
-0.094252
-0.132279
-0.155185
-0.157690
-0.161426
-0.133138
-0.094638
-0.053680
-0.034795
0.001071
0.055625
0.087132
0.100829
0.111504
0.103903
0.075835
0.043495
-0.006389
-0.058816
-0.102256
-0.146282
-0.187743
-0.208393
-0.219974
-0.190661
-0.183019
-0.124393
-0.091555
-0.045858
-0.009453
0.030825
0.053765
0.062330
0.082880
0.086609
0.068379
0.030213
-0.031625
-0.065727
-0.094600
-0.175321
-0.218908
-0.216633
-0.214751
-0.214152
-0.186381
-0.145439
-0.093961
-0.050479
-0.004158
0.038260
0.068497
0.100618
0.097034
0.082753
0.051831
0.006450
-0.041410
-0.067414
-0.120839
-0.171494
-0.196584
-0.209434
-0.222787
-0.204111
-0.189404
-0.126306
-0.087574
-0.015524
0.016930
0.028836
0.063968
0.095207
0.118283
0.108701
0.061837
0.018745
-0.013133
-0.061555
-0.117755
-0.151936
-0.192124
-0.194499
-0.224769
-0.210339
-0.189834
-0.149143
-0.104622
-0.060281
-0.002310
0.037783
0.076129
0.075267
0.089416
0.092560
0.058325
0.009893
-0.022769
-0.048293
-0.107427
-0.138050
-0.174012
-0.198252
-0.204230
-0.190990
-0.160742
-0.119955
-0.072651
-0.030709
0.021902
0.042809
0.071511
0.092564
0.122129
0.106628
0.091907
0.048049
0.004458
-0.040944
-0.095453
-0.148979
-0.167024
-0.191036
-0.199660
-0.197530
-0.159980
-0.133350
-0.087555
-0.048148
0.006110
0.050792
0.089626
0.103479
0.091206
0.084186
0.068982
0.015815
-0.018784
-0.053048
-0.113057
-0.153039
-0.163996
-0.179318
-0.176743
-0.172250
-0.170961
-0.120340
-0.073738
-0.032093
0.023108
0.059178
0.074750
0.085864
0.083400
0.070037
0.062759
0.021492
-0.021977
-0.080925
-0.101470
-0.150270
-0.185402
-0.206949
-0.203298
-0.192948
-0.162450
-0.136923
-0.116939
-0.055418
0.016424
0.063061
0.104177
0.093465
0.085037
0.079725
0.052554
0.008694
-0.020499
-0.060375
-0.106332
-0.142008
-0.181584
-0.202381
-0.191500
-0.177016
-0.160467
-0.146562
-0.086653
-0.033878
-0.002199
0.047999
0.056055
0.085573
0.088383
0.083911
0.053051
0.019608
-0.029218
-0.062885
-0.112921
-0.142207
-0.175531
-0.210343
-0.209575
-0.188322
-0.166479
-0.140144
-0.086210
-0.038818
-0.002754
0.033661
0.063834
0.087888
0.090990
0.065417
0.079795
0.035006
-0.012060
-0.073925
-0.102339
-0.144368
-0.197736
-0.215445
-0.231477
-0.217925
-0.177016
-0.141865
-0.113264
-0.032834
0.041745
0.096401
0.137963
0.132328
0.133255
0.132229
0.114800
0.083864
0.042386
-0.037987
-0.092978
-0.124313
-0.144237
-0.176576
-0.188497
-0.190569
-0.158446
-0.111464
-0.076683
-0.030682
0.010099
0.049759
0.058936
0.083903
0.091524
0.138961
0.109012
0.055893
-0.010784
-0.046574
-0.081682
-0.131436
-0.131115
-0.159025
-0.161329
-0.149988
-0.133936
-0.081125
-0.062780
-0.023051
0.027281
0.065739
0.129102
0.157953
0.152102
0.136605
0.098349
0.045535
0.000308
-0.009534
-0.069749
-0.088039
-0.156848
-0.153973
-0.153068
-0.146427
-0.117623
-0.099727
-0.056926
-0.018380
0.024190
0.031497
0.060749
0.084115
0.080615
0.078857
0.053960
0.025316
-0.015254
-0.076297
-0.115907
-0.156455
-0.193249
-0.191475
-0.214134
-0.205092
-0.193192
-0.160318
-0.141636
-0.095526
-0.033154
0.007674
0.027852
0.067122
0.058478
0.059442
0.041656
0.002540
-0.018787
-0.074366
-0.142877
-0.167277
-0.206313
-0.228094
-0.234877
-0.229664
-0.199289
-0.169491
-0.137920
-0.100974
-0.041790
-0.013388
0.010114
0.035925
0.046860
0.040820
0.016787
-0.025535
-0.060026
-0.109319
-0.138930
-0.163034
-0.195194
-0.206286
-0.224503
-0.229253
-0.195952
-0.157962
-0.117556
-0.079344
-0.033507
-0.011761
0.019092
0.055419
0.059269
0.053440
0.017285
-0.033566
-0.064193
-0.117352
-0.158479
-0.196529
-0.216278
-0.263000
-0.251374
-0.234248
-0.214786
-0.167925
-0.126595
-0.080981
-0.047490
-0.003659
0.028454
0.033752
0.069179
0.040702
0.025585
-0.004366
-0.053382
-0.105781
-0.158906
-0.192985
-0.222984
-0.247848
-0.257433
-0.241850
-0.225456
-0.176872
-0.131363
-0.070787
-0.012593
0.051005
0.093632
0.150916
0.163510
0.167270
0.158774
0.134403
0.110884
0.071048
0.045970
0.038531
0.013726
0.019485
0.034514
0.060085
0.106702
0.187731
0.241177
0.319727
0.383132
0.469935
0.527560
0.580199
0.614794
0.627237
0.661487
0.641367
0.639543
0.655154
0.679232
0.624388
0.612129
0.573014
0.558462
0.538386
0.520831
0.554932
0.573808
0.598738
0.609421
0.581629
0.542732
0.513904
0.484034
0.425666
0.362365
0.289458
0.195037
0.100979
0.035677
-0.015167
-0.037147
-0.107793
-0.151870
-0.132377
-0.121623
-0.084377
-0.023733
0.012714
0.057647
0.090154
0.116455
0.157282
0.163229
0.171612
0.141125
0.101778
0.044573
0.002652
-0.055019
-0.092404
-0.135257
-0.179910
-0.189965
-0.194082
-0.173527
-0.128172
-0.090475
-0.061952
-0.009092
0.045392
0.063658
0.092200
0.097075
0.072630
0.050813
0.016252
-0.023840
-0.057917
-0.109092
-0.144485
-0.150035
-0.168978
-0.183950
-0.163916
-0.155765
-0.108172
-0.089126
-0.039025
-0.000293
0.046567
0.066374
0.080946
0.100020
0.085084
0.060194
0.028486
-0.006982
-0.043233
-0.106374
-0.133131
-0.171332
-0.186080
-0.207685
-0.190614
-0.177470
-0.163773
-0.093737
-0.054968
-0.000970
0.036574
0.066352
0.095660
0.123609
0.116185
0.089623
0.051444
0.016089
-0.034552
-0.064636
-0.117525
-0.140579
-0.146244
-0.151849
-0.141419
-0.135666
-0.107955
-0.070023
-0.026034
0.031242
0.076715
0.089869
0.119417
0.132617
0.122253
0.121980
0.081054
0.030481
-0.003309
-0.065402
-0.112671
-0.132124
-0.169566
-0.156227
-0.145308
-0.125399
-0.080824
-0.027181
0.003583
0.058943
0.131847
0.164458
0.189215
0.173473
0.150721
0.130536
0.062717
0.010514
-0.016404
-0.025779
-0.060395
-0.116876
-0.128458
-0.123252
-0.120450
-0.097737
-0.062693
-0.036603
0.011469
0.064269
0.124723
0.148799
0.161778
0.177172
0.198371
0.153894
0.133676
0.084825
0.047642
0.001460
-0.047586
-0.088180
-0.121650
-0.124770
-0.136873
-0.105457
-0.081702
-0.028355
0.019985
0.069419
0.113764
0.128765
0.166469
0.171899
0.167819
0.134153
0.094910
0.047861
0.002089
-0.038883
-0.092493
-0.131307
-0.154504
-0.148282
-0.144295
-0.106859
-0.065368
-0.026909
0.010302
0.029324
0.071169
0.102691
0.116313
0.129081
0.131763
0.119824
0.103035
0.055926
0.000997
-0.059703
-0.096888
-0.134732
-0.151442
-0.171240
-0.175045
-0.168462
-0.113549
-0.050444
-0.013710
0.041224
0.086940
0.105888
0.125787
0.132500
0.125981
0.104643
0.069878
0.062571
0.018077
-0.032874
-0.101557
-0.151238
-0.158693
-0.160940
-0.149395
-0.124491
-0.111146
-0.079295
-0.019756
0.010529
0.056546
0.100294
0.100913
0.110792
0.105527
0.071849
0.035685
-0.009773
-0.052874
-0.085324
-0.142962
-0.180986
-0.205197
-0.213480
-0.206580
-0.174390
-0.140851
-0.102482
-0.054005
-0.011088
0.018768
0.054726
0.080772
0.088642
0.082620
0.054054
0.031821
0.020014
-0.030376
-0.076841
-0.130889
-0.164996
-0.193573
-0.203907
-0.207125
-0.174171
-0.130912
-0.098218
-0.062837
-0.019889
0.011703
0.041255
0.056023
0.071065
0.060159
0.025070
0.009056
-0.008247
-0.067331
-0.111496
-0.137219
-0.173331
-0.189174
-0.201339
-0.212224
-0.199051
-0.173194
-0.119904
-0.070251
-0.015920
0.024235
0.074627
0.088322
0.086961
0.091607
0.054003
0.041214
-0.019507
-0.075192
-0.128954
-0.151146
-0.171429
-0.209518
-0.202240
-0.193276
-0.205925
-0.179156
-0.125379
-0.068721
-0.031275
0.034932
0.091027
0.101443
0.119523
0.108426
0.089031
0.050161
-0.014001
-0.051681
-0.082047
-0.139416
-0.174213
-0.209492
-0.196528
-0.201874
-0.167914
-0.131862
-0.105988
-0.073985
-0.021675
0.015369
0.040356
0.070878
0.092927
0.078607
0.048387
0.031622
0.003987
-0.036380
-0.068380
-0.107821
-0.133045
-0.148459
-0.181059
-0.178835
-0.158682
-0.122306
-0.090754
-0.054308
-0.012735
0.027697
0.052314
0.079070
0.088415
0.092803
0.085294
0.039246
0.004275
-0.050390
-0.081168
-0.127277
-0.138873
-0.170567
-0.193415
-0.160688
-0.145458
-0.107258
-0.080289
-0.030237
0.017734
0.094915
0.127056
0.117632
0.083980
0.052877
0.048251
-0.002588
-0.035044
-0.066184
-0.091440
-0.135650
-0.175139
-0.162618
-0.176697
-0.200634
-0.153752
-0.119067
-0.094981
-0.039363
-0.010773
0.031279
0.072244
0.091362
0.096500
0.092794
0.065851
0.014653
-0.019235
-0.045471
-0.106385
-0.128952
-0.177133
-0.155709
-0.190869
-0.181395
-0.145084
-0.120978
-0.110133
-0.050403
0.010561
0.025733
0.040304
0.039465
0.076958
0.085052
0.054588
0.035380
0.003574
-0.046651
-0.070688
-0.124703
-0.163935
-0.199728
-0.190010
-0.182473
-0.160083
-0.134021
-0.081732
-0.043770
0.010795
0.041661
0.088077
0.111400
0.119142
0.112812
0.075937
0.038717
-0.019736
-0.030991
-0.088908
-0.143312
-0.181393
-0.207999
-0.200684
-0.202428
-0.197067
-0.147502
-0.085290
-0.048221
-0.011331
0.057940
0.074017
0.076644
0.088855
0.104012
0.083594
0.062555
-0.004817
-0.042152
-0.078669
-0.108839
-0.134362
-0.162251
-0.176329
-0.165812
-0.131966
-0.109005
-0.077179
-0.025431
0.022701
0.084785
0.112125
0.116223
0.118066
0.130295
0.103722
0.055597
0.010909
-0.053927
-0.073026
-0.115488
-0.159326
-0.187649
-0.167467
-0.161801
-0.130631
-0.073430
-0.028468
0.025822
0.067245
0.099302
0.124021
0.139264
0.156558
0.142424
0.116515
0.085178
0.049271
0.003022
-0.031530
-0.077065
-0.126503
-0.134926
-0.163414
-0.164272
-0.152683
-0.116943
-0.078653
-0.047637
-0.012115
0.025090
0.053177
0.088193
0.101159
0.087114
0.053232
0.003304
-0.022650
-0.058519
-0.116364
-0.122719
-0.193840
-0.203600
-0.231268
-0.235501
-0.204975
-0.185465
-0.138229
-0.082568
-0.047573
-0.005288
0.025634
0.058322
0.063687
0.049580
0.021075
-0.011433
-0.035135
-0.078787
-0.091845
-0.150134
-0.195983
-0.216141
-0.224675
-0.228638
-0.195225
-0.195984
-0.151213
-0.105462
-0.049530
-0.001217
0.002229
0.029344
0.059082
0.037942
0.006078
-0.003823
-0.038024
-0.104744
-0.149736
-0.201128
-0.236056
-0.243575
-0.227597
-0.220128
-0.175836
-0.151639
-0.114659
-0.079639
-0.061426
-0.025153
-0.004936
0.018423
0.019936
0.013676
0.004205
-0.006745
-0.049845
-0.079906
-0.128877
-0.160747
-0.204119
-0.227213
-0.249617
-0.240701
-0.218401
-0.194466
-0.139431
-0.090009
-0.025249
0.000178
0.043125
0.045444
0.052743
0.039393
0.007069
-0.040268
-0.082624
-0.125627
-0.182516
-0.214161
-0.206869
-0.248868
-0.261637
-0.253058
-0.193629
-0.140378
-0.083244
-0.047081
0.005637
0.065087
0.104772
0.143288
0.165172
0.194730
0.164354
0.132665
0.114147
0.083659
0.075659
0.059674
0.062035
0.062101
0.066092
0.085329
0.135092
0.193631
0.274048
0.364542
0.430431
0.493189
0.562791
0.610170
0.673659
0.682041
0.688779
0.689957
0.669712
0.639246
0.618849
0.602505
0.606806
0.558476
0.552345
0.541843
0.542346
0.561202
0.539675
0.542764
0.542251
0.525487
0.505872
0.472796
0.435360
0.372160
0.308708
0.222781
0.149221
0.066182
0.004789
-0.025175
-0.056470
-0.071160
-0.087214
-0.071277
-0.059474
-0.039217
0.007477
0.054575
0.085235
0.114434
0.135745
0.160190
0.157239
0.142504
0.115490
0.078554
0.036759
-0.039775
-0.108174
-0.117992
-0.126097
-0.157306
-0.178060
-0.157059
-0.144791
-0.114004
-0.074316
-0.025829
-0.001385
0.027452
0.065684
0.077190
0.103419
0.097265
0.065444
0.004179
-0.026252
-0.064968
-0.096522
-0.149378
-0.177953
-0.195622
-0.213758
-0.199511
-0.171106
-0.131866
-0.095642
-0.050899
-0.022333
0.003417
0.052051
0.079037
0.096190
0.074930
0.045329
0.007441
-0.038294
-0.076219
-0.101165
-0.144157
-0.162916
-0.181226
-0.176853
-0.198101
-0.161675
-0.136418
-0.068957
-0.058968
-0.025383
0.015972
0.042255
0.086394
0.107273
0.097117
0.062812
0.025197
-0.021913
-0.067181
-0.099129
-0.125494
-0.155365
-0.176103
-0.199007
-0.186745
-0.161073
-0.136586
-0.092612
-0.041402
0.003352
0.040585
0.090875
0.107984
0.106102
0.114460
0.075290
0.057941
0.017185
-0.022343
-0.079140
-0.112626
-0.137099
-0.179231
-0.178596
-0.182015
-0.150037
-0.111191
-0.069645
-0.036358
0.000568
0.043027
0.101177
0.132316
0.132225
0.126805
0.108027
0.079546
0.047261
-0.005690
-0.050096
-0.101625
-0.135339
-0.148579
-0.162158
-0.142100
-0.127401
-0.115788
-0.069885
-0.003592
0.044247
0.073093
0.103754
0.114668
0.126546
0.126880
0.102341
0.079780
0.025050
-0.020795
-0.066013
-0.089495
-0.124518
-0.143597
-0.169545
-0.176945
-0.156387
-0.124283
-0.097803
-0.035450
0.027939
0.062537
0.108130
0.123456
0.135110
0.115487
0.091776
0.057683
0.010563
-0.043618
-0.080217
-0.121183
-0.152027
-0.161456
-0.185329
-0.166854
-0.151273
-0.142661
-0.091400
-0.036513
-0.003111
0.040671
0.102817
0.111256
0.097512
0.115017
0.081845
0.042410
0.000375
-0.046321
-0.098380
-0.129198
-0.182090
-0.206261
-0.187032
-0.175544
-0.171773
-0.132189
-0.078142
-0.034748
0.003026
0.037528
0.067561
0.090021
0.102990
0.088412
0.050496
0.034539
-0.025264
-0.070627
-0.119172
-0.142967
-0.179617
-0.185333
-0.197240
-0.194776
-0.171780
-0.143123
-0.096719
-0.064298
-0.014998
0.018284
0.037060
0.074248
0.071602
0.078029
0.071479
0.019452
-0.019480
-0.048764
-0.088895
-0.134683
-0.170510
-0.192107
-0.199128
-0.191120
-0.175566
-0.155705
-0.113381
-0.073447
-0.015633
0.031242
0.075723
0.095157
0.102975
0.083942
0.049951
0.026363
-0.031067
-0.087900
-0.146292
-0.178563
-0.184066
-0.210642
-0.224558
-0.210444
-0.183757
-0.153282
-0.134047
-0.081106
-0.029421
0.023125
0.056953
0.078321
0.093133
0.075177
0.048289
0.025175
-0.020547
-0.050860
-0.104312
-0.138177
-0.156998
-0.188206
-0.195604
-0.201939
-0.187752
-0.135906
-0.097525
-0.054850
-0.019806
0.031522
0.073993
0.081592
0.085562
0.075349
0.064027
0.029662
-0.024114
-0.061286
-0.115466
-0.154043
-0.185514
-0.186139
-0.200888
-0.200795
-0.180726
-0.150980
-0.108562
-0.059779
-0.025001
0.014801
0.063402
0.103720
0.113824
0.102252
0.074572
0.042746
-0.019994
-0.055709
-0.097589
-0.132850
-0.169199
-0.200471
-0.197359
-0.185455
-0.170023
-0.127650
-0.079497
-0.042812
-0.010290
0.026712
0.069379
0.072051
0.087268
0.081511
0.063619
0.022868
-0.012838
-0.036474
-0.089081
-0.133736
-0.161685
-0.170248
-0.176460
-0.155029
-0.144903
-0.126362
-0.071930
-0.055209
0.011778
0.054919
0.081300
0.103450
0.115238
0.089867
0.059772
0.043395
0.005260
-0.050433
-0.090787
-0.129013
-0.173392
-0.193632
-0.200044
-0.173536
-0.150952
-0.145421
-0.091492
-0.045576
0.009079
0.061915
0.070159
0.087687
0.105095
0.086361
0.072754
0.023896
-0.003289
-0.065661
-0.103145
-0.140916
-0.177187
-0.203923
-0.190614
-0.177194
-0.154772
-0.140108
-0.092434
-0.077214
-0.015294
0.031272
0.075504
0.114726
0.121441
0.079558
0.059903
0.018677
-0.033860
-0.076832
-0.112095
-0.137904
-0.167856
-0.197447
-0.203406
-0.186652
-0.164989
-0.142099
-0.095367
-0.056835
-0.010362
0.017293
0.035291
0.071917
0.085278
0.097992
0.071735
0.046964
-0.012244
-0.059637
-0.103383
-0.128857
-0.171983
-0.197810
-0.206658
-0.193771
-0.174445
-0.163475
-0.116234
-0.077165
-0.020115
0.013126
0.053264
0.059708
0.076954
0.069298
0.054365
0.019394
-0.024122
-0.077874
-0.110080
-0.147682
-0.175437
-0.197507
-0.200445
-0.197998
-0.177591
-0.141812
-0.114740
-0.072144
-0.022613
0.018175
0.040898
0.062459
0.095568
0.057028
0.051962
0.012766
-0.015482
-0.062959
-0.101474
-0.151901
-0.187653
-0.217235
-0.219051
-0.198064
-0.170482
-0.119072
-0.100747
-0.060621
-0.014829
0.027345
0.061008
0.083765
0.085005
0.082124
0.062492
0.046415
-0.019401
-0.046460
-0.081325
-0.131146
-0.152716
-0.164324
-0.164358
-0.151785
-0.147732
-0.106408
-0.070041
-0.018600
0.017583
0.049303
0.072055
0.104484
0.130812
0.121613
0.080844
0.030771
0.000350
-0.024788
-0.060329
-0.113945
-0.140582
-0.174006
-0.168785
-0.149436
-0.135956
-0.112131
-0.063235
-0.031196
0.028689
0.074771
0.093871
0.116114
0.128338
0.130903
0.103762
0.072792
0.054147
-0.004006
-0.058782
-0.101298
-0.126571
-0.152896
-0.161352
-0.149778
-0.137398
-0.110540
-0.083168
-0.024514
0.021137
0.064940
0.088196
0.122807
0.129792
0.111399
0.068298
0.026773
-0.013259
-0.078275
-0.126211
-0.166174
-0.183487
-0.210876
-0.200928
-0.201940
-0.168940
-0.143335
-0.102985
-0.057940
-0.009367
0.026181
0.039737
0.048318
0.062133
0.056610
0.029716
-0.004049
-0.058396
-0.106489
-0.134652
-0.176896
-0.199999
-0.219833
-0.230402
-0.235077
-0.209107
-0.176295
-0.143682
-0.101549
-0.052416
-0.013134
0.009858
0.028430
0.039668
0.027651
0.020903
-0.005302
-0.038593
-0.092744
-0.145563
-0.190677
-0.215403
-0.231209
-0.235537
-0.215514
-0.205667
-0.191090
-0.154220
-0.113432
-0.060126
-0.022118
0.008806
0.036530
0.036872
0.026432
0.014413
-0.012177
-0.048809
-0.098947
-0.152128
-0.195479
-0.234205
-0.241247
-0.251664
-0.234878
-0.193377
-0.144985
-0.107949
-0.082396
-0.048966
-0.015840
0.018321
0.048953
0.041244
0.029082
0.013187
-0.019589
-0.045999
-0.091408
-0.137781
-0.201753
-0.227048
-0.236706
-0.240054
-0.230477
-0.210345
-0.182540
-0.131875
-0.102870
-0.067643
-0.020759
0.034844
0.056063
0.066669
0.089103
0.057307
0.036460
0.015565
-0.000013
-0.032001
-0.070977
-0.086697
-0.083540
-0.100994
-0.089178
-0.056959
-0.010603
0.045712
0.102491
0.181271
0.233434
0.289922
0.344734
0.366111
0.386600
0.378221
0.408425
0.410371
0.399660
0.390275
0.375808
0.381802
0.391656
0.411623
0.460362
0.513597
0.574914
0.655568
0.717370
0.743036
0.781185
0.798782
0.798766
0.796992
0.778482
0.715240
0.650469
0.531132
0.417676
0.316037
0.233430
0.146584
0.080239
0.030381
-0.011410
-0.021138
-0.003603
0.020506
0.072798
0.119917
0.138490
0.166148
0.178291
0.178691
0.177479
0.145959
0.120588
0.081206
0.013073
-0.021172
-0.071207
-0.104203
-0.143561
-0.149753
-0.144756
-0.127950
-0.099718
-0.060520
-0.024129
0.008412
0.047697
0.079081
0.104022
0.108343
0.111399
0.081025
0.038250
0.002787
-0.055658
-0.100081
-0.149868
-0.170913
-0.170311
-0.179181
-0.175554
-0.181394
-0.147738
-0.107400
-0.042850
-0.013621
0.018043
0.058603
0.085983
0.094520
0.108497
0.083533
0.045269
0.007733
-0.035953
-0.083929
-0.129960
-0.177582
-0.199103
-0.184168
-0.189176
-0.176632
-0.130855
-0.098934
-0.051702
-0.006442
0.032016
0.069518
0.090002
0.096283
0.083957
0.081995
0.038204
0.000254
-0.040328
-0.092940
-0.126119
-0.172662
-0.164654
-0.169825
-0.191126
-0.165540
-0.123655
-0.083423
-0.060386
-0.013922
0.019246
0.058808
0.093099
0.124974
0.111681
0.100440
0.051582
0.016075
-0.031468
-0.065554
-0.113826
-0.138945
-0.158723
-0.157782
-0.161081
-0.146415
-0.106637
-0.066618
-0.019766
0.009746
0.052723
0.100587
0.126219
0.124441
0.130311
0.107524
0.073781
0.052784
-0.012559
-0.045303
-0.092621
-0.142481
-0.155348
-0.159312
-0.158720
-0.130145
-0.092095
-0.056045
-0.007503
0.053209
0.102785
0.127274
0.135284
0.139820
0.149569
0.128037
0.089605
0.047732
0.008148
-0.037773
-0.079675
-0.106062
-0.127465
-0.133348
-0.124893
-0.106117
-0.070171
-0.040091
0.004720
0.038335
0.074765
0.107357
0.134949
0.135983
0.134923
0.118631
0.087923
0.052933
-0.005049
-0.052402
-0.087119
-0.117616
-0.152738
-0.149412
-0.134103
-0.128091
-0.105359
-0.064165
-0.019163
0.033901
0.090534
0.118080
0.130819
0.132558
0.120264
0.112739
0.071178
0.018060
-0.014923
-0.067449
-0.116262
-0.151698
-0.146364
-0.152290
-0.147554
-0.140663
-0.118643
-0.075887
-0.020951
0.020442
0.060299
0.079166
0.123185
0.125233
0.112980
0.093988
0.043601
0.026004
-0.015460
-0.078392
-0.124519
-0.150090
-0.169168
-0.172441
-0.164398
-0.150330
-0.118126
-0.074735
-0.030497
0.001013
0.036283
0.066670
0.098295
0.102476
0.084988
0.065905
0.038805
0.005156
-0.049024
-0.093896
-0.113619
-0.154509
-0.173626
-0.183464
-0.173928
-0.150805
-0.135988
-0.104283
-0.062867
0.001979
0.059431
0.077195
0.080690
0.079874
0.067718
0.063819
0.019713
-0.021682
-0.051585
-0.086202
-0.126848
-0.165187
-0.189237
-0.206032
-0.204350
-0.177274
-0.140319
-0.098048
-0.049449
-0.003161
0.023192
0.052594
0.071676
0.076866
0.075858
0.047561
0.026719
-0.011158
-0.061293
-0.100538
-0.146409
-0.166245
-0.200497
-0.196670
-0.198549
-0.185100
-0.166805
-0.095425
-0.057633
0.016345
0.059385
0.088172
0.103110
0.087676
0.084918
0.062986
0.036429
-0.010662
-0.044103
-0.099336
-0.136022
-0.153358
-0.186211
-0.183173
-0.195395
-0.187266
-0.133362
-0.096122
-0.053881
-0.005161
0.032077
0.062534
0.093628
0.094604
0.083341
0.066730
0.025212
-0.022957
-0.057971
-0.097859
-0.123844
-0.154325
-0.166271
-0.176221
-0.188638
-0.173677
-0.136753
-0.087657
-0.046092
-0.000376
0.038535
0.082317
0.105665
0.099325
0.099257
0.084466
0.048294
0.006509
-0.040737
-0.105610
-0.137421
-0.175597
-0.195460
-0.187577
-0.178747
-0.155610
-0.118170
-0.078797
-0.031887
0.025844
0.059155
0.084110
0.090430
0.092191
0.105283
0.088034
0.063219
-0.000364
-0.051344
-0.086187
-0.130555
-0.160175
-0.175985
-0.193476
-0.185752
-0.164704
-0.139526
-0.097129
-0.058998
0.005381
0.050427
0.073726
0.098771
0.097056
0.087988
0.069476
0.032249
-0.012807
-0.044016
-0.095108
-0.138821
-0.173086
-0.187611
-0.187635
-0.166945
-0.142746
-0.130242
-0.099606
-0.056234
-0.000357
0.025590
0.042883
0.064135
0.081481
0.095426
0.086503
0.047087
-0.011929
-0.050929
-0.097429
-0.141987
-0.168548
-0.183718
-0.180811
-0.162689
-0.158066
-0.129939
-0.089765
-0.056665
-0.015217
0.029898
0.080034
0.098169
0.096252
0.096706
0.072126
0.027457
-0.027855
-0.073742
-0.121548
-0.165485
-0.194247
-0.214723
-0.207285
-0.194977
-0.180393
-0.142029
-0.099405
-0.053680
-0.004648
0.040850
0.076536
0.087901
0.092590
0.078737
0.057527
0.023911
-0.018320
-0.058191
-0.103975
-0.155966
-0.186907
-0.197414
-0.206736
-0.198138
-0.165450
-0.141457
-0.091658
-0.060195
-0.023858
0.011694
0.048951
0.053425
0.051181
0.048424
0.028477
0.007456
-0.018792
-0.067464
-0.119398
-0.158617
-0.189652
-0.206136
-0.212070
-0.208312
-0.192729
-0.163043
-0.118047
-0.072653
-0.020281
0.024992
0.056225
0.076151
0.088015
0.062304
0.030724
0.006447
-0.009762
-0.057065
-0.113095
-0.155335
-0.180142
-0.191989
-0.195662
-0.185581
-0.169989
-0.148466
-0.118695
-0.082116
-0.036425
0.005403
0.045290
0.049970
0.054303
0.039318
0.033128
0.018705
-0.039949
-0.085822
-0.124786
-0.155417
-0.182961
-0.211218
-0.213946
-0.205172
-0.189106
-0.155550
-0.108844
-0.061182
-0.020504
0.014057
0.058878
0.066815
0.058941
0.051070
0.017255
-0.022847
-0.029314
-0.066122
-0.107427
-0.137309
-0.170047
-0.191718
-0.192860
-0.184614
-0.174100
-0.146000
-0.110189
-0.078481
-0.033960
0.009278
0.037903
0.043418
0.045489
0.048363
0.033260
0.003095
-0.030123
-0.087223
-0.135463
-0.174774
-0.190321
-0.201906
-0.199511
-0.189481
-0.169325
-0.150791
-0.110236
-0.064259
-0.018841
0.027672
0.052264
0.066050
0.056450
0.061936
0.040059
0.013439
-0.027585
-0.071220
-0.114393
-0.160391
-0.182852
-0.197847
-0.206143
-0.197369
-0.184527
-0.162424
-0.116757
-0.073867
-0.020302
0.017309
0.048892
0.065658
0.057377
0.060927
0.041596
0.013970
-0.029329
-0.068803
-0.113517
-0.158793
-0.185367
-0.195249
-0.204351
-0.204896
-0.185555
-0.163401
-0.114961
-0.065521
-0.026146
0.015051
0.045465
0.063461
0.075882
0.072069
0.032707
0.007423
-0.023978
-0.067652
-0.111943
-0.147201
-0.188883
-0.210159
-0.218736
-0.210465
-0.186482
-0.142766
-0.112109
-0.071424
-0.048202
-0.002312
0.026700
0.069559
0.069720
0.080822
0.055244
0.022002
-0.040410
-0.076031
-0.108653
-0.137502
-0.166017
-0.202442
-0.220432
-0.196957
-0.184568
-0.158251
-0.116193
-0.071817
-0.022533
0.020196
0.050227
0.074379
0.080678
0.074152
0.045484
0.023971
-0.009764
-0.059398
-0.106750
-0.150002
-0.181251
-0.209841
-0.217162
-0.210032
-0.192422
-0.160154
-0.125936
-0.066536
-0.020913
0.011060
0.051037
0.066782
0.080133
0.085274
0.065153
0.030869
-0.016082
-0.052483
-0.093843
-0.142987
-0.171025
-0.194765
-0.211271
-0.202972
-0.188339
-0.167422
-0.116801
-0.068217
-0.023895
0.007731
0.033597
0.058069
0.074136
0.071631
0.047016
0.021042
-0.017308
-0.054599
-0.100624
-0.149869
-0.188994
-0.209691
-0.218732
-0.218117
-0.213092
-0.174462
-0.126504
-0.078982
-0.015911
0.035257
0.066655
0.078703
0.074921
0.073803
0.054086
0.017509
-0.005565
-0.042283
-0.079862
-0.125405
-0.161842
-0.185501
-0.200067
-0.167707
-0.146476
-0.120048
-0.077804
-0.037480
0.011146
0.046908
0.089255
0.111427
0.133246
0.119634
0.098581
0.064757
0.017648
-0.022750
-0.074534
-0.114475
-0.152349
-0.174727
-0.189708
-0.179202
-0.165465
-0.120590
-0.091796
-0.035674
0.025040
0.075099
0.104198
0.127375
0.148508
0.142221
0.117824
0.082219
0.043633
0.009990
-0.036937
-0.076686
-0.112795
-0.132713
-0.144277
-0.152031
-0.120445
-0.090000
-0.058554
-0.017763
0.013779
0.041070
0.076343
0.090118
0.106453
0.105916
0.065802
0.050087
0.005305
-0.037499
-0.086586
-0.119554
-0.155940
-0.186902
-0.203276
-0.207779
-0.186378
-0.145829
-0.112432
-0.060646
-0.006435
0.043268
0.075503
0.080076
0.095696
0.080847
0.054913
0.027963
-0.009575
-0.070044
-0.107908
-0.155139
-0.191143
-0.228361
-0.236908
-0.225300
-0.193286
-0.176800
-0.147980
-0.086350
-0.029158
0.008826
0.025410
0.070817
0.069607
0.061914
0.036886
0.005846
-0.021940
-0.059687
-0.103901
-0.152889
-0.195012
-0.203223
-0.221969
-0.221955
-0.211791
-0.164110
-0.123237
-0.081210
-0.025993
0.007220
0.031092
0.054456
0.064285
0.063775
0.048266
0.009124
-0.025785
-0.073428
-0.117995
-0.159199
-0.197675
-0.209063
-0.224551
-0.202050
-0.171967
-0.149957
-0.114363
-0.078241
-0.044338
-0.004982
0.038828
0.064072
0.073478
0.063861
0.050195
0.012954
-0.029650
-0.071777
-0.109801
-0.149031
-0.200467
-0.208742
-0.225843
-0.226924
-0.216874
-0.170503
-0.122807
-0.067183
-0.040119
-0.009612
0.014534
0.035889
0.056144
0.057140
0.055555
0.022368
-0.016450
-0.058002
-0.091286
-0.131512
-0.154545
-0.149057
-0.141301
-0.125746
-0.079033
-0.032541
0.019582
0.078378
0.138217
0.199785
0.252951
0.296764
0.332236
0.354097
0.357607
0.360129
0.368111
0.355083
0.336231
0.330834
0.337117
0.359815
0.386267
0.422170
0.484896
0.570345
0.638539
0.703209
0.771933
0.877311
0.920864
0.939021
0.942752
0.925885
0.888756
0.823562
0.772304
0.692602
0.601592
0.482977
0.373897
0.293479
0.229477
0.171343
0.139474
0.127238
0.125666
0.138937
0.170431
0.196274
0.232687
0.239667
0.237385
0.223291
0.206818
0.152775
0.096455
0.029743
0.002032
-0.045098
-0.078193
-0.100993
-0.131787
-0.113337
-0.096837
-0.064693
-0.009601
0.028131
0.063044
0.101217
0.128917
0.124595
0.138381
0.127849
0.116732
0.084763
0.038086
-0.009648
-0.041728
-0.083712
-0.108722
-0.144689
-0.152381
-0.153697
-0.130541
-0.094187
-0.060312
-0.023097
0.036479
0.073161
0.105613
0.103404
0.111381
0.103625
0.095322
0.064755
0.015717
-0.022758
-0.078007
-0.120209
-0.129552
-0.146413
-0.164787
-0.138938
-0.113781
-0.094335
-0.062194
-0.019884
0.034004
0.071953
0.105068
0.120068
0.125272
0.119739
0.112584
0.069325
0.021222
-0.032636
-0.091188
-0.106155
-0.115142
-0.135108
-0.141975
-0.139036
-0.132141
-0.086324
-0.033704
0.007099
0.056374
0.091595
0.109843
0.130982
0.134817
0.122415
0.108644
0.075218
0.048076
0.005312
-0.029867
-0.068034
-0.108321
-0.121087
-0.136372
-0.130818
-0.105156
-0.073995
-0.023658
0.029901
0.076650
0.113698
0.143390
0.158813
0.162636
0.165411
0.144709
0.118042
0.073532
0.041030
-0.006590
-0.045045
-0.079259
-0.097575
-0.103620
-0.097052
-0.067836
-0.041882
0.003902
0.060683
0.094638
0.134925
0.159471
0.171953
0.189934
0.190606
0.172635
0.137948
0.104324
0.055490
0.008408
-0.038975
-0.068738
-0.078695
-0.073934
-0.055666
-0.038035
-0.017913
0.028807
0.071952
0.127421
0.171674
0.188672
0.211588
0.221296
0.210993
0.208643
0.172012
0.121285
0.072426
0.034287
-0.001256
-0.041778
-0.059755
-0.065871
-0.063602
-0.044250
-0.006771
0.036304
0.079020
0.112138
0.156528
0.192953
0.207916
0.238653
0.214208
0.176909
0.154748
0.114180
0.073891
0.040592
0.008153
-0.032472
-0.057520
-0.064890
-0.054571
-0.040745
-0.010124
0.025217
0.062742
0.115765
0.153992
0.182620
0.192037
0.198614
0.199666
0.188554
0.145518
0.103951
0.057930
0.012206
-0.024959
-0.056312
-0.082427
-0.084636
-0.069717
-0.050730
-0.017087
0.017923
0.050083
0.090785
0.122048
0.151917
0.171517
0.177367
0.187165
0.170246
0.135170
0.086836
0.026585
-0.015981
-0.056522
-0.082153
-0.108815
-0.115062
-0.105168
-0.082986
-0.053214
-0.020085
0.029660
0.073020
0.113894
0.145930
0.157730
0.161364
0.142116
0.137134
0.093312
0.049460
0.010418
-0.030749
-0.079437
-0.121123
-0.157671
-0.160592
-0.135178
-0.106601
-0.069895
-0.029316
0.006730
0.050813
0.091228
0.110466
0.124981
0.132148
0.140901
0.119209
0.081903
0.043256
-0.012217
-0.069184
-0.095754
-0.115401
-0.147107
-0.155277
-0.150044
-0.125361
-0.080073
-0.047951
-0.009102
0.038391
0.080892
0.102253
0.122536
0.129276
0.121404
0.114788
0.080691
0.039338
-0.016831
-0.077483
-0.084379
-0.107350
-0.135767
-0.154181
-0.137920
-0.119802
-0.082904
-0.051633
-0.015983
0.034933
0.073536
0.100320
0.119127
0.127881
0.107317
0.099798
0.070519
0.035067
-0.012049
-0.042100
-0.075639
-0.109547
-0.139600
-0.153062
-0.137880
-0.107799
-0.083420
-0.051352
-0.006602
0.037465
0.069299
0.095671
0.108950
0.124918
0.138625
0.140046
0.111059
0.061801
-0.001485
-0.046807
-0.086626
-0.111341
-0.133372
-0.147814
-0.128161
-0.121543
-0.091230
-0.071404
0.007481
0.052449
0.091311
0.114194
0.139586
0.152153
0.150969
0.134028
0.096526
0.055509
0.005638
-0.033753
-0.072529
-0.104204
-0.132515
-0.134294
-0.118192
-0.119845
-0.090532
-0.042110
0.009587
0.056594
0.092025
0.122563
0.144678
0.158892
0.156372
0.128920
0.100274
0.052014
0.003722
-0.036617
-0.073879
-0.104269
-0.123917
-0.135873
-0.137126
-0.129466
-0.093084
-0.060264
-0.011654
0.044845
0.078886
0.098041
0.123824
0.142348
0.130041
0.129382
0.098669
0.050859
-0.004651
-0.051946
-0.087049
-0.097581
-0.125888
-0.145422
-0.123229
-0.111159
-0.076969
-0.044835
0.002710
0.040464
0.074475
0.112911
0.138949
0.145327
0.130572
0.114402
0.078863
0.040653
0.004121
-0.043030
-0.087473
-0.114211
-0.143982
-0.156778
-0.167270
-0.125098
-0.084643
-0.045179
-0.003223
0.039053
0.087729
0.109725
0.130207
0.140758
0.127759
0.110662
0.079033
0.036455
0.009543
-0.031399
-0.084694
-0.113253
-0.144272
-0.153291
-0.144737
-0.133737
-0.111845
-0.066941
-0.020087
0.035122
0.072745
0.096387
0.120893
0.134308
0.117425
0.110268
0.084616
0.040417
-0.007744
-0.048496
-0.092651
-0.124743
-0.152426
-0.151929
-0.148612
-0.140336
-0.118714
-0.076326
-0.013872
0.023707
0.069661
0.097984
0.120927
0.134366
0.131025
0.123434
0.089527
0.043524
-0.006280
-0.057994
-0.097484
-0.117985
-0.144225
-0.150742
-0.157174
-0.139978
-0.103427
-0.073143
-0.032432
0.009238
0.049238
0.093541
0.114390
0.112180
0.093327
0.103271
0.067659
0.022496
-0.025873
-0.065699
-0.108228
-0.134010
-0.148318
-0.158819
-0.150493
-0.132263
-0.093365
-0.059641
-0.030266
0.023782
0.069686
0.098882
0.119519
0.135831
0.134353
0.097241
0.068525
0.027002
-0.016343
-0.058498
-0.107968
-0.132767
-0.153316
-0.161108
-0.162408
-0.144030
-0.115988
-0.067857
-0.019020
0.030998
0.062390
0.096974
0.116586
0.118283
0.108761
0.087972
0.055452
-0.001462
-0.044726
-0.070894
-0.103755
-0.106650
-0.136411
-0.164954
-0.162975
-0.142390
-0.111010
-0.059604
-0.009885
0.024944
0.065440
0.099592
0.114826
0.127646
0.125679
0.093301
0.056321
0.014790
-0.020185
-0.049954
-0.097433
-0.133410
-0.167623
-0.183677
-0.172978
-0.142059
-0.102263
-0.061619
-0.016225
0.023263
0.064962
0.095611
0.130663
0.133590
0.120738
0.096202
0.066157
0.020659
-0.021216
-0.072469
-0.111234
-0.147954
-0.164967
-0.169517
-0.156355
-0.135310
-0.117263
-0.084685
-0.034123
0.010739
0.049409
0.081956
0.109767
0.110768
0.113186
0.107324
0.063704
0.021439
-0.019059
-0.061798
-0.115214
-0.148623
-0.157091
-0.169726
-0.169195
-0.155597
-0.119650
-0.062714
-0.022259
0.025133
0.072497
0.096150
0.127686
0.130016
0.118578
0.100191
0.078312
0.056147
0.005595
-0.043763
-0.092810
-0.117783
-0.148814
-0.143528
-0.135947
-0.113118
-0.078847
-0.026717
0.011218
0.064009
0.099259
0.135658
0.158313
0.154883
0.149884
0.129561
0.099130
0.055013
0.011055
-0.052017
-0.073711
-0.108097
-0.139255
-0.141558
-0.129824
-0.106507
-0.072547
-0.029491
0.018062
0.061665
0.103285
0.138428
0.167595
0.181931
0.168247
0.142015
0.110073
0.072045
0.036709
-0.013052
-0.063504
-0.089038
-0.115800
-0.119736
-0.121116
-0.096034
-0.082821
-0.054745
-0.013189
0.026976
0.089266
0.119917
0.136356
0.130641
0.114786
0.099612
0.070729
0.037860
-0.019619
-0.072187
-0.095934
-0.133322
-0.165683
-0.172579
-0.180397
-0.146194
-0.097732
-0.061600
-0.016755
0.018519
0.063858
0.094336
0.119292
0.131085
0.121705
0.099236
0.065574
0.014700
-0.042059
-0.092464
-0.133013
-0.160128
-0.180942
-0.194936
-0.194261
-0.172130
-0.140304
-0.092824
-0.040098
-0.001747
0.039824
0.061027
0.103166
0.104269
0.102539
0.078116
0.051405
-0.002311
-0.045637
-0.093746
-0.128272
-0.165164
-0.189474
-0.184547
-0.166712
-0.154485
-0.124763
-0.109821
-0.054260
0.005179
0.031172
0.062916
0.088727
0.098790
0.090541
0.055697
0.011018
-0.017788
-0.044283
-0.084388
-0.133300
-0.175941
-0.197628
-0.202693
-0.200153
-0.164665
-0.123004
-0.085013
-0.045937
-0.004058
0.022048
0.063923
0.096870
0.093633
0.088875
0.062053
0.033062
-0.002824
-0.050987
-0.096807
-0.137700
-0.166504
-0.192783
-0.186758
-0.180195
-0.164597
-0.133821
-0.096849
-0.057138
-0.009879
0.016222
0.049030
0.067682
0.076921
0.076861
0.073482
0.045455
0.001676
-0.029132
-0.062614
-0.100910
-0.114832
-0.122073
-0.101830
-0.080449
-0.047771
-0.004682
0.046774
0.120476
0.183145
0.241162
0.281895
0.329578
0.370819
0.392892
0.406316
0.410340
0.416779
0.411702
0.396315
0.392582
0.372871
0.421351
0.464143
0.502091
0.561326
0.622049
0.707397
0.786416
0.862199
0.891186
0.911486
0.927722
0.933361
0.894139
0.849023
0.804377
0.736715
0.666357
0.554861
0.450468
0.341294
0.252095
0.193238
0.152836
0.114692
0.108511
0.127644
0.155597
0.198353
0.222797
0.233594
0.250526
0.257078
0.234747
0.199419
0.154244
0.112803
0.066972
0.012672
-0.034575
-0.063168
-0.087763
-0.096274
-0.096596
-0.089269
-0.050691
-0.017438
0.026746
0.070720
0.098394
0.122871
0.134230
0.137159
0.150422
0.133013
0.095622
0.051976
0.010346
-0.047161
-0.084940
-0.123689
-0.147920
-0.149192
-0.158511
-0.134620
-0.090286
-0.060884
-0.035868
0.022342
0.063257
0.105299
0.127166
0.138123
0.119234
0.096601
0.070609
0.049052
-0.008351
-0.060754
-0.098418
-0.126564
-0.147093
-0.153102
-0.155469
-0.128760
-0.093870
-0.060388
-0.026097
0.012086
0.042339
0.087212
0.122956
0.129864
0.128967
0.116260
0.084487
0.045025
0.011363
-0.040879
-0.079822
-0.109595
-0.140018
-0.150816
-0.150327
-0.125155
-0.084817
-0.049912
-0.013139
0.041820
0.066036
0.114887
0.135524
0.142777
0.147041
0.128025
0.101468
0.072458
0.026976
-0.012707
-0.053282
-0.086630
-0.109094
-0.121745
-0.111891
-0.090150
-0.055836
-0.020744
0.008503
0.044191
0.092792
0.143442
0.157381
0.153438
0.161948
0.147687
0.107538
0.070144
0.019754
-0.020716
-0.036774
-0.078611
-0.102328
-0.097763
-0.096198
-0.062407
-0.034467
0.009569
0.050064
0.085764
0.142044
0.154073
0.186948
0.200657
0.211074
0.190459
0.161595
0.123029
0.070265
0.024692
-0.004562
-0.044400
-0.065867
-0.068981
-0.077139
-0.055756
-0.026637
0.025336
0.076204
0.118604
0.154258
0.195743
0.214989
0.222325
0.221129
0.198178
0.170929
0.130243
0.095325
0.043287
0.015774
-0.017550
-0.049970
-0.059111
-0.053942
-0.039381
-0.005047
0.026508
0.065617
0.114573
0.157875
0.196063
0.218437
0.227895
0.233568
0.205355
0.161834
0.114366
0.081505
0.029589
-0.012306
-0.042868
-0.074246
-0.075143
-0.073053
-0.065198
-0.043266
-0.001912
0.033575
0.092040
0.133825
0.175056
0.192047
0.184046
0.182402
0.172240
0.139879
0.097401
0.047337
-0.000030
-0.035372
-0.074660
-0.105137
-0.108472
-0.102781
-0.097745
-0.063984
-0.034995
0.008538
0.060189
0.094608
0.138467
0.159297
0.175772
0.153265
0.136253
0.092892
0.045405
0.011157
-0.035396
-0.081039
-0.122242
-0.138203
-0.151079
-0.140800
-0.134881
-0.099523
-0.058437
-0.019795
0.026070
0.056846
0.089890
0.117398
0.125919
0.112123
0.095651
0.049347
0.023060
-0.023288
-0.087039
-0.131448
-0.153691
-0.181377
-0.184836
-0.182258
-0.161566
-0.131622
-0.091306
-0.048489
-0.009334
0.020496
0.053561
0.078372
0.090395
0.078618
0.059574
0.029023
-0.009219
-0.060545
-0.106732
-0.133018
-0.175828
-0.199827
-0.209238
-0.201607
-0.185599
-0.161132
-0.115150
-0.075237
-0.028572
0.014593
0.049277
0.062003
0.069082
0.072498
0.053040
0.015436
-0.020157
-0.072292
-0.117550
-0.151873
-0.183472
-0.208761
-0.220469
-0.207765
-0.193347
-0.164287
-0.118644
-0.069401
-0.029974
0.007577
0.047905
0.077927
0.080810
0.073586
0.054550
0.017414
-0.020706
-0.069858
-0.121228
-0.170440
-0.180158
-0.198413
-0.203513
-0.190242
-0.191644
-0.158949
-0.115865
-0.065390
-0.018262
0.012012
0.059425
0.078684
0.081598
0.078301
0.062599
0.023639
-0.019618
-0.063942
-0.111576
-0.155743
-0.186154
-0.212229
-0.222512
-0.222823
-0.193797
-0.164395
-0.121351
-0.072322
-0.031664
-0.004104
0.039184
0.086335
0.083644
0.081155
0.062701
0.027569
-0.009991
-0.055904
-0.106437
-0.144682
-0.180704
-0.204754
-0.211243
-0.207821
-0.199209
-0.157459
-0.113425
-0.065530
-0.030138
0.017094
0.046779
0.073530
0.090791
0.077975
0.054906
0.010555
-0.014248
-0.049341
-0.095362
-0.151804
-0.200270
-0.220883
-0.232349
-0.235188
-0.220071
-0.184473
-0.134857
-0.073309
-0.032528
0.003381
0.034656
0.052629
0.094717
0.089543
0.060424
0.028280
-0.037996
-0.086997
-0.121256
-0.161208
-0.194466
-0.217631
-0.233330
-0.226364
-0.205298
-0.170495
-0.125351
-0.076373
-0.032251
0.003658
0.042464
0.062936
0.078374
0.067986
0.043074
0.009072
-0.035900
-0.079106
-0.124379
-0.166826
-0.199197
-0.225316
-0.237284
-0.233081
-0.217747
-0.175943
-0.135901
-0.089910
-0.041301
0.009941
0.042622
0.065150
0.076070
0.066312
0.040542
0.001766
-0.042532
-0.093715
-0.140393
-0.186372
-0.220405
-0.243882
-0.256224
-0.235092
-0.209579
-0.172224
-0.127106
-0.088727
-0.054686
-0.013670
0.025000
0.040760
0.057113
0.038330
0.023614
-0.008348
-0.043287
-0.093943
-0.141627
-0.184166
-0.214674
-0.236604
-0.261053
-0.262096
-0.233741
-0.199218
-0.157773
-0.101838
-0.051938
-0.010966
0.011152
0.022098
0.043406
0.053642
0.037505
-0.007492
-0.053419
-0.091001
-0.141771
-0.180690
-0.225480
-0.258886
-0.263013
-0.251312
-0.224603
-0.187618
-0.141458
-0.099723
-0.059917
-0.010528
0.023530
0.041208
0.054043
0.042638
0.019385
-0.013624
-0.051505
-0.108223
-0.150249
-0.194070
-0.234895
-0.252748
-0.257456
-0.245649
-0.229927
-0.194260
-0.159702
-0.111161
-0.062136
-0.023337
0.007413
0.030034
0.047856
0.036123
0.009746
-0.014716
-0.061509
-0.102610
-0.150344
-0.203212
-0.240801
-0.263430
-0.269493
-0.266916
-0.239149
-0.208015
-0.138938
-0.080190
-0.048676
-0.014895
0.019902
0.029147
0.043462
0.053706
0.037006
-0.012727
-0.084234
-0.139335
-0.172114
-0.204015
-0.221476
-0.241679
-0.249927
-0.251280
-0.236237
-0.203304
-0.153195
-0.113182
-0.061244
-0.016834
0.004009
0.023870
0.024739
0.016774
-0.010200
-0.037515
-0.070809
-0.115349
-0.156098
-0.195354
-0.234328
-0.248537
-0.260577
-0.260369
-0.237567
-0.192155
-0.150666
-0.106029
-0.066723
-0.022489
0.002105
0.033287
0.050816
0.042590
0.017428
-0.025325
-0.061086
-0.113076
-0.153916
-0.196203
-0.218620
-0.229932
-0.246981
-0.252020
-0.225531
-0.184367
-0.132793
-0.086510
-0.031929
0.001812
0.029335
0.043403
0.062150
0.056482
0.034967
0.000705
-0.036305
-0.080520
-0.121675
-0.156510
-0.199871
-0.223243
-0.217528
-0.206040
-0.184294
-0.151032
-0.114493
-0.084070
-0.044244
0.014545
0.046158
0.061206
0.078881
0.070660
0.039744
0.009743
-0.031397
-0.076966
-0.112923
-0.147830
-0.184932
-0.196878
-0.236206
-0.229950
-0.213276
-0.143408
-0.097215
-0.057030
-0.005732
0.038694
0.062386
0.087518
0.096734
0.070723
0.042877
0.010196
-0.034136
-0.089827
-0.127986
-0.166459
-0.202745
-0.218098
-0.238048
-0.233111
-0.220039
-0.191347
-0.160795
-0.092856
-0.044338
-0.017026
0.009282
0.015284
0.031430
0.023695
0.011217
-0.016552
-0.070437
-0.118950
-0.163537
-0.196179
-0.231004
-0.244238
-0.272863
-0.271027
-0.227547
-0.198414
-0.164363
-0.135166
-0.084614
-0.043831
-0.014485
0.005692
0.020852
0.014850
-0.011315
-0.045158
-0.092389
-0.134043
-0.166315
-0.217090
-0.256446
-0.276161
-0.279814
-0.271693
-0.253527
-0.222977
-0.189271
-0.143143
-0.099033
-0.054747
-0.017660
-0.005082
-0.002652
0.000577
-0.022725
-0.053774
-0.091864
-0.137979
-0.170304
-0.217197
-0.245201
-0.274809
-0.291968
-0.291800
-0.278013
-0.249925
-0.200182
-0.149020
-0.104043
-0.070098
-0.034246
-0.012663
-0.004535
-0.020009
-0.021282
-0.055584
-0.097536
-0.144760
-0.173416
-0.206348
-0.229354
-0.268479
-0.281205
-0.271358
-0.252486
-0.218709
-0.186999
-0.147054
-0.116986
-0.053530
-0.021516
-0.007784
-0.002673
-0.018409
-0.015811
-0.034329
-0.080942
-0.133741
-0.176657
-0.216113
-0.252446
-0.271220
-0.280404
-0.273108
-0.252073
-0.222668
-0.189831
-0.133148
-0.087173
-0.020138
0.023158
0.052025
0.085377
0.082710
0.079678
0.051346
0.050498
-0.013818
-0.033361
-0.045191
-0.047820
-0.053657
-0.033651
-0.003215
0.047302
0.117901
0.177378
0.264575
0.340061
0.413519
0.477394
0.529256
0.571706
0.600753
0.611857
0.636419
0.632318
0.618089
0.612824
0.605639
0.576875
0.544176
0.528598
0.527456
0.518574
0.532116
0.555315
0.571411
0.570764
0.541825
0.519714
0.473630
0.440290
0.392530
0.318573
0.224535
0.142913
0.068469
0.019305
-0.046823
-0.099073
-0.122983
-0.129681
-0.147186
-0.134859
-0.115708
-0.090273
-0.043843
-0.006995
0.049795
0.089574
0.103434
0.108703
0.101639
0.080398
0.060171
0.009043
-0.050623
-0.103210
-0.152441
-0.176262
-0.192561
-0.206185
-0.214185
-0.204324
-0.174637
-0.136163
-0.083880
-0.050569
-0.005027
0.015712
0.038616
0.060255
0.056025
0.069037
0.031503
-0.028343
-0.093933
-0.131611
-0.177903
-0.209263
-0.231595
-0.247683
-0.234538
-0.221109
-0.187079
-0.150175
-0.121217
-0.093292
-0.017955
0.027430
0.046596
0.047274
0.061116
0.042433
0.017378
-0.032553
-0.073632
-0.128854
-0.174311
-0.214139
-0.242085
-0.251032
-0.231210
-0.199478
-0.162764
-0.121502
-0.079063
-0.049453
-0.011094
0.021841
0.042839
0.053466
0.081437
0.056323
0.032740
-0.018800
-0.075959
-0.108834
-0.131231
-0.187145
-0.225769
-0.228177
-0.203463
-0.160926
-0.147119
-0.112145
-0.070354
-0.022031
0.016804
0.058371
0.089786
0.097298
0.088074
0.061294
0.039235
0.020973
-0.033518
-0.084332
-0.122163
-0.150214
-0.174111
-0.199760
-0.190847
-0.170542
-0.124564
-0.089950
-0.036537
0.013981
0.046699
0.084279
0.108224
0.127990
0.120957
0.108570
0.084981
0.051060
0.000525
-0.060321
-0.103180
-0.135309
-0.166278
-0.167199
-0.160787
-0.124061
-0.085871
-0.048692
0.003988
0.043700
0.089417
0.127048
0.157728
0.164509
0.157628
0.138858
0.103273
0.060069
0.013270
-0.024946
-0.069704
-0.098291
-0.118306
-0.123220
-0.123140
-0.101630
-0.064696
-0.029590
0.009417
0.054887
0.115554
0.140371
0.158548
0.171246
0.164846
0.141735
0.103438
0.061821
0.039160
-0.008926
-0.038350
-0.074936
-0.116089
-0.124888
-0.127107
-0.113562
-0.081103
-0.040901
0.003300
0.052676
0.091475
0.147446
0.180593
0.185145
0.179950
0.159158
0.103170
0.092364
0.046399
-0.003279
-0.070635
-0.112021
-0.129736
-0.142608
-0.146764
-0.125976
-0.086276
-0.044267
0.000424
0.045426
0.085285
0.114479
0.136454
0.144219
0.134391
0.109305
0.073983
0.036045
-0.006996
-0.063248
-0.097551
-0.127875
-0.153405
-0.178790
-0.178924
-0.168542
-0.121657
-0.085084
-0.050579
-0.005261
0.048237
0.079704
0.098680
0.098607
0.095591
0.079998
0.023904
-0.018187
-0.063589
-0.098556
-0.138027
-0.187488
-0.218741
-0.225859
-0.220386
-0.195256
-0.165010
-0.134395
-0.082085
-0.033169
0.020607
0.045165
0.060668
0.063301
0.049858
0.026575
-0.004716
-0.056993
-0.086978
-0.136017
-0.171200
-0.206429
-0.229830
-0.253409
-0.244985
-0.223431
-0.185072
-0.154919
-0.113974
-0.071046
-0.021322
0.005640
0.009743
0.019960
0.027890
0.016571
-0.009343
-0.054254
-0.105798
-0.145057
-0.203805
-0.218355
-0.242829
-0.261037
-0.247790
-0.215648
-0.183876
-0.148927
-0.111884
-0.066098
-0.030369
0.008708
0.036718
0.032657
0.028121
0.031449
-0.000132
-0.053024
-0.085533
-0.144784
-0.183697
-0.212435
-0.232245
-0.251313
-0.240770
-0.226494
-0.199335
-0.144954
-0.099426
-0.071261
-0.035092
0.011079
0.034102
0.052946
0.033929
0.000277
-0.026128
-0.065484
-0.104466
-0.139788
-0.176144
-0.198653
-0.238813
-0.252714
-0.249923
-0.223785
-0.193485
-0.153173
-0.109352
-0.063217
-0.013809
0.015233
0.052135
0.053223
0.041431
0.016700
-0.019703
-0.061099
-0.087865
-0.131341
-0.170466
-0.213695
-0.239892
-0.239396
-0.232465
-0.219498
-0.190382
-0.173588
-0.127442
-0.061997
-0.007510
0.036960
0.083218
0.072171
0.051421
0.021279
-0.007841
-0.054822
-0.080891
-0.110290
-0.160371
-0.189990
-0.224483
-0.233091
-0.235037
-0.210769
-0.185053
-0.139355
-0.105079
-0.062575
-0.019628
0.014912
0.047217
0.046200
0.043872
0.035920
0.000339
-0.042463
-0.080657
-0.132286
-0.175890
-0.204421
-0.237672
-0.242648
-0.228855
-0.211233
-0.185461
-0.147580
-0.102338
-0.047592
-0.038937
-0.015345
0.039391
0.055033
0.052852
0.017725
-0.015946
-0.056791
-0.091902
-0.140964
-0.166646
-0.197513
-0.230537
-0.246710
-0.238502
-0.210910
-0.180646
-0.145717
-0.107746
-0.060017
-0.018046
0.014198
0.046916
0.044751
0.035594
0.013986
-0.023404
-0.068079
-0.104963
-0.132565
-0.180512
-0.222028
-0.235232
-0.238112
-0.222418
-0.215294
-0.194215
-0.155673
-0.103853
-0.071185
-0.027411
0.011205
0.040547
0.048600
0.039686
0.014207
-0.027507
-0.074246
-0.096517
-0.133278
-0.182840
-0.216938
-0.249119
-0.267838
-0.257226
-0.229576
-0.193053
-0.152408
-0.117842
-0.086037
-0.049914
-0.008816
0.031673
0.060921
0.046874
0.024695
-0.014119
-0.058994
-0.094338
-0.144217
-0.193355
-0.202872
-0.244345
-0.250026
-0.243915
-0.233826
-0.209960
-0.162537
-0.114230
-0.066794
-0.025196
0.008656
0.046338
0.041232
0.040654
0.018591
-0.010607
-0.062966
-0.099851
-0.147609
-0.196853
-0.223287
-0.240211
-0.249573
-0.252677
-0.238995
-0.206896
-0.155956
-0.117107
-0.063732
-0.026268
0.003527
0.029525
0.032046
0.012259
0.012385
-0.010167
-0.057769
-0.098204
-0.147261
-0.194069
-0.242066
-0.267711
-0.262907
-0.246546
-0.236111
-0.208922
-0.158594
-0.114248
-0.073447
-0.041154
0.003778
0.020452
0.034000
0.027968
0.011744
-0.023943
-0.050342
-0.085109
-0.125668
-0.177267
-0.230759
-0.253338
-0.252339
-0.249059
-0.219322
-0.193989
-0.161085
-0.133374
-0.082015
-0.030548
0.004810
0.036923
0.046916
0.031130
0.001450
-0.018800
-0.059808
-0.104031
-0.132050
-0.170701
-0.220481
-0.258083
-0.262046
-0.255741
-0.250037
-0.194527
-0.146961
-0.107920
-0.056718
-0.020738
0.010078
0.048779
0.059606
0.041022
0.023752
-0.000516
-0.047370
-0.084512
-0.137700
-0.191332
-0.213732
-0.240325
-0.245262
-0.226754
-0.193430
-0.161366
-0.119372
-0.074407
-0.027764
-0.002697
0.029102
0.061024
0.080533
0.086260
0.064609
0.012206
-0.031770
-0.075316
-0.113600
-0.179059
-0.215124
-0.233265
-0.223899
-0.212574
-0.168248
-0.136476
-0.123778
-0.077316
-0.029038
0.022613
0.055924
0.078598
0.086465
0.073909
0.059304
0.028072
0.001479
-0.010786
-0.061512
-0.123913
-0.173238
-0.198859
-0.196494
-0.179235
-0.166485
-0.145613
-0.109850
-0.072088
-0.032658
0.004835
0.046196
0.069615
0.085788
0.071026
0.046168
0.020613
-0.023645
-0.073416
-0.124688
-0.168034
-0.209865
-0.252041
-0.263885
-0.245886
-0.214422
-0.177246
-0.139937
-0.105295
-0.065495
-0.004283
0.026432
0.044741
0.043403
0.030649
0.009889
-0.020114
-0.065655
-0.097278
-0.151858
-0.197188
-0.237938
-0.254208
-0.261563
-0.255657
-0.229503
-0.194861
-0.149402
-0.117567
-0.082288
-0.034437
-0.007225
0.015212
0.030877
0.022730
-0.006520
-0.044189
-0.087193
-0.119899
-0.170023
-0.224889
-0.257540
-0.282996
-0.293896
-0.283363
-0.233116
-0.194722
-0.163068
-0.118863
-0.072040
-0.042839
-0.004789
0.038147
0.043597
0.021815
-0.012214
-0.022205
-0.070855
-0.124850
-0.170589
-0.218709
-0.251368
-0.279596
-0.288226
-0.277088
-0.269419
-0.217460
-0.164607
-0.125704
-0.075951
-0.044099
-0.010990
0.011821
0.024282
0.005114
-0.017574
-0.048204
-0.082636
-0.112872
-0.163704
-0.209948
-0.239198
-0.256662
-0.277367
-0.266277
-0.237201
-0.205560
-0.170902
-0.129189
-0.083088
-0.046022
-0.016826
0.002415
0.010052
-0.001811
-0.005961
-0.035126
-0.069813
-0.107875
-0.147856
-0.183230
-0.210253
-0.219971
-0.217456
-0.191305
-0.159619
-0.112471
-0.056681
-0.014583
0.043030
0.095207
0.146511
0.198682
0.228481
0.237626
0.248266
0.267126
0.253286
0.218512
0.210395
0.214497
0.222182
0.249718
0.261150
0.275438
0.325137
0.374637
0.482216
0.563471
0.660056
0.726179
0.779207
0.806804
0.825117
0.817562
0.802846
0.746770
0.686032
0.599016
0.527981
0.453200
0.362166
0.275429
0.193136
0.145792
0.130328
0.114167
0.115081
0.113174
0.119535
0.138529
0.159794
0.167920
0.172518
0.158175
0.133201
0.098389
0.061762
0.013419
-0.049001
-0.097316
-0.127699
-0.149006
-0.163568
-0.174696
-0.141662
-0.113967
-0.083105
-0.055754
-0.009844
0.027608
0.061197
0.076183
