0.033613
0.094986
0.116642
0.133382
0.161445
0.170663
0.150297
0.115649
0.076065
0.038464
-0.000535
-0.058449
-0.106918
-0.155627
-0.188385
-0.152833
-0.122041
-0.098293
-0.081022
-0.045884
-0.007049
0.039915
0.080478
0.120437
0.141957
0.125418
0.119998
0.088896
0.062829
0.023170
-0.016527
-0.062556
-0.103992
-0.147587
-0.198592
-0.199663
-0.175999
-0.163516
-0.123019
-0.076108
-0.018980
0.019123
0.074367
0.096596
0.119087
0.113994
0.095099
0.061636
0.034605
0.040627
0.002587
-0.076517
-0.131528
-0.153738
-0.179213
-0.181748
-0.180658
-0.148230
-0.124459
-0.083559
-0.057667
-0.004047
0.061058
0.105588
0.122218
0.122871
0.113973
0.083090
0.049067
0.016878
-0.027588
-0.081839
-0.128754
-0.157758
-0.189162
-0.194893
-0.188173
-0.162734
-0.110333
-0.063430
-0.023424
0.017146
0.062536
0.098599
0.125061
0.128830
0.128392
0.097270
0.059943
0.008159
-0.041562
-0.080664
-0.120333
-0.151370
-0.171692
-0.173753
-0.176348
-0.149148
-0.106153
-0.061926
-0.022014
0.020273
0.069444
0.104365
0.121279
0.121083
0.105720
0.088657
0.062678
0.022320
-0.034011
-0.086314
-0.113995
-0.134262
-0.149817
-0.165400
-0.162565
-0.139958
-0.103745
-0.070820
-0.009338
0.046844
0.082141
0.107905
0.122959
0.122778
0.101239
0.080511
0.033422
0.049319
-0.005566
-0.050888
-0.080417
-0.127568
-0.165172
-0.173229
-0.165902
-0.139467
-0.114472
-0.071655
-0.018048
0.043134
0.068469
0.081004
0.110365
0.104987
0.085142
0.107136
0.092043
0.033389
-0.030322
-0.063884
-0.109972
-0.145600
-0.164381
-0.168281
-0.165644
-0.143388
-0.112807
-0.069818
-0.026037
0.022575
0.070429
0.100266
0.116397
0.118319
0.114854
0.109327
0.069830
0.015431
-0.042826
-0.087092
-0.138029
-0.163698
-0.193884
-0.194144
-0.176808
-0.160085
-0.129322
-0.066089
-0.013977
0.019720
0.042040
0.070435
0.108698
0.123538
0.115537
0.104771
0.069700
0.023779
-0.031306
-0.087370
-0.122512
-0.142258
-0.184511
-0.198080
-0.186899
-0.179286
-0.141525
-0.079538
-0.016071
0.029934
0.049550
0.078970
0.090826
0.126454
0.118163
0.100428
0.071766
0.006342
-0.054511
-0.092519
-0.131266
-0.154654
-0.176429
-0.191140
-0.176897
-0.162069
-0.133551
-0.091751
-0.029525
0.017241
0.052105
0.079620
0.104102
0.111776
0.100844
0.071250
0.038698
0.003935
-0.035363
-0.101131
-0.131274
-0.160113
-0.189278
-0.186143
-0.173338
-0.152299
-0.111881
-0.086217
-0.049970
-0.007974
0.041206
0.067941
0.088982
0.096557
0.088020
0.091217
0.052656
-0.001119
-0.056798
-0.108433
-0.148871
-0.179873
-0.202525
-0.177676
-0.164313
-0.171370
-0.148708
-0.114222
-0.063592
-0.000310
0.054055
0.097799
0.109941
0.110228
0.104463
0.076046
0.040272
-0.016576
-0.057695
-0.096988
-0.144774
-0.170751
-0.182291
-0.186332
-0.187553
-0.168842
-0.135393
-0.088509
-0.053655
0.010352
0.049507
0.083744
0.109233
0.109542
0.093895
0.089767
0.058699
-0.000318
-0.037561
-0.091704
-0.129903
-0.175840
-0.192215
-0.206639
-0.210091
-0.178070
-0.133389
-0.075117
-0.034023
0.004697
0.040095
0.082835
0.107533
0.108671
0.103708
0.086269
0.048028
0.007469
-0.037103
-0.099002
-0.141677
-0.173379
-0.198002
-0.209942
-0.199147
-0.168524
-0.123888
-0.097134
-0.072612
0.006422
0.044127
0.086229
0.104718
0.108001
0.084894
0.060316
0.025782
-0.010796
-0.051862
-0.106935
-0.137549
-0.159451
-0.172367
-0.199208
-0.187118
-0.166772
-0.145413
-0.087270
-0.023604
0.026467
0.062742
0.096890
0.113559
0.135083
0.124630
0.104958
0.056264
0.014059
-0.033929
-0.071394
-0.113853
-0.145057
-0.161819
-0.160381
-0.136274
-0.125734
-0.111901
-0.061516
-0.000912
0.043108
0.084382
0.121839
0.157271
0.147335
0.132363
0.112659
0.075470
0.026982
-0.013588
-0.073592
-0.102148
-0.134503
-0.163180
-0.182326
-0.162335
-0.130362
-0.089572
-0.032642
0.022485
0.064981
0.095976
0.137471
0.158807
0.164590
0.157630
0.161781
0.122769
0.054218
0.008444
-0.039177
-0.082423
-0.124067
-0.161050
-0.168274
-0.153344
-0.131904
-0.090648
-0.057303
-0.021259
0.023756
0.057907
0.090931
0.119825
0.129460
0.114833
0.089384
0.057148
0.028898
-0.020410
-0.087656
-0.134544
-0.174088
-0.219671
-0.211259
-0.169097
-0.119233
-0.112957
-0.082698
-0.042303
0.009731
0.081701
0.098955
0.109668
0.105634
0.103108
0.071553
0.035999
-0.007662
-0.060087
-0.116100
-0.161429
-0.189913
-0.208530
-0.208461
-0.196260
-0.183609
-0.157015
-0.106888
-0.057384
-0.003801
0.026377
0.061716
0.070385
0.041257
0.073943
0.090012
0.035264
-0.006182
-0.055961
-0.118578
-0.166581
-0.206527
-0.211604
-0.222558
-0.207623
-0.176881
-0.154153
-0.109228
-0.074079
-0.022348
0.029934
0.063027
0.076963
0.085106
0.077329
0.058526
0.027071
-0.018208
-0.057632
-0.105548
-0.165262
-0.209494
-0.235647
-0.222872
-0.207204
-0.181804
-0.138514
-0.107976
-0.047882
0.004855
0.044303
0.062014
0.097122
0.107063
0.075858
0.047963
0.020302
-0.011906
-0.062080
-0.110210
-0.136356
-0.186956
-0.224159
-0.238008
-0.215801
-0.191526
-0.161669
-0.108582
-0.058934
-0.020426
0.007419
0.049379
0.082699
0.085790
0.062324
0.053737
0.038116
0.014103
-0.021329
-0.076592
-0.105931
-0.110965
-0.098036
-0.080529
-0.069575
-0.056393
-0.012998
0.064043
0.133506
0.196213
0.258896
0.312754
0.355758
0.386530
0.416584
0.472474
0.497050
0.476763
0.454090
0.412806
0.399581
0.398569
0.423570
0.481402
0.522877
0.576700
0.646389
0.715414
0.769711
0.803977
0.841102
0.867787
0.863976
0.854004
0.815788
0.758669
0.687145
0.576701
0.467444
0.356317
0.254155
0.179979
0.118513
0.073298
0.023285
0.004202
0.025981
0.075389
0.105969
0.140640
0.182572
0.210702
0.203342
0.196655
0.184810
0.161985
0.133259
0.104953
0.045909
-0.016994
-0.070696
-0.102196
-0.126863
-0.131720
-0.127234
-0.107617
-0.073927
-0.035791
0.016259
0.060562
0.100436
0.139799
0.153817
0.149525
0.132982
0.114247
0.074176
0.023635
-0.045097
-0.088954
-0.125681
-0.159904
-0.182169
-0.188332
-0.169738
-0.120766
-0.078106
-0.022451
0.015090
0.052735
0.083562
0.114069
0.123554
0.130150
0.121650
0.121376
0.077975
0.021699
-0.027811
-0.068420
-0.112270
-0.151883
-0.156489
-0.157705
-0.145770
-0.115638
-0.085705
-0.047250
0.003692
0.051737
0.098616
0.126445
0.141636
0.140436
0.142624
0.123287
0.083286
0.028851
-0.034783
-0.085618
-0.116364
-0.141493
-0.154479
-0.145677
-0.126480
-0.104882
-0.086290
-0.038155
0.012656
0.061524
0.084803
0.123640
0.154862
0.168256
0.160121
0.134050
0.100886
0.070771
0.027551
-0.027210
-0.082813
-0.112736
-0.126455
-0.121551
-0.098004
-0.077524
-0.063719
-0.018754
0.047587
0.092301
0.123208
0.162628
0.189246
0.182198
0.191274
0.180219
0.167590
0.119352
0.056118
0.006110
-0.041502
-0.062852
-0.071657
-0.087222
-0.090898
-0.081879
-0.064346
-0.013980
0.042749
0.119756
0.154825
0.215714
0.219076
0.215191
0.214174
0.199557
0.171094
0.135538
0.091548
0.049355
0.003160
-0.042192
-0.057432
-0.073912
-0.036219
0.001868
0.035189
0.064996
0.112620
0.154505
0.183631
0.247943
0.271177
0.291760
0.270174
0.219577
0.166706
0.149466
0.130098
0.081830
0.025763
-0.028556
-0.026263
-0.056045
-0.071105
-0.025620
0.022606
0.076413
0.114539
0.164816
0.206894
0.243830
0.238758
0.243521
0.237196
0.225089
0.185362
0.152070
0.104373
0.055606
-0.001835
-0.025169
-0.013888
-0.036963
-0.032608
-0.017193
0.018380
0.060313
0.103930
0.134144
0.180524
0.219198
0.218241
0.224318
0.225151
0.206418
0.189553
0.134104
0.071254
0.026310
-0.015638
-0.043058
-0.072369
-0.072305
-0.058755
-0.042255
-0.014412
0.035472
0.059479
0.102024
0.133802
0.172698
0.184640
0.183268
0.171315
0.154942
0.134681
0.084050
0.013662
-0.031958
-0.063641
-0.095580
-0.121659
-0.130866
-0.129772
-0.066260
-0.013031
-0.000567
0.038431
0.073870
0.125973
0.186832
0.193626
0.167522
0.144347
0.117704
0.085012
0.075586
0.013291
-0.075896
-0.123601
-0.121173
-0.143305
-0.164085
-0.149911
-0.136270
-0.108485
-0.071256
-0.012057
0.025699
0.071186
0.112737
0.139734
0.124817
0.119190
0.108746
0.067173
0.029691
-0.029296
-0.088775
-0.121535
-0.152479
-0.169516
-0.183744
-0.179203
-0.159369
-0.135058
-0.086274
-0.012166
0.035621
0.039931
0.058129
0.098894
0.122764
0.122032
0.098726
0.058043
0.014298
-0.029581
-0.074562
-0.117597
-0.151530
-0.173165
-0.188016
-0.174511
-0.160940
-0.119264
-0.086586
-0.029731
0.026572
0.064290
0.085087
0.093610
0.094119
0.105792
0.085734
0.057554
0.019369
-0.017728
-0.054855
-0.092984
-0.147807
-0.160201
-0.138141
-0.122390
-0.108030
-0.077641
-0.053976
-0.001784
0.019052
0.041308
0.075811
0.122834
0.127868
0.127266
0.092738
0.057416
0.023837
-0.028924
-0.082812
-0.099977
-0.127477
-0.145569
-0.156723
-0.158041
-0.156944
-0.115984
-0.068668
0.015556
0.058378
0.103328
0.104485
0.109361
0.098201
0.108844
0.121246
0.095535
0.046904
-0.024130
-0.074844
-0.124622
-0.155772
-0.177378
-0.170058
-0.163820
-0.142746
-0.110815
-0.067582
-0.013792
0.024008
0.070715
0.116275
0.130808
0.135515
0.129311
0.081580
0.012750
-0.003090
-0.025310
-0.042352
-0.072790
-0.136890
-0.186892
-0.158572
-0.112393
-0.128059
-0.131397
-0.103597
-0.052832
0.005263
0.064216
0.124195
0.149705
0.158465
0.146759
0.114546
0.069388
0.019581
-0.041396
-0.061074
-0.094906
-0.145792
-0.164804
-0.138243
-0.132572
-0.131192
-0.094807
-0.039922
-0.006560
0.021935
0.084451
0.111831
0.125266
0.106079
0.093214
0.089879
0.057331
0.017542
-0.040362
-0.083810
-0.148093
-0.181193
-0.196637
-0.218085
-0.188161
-0.153567
-0.122658
-0.081447
-0.020050
0.022690
0.071968
0.110118
0.122203
0.111584
0.102340
0.086050
0.051445
0.020862
-0.040522
-0.090699
-0.135344
-0.160668
-0.176366
-0.191486
-0.189311
-0.171076
-0.116664
-0.074770
-0.035155
0.036332
0.089791
0.103529
0.073086
0.090641
0.082410
0.066406
0.046605
0.001824
-0.042066
-0.065199
-0.108830
-0.188612
-0.221154
-0.215627
-0.196623
-0.175852
-0.136302
-0.083139
-0.033430
0.011947
0.056289
0.077362
0.103411
0.117613
0.107888
0.081408
0.052330
-0.009855
-0.060920
-0.101919
-0.150395
-0.177292
-0.179696
-0.173813
-0.191541
-0.164617
-0.118534
-0.078498
-0.048122
0.003502
0.047124
0.072856
0.086049
0.123526
0.110866
0.067178
0.036345
0.003706
-0.043736
-0.086990
-0.128072
-0.160942
-0.189102
-0.178930
-0.162720
-0.141310
-0.112063
-0.089795
-0.036707
0.008364
0.038227
0.067848
0.090911
0.081333
0.067910
0.062622
0.043436
-0.017652
-0.075644
-0.116223
-0.150157
-0.173861
-0.193253
-0.202414
-0.203006
-0.179008
-0.148072
-0.095296
-0.040996
0.024300
0.040252
0.084938
0.119902
0.126599
0.090534
0.081069
0.057916
0.032435
-0.040033
-0.106615
-0.147375
-0.171239
-0.197511
-0.189459
-0.173566
-0.146130
-0.134765
-0.106357
-0.055502
-0.002267
0.034686
0.063294
0.087991
0.119393
0.086102
0.053857
0.031954
0.012147
-0.027675
-0.084102
-0.151647
-0.215275
-0.213401
-0.218634
-0.203189
-0.165852
-0.112649
-0.074888
-0.011013
0.024315
0.055921
0.100358
0.106421
0.112257
0.114153
0.076988
0.042534
0.008752
-0.036264
-0.080702
-0.120275
-0.153337
-0.154165
-0.164958
-0.157009
-0.142730
-0.105051
-0.063342
-0.008807
0.043670
0.101860
0.122613
0.143020
0.139100
0.123519
0.100852
0.070931
0.036301
-0.045779
-0.100321
-0.114236
-0.133714
-0.185365
-0.182336
-0.134438
-0.134819
-0.120178
-0.073744
0.000414
0.060252
0.086921
0.109051
0.145892
0.151042
0.153579
0.129100
0.102448
0.042053
-0.013285
-0.052496
-0.094808
-0.113442
-0.142649
-0.153490
-0.130344
-0.117318
-0.107122
-0.062539
-0.005322
0.024460
0.057978
0.075948
0.105920
0.158557
0.144480
0.083427
0.037338
0.006376
-0.032531
-0.093364
-0.141524
-0.176299
-0.188015
-0.188750
-0.184154
-0.158107
-0.135744
-0.084385
-0.045301
-0.000507
0.051847
0.073541
0.103012
0.099780
0.071033
0.057120
0.027044
-0.017620
-0.058160
-0.101909
-0.134153
-0.181966
-0.227011
-0.222488
-0.199920
-0.154168
-0.144663
-0.110783
-0.069471
-0.017886
0.019569
0.053732
0.071483
0.063286
0.051122
0.032367
-0.008797
-0.049866
-0.088225
-0.129038
-0.167818
-0.189551
-0.221935
-0.227313
-0.215415
-0.210695
-0.167987
-0.129147
-0.084141
-0.044209
0.012193
0.058005
0.063961
0.053587
0.072161
0.057743
0.014770
-0.033468
-0.083475
-0.123820
-0.169660
-0.193905
-0.228410
-0.230874
-0.213853
-0.185501
-0.154702
-0.114399
-0.077754
-0.041026
0.005126
0.048681
0.082929
0.072643
0.057459
0.034900
0.020556
-0.023289
-0.068823
-0.123258
-0.160739
-0.194302
-0.215933
-0.232105
-0.215667
-0.194662
-0.176946
-0.134229
-0.091765
-0.035220
0.008324
0.042883
0.056559
0.067703
0.071952
0.097167
0.069249
0.013570
-0.010954
-0.017976
-0.055371
-0.076893
-0.093219
-0.091390
-0.048699
-0.008956
0.025429
0.086668
0.163345
0.245665
0.308878
0.347240
0.399614
0.436171
0.455639
0.478429
0.457538
0.440223
0.429147
0.418009
0.406841
0.408656
0.429831
0.454319
0.494553
0.568016
0.618062
0.647143
0.684894
0.715346
0.742597
0.742452
0.786154
0.789574
0.710795
0.638274
0.531321
0.415760
0.317490
0.230593
0.132364
0.064661
0.003105
-0.036931
-0.046946
-0.040209
-0.015902
0.008644
0.028174
0.055112
0.100538
0.129624
0.153993
0.160313
0.160696
0.139066
0.091424
0.042823
0.013966
-0.030186
-0.064465
-0.102401
-0.125998
-0.147617
-0.145969
-0.109837
-0.094445
-0.055152
-0.002546
0.028795
0.054299
0.092465
0.139271
0.141437
0.123156
0.109265
0.068843
0.013907
-0.037522
-0.073892
-0.119263
-0.149987
-0.168743
-0.182285
-0.160745
-0.141998
-0.112939
-0.053423
-0.012368
0.028554
0.063393
0.090563
0.110040
0.119451
0.108575
0.090909
0.053660
0.009383
-0.032726
-0.090314
-0.130332
-0.147020
-0.160822
-0.158089
-0.150962
-0.136609
-0.115558
-0.082278
-0.041615
0.014656
0.106983
0.106055
0.134898
0.136233
0.132425
0.107720
0.072120
0.023250
-0.017301
-0.058362
-0.113859
-0.144867
-0.168923
-0.170116
-0.153658
-0.124717
-0.083941
-0.014585
0.030806
0.068388
0.087934
0.120758
0.143651
0.161745
0.145950
0.124430
0.098966
0.065733
0.017314
-0.041537
-0.089207
-0.121765
-0.135919
-0.139881
-0.128191
-0.097997
-0.057847
-0.016073
0.036731
0.092487
0.138247
0.168359
0.197276
0.194634
0.183276
0.150480
0.117635
0.061400
0.014109
-0.014087
-0.034910
-0.064336
-0.094425
-0.108610
-0.096150
-0.079892
-0.024837
0.040153
0.067661
0.108383
0.140912
0.183801
0.217949
0.215016
0.204733
0.193574
0.170030
0.122510
0.074693
0.018911
-0.023982
-0.060898
-0.068679
-0.066024
-0.052741
-0.051681
-0.030277
0.041332
0.101138
0.143718
0.198667
0.236588
0.258555
0.267547
0.238306
0.203085
0.176594
0.115763
0.052157
0.027162
-0.000331
-0.015982
-0.014267
-0.025208
-0.022504
-0.010408
0.012790
0.051762
0.097061
0.153338
0.195651
0.226927
0.226669
0.250641
0.241820
0.207789
0.175849
0.134362
0.085747
0.033808
-0.015058
-0.051440
-0.063293
-0.062230
-0.057195
-0.024061
0.015955
0.060817
0.108633
0.148444
0.183903
0.198963
0.210988
0.215740
0.217293
0.200875
0.161256
0.116210
0.054825
0.015953
-0.037314
-0.071317
-0.089356
-0.103824
-0.091845
-0.075791
-0.041728
0.007076
0.058483
0.094013
0.137353
0.168407
0.195239
0.194083
0.175972
0.156210
0.125384
0.079280
0.026029
-0.031954
-0.078245
-0.117432
-0.133255
-0.126460
-0.120670
-0.108364
-0.078567
-0.027317
0.017457
0.063887
0.101221
0.130189
0.150285
0.146488
0.125686
0.097539
0.048421
0.021711
-0.009421
-0.056424
-0.107172
-0.138567
-0.133493
-0.138834
-0.149922
-0.140977
-0.105257
-0.061548
-0.015262
0.030565
0.071452
0.100384
0.118478
0.134782
0.112304
0.077617
0.036055
-0.029312
-0.071652
-0.095019
-0.139743
-0.160121
-0.175241
-0.175485
-0.157591
-0.139755
-0.103758
-0.071237
-0.027410
0.023653
0.067103
0.096831
0.116328
0.116603
0.106135
0.081988
0.046468
-0.001548
-0.049205
-0.098534
-0.126703
-0.168732
-0.170533
-0.180937
-0.169526
-0.157353
-0.126209
-0.072967
-0.028859
0.024189
0.058413
0.073283
0.088149
0.088438
0.081373
0.082085
0.056496
-0.009333
-0.063974
-0.086243
-0.129649
-0.148570
-0.158545
-0.160167
-0.162046
-0.155385
-0.103729
-0.071047
-0.041382
0.015660
0.076211
0.097830
0.100177
0.124608
0.115057
0.099441
0.061061
0.018224
-0.029189
-0.059541
-0.108394
-0.141947
-0.164664
-0.173699
-0.162225
-0.146147
-0.102255
-0.053895
-0.018888
0.011932
0.038686
0.091785
0.117944
0.135879
0.126510
0.103222
0.063306
0.009218
-0.037795
-0.083379
-0.126697
-0.156130
-0.160217
-0.159602
-0.156814
-0.145788
-0.110457
-0.072792
-0.023364
0.018318
0.066988
0.098248
0.118263
0.126368
0.118417
0.100881
0.068101
0.019665
-0.039830
-0.104108
-0.141782
-0.139695
-0.154502
-0.164517
-0.147801
-0.129773
-0.112155
-0.069782
-0.027241
0.015506
0.069800
0.100606
0.107970
0.106859
0.111219
0.090149
0.052758
-0.009798
-0.052796
-0.083147
-0.140814
-0.176388
-0.189503
-0.192215
-0.162884
-0.135502
-0.115965
-0.070017
-0.018670
0.032394
0.070877
0.087984
0.102277
0.101947
0.100726
0.087957
0.049314
0.021643
-0.033385
-0.082583
-0.128317
-0.168724
-0.203260
-0.205639
-0.202510
-0.164759
-0.101150
-0.035478
-0.005031
0.014851
0.045140
0.081805
0.112030
0.113070
0.104243
0.079626
0.047156
0.006814
-0.031685
-0.087852
-0.133535
-0.171613
-0.181691
-0.172957
-0.188847
-0.160831
-0.116345
-0.079089
-0.046309
-0.003926
0.043051
0.081640
0.095255
0.102329
0.082162
0.059869
0.035840
-0.003035
-0.057316
-0.093463
-0.152546
-0.192417
-0.203312
-0.189965
-0.182092
-0.158666
-0.129428
-0.090563
-0.023560
0.029818
0.047303
0.063098
0.079667
0.101711
0.092517
0.073078
0.037719
-0.017284
-0.068589
-0.103945
-0.140030
-0.172575
-0.192319
-0.206978
-0.207056
-0.174013
-0.124042
-0.086386
-0.051262
-0.002768
0.030191
0.072375
0.083765
0.095556
0.101465
0.084790
0.036783
-0.003409
-0.050838
-0.103791
-0.131468
-0.165962
-0.184512
-0.190378
-0.175179
-0.163928
-0.153778
-0.097625
-0.033558
0.013783
0.052896
0.074505
0.101103
0.096711
0.082400
0.068533
0.036019
-0.002231
-0.047392
-0.101477
-0.135648
-0.152381
-0.161704
-0.174296
-0.168091
-0.153739
-0.123557
-0.082893
-0.037671
0.015159
0.049574
0.090104
0.110128
0.110777
0.100145
0.082935
0.057399
0.028322
-0.006406
-0.059308
-0.093390
-0.121702
-0.143433
-0.160688
-0.152412
-0.130962
-0.077369
-0.035471
-0.009652
0.033457
0.072201
0.096466
0.116434
0.131694
0.124708
0.099497
0.061748
0.018720
-0.025395
-0.062300
-0.098775
-0.141911
-0.150630
-0.147538
-0.145370
-0.130462
-0.092189
-0.046516
-0.005694
0.051811
0.101317
0.140196
0.157274
0.157927
0.145172
0.091622
0.085248
0.054123
-0.002327
-0.058094
-0.095378
-0.129217
-0.152665
-0.164045
-0.158333
-0.144821
-0.106878
-0.056409
-0.024019
-0.012747
0.043311
0.094832
0.125840
0.126058
0.112091
0.074336
0.057510
0.004064
-0.037681
-0.093371
-0.128954
-0.167310
-0.191825
-0.199788
-0.185764
-0.171332
-0.145426
-0.109614
-0.063858
-0.010595
0.012762
0.064313
0.084813
0.092633
0.077138
0.050381
0.008141
-0.024286
-0.088272
-0.139483
-0.164887
-0.193858
-0.208466
-0.205839
-0.206204
-0.175876
-0.146167
-0.109817
-0.065228
-0.013675
0.015798
0.050295
0.068559
0.074876
0.063924
0.044179
0.011088
-0.031121
-0.078483
-0.142047
-0.179746
-0.217658
-0.221740
-0.216686
-0.193408
-0.176435
-0.152573
-0.120621
-0.073063
-0.022931
0.023775
0.055105
0.073666
0.074656
0.062212
0.057874
0.018402
-0.024177
-0.072654
-0.112921
-0.143134
-0.184815
-0.218882
-0.231345
-0.227769
-0.196305
-0.152372
-0.119266
-0.075056
-0.027156
-0.002544
0.033272
0.083778
0.096925
0.062335
0.020837
-0.013948
-0.062101
-0.088396
-0.119477
-0.151510
-0.201412
-0.234264
-0.237289
-0.211384
-0.194169
-0.139854
-0.089389
-0.033994
0.025165
0.070703
0.115391
0.163136
0.184647
0.189355
0.171368
0.138009
0.096577
0.066794
0.049575
0.049241
0.040647
0.041576
0.062401
0.089181
0.141049
0.227302
0.291161
0.364127
0.438923
0.514792
0.563714
0.614192
0.655582
0.694436
0.711909
0.710046
0.693789
0.677763
0.652073
0.611690
0.549394
0.547884
0.531744
0.538884
0.555061
0.572806
0.574532
0.552713
0.522557
0.509341
0.475418
0.451444
0.413073
0.353332
0.285181
0.205865
0.147311
0.077381
0.008543
-0.048466
-0.077235
-0.100181
-0.108115
-0.113658
-0.100450
-0.051953
-0.010307
0.030456
0.085945
0.113933
0.147401
0.166527
0.165556
0.156368
0.128763
0.080748
0.037612
-0.018754
-0.079607
-0.097975
-0.129126
-0.153689
-0.163853
-0.144761
-0.120609
-0.094744
-0.092401
-0.039146
0.061926
0.107234
0.110297
0.121286
0.127490
0.107942
0.081466
0.049645
0.008600
-0.035423
-0.080521
-0.125957
-0.154515
-0.160297
-0.166201
-0.166245
-0.139024
-0.101990
-0.065856
-0.023582
0.033455
0.078331
0.104106
0.124995
0.129440
0.117136
0.102838
0.050619
0.000008
-0.038366
-0.086973
-0.130857
-0.164285
-0.174656
-0.186659
-0.173902
-0.142162
-0.081523
-0.036281
0.012207
0.055295
0.097443
0.120254
0.141836
0.131089
0.122996
0.088554
0.064392
0.037748
-0.011244
-0.055845
-0.082498
-0.108926
-0.137643
-0.146109
-0.142487
-0.117553
-0.073724
-0.029515
0.019983
0.075427
0.112852
0.136758
0.154321
0.161739
0.160243
0.130716
0.092486
0.056524
0.007556
-0.042324
-0.081478
-0.105218
-0.109623
-0.109411
-0.101557
-0.096456
-0.051822
-0.000906
0.050626
0.096307
0.107202
0.165083
0.203583
0.214714
0.201552
0.164956
0.115339
0.087305
0.055479
0.014160
-0.031791
-0.053442
-0.072027
-0.077325
-0.073244
-0.063809
-0.013873
0.032817
0.079552
0.121631
0.171111
0.206216
0.231059
0.226355
0.217649
0.199720
0.166148
0.124929
0.059844
0.024554
-0.006795
-0.044146
-0.076005
-0.054834
-0.031857
-0.006831
0.042147
0.067704
0.100479
0.149042
0.187348
0.215226
0.226288
0.229467
0.248377
0.223515
0.179260
0.128854
0.076229
0.033974
-0.015016
-0.033871
-0.053812
-0.054812
-0.052779
-0.041538
0.005493
0.060876
0.113125
0.171627
0.184157
0.218374
0.234630
0.237830
0.227202
0.212017
0.170698
0.127059
0.074860
0.030366
-0.016238
-0.041716
-0.074376
-0.075663
-0.063170
-0.047360
-0.013897
0.028039
0.077465
0.110858
0.148439
0.193135
0.219027
0.219863
0.211708
0.182048
0.131128
0.077602
0.051610
-0.005126
-0.049634
-0.093845
-0.102076
-0.101915
-0.116853
-0.091223
-0.049146
-0.010045
0.047909
0.096711
0.130666
0.131597
0.148653
0.156381
0.159988
0.125489
0.086984
0.042955
0.005083
-0.042498
-0.088789
-0.125078
-0.151944
-0.159347
-0.149563
-0.129061
-0.090251
-0.044762
0.003737
0.036808
0.077914
0.116296
0.137707
0.131589
0.123104
0.089929
0.054899
0.009585
-0.030545
-0.079906
-0.129313
-0.146856
-0.169374
-0.168361
-0.173934
-0.150884
-0.100405
-0.064317
-0.022276
0.022467
0.054445
0.083550
0.101991
0.108735
0.089869
0.070882
0.044109
0.025094
-0.034548
-0.083401
-0.132660
-0.166041
-0.182761
-0.190060
-0.176493
-0.151638
-0.117887
-0.078410
-0.034994
0.000839
0.044576
0.075576
0.097318
0.119849
0.112996
0.090271
0.034780
-0.011455
-0.042677
-0.091814
-0.117019
-0.155770
-0.171048
-0.179776
-0.171132
-0.161192
-0.120997
-0.071573
-0.008663
0.031157
0.060895
0.076206
0.104235
0.109063
0.096491
0.070270
0.045573
0.015299
-0.020351
-0.071863
-0.119874
-0.157163
-0.170607
-0.183047
-0.161201
-0.126096
-0.102293
-0.072755
-0.011504
0.029213
0.050376
0.082003
0.110274
0.119083
0.111683
0.096158
0.064978
0.025803
-0.028120
-0.076991
-0.114449
-0.136277
-0.147693
-0.165766
-0.168946
-0.144198
-0.089509
-0.051464
-0.020814
0.023397
0.065858
0.092216
0.102610
0.124759
0.120536
0.079558
0.024214
0.007599
-0.038196
-0.110646
-0.127825
-0.149938
-0.156920
-0.148442
-0.149127
-0.141154
-0.105277
-0.075062
-0.029673
0.016207
0.060284
0.096318
0.111960
0.130059
0.136525
0.100379
0.052929
0.023280
-0.016385
-0.064220
-0.119501
-0.141995
-0.149990
-0.152968
-0.147264
-0.137702
-0.102700
-0.072019
-0.016579
0.012401
0.044604
0.092447
0.113550
0.127806
0.118275
0.088241
0.057013
0.019687
-0.029326
-0.071261
-0.119708
-0.154573
-0.175663
-0.189222
-0.177370
-0.140591
-0.101195
-0.062712
-0.023308
-0.008387
0.043805
0.094194
0.107542
0.120221
0.110773
0.082509
0.041004
0.007804
-0.027703
-0.078302
-0.121107
-0.160623
-0.163061
-0.177032
-0.176327
-0.154877
-0.126541
-0.093284
-0.039075
0.003079
0.046843
0.083113
0.096741
0.098163
0.099212
0.071997
0.035838
0.003148
-0.046045
-0.093061
-0.118213
-0.154973
-0.201950
-0.225927
-0.201667
-0.174236
-0.132464
-0.076546
-0.037518
-0.004993
0.028519
0.064033
0.095943
0.119890
0.105111
0.066699
0.023943
-0.001236
-0.036690
-0.091119
-0.130841
-0.157487
-0.176340
-0.191623
-0.180170
-0.167959
-0.128611
-0.076541
-0.041372
0.000037
0.052701
0.080505
0.084503
0.080831
0.091055
0.086748
0.049210
0.002933
-0.046738
-0.090751
-0.136022
-0.161426
-0.174564
-0.180880
-0.192498
-0.161290
-0.129838
-0.090824
-0.043956
-0.008062
0.049593
0.069553
0.082922
0.108796
0.108832
0.080665
0.049274
-0.001215
-0.052816
-0.103640
-0.155825
-0.188803
-0.201304
-0.180133
-0.164902
-0.155270
-0.125904
-0.082343
-0.029269
0.006548
0.050592
0.069409
0.087174
0.090480
0.081381
0.048689
0.003068
-0.002822
-0.048732
-0.073701
-0.118588
-0.158630
-0.164464
-0.180513
-0.170583
-0.142884
-0.120658
-0.093394
-0.033101
0.012244
0.056266
0.092600
0.112206
0.123617
0.121141
0.113766
0.089585
0.047767
-0.014449
-0.052425
-0.093024
-0.122828
-0.140791
-0.152595
-0.149729
-0.123132
-0.089966
-0.049024
-0.001458
0.037804
0.079340
0.115993
0.129698
0.150286
0.134934
0.100567
0.071974
0.023778
-0.027647
-0.060758
-0.098622
-0.124740
-0.144688
-0.142463
-0.134830
-0.112200
-0.096946
-0.059345
-0.002384
0.055434
0.099310
0.134326
0.146551
0.155454
0.144450
0.126077
0.104897
0.061133
-0.002644
-0.061701
-0.099735
-0.130620
-0.151290
-0.169117
-0.159259
-0.127219
-0.106946
-0.051656
0.008710
0.046159
0.082239
0.093162
0.103566
0.111536
0.109135
0.088212
0.069067
0.020223
-0.051133
-0.089713
-0.118393
-0.162603
-0.180983
-0.191442
-0.192262
-0.158817
-0.124731
-0.090626
-0.035425
0.002885
0.028299
0.054724
0.092620
0.095016
0.088158
0.059706
0.052344
0.003057
-0.083093
-0.114336
-0.149640
-0.175328
-0.200457
-0.212995
-0.205068
-0.182735
-0.154586
-0.110372
-0.065182
-0.019454
0.014257
0.049305
0.065351
0.057510
0.071026
0.061497
0.021063
-0.027794
-0.067372
-0.121335
-0.163884
-0.192024
-0.202941
-0.209931
-0.186497
-0.158199
-0.139846
-0.102600
-0.066366
-0.045539
0.019662
0.067618
0.059204
0.059951
0.054669
0.061250
0.023763
-0.013571
-0.073952
-0.101662
-0.147518
-0.189523
-0.213023
-0.216675
-0.208457
-0.178099
-0.144104
-0.099043
-0.057077
-0.013585
0.022071
0.049473
0.075887
0.087638
0.086663
0.032949
0.003546
-0.037857
-0.087215
-0.126739
-0.154360
-0.198329
-0.232449
-0.232365
-0.221421
-0.184120
-0.138579
-0.104720
-0.051585
0.012896
0.064748
0.125462
0.142012
0.156065
0.165011
0.145395
0.125968
0.101852
0.067568
0.034821
0.009071
0.001172
0.019806
0.027215
0.068102
0.115070
0.172036
0.243815
0.330952
0.413886
0.472940
0.541940
0.592389
0.620447
0.642560
0.656475
0.668975
0.662350
0.648230
0.638967
0.633979
0.623022
0.618785
0.594816
0.609584
0.622460
0.631301
0.655178
0.659459
0.675040
0.657080
0.622710
0.586257
0.527002
0.456931
0.388456
0.297761
0.206427
0.125294
0.054880
0.006552
-0.043447
-0.071181
-0.066708
-0.055559
-0.044359
-0.024897
0.012046
0.044672
0.079142
0.103325
0.141271
0.172973
0.160286
0.147326
0.126238
0.101937
0.046608
0.003560
-0.038957
-0.079097
-0.107466
-0.122536
-0.131213
-0.135432
-0.118654
-0.067353
-0.017471
0.007967
0.043212
0.074534
0.109444
0.124089
0.119297
0.098458
0.087783
0.060235
0.029827
-0.021112
-0.059876
-0.109045
-0.143367
-0.161906
-0.154654
-0.144558
-0.123813
-0.108292
-0.068579
-0.022490
0.029811
0.068000
0.106978
0.130130
0.133105
0.113650
0.092249
0.061854
0.026550
-0.014115
-0.067163
-0.099148
-0.127099
-0.152109
-0.162801
-0.170327
-0.143223
-0.099690
-0.048217
-0.000311
0.040634
0.081197
0.113529
0.138019
0.150744
0.134375
0.112104
0.079337
0.042158
-0.004313
-0.059888
-0.097458
-0.128429
-0.143421
-0.132149
-0.121420
-0.089988
-0.063545
-0.032809
0.021385
0.070303
0.106602
0.142843
0.156122
0.162678
0.158231
0.126733
0.097246
0.056138
0.012436
-0.027937
-0.058310
-0.092428
-0.135967
-0.121173
-0.100044
-0.067319
-0.037464
0.012768
0.057318
0.109248
0.140099
0.177159
0.187458
0.188939
0.184469
0.166092
0.147447
0.094763
0.054686
0.010253
-0.026149
-0.062579
-0.084471
-0.089452
-0.072359
-0.046610
-0.015330
0.025138
0.069398
0.111032
0.136102
0.218847
0.264026
0.256437
0.226590
0.208763
0.169117
0.131181
0.085950
0.046346
0.009320
-0.024396
-0.046092
-0.048851
-0.030829
-0.004618
0.030018
0.072287
0.092459
0.138475
0.194943
0.234695
0.248423
0.254008
0.238136
0.219878
0.186274
0.120153
0.103318
0.056011
0.015286
-0.018582
-0.051536
-0.054310
-0.029138
-0.001697
0.045529
0.075988
0.099492
0.158219
0.217319
0.238490
0.254868
0.259894
0.239966
0.212159
0.179604
0.138526
0.084551
0.041639
-0.001500
-0.023467
-0.044602
-0.061781
-0.050558
-0.032970
-0.001319
0.056222
0.098923
0.128547
0.166524
0.215954
0.259518
0.247603
0.228914
0.200739
0.161402
0.107057
0.054775
-0.002959
-0.059586
-0.064400
-0.072773
-0.089131
-0.086442
-0.067762
-0.026939
0.000889
0.049694
0.100423
0.127957
0.181033
0.196332
0.186739
0.169139
0.144022
0.107995
0.064850
0.011769
-0.045322
-0.087475
-0.114444
-0.137100
-0.141153
-0.123546
-0.103078
-0.076148
-0.034508
-0.004272
0.038550
0.077455
0.110344
0.127287
0.134594
0.133002
0.106815
0.069999
0.016453
-0.014699
-0.083913
-0.124011
-0.139327
-0.148632
-0.149072
-0.135894
-0.124046
-0.099731
-0.052712
-0.011824
0.032369
0.063555
0.095154
0.113300
0.123916
0.116009
0.083885
0.055425
0.016751
-0.024133
-0.072834
-0.127336
-0.146154
-0.164877
-0.178206
-0.172210
-0.154435
-0.093903
-0.053536
-0.024789
0.004263
0.040769
0.078768
0.107866
0.106364
0.101892
0.074472
0.051097
0.010551
-0.031579
-0.080032
-0.112010
-0.132407
-0.145574
-0.165937
-0.156389
-0.152721
-0.106595
-0.041602
-0.005173
0.033514
0.061650
0.084313
0.100962
0.109766
0.102595
0.094239
0.057141
0.021385
-0.027756
-0.078586
-0.111992
-0.137373
-0.159859
-0.172443
-0.177715
-0.146312
-0.091841
-0.028425
0.008548
0.044059
0.067222
0.102353
0.118239
0.118974
0.110101
0.080053
0.036092
-0.008144
-0.031027
-0.071499
-0.108226
-0.138243
-0.133125
-0.136798
-0.136374
-0.127381
-0.092510
-0.050269
-0.008553
0.032890
0.073260
0.106688
0.114822
0.131888
0.134966
0.118376
0.065455
0.008329
-0.025943
-0.060945
-0.082805
-0.128006
-0.159350
-0.167571
-0.152573
-0.124707
-0.076088
-0.028102
-0.003630
0.037389
0.070596
0.097734
0.118465
0.142260
0.125165
0.105376
0.060828
0.018195
-0.018539
-0.069075
-0.118458
-0.147833
-0.153731
-0.146769
-0.156621
-0.137715
-0.111345
-0.056354
-0.004217
0.036175
0.075283
0.099991
0.120981
0.124933
0.120689
0.099794
0.076751
0.020291
-0.038268
-0.095109
-0.125285
-0.146770
-0.164343
-0.170164
-0.155191
-0.118245
-0.086408
-0.047171
-0.015090
0.022014
0.061071
0.092614
0.106866
0.113293
0.101631
0.086334
0.039600
-0.015479
-0.039308
-0.087385
-0.125526
-0.147746
-0.166940
-0.154836
-0.128712
-0.146954
-0.113828
-0.050175
-0.012396
0.027813
0.076784
0.106517
0.122502
0.121189
0.105539
0.088992
0.050328
0.006650
-0.018900
-0.063135
-0.110763
-0.149886
-0.174329
-0.173197
-0.162059
-0.130097
-0.093879
-0.063674
-0.036076
0.019008
0.054651
0.080351
0.100352
0.100067
0.081573
0.065209
0.023463
0.029685
-0.010244
-0.076502
-0.121039
-0.158085
-0.170331
-0.167657
-0.156455
-0.150855
-0.121241
-0.088533
-0.034130
0.017765
0.070367
0.093336
0.119356
0.121429
0.097552
0.074248
0.036726
-0.007445
-0.041017
-0.070580
-0.101694
-0.138025
-0.173238
-0.187524
-0.177856
-0.164542
-0.123884
-0.077859
-0.036448
0.000540
0.052233
0.102109
0.123237
0.117371
0.086243
0.079331
0.045777
0.004194
-0.045804
-0.086034
-0.128422
-0.173386
-0.195028
-0.177861
-0.148694
-0.133042
-0.114410
-0.090025
-0.033795
0.001872
0.055722
0.092881
0.113921
0.126145
0.125011
0.092717
0.070936
0.024576
-0.020649
-0.058175
-0.099408
-0.129925
-0.148275
-0.150373
-0.143023
-0.121298
-0.082752
-0.031149
0.004867
0.041534
0.079337
0.121689
0.160999
0.171915
0.134490
0.099940
0.069161
0.029947
0.008283
-0.020662
-0.071517
-0.091364
-0.122335
-0.149040
-0.138341
-0.115344
-0.075334
-0.031510
0.016188
0.055514
0.101158
0.127902
0.155962
0.145776
0.131673
0.117354
0.099589
0.061467
0.018232
-0.030607
-0.076260
-0.100829
-0.101077
-0.118328
-0.113836
-0.098281
-0.064189
-0.021961
0.023121
0.071105
0.113229
0.136110
0.155102
0.146699
0.129559
0.115968
0.079163
0.046221
-0.009647
-0.057039
-0.120471
-0.155901
-0.169222
-0.181770
-0.162915
-0.136820
-0.092614
-0.061662
-0.028037
0.005894
0.044124
0.088044
0.117648
0.106257
0.086492
0.071590
0.044194
-0.004819
-0.039561
-0.100050
-0.148046
-0.174646
-0.185063
-0.197494
-0.201093
-0.169187
-0.127256
-0.078162
-0.026682
-0.003196
0.009851
0.044577
0.053874
0.063685
0.058395
0.046516
0.029477
-0.022973
-0.034743
-0.093907
-0.149550
-0.170637
-0.180845
-0.189837
-0.168295
-0.171210
-0.144456
-0.099339
-0.046366
-0.006710
0.018985
0.049578
0.063845
0.082659
0.073926
0.059598
0.032614
-0.004175
-0.055662
-0.082226
-0.134016
-0.183871
-0.211545
-0.208231
-0.191026
-0.175121
-0.141470
-0.100838
-0.045665
-0.001212
0.043892
0.069351
0.074429
0.082630
0.067333
0.058504
0.026757
-0.018894
-0.066641
-0.109560
-0.148743
-0.164263
-0.201253
-0.210132
-0.198912
-0.182644
-0.146409
-0.120612
-0.080550
-0.033845
0.018031
0.049400
0.061459
0.069242
0.057030
0.059280
0.043137
0.025942
-0.026847
-0.064998
-0.095065
-0.099339
-0.107795
-0.100303
-0.074157
-0.031840
0.012167
0.052126
0.108476
0.187111
0.248765
0.317640
0.348617
0.389317
0.411919
0.419169
0.401930
0.420740
0.404839
0.391050
0.363224
0.374656
0.412579
0.470170
0.528303
0.562994
0.625011
0.693171
0.773291
0.819226
0.838646
0.867000
0.889827
0.894649
0.874812
0.812056
0.749922
0.684083
0.584827
0.451069
0.340995
0.239561
0.183783
0.117189
0.077455
0.061878
0.048371
0.074191
0.119869
0.160457
0.191378
0.211221
0.223490
0.220087
0.187572
0.167508
0.147161
0.098325
0.040921
-0.009143
-0.041409
-0.072439
-0.107503
-0.116497
-0.110610
-0.089318
-0.070272
-0.031370
0.007903
0.060819
0.100944
0.136185
0.144303
0.122389
0.099098
0.086994
0.084919
0.068875
0.026277
-0.034940
-0.099330
-0.127071
-0.159321
-0.175951
-0.172598
-0.125451
-0.084092
-0.065092
-0.008654
0.045069
0.094059
0.131181
0.137855
0.130279
0.111225
0.089469
0.057644
0.028204
-0.017213
-0.064774
-0.103300
-0.133061
-0.150460
-0.143036
-0.132543
-0.094014
-0.057929
-0.039724
-0.015591
0.025585
0.060503
0.081918
0.126100
0.148417
0.155625
0.133668
0.078106
0.034543
-0.009305
-0.045652
-0.085932
-0.112500
-0.130016
-0.151165
-0.144572
-0.114039
-0.069612
-0.047980
-0.004357
0.052866
0.106713
0.134548
0.148813
0.160704
0.164711
0.142194
0.104089
0.074359
0.026836
-0.020749
-0.056874
-0.091123
-0.120730
-0.125473
-0.120547
-0.088882
-0.043435
-0.013854
0.012753
0.061822
0.129415
0.175962
0.186507
0.186710
0.176919
0.165550
0.151053
0.127139
0.081020
0.007779
-0.046675
-0.093439
-0.067565
-0.064306
-0.066857
-0.042516
-0.005718
0.025101
0.064391
0.116701
0.164295
0.197640
0.211720
0.211090
0.204929
0.203126
0.162618
0.123204
0.076691
0.049229
0.014834
-0.021414
-0.041918
-0.042884
-0.028662
-0.016799
0.010728
0.045435
0.112346
0.159544
0.182126
0.217917
0.249246
0.254570
0.240238
0.221665
0.188675
0.159312
0.114866
0.070139
0.019966
-0.004118
-0.014050
-0.029486
-0.032564
-0.009529
0.032748
0.066459
0.105494
0.139842
0.176015
0.202665
0.244737
0.253383
0.265020
0.217156
0.173482
0.132670
0.105477
0.062257
0.021008
-0.000287
-0.015695
-0.011810
-0.017942
-0.009694
0.025269
0.060803
0.086390
0.122372
0.171790
0.202408
0.210482
0.241598
0.233689
0.219388
0.177285
0.147035
0.095290
0.033681
-0.014179
-0.050494
-0.070532
-0.072792
-0.067247
-0.062177
-0.038119
-0.004750
0.042622
0.100588
0.130723
0.153436
0.223107
0.226453
0.197129
0.162871
0.131964
0.101839
0.061413
-0.005976
-0.052315
-0.065560
-0.095431
-0.113633
-0.113268
-0.094635
-0.076156
-0.018964
0.023949
0.067048
0.101609
0.130315
0.150419
0.140731
0.126489
0.114575
0.083407
0.043738
-0.012377
-0.078315
-0.117073
-0.140516
-0.144246
-0.123482
-0.122758
-0.094317
-0.082416
-0.075227
-0.030000
0.029646
0.068955
0.098279
0.131991
0.126531
0.120330
0.095818
0.084851
0.051417
-0.014208
-0.082641
-0.109737
-0.132036
-0.146419
-0.149806
-0.154715
-0.152816
-0.124305
-0.082524
-0.040236
0.015037
0.055857
0.088821
0.111525
0.123943
0.126154
0.085630
0.065898
0.036907
-0.018803
-0.081450
-0.149232
-0.162325
-0.160645
-0.153107
-0.145220
-0.115000
-0.097411
-0.068892
-0.016543
0.026742
0.067130
0.101687
0.120965
0.123805
0.124565
0.087415
0.070938
0.044207
-0.005114
-0.072785
-0.104866
-0.126901
-0.154895
-0.148048
-0.159731
-0.143471
-0.126542
-0.085515
-0.028346
0.055306
0.108777
0.117341
0.124798
0.118902
0.121161
0.093596
0.057069
0.025509
-0.028072
-0.074433
-0.112098
-0.140309
-0.152351
-0.161223
-0.141464
-0.115004
-0.090496
-0.070245
-0.044780
0.016530
0.071947
0.117463
0.148774
0.147650
0.136110
0.109869
0.074573
0.039648
-0.006937
-0.044571
-0.090156
-0.118789
-0.134588
-0.142270
-0.146290
-0.138102
-0.108550
-0.061120
-0.003347
0.049787
0.089791
0.103580
0.122812
0.131120
0.125124
0.105376
0.064923
0.032386
-0.018436
-0.049761
-0.083898
-0.114590
-0.145076
-0.163892
-0.157332
-0.131545
-0.105123
-0.050452
-0.009738
0.022136
0.093218
0.134226
0.145211
0.135829
0.122636
0.103334
0.079378
0.051178
0.014664
-0.050047
-0.108476
-0.146813
-0.164755
-0.170716
-0.155909
-0.144525
-0.107769
-0.055687
-0.004419
0.034200
0.068077
0.100535
0.144403
0.141055
0.120215
0.094475
0.054401
0.023859
-0.015635
-0.072860
-0.122453
-0.138609
-0.162036
-0.162050
-0.165337
-0.124911
-0.085862
-0.032805
-0.005374
0.031691
0.069385
0.108831
0.118248
0.104148
0.104577
0.078659
0.033914
0.005769
-0.021737
-0.061601
-0.114827
-0.170397
-0.176512
-0.166978
-0.136657
-0.123307
-0.100596
-0.070596
-0.024492
0.021005
0.051188
0.074369
0.099453
0.144802
0.161147
0.116342
0.068692
0.017213
-0.044273
-0.096791
-0.129924
-0.141977
-0.149594
-0.166185
-0.157170
-0.141585
-0.129644
-0.076332
-0.033492
0.017453
0.059119
0.086956
0.120360
0.125931
0.115316
0.087574
0.042743
-0.003778
-0.041951
-0.087994
-0.121280
-0.148268
-0.175151
-0.164404
-0.160391
-0.139101
-0.108118
-0.074553
-0.031192
0.006007
0.036778
0.041385
0.090484
0.124737
0.128696
0.107861
0.073198
0.023346
-0.028523
-0.092011
-0.130856
-0.155199
-0.175659
-0.178602
-0.182347
-0.154910
-0.107286
-0.046796
-0.005424
0.021870
0.061878
0.093572
0.112029
0.116509
0.099018
0.079639
0.046734
0.006563
-0.056225
-0.065701
-0.092370
-0.140905
-0.161321
-0.168094
-0.150528
-0.137714
-0.121541
-0.075199
-0.024462
0.020891
0.072361
0.100080
0.126408
0.133321
0.122587
0.103079
0.067885
0.026911
-0.013590
-0.077796
-0.105040
-0.130947
-0.136558
-0.145641
-0.146414
-0.111682
-0.078793
-0.044749
-0.002533
0.069272
0.112797
0.141795
0.160007
0.169399
0.163763
0.117848
0.058918
0.048700
0.018693
-0.014003
-0.047619
-0.101646
-0.137263
-0.137532
-0.141168
-0.118310
-0.076400
-0.019425
0.029030
0.060580
0.096122
0.125519
0.150974
0.158946
0.169050
0.140638
0.106747
0.057576
0.015897
-0.020883
-0.067547
-0.105030
-0.115329
-0.112091
-0.116023
-0.097985
-0.071313
-0.028968
0.021849
0.061565
0.083620
0.109464
0.131916
0.148236
0.131060
0.116972
0.080764
0.021185
-0.033765
-0.069266
-0.098434
-0.120741
-0.127843
-0.166272
-0.155083
-0.118431
-0.090893
-0.055730
-0.019080
0.017354
0.048368
0.075410
0.118653
0.104501
0.105399
0.084873
0.043866
-0.005729
-0.050786
-0.091279
-0.124515
-0.169741
-0.192100
-0.194099
-0.185900
-0.190039
-0.159868
-0.079869
0.002125
0.040857
0.041320
0.054933
0.079232
0.083157
0.076044
0.063302
0.012917
-0.021948
-0.046004
-0.080312
-0.125539
-0.159195
-0.182125
-0.207027
-0.205659
-0.173921
-0.156471
-0.100327
-0.054135
-0.005506
0.037655
0.063983
0.089544
0.101361
0.094764
0.064175
0.036553
-0.007234
-0.055441
-0.105261
-0.152635
-0.185326
-0.200060
-0.201017
-0.196611
-0.160001
-0.132030
-0.088106
-0.047949
-0.021318
0.029261
0.051160
0.072654
0.085908
0.099803
0.079649
0.025797
-0.005696
-0.053886
-0.078132
-0.121772
-0.164532
-0.190948
-0.203046
-0.182283
-0.157580
-0.130448
-0.095554
-0.052747
-0.023413
0.005265
0.048202
0.062833
0.089572
0.093756
0.052427
0.025579
0.004282
-0.035796
-0.073767
-0.097988
-0.095115
-0.106372
-0.106888
-0.079546
-0.027396
0.000553
0.050258
0.111329
0.176687
0.265540
0.327257
0.360791
0.386423
0.409995
0.432124
0.449775
0.429725
0.417133
0.412594
0.394554
0.398793
0.414930
0.451402
0.505317
0.571562
0.624564
0.695772
0.775415
0.830970
0.872517
0.891573
0.906545
0.881313
0.850760
0.800472
0.734819
0.633493
0.550046
0.457751
0.370127
0.286067
0.215220
0.131969
0.083392
0.067641
0.062721
0.098655
0.134457
0.167392
0.207640
0.213525
0.213957
0.233994
0.243269
0.200663
0.161495
0.098143
0.045529
-0.006942
-0.036567
-0.076048
-0.122386
-0.127452
-0.113919
-0.075288
-0.047831
-0.007295
0.048735
0.082279
0.096918
0.106903
0.142279
0.149025
0.135919
0.123066
0.106720
0.046517
0.008651
-0.039641
-0.085395
-0.120690
-0.140927
-0.160521
-0.152868
-0.111204
-0.086676
-0.057559
-0.011882
0.034264
0.076414
0.112797
0.118664
0.110129
0.112155
0.101492
0.082026
0.046071
0.008667
-0.042875
-0.088703
-0.124476
-0.145550
-0.153269
-0.148551
-0.111886
-0.087488
-0.061488
-0.016716
0.034429
0.077497
0.109221
0.120891
0.130834
0.129115
0.100529
0.065766
0.023192
-0.021374
-0.053211
-0.089144
-0.131130
-0.132423
-0.131359
-0.128797
-0.118840
-0.079276
-0.020434
0.024116
0.077555
0.096151
0.131729
0.169060
0.183219
0.166914
0.139900
0.105261
0.070701
0.025954
-0.016936
-0.050852
-0.077364
-0.087268
-0.106623
-0.091422
-0.067850
-0.050628
-0.012739
0.045908
0.083926
0.117683
0.174635
0.195736
0.180427
0.161889
0.146431
0.130353
0.088093
0.050766
0.019816
-0.032989
-0.065736
-0.057560
-0.077845
-0.080465
-0.053897
-0.015205
0.034328
0.078833
0.118884
0.156176
0.182716
0.212138
0.215090
0.205293
0.197846
0.169782
0.125951
0.088279
0.046902
0.001926
-0.031512
-0.023787
-0.034516
-0.037121
-0.009362
0.017141
0.057533
0.103570
0.160371
0.203727
0.229578
0.226986
0.236069
0.237944
0.212660
0.207041
0.165584
0.108885
0.060443
0.021826
-0.032032
-0.021503
-0.025653
-0.027129
-0.016403
0.018289
0.054847
0.117772
0.179116
0.217950
0.249474
0.253680
0.272621
0.271639
0.233501
0.184050
0.152458
0.117270
0.063079
0.023171
-0.017635
-0.040675
-0.029544
-0.019276
0.023928
0.028031
0.054440
0.100884
0.135984
0.183199
0.213880
0.224495
0.224428
0.225186
0.204846
0.165189
0.132417
0.079065
0.023989
-0.022823
-0.044325
-0.045789
-0.053598
-0.049169
-0.049596
-0.020500
0.018333
0.052044
0.090371
0.130041
0.164233
0.188861
0.205752
0.188868
0.163173
0.136674
0.090227
0.040346
-0.014138
-0.065907
-0.078267
-0.098205
-0.121168
-0.117537
-0.100695
-0.067036
-0.027366
0.025821
0.058123
0.086496
0.100240
0.145223
0.157756
0.138621
0.116366
0.086077
0.047395
-0.002092
-0.037034
-0.082510
-0.119527
-0.144453
-0.164488
-0.166661
-0.150812
-0.097097
-0.028615
0.022922
0.043115
0.080749
0.104210
0.120546
0.132384
0.106394
0.104252
0.082163
0.043420
-0.016707
-0.058378
-0.107706
-0.129366
-0.149985
-0.167659
-0.162933
-0.148573
-0.117165
-0.073760
-0.027680
0.034835
0.069652
0.094152
0.111885
0.115026
0.105795
0.093421
0.068591
0.028443
-0.025317
-0.069170
-0.110274
-0.145606
-0.157501
-0.161890
-0.150905
-0.150189
-0.124307
-0.089236
-0.068412
0.013253
0.052060
0.098747
0.123663
0.118335
0.098355
0.080118
0.050222
0.014660
-0.017016
-0.065000
-0.105967
-0.130153
-0.150613
-0.169250
-0.143529
-0.119226
-0.092008
-0.062639
-0.010000
0.055023
0.069240
0.088266
0.100735
0.113186
0.133115
0.113404
0.063212
0.017880
-0.021302
-0.067676
-0.076305
-0.104151
-0.144465
-0.164302
-0.154146
-0.146014
-0.095513
-0.049721
-0.009154
0.048962
0.085209
0.103530
0.122232
0.126443
0.114448
0.101161
0.074533
0.024473
-0.017547
-0.063624
-0.101929
-0.140917
-0.151305
-0.168249
-0.128540
-0.111184
-0.094712
-0.070975
-0.025890
0.032514
0.076193
0.113621
0.123427
0.131411
0.123384
0.119480
0.076070
0.029986
-0.015915
-0.056868
-0.096963
-0.133954
-0.151452
-0.181617
-0.173925
-0.145183
-0.101815
-0.062214
-0.013698
0.025190
0.053767
0.073260
0.087384
0.124445
0.137528
0.111591
0.085186
0.041516
-0.013091
-0.083016
-0.108935
-0.123523
-0.130921
-0.155222
-0.163397
-0.149184
-0.118853
-0.066027
-0.015378
0.014365
0.039688
0.089788
0.116800
0.134421
0.128960
0.102327
0.063803
0.026879
-0.023498
-0.061378
-0.103832
-0.134969
-0.149930
-0.164940
-0.166308
-0.144925
-0.115455
-0.071582
-0.029875
0.020319
0.060471
0.090307
0.106528
0.088498
0.075078
0.059072
0.079264
0.028283
-0.031585
-0.066406
-0.074365
-0.130822
-0.168125
-0.187919
-0.166622
-0.156043
-0.111250
-0.083008
-0.035536
0.014529
0.044187
0.081470
0.118976
0.124525
0.112395
0.101372
0.048654
0.002859
-0.044055
-0.081425
-0.132396
-0.155108
-0.177934
-0.180933
-0.187005
-0.179067
-0.145829
-0.084579
-0.028864
0.006821
0.040497
0.058803
0.087497
0.120999
0.116688
0.102448
0.069743
0.014758
-0.035571
-0.083672
-0.129987
-0.153559
-0.167286
-0.192007
-0.180227
-0.151665
-0.101124
-0.084857
-0.059358
-0.007997
0.034740
0.066548
0.091968
0.097920
0.108921
0.099157
0.063048
0.009539
-0.038534
-0.089641
-0.131232
-0.151667
-0.193720
-0.200306
-0.205801
-0.183587
-0.124794
-0.070931
-0.025275
-0.020260
0.031614
0.065849
0.120369
0.146381
0.128713
0.143131
0.097175
0.053691
-0.002055
-0.063651
-0.115786
-0.132985
-0.147357
-0.177308
-0.161219
-0.122382
-0.083630
-0.046106
0.000812
0.042768
0.081680
0.103901
0.143010
0.164722
0.153043
0.120789
0.076312
0.034391
-0.009008
-0.054166
-0.094618
-0.133882
-0.156991
-0.169627
-0.155771
-0.128151
-0.098264
-0.052423
-0.005210
0.048313
0.084965
0.115172
0.128647
0.173586
0.181014
0.153024
0.104186
0.058600
0.011125
-0.036504
-0.079516
-0.114754
-0.129418
-0.150655
-0.147704
-0.118239
-0.087532
-0.047075
-0.002385
0.034056
0.067444
0.096501
0.123325
0.135242
0.116992
0.129893
0.081726
0.027178
-0.049556
-0.075520
-0.112600
-0.124289
-0.147926
-0.164798
-0.172373
-0.164200
-0.129933
-0.080222
-0.044355
0.001222
0.046108
0.079358
0.088700
0.093623
0.092197
0.059320
0.030407
-0.007680
-0.048556
-0.089886
-0.134823
-0.171461
-0.204756
-0.196399
-0.188249
-0.189980
-0.155625
-0.122533
-0.070359
-0.027425
0.019724
0.062190
0.086509
0.073596
0.042669
0.036485
0.013623
-0.004310
-0.050434
-0.102629
-0.153289
-0.187932
-0.216022
-0.212222
-0.197292
-0.182857
-0.152065
-0.116809
-0.069927
-0.019060
0.018436
0.046752
0.058236
0.056444
0.049214
0.054258
0.007720
-0.019769
-0.061112
-0.101529
-0.157706
-0.199169
-0.220122
-0.238000
-0.210883
-0.191354
-0.178562
-0.114973
-0.076472
-0.030276
0.000212
0.030995
0.063059
0.082714
0.071850
0.048532
0.018237
-0.026775
-0.058084
-0.110588
-0.151690
-0.192586
-0.237311
-0.226942
-0.218897
-0.194562
-0.157528
-0.121226
-0.075733
-0.025469
0.011143
0.033564
0.065342
0.068252
0.060851
0.061527
0.029203
-0.002968
-0.034901
-0.075165
-0.106413
-0.105669
-0.109049
-0.092848
-0.074490
-0.045734
0.000193
0.054072
0.124561
0.165800
0.220157
0.285138
0.330093
0.370586
0.407902
0.418441
0.434791
0.441747
0.431632
0.418537
0.380531
0.384564
0.406137
0.450215
0.491636
0.538545
0.622957
0.691023
0.755958
0.788230
0.816246
0.839331
0.839915
0.801303
0.781170
0.766315
0.709479
0.618026
0.495767
0.382034
0.277826
0.203967
0.133320
0.074186
0.022480
0.006597
0.032649
0.069731
0.094359
0.125150
0.161212
0.176709
0.210200
0.204652
0.186470
0.160564
0.109811
0.070058
0.041066
-0.007243
-0.056432
-0.085920
-0.121318
-0.134921
-0.135715
-0.120543
-0.077468
-0.041077
0.011817
0.050337
0.071500
0.092822
0.121419
0.115513
0.125923
0.106646
0.054011
0.008728
-0.025903
-0.033232
-0.066509
-0.115152
-0.162941
-0.167821
-0.153314
-0.128332
-0.105936
-0.055889
-0.021584
0.011792
0.051226
0.086383
0.095464
0.119756
0.103223
0.092179
0.062727
0.014520
-0.030321
-0.078113
-0.119391
-0.115901
-0.142766
-0.142026
-0.149336
-0.147785
-0.121856
-0.057916
0.003807
0.048092
0.082231
0.085546
0.111834
0.115578
0.114336
0.094896
0.071373
0.032252
-0.002998
-0.075778
-0.092267
-0.104628
-0.126576
-0.146684
-0.132225
-0.110454
-0.093523
-0.056733
-0.020289
0.035591
0.077806
0.102426
0.113882
0.133391
0.118902
0.119001
0.107322
0.064032
0.011784
-0.030785
-0.074277
-0.093831
-0.114886
-0.118347
-0.118655
-0.098463
-0.053453
-0.033363
0.008547
0.058312
0.113846
0.162152
0.173343
0.173139
0.160420
0.148408
0.123633
0.081866
0.015938
-0.024283
-0.030248
-0.072157
-0.097379
-0.101417
-0.083130
-0.062038
-0.021907
0.017654
0.057431
0.104617
0.149891
0.165932
0.187576
0.199811
0.195421
0.172325
0.148306
0.116782
0.083602
0.041960
-0.004156
-0.034874
-0.075717
-0.070353
-0.036404
0.001208
0.024505
0.046308
0.087919
0.132355
0.183803
0.202809
0.230683
0.231335
0.226152
0.216199
0.195095
0.154345
0.109177
0.062366
0.013924
-0.013816
-0.054100
-0.037265
-0.025260
-0.014797
0.013378
0.056923
0.088422
0.137763
0.174627
0.210115
0.237780
0.242947
0.236945
0.215020
0.175102
0.123599
0.099281
0.063134
0.023310
-0.013907
-0.029939
-0.053626
-0.048543
-0.045614
-0.017618
0.021923
0.075559
0.131470
0.188099
0.221359
0.233866
0.212407
0.188595
0.174747
0.159107
0.117292
0.070230
0.026857
-0.005527
-0.048282
-0.071289
-0.079841
-0.087716
-0.064760
-0.054892
-0.001827
0.062902
0.109006
0.135607
0.158796
0.183027
0.171747
0.153692
0.155228
0.121982
0.079217
0.051747
-0.005428
-0.062422
-0.111576
-0.123684
-0.126040
-0.115735
-0.119749
-0.089419
-0.053757
0.007004
0.061346
0.095532
0.108931
0.134846
0.135456
0.121936
0.100763
0.073823
0.043162
0.008806
-0.036850
-0.096143
-0.133720
-0.165064
-0.163624
-0.165661
-0.138221
-0.086426
-0.054463
-0.031079
0.010018
0.061082
0.083636
0.102528
0.123054
0.134198
0.123007
0.082320
0.020313
-0.048545
-0.087988
-0.117636
-0.156850
-0.193428
-0.156527
-0.129216
-0.130891
-0.118621
-0.082829
-0.032255
0.016619
0.073036
0.116733
0.131553
0.119647
0.113202
0.084196
0.056143
0.007332
-0.043900
-0.098528
-0.139157
-0.171744
-0.206414
-0.214553
-0.179117
-0.122053
-0.082911
-0.059173
-0.027155
0.003910
0.042548
0.084669
0.099436
0.111484
0.110167
0.093506
0.072685
0.023785
-0.032652
-0.082404
-0.096058
-0.130856
-0.182560
-0.176603
-0.161620
-0.144474
-0.117254
-0.079175
-0.032762
0.007141
0.049224
0.091302
0.116011
0.124289
0.108436
0.092581
0.059482
0.017173
-0.031930
-0.073749
-0.104784
-0.132961
-0.165041
-0.185337
-0.186779
-0.153181
-0.128769
-0.101344
-0.050538
-0.004981
0.054980
0.101378
0.126386
0.130250
0.116384
0.087247
0.061371
0.016615
-0.015941
-0.036275
-0.085572
-0.143955
-0.158927
-0.170704
-0.173944
-0.145892
-0.105711
-0.070272
-0.025344
0.028587
0.065847
0.082435
0.091784
0.100863
0.121936
0.114936
0.069128
0.030078
-0.013120
-0.079974
-0.119611
-0.143393
-0.155003
-0.151214
-0.151577
-0.138927
-0.114209
-0.074549
-0.041490
0.006773
0.040148
0.081426
0.098857
0.123301
0.123702
0.090126
0.045690
0.008073
-0.022660
-0.061658
-0.106014
-0.145092
-0.175162
-0.184459
-0.190283
-0.163668
-0.133126
-0.085606
-0.037110
0.004926
0.052492
0.091538
0.110949
0.113722
0.110775
0.077774
0.051552
0.009469
-0.044864
-0.086022
-0.124823
-0.157266
-0.189545
-0.187429
-0.172309
-0.150816
-0.133072
-0.081687
-0.018430
0.015704
0.049827
0.075304
0.079648
0.100339
0.107003
0.087949
0.066590
0.018353
-0.029558
-0.076595
-0.124346
-0.160341
-0.192815
-0.195905
-0.186043
-0.160022
-0.113371
-0.090507
-0.072333
-0.011236
0.030598
0.077195
0.095015
0.090263
0.103345
0.069136
0.042006
-0.000648
-0.050358
-0.094159
-0.122154
-0.158708
-0.177657
-0.196364
-0.203826
-0.176885
-0.145719
-0.099978
-0.050000
-0.016281
0.021208
0.052224
0.089022
0.098335
0.103995
0.082910
0.032530
-0.013059
-0.060363
-0.094287
-0.130825
-0.175559
-0.190040
-0.198142
-0.187621
-0.167839
-0.138030
-0.103052
-0.055933
-0.009427
0.021722
0.064316
0.081891
0.084135
0.077341
0.048223
0.015708
-0.003392
-0.050400
-0.098043
-0.120296
-0.150489
-0.195654
-0.190735
-0.187844
-0.177149
-0.135683
-0.101691
-0.046973
0.003971
0.045914
0.075205
0.092773
0.103429
0.103146
0.090035
0.058393
0.019940
-0.028482
-0.067121
-0.110338
-0.144695
-0.174978
-0.191302
-0.189722
-0.173040
-0.139333
-0.084970
0.002168
0.038639
0.063814
0.060690
0.089817
0.111743
0.146653
0.149109
0.111570
0.038031
-0.030142
-0.078377
-0.101645
-0.134576
-0.157885
-0.162476
-0.164189
-0.151806
-0.111651
-0.084738
-0.010397
0.020221
0.063924
0.100053
0.127975
0.128206
0.142467
0.146963
0.101174
0.055888
0.009190
-0.036757
-0.063110
-0.111356
-0.132995
-0.130962
-0.131480
-0.114766
-0.102693
-0.066867
-0.025772
0.021575
0.056762
0.089640
0.124719
0.121692
0.101153
0.064251
0.042319
-0.009570
-0.033941
-0.086378
-0.139642
-0.165516
-0.188799
-0.201860
-0.207109
-0.192240
-0.152206
-0.108041
-0.066456
-0.020858
0.031354
0.066661
0.075670
0.097218
0.105098
0.086349
0.037253
-0.004539
-0.051765
-0.111651
-0.148018
-0.169663
-0.201348
-0.210895
-0.219066
-0.193805
-0.165821
-0.122212
-0.073317
-0.030809
-0.016670
0.045709
0.077960
0.082357
0.062335
0.029260
-0.016572
-0.048846
-0.098912
-0.143480
-0.189755
-0.204029
-0.179116
-0.184356
-0.208971
-0.186762
-0.159226
-0.113834
-0.069167
-0.031619
-0.013599
0.036645
0.065360
0.077755
0.066485
0.053588
0.008560
-0.027213
-0.071988
-0.120011
-0.164877
-0.197884
-0.228892
-0.235253
-0.225217
-0.195290
-0.165944
-0.138586
-0.085447
-0.034735
-0.005275
0.037304
0.053940
0.064449
0.060706
0.032253
0.004059
-0.034130
-0.082442
-0.127881
-0.161085
-0.201110
-0.226275
-0.238436
-0.236172
-0.219554
-0.187461
-0.143460
-0.101802
-0.033306
-0.005219
0.037435
0.048777
0.060741
0.069474
0.075338
0.048267
-0.000704
-0.037657
-0.069779
-0.087209
-0.083256
-0.097464
-0.090008
-0.073190
-0.047141
0.002825
0.072966
0.125810
0.178763
0.241329
0.306828
0.352821
0.392168
0.415196
0.443679
0.449189
0.430354
0.406291
0.372019
0.355878
0.354060
0.363880
0.395593
0.428953
0.496022
0.549611
0.625198
0.686218
0.737845
0.780778
0.815762
0.803621
0.795793
0.778798
0.733557
0.636712
0.534463
0.422338
0.309019
0.204646
0.135745
0.065719
0.009760
-0.026060
-0.025965
-0.020035
-0.008762
0.012280
0.049876
0.080568
0.129131
0.160398
0.157596
0.141676
0.123115
0.086713
0.048393
0.008037
-0.039902
-0.077514
-0.118731
-0.144654
-0.152717
-0.156685
-0.140605
-0.104183
-0.063322
-0.019305
0.021854
0.057172
0.103735
0.133629
0.126346
0.113209
0.095182
0.058305
0.005097
-0.047353
-0.089044
-0.131868
-0.149472
-0.175191
-0.188058
-0.182638
-0.150394
-0.117490
-0.056884
-0.050077
0.003998
0.044376
0.076979
0.101615
0.106230
0.114607
0.097402
0.056546
0.012290
-0.036144
-0.072542
-0.115323
-0.148616
-0.171998
-0.171918
-0.175495
-0.161455
-0.124452
-0.073122
-0.039798
-0.007079
0.030572
0.055866
0.081151
0.107529
0.107118
0.103545
0.040750
0.020112
-0.012340
-0.071233
-0.122135
-0.155348
-0.162262
-0.146165
-0.141085
-0.126739
-0.077487
-0.034796
-0.005423
0.036930
0.089141
0.122234
0.129379
0.141193
0.142934
0.122672
0.091280
0.049398
0.006597
-0.047398
-0.092205
-0.128894
-0.149689
-0.164553
-0.144699
-0.104323
-0.063804
-0.033935
0.013529
0.056841
0.095435
0.122215
0.150293
0.169522
0.162537
0.143341
0.105561
0.069569
0.019717
-0.012538
-0.050862
-0.077377
-0.097485
-0.107856
-0.108726
-0.082874
-0.048370
-0.002343
0.037836
0.091883
0.137862
0.162432
0.189306
0.196067
0.193647
0.186743
0.135829
0.085016
0.026955
0.011151
-0.020768
-0.069105
-0.065289
-0.057257
-0.040161
-0.037576
-0.006729
0.049238
0.095638
0.128778
0.152313
0.187366
0.215681
0.227233
0.224612
0.185568
0.183885
0.132291
0.078996
0.034300
-0.002890
-0.030958
-0.037200
-0.050223
-0.050111
-0.062607
-0.040080
0.004866
0.079055
0.132302
0.171827
0.196696
0.203501
0.222769
0.208251
0.208789
0.177680
0.126740
0.078590
0.035971
-0.014333
-0.045869
-0.066768
-0.097233
-0.087485
-0.049424
-0.015671
0.025803
0.065481
0.106056
0.143679
0.187017
0.205667
0.204761
0.206007
0.186541
0.144096
0.095927
0.048050
0.009240
-0.047576
-0.094905
-0.113917
-0.111632
-0.103388
-0.097070
-0.070311
-0.005261
0.039256
0.092216
0.134627
0.145539
0.147165
0.152759
0.156055
0.138749
0.108164
0.065390
0.013898
-0.030511
-0.064364
-0.108821
-0.133299
-0.143484
-0.150953
-0.127067
-0.091895
-0.046641
0.000347
0.041384
0.074814
0.096730
0.120142
0.128972
0.118053
0.101821
0.065194
0.021174
-0.034458
-0.080128
-0.119678
-0.149442
-0.159307
-0.164901
-0.163324
-0.155566
-0.113872
-0.082862
-0.038050
-0.007721
0.028712
0.065485
0.099707
0.104032
0.099165
0.078244
0.052439
0.001405
-0.047010
-0.088439
-0.134770
-0.165996
-0.180399
-0.204129
-0.187120
-0.157570
-0.129603
-0.088515
-0.039143
0.000075
0.043285
0.062558
0.077897
0.089163
0.086163
0.070537
0.041971
-0.010912
-0.065254
-0.102108
-0.122467
-0.151039
-0.188839
-0.207313
-0.192934
-0.172134
-0.133067
-0.090794
-0.047103
-0.004579
0.036648
0.069579
0.076390
0.094121
0.090335
0.070627
0.039044
-0.002856
-0.053219
-0.100394
-0.131346
-0.165631
-0.191457
-0.204681
-0.187404
-0.145822
-0.121557
-0.080865
-0.054706
-0.000068
0.047272
0.070824
0.068998
0.100025
0.105062
0.078715
0.048137
0.001174
-0.067937
-0.081068
-0.125675
-0.157646
-0.175384
-0.199180
-0.199104
-0.156339
-0.105885
-0.083741
-0.040060
0.012685
0.029838
0.056063
0.095790
0.108745
0.115109
0.098286
0.059330
0.009562
-0.039771
-0.069877
-0.108758
-0.158240
-0.203385
-0.192453
-0.162035
-0.137423
-0.116951
-0.066061
-0.031539
-0.005154
0.041094
0.059181
0.084864
0.099000
0.091226
0.068254
0.044155
0.013813
-0.025648
-0.073429
-0.123726
-0.159971
-0.178093
-0.183730
-0.183988
-0.163542
-0.138187
-0.098031
-0.045979
-0.013426
0.028881
0.071173
0.078439
0.100353
0.091643
0.061716
0.034578
-0.015308
-0.046475
-0.091769
-0.140206
-0.148824
-0.171619
-0.195323
-0.202348
-0.174893
-0.145678
-0.098702
-0.040404
0.004982
0.060442
0.075571
0.079700
0.115454
0.100462
0.073759
0.022639
-0.002213
-0.050612
-0.095044
-0.144891
-0.180390
-0.200428
-0.199550
-0.175792
-0.153818
-0.116556
-0.078534
-0.045216
-0.015267
0.024422
0.060823
0.076808
0.087660
0.077863
0.049169
0.028287
-0.012262
-0.048019
-0.097853
-0.138100
-0.165141
-0.187316
-0.210948
-0.206909
-0.182831
-0.167564
-0.113022
-0.064220
-0.028958
0.009183
0.046163
0.076845
0.091293
0.092223
0.063896
0.022398
-0.018911
-0.064365
-0.099714
-0.144437
-0.180171
-0.202145
-0.216256
-0.200510
-0.175804
-0.155307
-0.123311
-0.062008
-0.010730
0.034071
0.057716
0.076147
0.092889
0.091143
0.070609
0.035351
0.002292
-0.038493
-0.081060
-0.123056
-0.150799
-0.177501
-0.197079
-0.190640
-0.182488
-0.117331
-0.058461
-0.022191
0.006165
0.038300
0.058125
0.067305
0.099386
0.122878
0.103996
0.056986
0.022268
-0.009751
-0.055731
-0.098981
-0.123123
-0.154623
-0.168555
-0.172825
-0.146613
-0.117121
-0.075104
-0.030136
-0.008709
0.035144
0.074934
0.100480
0.124481
0.129275
0.109686
0.088279
0.038569
-0.005295
-0.048888
-0.090658
-0.121927
-0.134738
-0.160755
-0.158836
-0.130627
-0.096171
-0.070733
-0.023856
-0.018587
0.020752
0.081792
0.125015
0.136001
0.118602
0.092639
0.064900
0.040412
-0.007736
-0.049622
-0.110644
-0.163230
-0.197551
-0.207371
-0.199626
-0.165873
-0.131430
-0.095645
-0.059089
-0.025522
0.021129
0.053155
0.076223
0.085086
0.077366
0.069274
0.036520
-0.012289
-0.054748
-0.096717
-0.153824
-0.188303
-0.213508
-0.228289
-0.217021
-0.199731
-0.167554
-0.129872
-0.080176
-0.044335
0.005601
0.022014
0.048000
0.055889
0.052431
0.011351
-0.005620
-0.040715
-0.087421
-0.126814
-0.170469
-0.199470
-0.229818
-0.232751
-0.230584
-0.208763
-0.180622
-0.156126
-0.101692
-0.059526
-0.019231
0.020732
0.044850
0.058496
0.060800
0.041953
0.004837
-0.026924
-0.076456
-0.120698
-0.185367
-0.224981
-0.237699
-0.250906
-0.259171
-0.252267
-0.191630
-0.132626
-0.083969
-0.044397
-0.000391
0.034756
0.049475
0.042490
0.035787
0.022900
-0.003383
-0.031546
-0.079727
-0.126126
-0.169703
-0.197384
-0.220034
-0.247700
-0.257829
-0.220968
-0.183883
-0.150452
-0.107259
-0.062865
-0.022486
0.017194
0.036140
0.039306
0.050271
0.047469
0.005124
-0.045884
-0.080089
-0.092039
-0.115855
-0.146241
-0.166057
-0.163615
-0.147478
-0.117776
-0.053371
0.011823
0.066956
0.120700
0.170995
0.221551
0.263121
0.293168
0.327924
0.327178
0.323401
0.304779
0.285964
0.289675
0.263861
0.245753
0.254408
0.252897
0.299001
0.352330
0.421551
0.505052
0.579802
0.666620
0.744070
0.803715
0.827695
0.837803
0.835462
0.812652
0.764024
0.712124
0.647720
0.569917
0.467098
0.352052
0.257911
0.182344
0.132497
0.121942
0.086141
0.106397
0.125666
0.146403
0.153860
0.157620
0.172406
0.160212
0.145433
0.125431
0.103456
0.055392
0.006158
-0.035053
-0.076426
-0.118632
-0.143850
-0.156674
-0.170150
-0.162533
-0.119927
-0.051964
0.001254
0.051932
0.082134
0.091370
0.101519
0.122283
0.122620
0.107711
0.069861
0.026726
-0.016145
-0.055372
-0.097306
-0.127574
-0.163018
-0.190570
-0.185186
-0.157907
-0.131406
-0.089326
-0.044839
-0.000606
0.033931
0.074450
0.092680
0.092414
0.086837
0.063637
0.036376
0.014001
-0.020148
-0.073007
-0.116294
-0.146530
-0.180860
-0.185865
-0.186166
-0.154723
-0.106243
-0.079661
-0.071853
-0.004811
0.052540
0.091199
0.114530
0.126070
0.110560
0.082353
0.054127
0.006769
-0.039611
-0.087605
-0.119714
-0.140555
-0.175056
-0.179515
-0.172415
-0.153731
-0.125821
-0.077235
-0.028702
0.024535
0.054819
0.093804
0.117338
0.123211
0.119363
0.097351
0.086813
0.037490
-0.010292
-0.057692
-0.082055
-0.116544
-0.155368
-0.164199
-0.150646
-0.139843
-0.098485
-0.051895
-0.005870
0.051566
0.087393
0.121587
0.153998
0.163029
0.156223
0.145005
0.102991
0.062011
0.026169
-0.018011
-0.071361
-0.093820
-0.124197
-0.134131
-0.139294
-0.115946
-0.068463
-0.020620
0.018978
0.072545
0.120626
0.145630
0.180541
0.190900
0.190814
0.173214
0.131388
0.083418
0.036404
0.003933
-0.035582
-0.071420
-0.089912
-0.099632
-0.089408
-0.063243
-0.035121
0.009718
0.050264
0.106512
0.147375
0.169018
0.200660
0.216967
0.203308
0.179762
0.163160
0.132235
0.079926
0.034972
-0.015062
-0.040373
-0.074955
-0.078276
-0.071210
-0.053644
-0.024731
0.013372
0.044174
0.124215
0.165286
0.183060
0.218579
0.221636
0.205571
0.186819
0.159848
0.104661
0.055148
0.014141
-0.015339
-0.043964
-0.068881
-0.084928
-0.073652
-0.060283
-0.026338
0.014050
0.052866
0.091469
0.122750
0.144791
0.183525
0.192426
0.206047
0.178196
0.127055
0.083280
0.055685
0.001474
-0.046426
-0.081696
-0.105331
-0.117407
-0.121693
-0.107809
-0.080880
-0.037592
0.010982
0.068246
0.108435
0.132981
0.165614
0.160360
0.149548
0.128664
0.098166
0.055816
0.013496
-0.037116
-0.084783
-0.130456
-0.162230
-0.164146
-0.155880
-0.153043
-0.121924
-0.063858
0.000577
0.036453
0.077789
0.104298
0.111322
0.119375
0.108243
0.096242
0.068668
0.033965
-0.020763
-0.074726
-0.142411
-0.163336
-0.179733
-0.191903
-0.194827
-0.173070
-0.139391
-0.104768
-0.063379
0.006195
0.041374
0.058322
0.083238
0.105209
0.107122
0.059235
0.033011
0.027954
-0.025396
-0.069820
-0.110992
-0.158616
-0.185954
-0.198571
-0.183561
-0.177951
-0.140891
-0.107407
-0.075881
-0.027155
0.002647
0.043791
0.073595
0.091205
0.094099
0.069696
0.047382
0.000454
-0.042109
-0.092332
-0.134053
-0.167704
-0.190636
-0.198864
-0.194159
-0.177458
-0.142411
-0.092229
-0.057471
-0.012697
0.038057
0.057790
0.061356
0.090500
0.101016
0.086005
0.034551
-0.007640
-0.044945
-0.092474
-0.144111
-0.175203
-0.195763
-0.207066
-0.197127
-0.173021
-0.136688
-0.088619
-0.051780
-0.007265
0.031574
0.056079
0.082109
0.110452
0.096025
0.080514
0.046257
0.005109
-0.037327
-0.081629
-0.129743
-0.155787
-0.185338
-0.205742
-0.189640
-0.163809
-0.129540
-0.085955
-0.052772
0.002550
0.053837
0.073283
0.090028
0.107008
0.107224
0.087353
0.037615
-0.009561
-0.030935
-0.060182
-0.113090
-0.173685
-0.208055
-0.196614
-0.174133
-0.158113
-0.130359
-0.099513
-0.057914
-0.001143
0.048304
0.094619
0.115485
0.115834
0.095812
0.077081
0.060061
0.030261
-0.025676
-0.080771
-0.135540
-0.167588
-0.179683
-0.194901
-0.173359
-0.150664
-0.138720
-0.123717
-0.048800
0.007872
0.037427
0.079716
0.107104
0.115272
0.098789
0.073708
0.037199
-0.002961
-0.041560
-0.080469
-0.126411
-0.158929
-0.188200
-0.196088
-0.188580
-0.173429
-0.153470
-0.091759
-0.054371
-0.010074
0.031338
0.066095
0.085871
0.096927
0.087144
0.066816
0.040081
0.003250
-0.049864
-0.096329
-0.132890
-0.174934
-0.193533
-0.208948
-0.193495
-0.172063
-0.143269
-0.101799
-0.058396
-0.012906
0.028506
0.058953
0.076308
0.094573
0.079649
0.061590
0.035417
-0.008572
-0.049126
-0.103496
-0.158842
-0.201046
-0.212063
-0.220170
-0.204968
-0.177882
-0.143980
-0.102885
-0.069051
-0.032577
-0.000779
0.040173
0.064037
0.052845
0.052839
0.071399
0.048667
0.013714
-0.039921
-0.091244
-0.140100
-0.185368
-0.204382
-0.210437
-0.203913
-0.187673
-0.162394
-0.115517
-0.065238
-0.015094
0.028451
0.055367
0.097761
0.101413
0.090309
0.074519
0.043596
-0.005687
-0.041275
-0.095125
-0.106386
-0.149284
-0.175098
-0.187754
-0.170969
-0.156947
-0.121664
-0.083743
-0.043500
0.009348
0.059360
0.090108
0.108162
0.115212
0.115194
0.095979
0.063323
0.023451
-0.018471
-0.074483
-0.102760
-0.138869
-0.175068
-0.189035
-0.183164
-0.154655
-0.120723
-0.079548
-0.045562
0.013510
0.060340
0.085811
0.122498
0.135983
0.130124
0.104353
0.085563
0.045372
-0.000697
-0.053163
-0.089384
-0.114694
-0.136209
-0.157358
-0.154804
-0.145595
-0.108451
-0.070781
-0.042186
0.005027
0.048191
0.085562
0.105840
0.108320
0.105059
0.083609
0.068667
0.026914
0.001416
-0.046579
-0.109163
-0.148517
-0.177192
-0.198158
-0.177204
-0.160837
-0.140517
-0.099853
-0.060223
-0.010693
0.030344
0.060024
0.078454
0.094633
0.072167
0.051813
0.010739
-0.020231
-0.056260
-0.098194
-0.154204
-0.196631
-0.217095
-0.224583
-0.212630
-0.191635
-0.157860
-0.138207
-0.093911
-0.049337
-0.008520
0.029721
0.058309
0.064083
0.057771
0.034982
0.006489
-0.040314
-0.077865
-0.124085
-0.171503
-0.203811
-0.225414
-0.235307
-0.226426
-0.203619
-0.175907
-0.132108
-0.090737
-0.046600
-0.002996
0.030144
0.046394
0.063835
0.047358
0.025134
-0.011314
-0.053117
-0.088233
-0.123867
-0.170043
-0.203737
-0.232127
-0.234961
-0.256180
-0.235507
-0.182610
-0.139297
-0.093418
-0.066016
-0.016216
0.011686
0.025495
0.041177
0.052053
0.052806
0.032351
-0.015719
-0.060592
-0.115551
-0.164389
-0.192411
-0.225593
-0.232588
-0.241225
-0.234177
-0.198101
-0.123644
-0.092397
-0.059105
-0.018637
0.024591
0.031307
0.029629
0.057891
0.053886
0.019752
-0.019533
-0.053198
-0.094085
-0.121577
-0.144301
-0.152075
-0.130520
-0.110006
-0.085111
-0.056348
0.012675
0.084609
0.157514
0.215640
0.261243
0.298452
0.331018
0.359769
0.379861
0.376383
0.376488
0.363086
0.351097
0.334767
0.328150
0.335979
0.353611
0.398450
0.458253
0.517872
0.592903
0.667306
0.749407
0.800231
0.832176
0.854217
0.864358
0.834687
0.797891
0.733935
0.661751
0.577631
0.468182
0.355579
0.256034
0.179666
0.119053
0.065595
0.050963
0.037402
0.037589
0.055337
0.084014
0.116238
0.159696
0.187768
0.197352
0.176325
0.153199
0.116979
0.080946
0.035932
-0.006694
-0.053642
-0.105102
-0.130654
-0.139103
-0.127876
-0.109796
-0.083815
-0.049279
-0.017769
0.028397
0.052048
0.094025
0.115582
0.118259
0.112168
0.102733
0.080118
0.032930
-0.014192
-0.065888
-0.107503
-0.149248
-0.179923
-0.193094
-0.183147
-0.166558
-0.115288
-0.085959
-0.049270
-0.007359
0.042076
0.070428
0.090138
0.107069
0.093271
0.063261
0.034402
0.001074
-0.031226
-0.061979
-0.107036
-0.146909
-0.182382
-0.194361
-0.176436
-0.151617
-0.121244
-0.081080
-0.035156
0.008218
0.041277
0.064090
0.096286
0.112015
0.112545
0.092355
0.059067
0.034925
-0.024932
-0.074615
-0.112787
-0.153576
-0.172476
-0.169857
-0.166921
-0.144694
-0.120896
-0.094865
-0.043277
0.024846
0.070335
0.116606
0.138142
0.143290
0.134026
0.111459
0.058560
0.033443
0.009839
-0.022850
-0.079354
-0.117482
-0.130577
-0.147813
-0.142379
-0.122748
-0.073077
-0.041910
-0.004987
0.048384
0.088011
0.136620
0.152888
0.160507
0.156731
0.142817
0.113570
0.086619
0.038628
-0.007444
-0.054029
-0.091357
-0.109656
-0.116027
-0.109159
-0.084611
-0.051036
-0.019799
0.021075
0.076242
0.116482
0.159190
0.171792
0.193468
0.197678
0.171990
0.138546
0.107001
0.071010
0.021027
-0.010933
-0.052781
-0.068938
-0.088635
-0.095054
-0.066658
-0.015390
0.012656
0.062623
0.110388
0.150772
0.198400
0.220134
0.225529
0.221771
0.197599
0.176909
0.140471
0.098387
0.042876
0.002547
-0.039556
-0.063803
-0.075094
-0.081181
-0.056341
-0.017661
0.020308
0.064687
0.083535
0.135072
0.186224
0.223298
0.245571
0.225603
0.198643
0.159373
0.134545
0.096901
0.056899
0.016592
-0.057740
-0.089939
-0.089717
-0.081611
-0.070291
-0.026685
0.009887
0.055588
0.107135
0.152593
0.180140
0.186039
0.210089
0.217580
0.199365
0.153404
0.116742
0.065920
0.011032
-0.034595
-0.087072
-0.102845
-0.118700
-0.116649
-0.087927
-0.075827
-0.037713
0.029955
0.074084
0.104554
0.143975
0.162709
0.165695
0.164034
0.140564
0.105039
0.076462
0.024634
-0.034210
-0.072637
-0.125743
-0.148703
-0.167806
-0.169992
-0.145160
-0.110423
-0.074833
-0.012560
0.035068
0.077827
0.102229
0.126276
0.127422
0.116621
0.087611
0.036088
0.018978
-0.018715
-0.050616
-0.093609
-0.136455
-0.170797
-0.176425
-0.174182
-0.170134
-0.139928
-0.091274
-0.037830
0.004411
0.044185
0.076365
0.102700
0.114779
0.112976
0.086988
0.040430
0.017351
-0.026419
-0.069845
-0.131475
-0.158913
-0.163646
-0.173502
-0.183733
-0.177240
-0.137331
-0.099442
-0.059067
-0.003532
0.038459
0.072159
0.089828
0.117673
0.099841
0.076586
0.045184
0.012283
-0.035244
-0.093013
-0.130866
-0.172519
-0.193244
-0.196646
-0.189638
-0.169075
-0.132398
-0.088958
-0.045919
0.001326
0.042846
0.084890
0.113353
0.111616
0.102004
0.083196
0.052746
0.015206
-0.033912
-0.087517
-0.131885
-0.160858
-0.186615
-0.207000
-0.199930
-0.173382
-0.139544
-0.093596
-0.036598
0.007766
0.045622
0.075599
0.092733
0.078757
0.099279
0.094080
0.077509
0.037680
-0.027220
-0.096274
-0.119973
-0.154769
-0.200175
-0.190335
-0.182773
-0.153080
-0.111070
-0.076901
-0.031030
0.007407
0.047810
0.096705
0.130995
0.123550
0.099666
0.088635
0.059324
0.033179
-0.025850
-0.070164
-0.111704
-0.158680
-0.171699
-0.181261
-0.177422
-0.144779
-0.115548
-0.086808
-0.025556
0.004431
0.047296
0.078328
0.102716
0.110379
0.103203
0.079861
0.048930
0.010303
-0.036144
-0.060214
-0.096587
-0.153375
-0.168901
-0.174830
-0.174954
-0.152137
-0.127284
-0.086167
-0.041045
0.007475
0.063620
0.089544
0.114787
0.129489
0.114590
0.085058
0.045040
0.012075
-0.034586
-0.082720
-0.131404
-0.162080
-0.193708
-0.197103
-0.194189
-0.178212
-0.132258
-0.085848
-0.051010
0.006213
0.044100
0.073698
0.087019
0.117287
0.117444
0.094472
0.060536
0.013506
-0.038613
-0.094801
-0.134300
-0.167640
-0.185810
-0.191490
-0.183674
-0.175879
-0.132848
-0.097312
-0.052994
-0.006298
0.033283
0.068735
0.094690
0.102250
0.097440
0.072180
0.046948
0.001353
-0.049236
-0.090028
-0.129111
-0.154504
-0.179523
-0.183622
-0.188026
-0.174540
-0.144967
-0.103829
-0.048881
0.008239
0.045541
0.072801
0.085342
0.088888
0.094188
0.068884
0.027419
-0.026922
-0.078498
-0.090869
-0.126801
-0.164109
-0.182849
-0.188940
-0.192460
-0.172185
-0.148532
-0.121003
-0.075103
-0.012374
0.060087
0.077622
0.090189
0.087876
0.081360
0.062221
0.046364
0.012695
-0.044123
-0.091841
-0.140636
-0.176099
-0.230308
-0.225148
-0.202569
-0.163958
-0.135698
-0.089400
-0.048333
-0.014242
0.024320
0.066806
0.097126
0.102886
0.089614
0.067066
0.036004
-0.006181
-0.046579
-0.090339
-0.141871
-0.168311
-0.190674
-0.195910
-0.191415
-0.171688
-0.135904
-0.092517
-0.046407
-0.006735
0.038376
0.080787
0.112593
0.114548
0.106266
0.083951
0.073261
0.039777
-0.012519
-0.059345
-0.100477
-0.135114
-0.149263
-0.164182
-0.161600
-0.133975
-0.108090
-0.064000
-0.008467
0.031711
0.076574
0.107924
0.134335
0.141664
0.121738
0.093547
0.070081
0.021493
-0.022327
-0.071429
-0.115619
-0.136897
-0.158637
-0.167847
-0.157117
-0.138592
-0.090564
-0.045478
0.001917
0.038760
0.085193
0.116322
0.131419
0.137126
0.134776
0.114074
0.086983
0.045645
-0.002291
-0.042858
-0.096434
-0.141559
-0.159068
-0.154230
-0.148743
-0.138203
-0.120625
-0.079161
-0.048348
0.008899
0.063183
0.088536
0.101821
0.115999
0.097884
0.067312
0.040344
0.014350
-0.027857
-0.087938
-0.134616
-0.164592
-0.195916
-0.208356
-0.196811
-0.176337
-0.158213
-0.123482
-0.065600
-0.009251
0.037020
0.068832
0.083355
0.089390
0.086681
0.063737
0.036538
-0.033963
-0.073087
-0.107702
-0.153557
-0.188790
-0.215484
-0.226790
-0.215167
-0.199343
-0.170070
-0.131648
-0.087615
-0.035331
0.014220
0.053858
0.064744
0.071186
0.065954
0.046506
0.012466
-0.031068
-0.071882
-0.135484
-0.181059
-0.197976
-0.214797
-0.222279
-0.215356
-0.197782
-0.170253
-0.131591
-0.082869
-0.040770
0.015783
0.046612
0.070270
0.083176
0.076777
0.054279
0.015566
-0.030822
-0.076481
-0.114446
-0.163676
-0.198343
-0.218582
-0.220323
-0.212544
-0.195236
-0.173225
-0.130052
-0.091492
-0.036365
0.009179
0.048656
0.063283
0.070305
0.066682
0.048972
0.002428
-0.036705
-0.071705
-0.120729
-0.174487
-0.206783
-0.230324
-0.236941
-0.236842
-0.220940
-0.179860
-0.135793
-0.083978
-0.020220
0.034208
0.074245
0.114710
0.126686
0.129514
0.114320
0.093576
0.072950
0.030267
0.025843
0.008104
-0.017609
-0.041776
-0.024828
0.009538
0.056983
0.113846
0.193122
0.267177
0.350567
0.420229
0.499229
0.547156
0.576568
0.610662
0.655055
0.669085
0.672025
0.669458
0.648437
0.622158
0.622101
0.618680
0.606859
0.605067
0.642063
0.652371
0.663422
0.693946
0.716995
0.732819
0.718994
0.665481
0.609862
0.543025
0.460266
0.376056
0.272907
0.174165
0.103317
0.047536
0.000257
-0.033644
-0.042626
-0.059717
-0.048085
-0.026716
0.011310
0.043933
0.085397
0.121323
0.140463
0.165246
0.177873
0.169631
0.149816
0.114811
0.071447
0.029045
-0.026756
-0.072908
-0.112763
-0.142705
-0.162947
-0.161638
-0.152200
-0.119619
-0.073272
-0.019338
0.026237
0.075677
0.103821
0.112628
0.121931
0.120729
0.092490
0.067503
0.027429
-0.020153
-0.065835
-0.121426
-0.154670
-0.173989
-0.176433
-0.178177
-0.165386
-0.138962
-0.099931
-0.045272
-0.005562
0.037910
0.088331
0.107471
0.123499
0.118498
0.097128
0.066776
0.030059
-0.019837
-0.060920
-0.108122
-0.150215
-0.169773
-0.180233
-0.173978
-0.150579
-0.125533
-0.079957
-0.038828
0.005725
0.059794
0.108463
0.125384
0.121059
0.128245
0.111030
0.086908
0.040001
-0.008835
-0.044700
-0.089903
-0.128015
-0.154597
-0.165861
-0.160130
-0.130866
-0.094100
-0.057317
-0.010016
0.030416
0.078350
0.117258
0.142327
0.164418
0.150753
0.130580
0.114128
0.072185
0.011767
-0.033235
-0.076496
-0.118906
-0.130884
-0.117423
-0.110232
-0.096076
-0.075061
-0.030694
0.008164
0.050471
0.106883
0.152496
0.178703
0.182549
0.179706
0.158041
0.129857
0.093328
0.034561
-0.006505
-0.034251
-0.053869
-0.074597
-0.086119
-0.083627
-0.070691
-0.041452
0.009542
0.051435
0.097108
0.146096
0.186055
0.210534
0.216600
0.214952
0.190960
0.164751
0.133015
0.089051
0.038102
-0.003666
-0.042142
-0.066054
-0.070944
-0.072991
-0.046232
-0.027729
0.010840
0.083395
0.125661
0.161577
0.199502
0.223871
0.230969
0.226526
0.218137
0.194605
0.150519
0.097113
0.048942
0.013806
-0.020557
-0.051125
-0.069491
-0.052298
-0.040795
-0.019267
0.026572
0.083825
0.121127
0.141837
0.188884
0.216200
0.228052
0.228837
0.202713
0.162340
0.114733
0.072652
0.032158
0.004490
-0.038192
-0.058927
-0.076670
-0.093633
-0.077671
-0.032845
-0.010195
0.032161
0.106668
0.164092
0.198998
0.203329
0.212641
0.201740
0.180158
0.154905
0.106643
0.056770
0.007411
-0.030186
-0.071338
-0.101607
-0.116339
-0.115968
-0.089237
-0.064666
-0.028521
0.018302
0.062762
0.096923
0.131950
0.156438
0.156179
0.148885
0.126344
0.103072
0.058059
0.007577
-0.035955
-0.081634
-0.125202
-0.147439
-0.159101
-0.157770
-0.134109
-0.114746
-0.070631
-0.027619
0.022006
0.058567
0.097371
0.118768
0.127992
0.118528
0.095403
0.066612
0.024997
-0.020881
-0.074199
-0.112127
-0.144938
-0.167341
-0.182318
-0.196202
-0.193654
-0.143112
-0.090495
-0.034090
0.007412
0.051085
0.089400
0.103571
0.115987
0.101575
0.087439
0.056270
0.008856
-0.040755
-0.100056
-0.115803
-0.137242
-0.171153
-0.175309
-0.188536
-0.184688
-0.153095
-0.114448
-0.066443
-0.008514
0.038663
0.077674
0.105386
0.119354
0.127963
0.101079
0.064032
0.008425
-0.039936
-0.079703
-0.122312
-0.170515
-0.181096
-0.184099
-0.178389
-0.157180
-0.136971
-0.099231
-0.046290
0.002754
0.043258
0.069407
0.091642
0.108132
0.089425
0.078806
0.078164
0.042522
-0.015405
-0.070839
-0.116994
-0.144991
-0.180798
-0.199175
-0.175609
-0.160004
-0.131244
-0.093392
-0.046424
0.005352
0.046157
0.090985
0.115708
0.120899
0.115756
0.100429
0.068539
0.029792
-0.010694
-0.063208
-0.126493
-0.164390
-0.176953
-0.178102
-0.175438
-0.172569
-0.151964
-0.095006
-0.021708
0.012038
0.040943
0.074688
0.108426
0.102778
0.113461
0.119514
0.083793
0.033961
-0.011012
-0.056246
-0.104155
-0.133210
-0.157998
-0.175127
-0.180302
-0.169417
-0.133944
-0.093241
-0.047837
0.007928
0.066046
0.098351
0.106409
0.122346
0.108714
0.101207
0.071320
0.029571
-0.023659
-0.070575
-0.108891
-0.153111
-0.172081
-0.186364
-0.187160
-0.168030
-0.136952
-0.100960
-0.042102
0.009906
0.033902
0.064367
0.088462
0.120500
0.134942
0.112544
0.063744
0.019547
-0.024303
-0.078424
-0.116650
-0.152981
-0.172120
-0.189077
-0.179406
-0.164395
-0.137506
-0.113762
-0.051913
-0.006348
0.033518
0.070422
0.099949
0.116414
0.115464
0.091284
0.054899
0.016140
-0.042525
-0.085342
-0.119122
-0.156181
-0.193319
-0.197307
-0.200920
-0.180485
-0.149867
-0.100295
-0.056265
-0.012359
0.033596
0.072425
0.088074
0.106875
0.103263
0.079112
0.058694
0.024304
-0.031086
-0.079152
-0.132366
-0.176068
-0.202491
-0.202363
-0.189012
-0.170761
-0.141608
-0.101141
-0.055326
-0.006596
0.038939
0.066128
0.091589
0.097317
0.104879
0.081132
0.042404
0.002874
-0.042889
-0.103451
-0.155627
-0.176038
-0.188362
-0.189062
-0.187250
-0.180337
-0.144161
-0.092528
-0.064837
-0.015469
0.029327
0.065860
0.073452
0.079605
0.090064
0.059095
0.044987
0.007673
-0.035438
-0.093451
-0.149065
-0.191565
-0.196684
-0.187964
-0.189384
-0.198994
-0.161007
-0.114937
-0.061511
-0.009607
0.041273
0.074809
0.095743
0.092998
0.093158
0.080685
0.043373
-0.002868
-0.050376
-0.091687
-0.139146
-0.175057
-0.198175
-0.203952
-0.197211
-0.176563
-0.157237
-0.117517
-0.073245
-0.022548
0.003444
0.072511
0.101608
0.121928
0.111385
0.092265
0.062235
0.020015
-0.019578
-0.071277
-0.110235
-0.153381
-0.184839
-0.185659
-0.169684
-0.154923
-0.117447
-0.077081
-0.035485
0.022768
0.067407
0.099852
0.125590
0.131768
0.124618
0.115254
0.085306
0.050158
0.003836
-0.055513
-0.103212
-0.149622
-0.180348
-0.191687
-0.192730
-0.184728
-0.119484
-0.061652
-0.016157
0.038037
0.063661
0.088975
0.117534
0.134061
0.130047
0.131004
0.097986
0.057320
0.022326
-0.041126
-0.088899
-0.122088
-0.141935
-0.154561
-0.145368
-0.127629
-0.097359
-0.065198
-0.016600
0.015910
0.057832
0.096855
0.113051
0.120359
0.111617
0.094219
0.068491
0.039188
-0.009121
-0.066014
-0.136887
-0.133628
-0.169130
-0.196957
-0.183910
-0.178806
-0.151835
-0.109158
-0.074029
-0.009623
0.038710
0.068159
0.098457
0.112644
0.108725
0.075161
0.028280
0.000795
-0.031380
-0.102144
-0.159810
-0.178244
-0.207691
-0.224295
-0.219675
-0.193869
-0.162940
-0.124525
-0.074769
-0.029116
0.018564
0.048316
0.061825
0.079458
0.069288
0.049507
0.018397
-0.020790
-0.075293
-0.117384
-0.164553
-0.196524
-0.222192
-0.236159
-0.231239
-0.217961
-0.184329
-0.142862
-0.092684
-0.040061
0.008209
0.032040
0.059664
0.073786
0.073684
0.060332
0.004226
-0.034515
-0.074558
-0.115501
-0.166595
-0.212425
-0.224260
-0.234892
-0.222549
-0.212356
-0.174408
-0.146469
-0.098861
-0.057428
0.007968
0.043300
0.070830
0.068508
0.054546
0.040455
0.012204
-0.028883
-0.067778
-0.101117
-0.153686
-0.207479
-0.228259
-0.242820
-0.235323
-0.209324
-0.184330
-0.143391
-0.088037
-0.043464
-0.005349
0.022493
0.045535
0.040188
0.019601
0.031608
0.010159
-0.030709
-0.074518
-0.111492
-0.144058
-0.171675
-0.192191
-0.202009
-0.178379
-0.150733
-0.104795
-0.052047
0.022354
0.092529
0.161617
0.214740
0.253181
0.275895
0.277880
0.270877
0.275575
0.286590
0.279056
0.255889
0.244908
0.240313
0.245053
0.278664
0.318849
0.367748
0.432761
0.513433
0.605128
0.696607
0.778961
0.835284
0.881029
0.906778
0.903363
0.882260
0.840554
0.775185
0.715866
0.640832
0.571794
0.501749
0.408498
0.331024
0.277314
0.239917
0.214578
0.203899
0.197582
0.189484
0.201010
0.204785
0.233373
0.252199
0.251833
0.226114
0.166796
0.108868
0.038581
-0.020189
-0.043692
-0.086756
-0.118692
-0.120316
-0.111758
-0.094533
-0.077607
-0.048049
-0.011208
0.047136
0.103623
0.131518
0.147569
0.145211
0.131215
0.118847
0.083119
0.044808
-0.006035
-0.055218
-0.099558
-0.133807
-0.158617
-0.177374
-0.170407
-0.175039
-0.130368
-0.076952
-0.041693
0.013952
0.062050
0.092937
0.109910
0.123959
0.117653
0.106299
0.059389
0.013550
-0.031446
-0.087758
-0.121162
-0.153943
-0.183569
-0.203820
-0.198963
-0.173559
-0.128986
-0.086927
-0.026151
0.018567
0.059064
0.095104
0.116395
0.114940
0.118440
0.111237
0.073312
0.032521
-0.029924
-0.065583
-0.110311
-0.149715
-0.177145
-0.160253
-0.162249
-0.149363
-0.124600
-0.093155
-0.017219
0.029669
0.071638
0.110058
0.125205
0.135623
0.131318
0.123128
0.083381
0.042047
-0.010821
-0.044747
-0.078214
-0.112026
-0.148138
-0.165001
-0.155150
-0.126955
-0.088021
-0.048305
-0.009870
0.046191
0.091125
0.126858
0.135283
0.148686
0.161198
0.153017
0.116839
0.080105
0.016652
-0.039486
-0.077574
-0.095572
-0.105634
-0.113284
-0.106869
-0.095985
-0.056472
-0.021695
0.029675
0.083266
0.131181
0.161405
0.185450
0.201770
0.200248
0.195024
0.169834
0.113590
0.062863
0.015661
-0.027688
-0.061840
-0.076894
-0.082321
-0.074938
-0.055356
-0.024879
0.005400
0.060415
0.110333
0.159120
0.193505
0.234159
0.247752
0.232064
0.209799
0.170001
0.134613
0.096443
0.049580
-0.006804
-0.047767
-0.071402
-0.062706
-0.066849
-0.068102
-0.011581
0.035717
0.080364
0.128620
0.167177
0.194431
0.207462
0.224662
0.226233
0.207113
0.180321
0.146592
0.096773
0.039635
-0.004312
-0.045557
-0.060431
-0.070846
-0.068129
-0.055962
-0.016368
0.027338
0.078179
0.121467
0.163982
0.197063
0.210238
0.217271
0.228879
0.201622
0.158020
0.112704
0.063790
0.004663
-0.040316
-0.063676
-0.073820
-0.089819
-0.096098
-0.086516
-0.055935
-0.034326
0.012257
0.073712
0.125126
0.164206
0.182977
0.201311
0.190708
0.158109
0.131339
0.080436
0.030919
-0.023356
-0.063232
-0.089862
-0.122436
-0.142831
-0.142034
-0.125277
-0.085765
-0.040104
0.004242
0.047420
0.089829
0.106661
0.147358
0.144293
0.135983
0.126293
0.085766
0.038552
-0.015928
-0.061136
-0.107187
-0.151096
-0.177781
-0.190936
-0.177145
-0.165024
-0.135404
-0.098539
-0.042293
0.012598
0.053899
0.098175
0.127078
0.131316
0.107810
0.090776
0.061670
0.022823
-0.047338
-0.065187
-0.109946
-0.158339
-0.183799
-0.195977
-0.192695
-0.166643
-0.122564
-0.092472
-0.053697
-0.007721
0.044498
0.079426
0.115670
0.119541
0.106954
0.089478
0.055882
0.005742
-0.037819
-0.093868
-0.138201
-0.165080
-0.188532
-0.199404
-0.195729
-0.164856
-0.141001
-0.100260
-0.041018
0.004568
0.041320
0.080586
0.101116
0.110099
0.105193
0.086393
0.042151
0.013784
-0.039891
-0.083084
-0.128538
-0.171570
-0.202889
-0.232742
-0.210967
-0.167531
-0.131624
-0.086955
-0.043512
-0.005640
0.049840
0.088189
0.114633
0.125295
0.117279
0.091464
0.070409
0.034120
-0.019296
-0.090830
-0.146305
-0.162869
-0.174191
-0.185556
-0.190655
-0.151732
-0.109510
-0.067866
-0.041339
0.007638
0.049817
0.099359
0.113500
0.131655
0.114369
0.086209
0.055700
0.029863
-0.028642
-0.083869
-0.129293
-0.170053
-0.165161
-0.156280
-0.162698
-0.151099
-0.121149
-0.075193
-0.022886
0.022594
0.064153
0.103384
0.132595
0.127762
0.116703
0.082560
0.061102
0.020634
-0.033180
-0.094979
-0.134731
-0.158677
-0.166963
-0.179451
-0.172543
-0.158071
-0.117684
-0.076622
-0.030290
0.013809
0.061877
0.095988
0.118941
0.120725
0.110184
0.089189
0.035292
0.007696
-0.045463
-0.090592
-0.147019
-0.168014
-0.181258
-0.190644
-0.195955
-0.164080
-0.134728
-0.095841
-0.023151
0.030882
0.075490
0.095329
0.109378
0.108032
0.092737
0.076282
0.058180
0.043959
-0.014606
-0.076835
-0.125330
-0.169233
-0.189847
-0.207847
-0.199410
-0.173022
-0.126493
-0.088434
-0.040196
-0.008864
0.025528
0.050593
0.101287
0.119571
0.130558
0.099592
0.059114
0.025633
-0.040355
-0.093583
-0.136613
-0.166013
-0.188987
-0.195239
-0.198958
-0.173349
-0.128781
-0.092580
-0.041211
0.007757
0.043232
0.079898
0.104763
0.099929
0.088331
0.077408
0.046101
-0.011223
-0.079455
-0.094621
-0.141725
-0.164033
-0.188901
-0.201908
-0.203531
-0.183583
-0.151292
-0.110149
-0.053372
-0.008541
0.040388
0.078428
0.068763
0.085123
0.091558
0.083835
0.045001
0.015500
-0.034455
-0.084668
-0.135412
-0.173277
-0.208506
-0.206670
-0.203294
-0.181238
-0.138368
-0.107492
-0.053785
-0.006008
0.039307
0.072903
0.100310
0.094977
0.086326
0.074563
0.037434
-0.013957
-0.059713
-0.105653
-0.139274
-0.179687
-0.194711
-0.194794
-0.178592
-0.163158
-0.138108
-0.101253
-0.054844
-0.006003
0.028192
0.065776
0.093279
0.098449
0.093682
0.067768
0.031955
-0.022985
-0.047862
-0.095345
-0.135036
-0.182461
-0.203369
-0.196861
-0.191913
-0.166690
-0.142488
-0.106924
-0.064077
0.002973
0.035366
0.055379
0.078746
0.090426
0.096784
0.082394
0.057286
0.009395
-0.035289
-0.086055
-0.123345
-0.155413
-0.176360
-0.186378
-0.182461
-0.161836
-0.131413
-0.093957
-0.035318
0.021621
0.070681
0.092010
0.089991
0.120361
0.136159
0.119387
0.072032
0.027804
-0.021229
-0.055645
-0.125258
-0.153205
-0.178670
-0.180147
-0.182201
-0.136057
-0.090877
-0.032336
0.001168
0.026534
0.068827
0.104401
0.124211
0.133168
0.139798
0.111137
0.088668
0.052604
0.008384
-0.033412
-0.090800
-0.134724
-0.159541
-0.163339
-0.163383
-0.132133
-0.093947
-0.059562
-0.016555
0.028690
0.069429
0.096777
0.116415
0.131973
0.149749
0.121320
0.064441
0.000061
-0.033103
-0.080245
-0.119357
-0.156124
-0.164839
-0.191902
-0.191637
-0.166062
-0.152526
-0.104260
-0.041840
0.006722
0.050570
0.105792
0.110606
0.098030
0.079911
0.067146
0.028977
-0.008823
-0.059674
-0.116660
-0.152435
-0.165168
-0.184075
-0.208911
-0.207942
-0.193730
-0.156419
-0.117665
-0.074714
-0.029395
0.002566
0.025646
0.063046
0.070686
0.082685
0.053968
0.015948
-0.028416
-0.074505
-0.118816
-0.175151
-0.208766
-0.223352
-0.219179
-0.229616
-0.225220
-0.177573
-0.126898
-0.075109
-0.019642
0.012214
0.044954
0.059583
0.069868
0.067873
0.041795
0.011126
-0.017408
-0.071880
-0.131048
-0.166824
-0.200531
-0.227987
-0.232749
-0.230204
-0.201924
-0.179641
-0.134034
-0.096769
-0.052102
-0.001023
0.033196
0.062469
0.076654
0.078852
0.051225
0.005322
-0.052549
-0.087343
-0.123003
-0.160778
-0.201998
-0.210762
-0.224299
-0.235134
-0.216711
-0.181086
-0.137963
-0.091716
-0.046443
-0.018003
0.010593
0.042138
0.066722
0.059422
0.037685
0.004755
-0.032889
-0.079045
-0.130490
-0.169211
-0.206925
-0.227377
-0.235702
-0.216667
-0.182540
-0.150750
-0.078075
-0.005501
0.059214
0.126538
0.181322
0.205635
0.191576
0.205595
0.216851
0.215208
0.192003
0.166667
0.135138
0.133594
0.138851
0.159075
0.169843
0.212798
0.264664
0.304224
0.395613
0.497636
0.593163
0.677817
0.763828
0.818227
0.852136
0.867734
0.870782
0.837321
0.785382
0.725296
0.653566
0.617194
0.590423
0.539259
0.484278
0.438959
0.387567
0.346918
0.327671
0.322033
0.329687
0.314655
0.300594
0.274453
0.270472
0.256503
0.229955
0.195729
0.148364
0.087296
0.020874
-0.028831
-0.080726
-0.104284
-0.122760
-0.123495
-0.111817
-0.070844
-0.035218
0.008614
0.059133
0.087113
0.124183
0.137533
0.148869
0.146536
0.123773
0.094518
0.036687
-0.023511
-0.068108
-0.113543
-0.143406
-0.160810
-0.174700
-0.169949
-0.151074
-0.126440
-0.083854
-0.040834
0.004926
0.050848
0.085478
0.107530
0.112907
0.116291
0.090933
0.057163
0.015462
-0.031077
-0.087948
-0.124058
-0.154092
-0.173466
-0.195736
-0.191783
-0.183320
-0.139533
-0.095106
-0.035601
0.017651
0.061489
0.088634
0.112637
0.120884
0.115340
0.102956
0.080076
0.027844
-0.026884
-0.073068
-0.118143
-0.140863
-0.164259
-0.179226
-0.179469
-0.165816
-0.139279
-0.091130
-0.049326
0.001963
0.037949
0.108396
0.153744
0.155833
0.141961
0.121022
0.088413
0.039672
-0.008171
-0.062107
-0.098224
-0.148511
-0.148498
-0.148512
-0.148597
-0.127629
-0.095353
-0.051941
-0.007595
0.034033
0.086085
0.129874
0.161207
0.164997
0.156418
0.135116
0.097776
0.053534
0.008544
-0.039161
-0.074974
-0.112389
-0.131899
-0.133319
-0.129832
-0.118470
-0.075517
-0.019659
0.042989
0.090727
0.136601
0.169566
0.194534
0.199422
0.191853
0.171613
0.139978
0.095253
0.057200
0.006267
-0.020354
-0.057376
-0.088502
-0.106505
-0.096860
-0.074710
-0.028778
0.021651
0.068935
0.100790
0.154282
0.178817
0.211712
0.218108
0.215306
0.212211
0.180555
0.130993
0.055250
0.007477
-0.024661
-0.039336
-0.057355
-0.071155
-0.068662
-0.037585
-0.014389
0.013529
0.056792
0.120256
0.175027
0.210604
0.229719
0.236047
0.231276
0.209122
0.193673
0.150137
0.094741
0.040085
-0.015460
-0.056249
-0.085044
-0.077948
-0.084740
-0.058326
-0.022148
0.026661
0.060383
0.083341
0.133028
0.183263
0.213137
0.225595
0.211079
0.196666
0.167372
0.112952
0.065327
0.020152
-0.034141
-0.065981
-0.089370
-0.108035
-0.109640
-0.082551
-0.047163
-0.017306
0.019691
0.073186
0.129056
0.163310
0.178678
0.196711
0.185956
0.155897
0.111062
0.078061
0.033559
-0.029631
-0.072047
-0.111069
-0.138948
-0.156770
-0.158387
-0.133715
-0.099925
-0.032707
-0.000300
0.034482
0.085460
0.116890
0.129518
0.146415
0.138586
0.101745
0.061973
0.037308
0.006787
-0.052592
-0.129602
-0.165045
-0.182124
-0.188135
-0.186547
-0.190314
-0.138315
-0.087305
-0.058622
-0.006163
0.045321
0.086316
0.117872
0.153413
0.135636
0.102963
0.072171
0.011455
-0.066953
-0.102565
-0.126878
-0.161999
-0.191939
-0.223060
-0.217165
-0.195786
-0.166517
-0.092993
-0.019697
0.027960
0.049054
0.072510
0.100520
0.112639
0.105197
0.086876
0.049973
0.007817
-0.046496
-0.093878
-0.165582
-0.181349
-0.190536
-0.196537
-0.194855
-0.177162
-0.151149
-0.106918
-0.059170
-0.005706
0.044955
0.082172
0.107146
0.117988
0.102850
0.073999
0.047670
0.004081
-0.046880
-0.086594
-0.134157
-0.171284
-0.199313
-0.220676
-0.199924
-0.183253
-0.155360
-0.096829
-0.038900
0.004167
0.042826
0.083350
0.116528
0.117138
0.108201
0.086693
0.058352
0.012730
-0.037363
-0.085921
-0.127894
-0.166024
-0.210757
-0.196813
-0.181137
-0.168182
-0.140634
-0.097474
-0.044586
0.019450
0.059999
0.092287
0.114098
0.129473
0.105351
0.090461
0.069268
0.017053
-0.044797
-0.096414
-0.142611
-0.166690
-0.191993
-0.208362
-0.199882
-0.163335
-0.141618
-0.101412
-0.053046
0.014196
0.054680
0.078821
0.110628
0.120947
0.116097
0.104041
0.064474
0.002823
-0.062483
-0.106342
-0.146460
-0.165801
-0.169562
-0.202689
-0.184878
-0.145261
-0.100993
-0.058739
-0.019180
0.026330
0.061875
0.081925
0.107224
0.118199
0.115452
0.099343
0.054631
0.006759
-0.047857
-0.096523
-0.137029
-0.178293
-0.198804
-0.203721
-0.189674
-0.171189
-0.136002
-0.086107
-0.034043
0.010436
0.050433
0.087448
0.113720
0.125868
0.109971
0.076490
0.058744
-0.000465
-0.061978
-0.105483
-0.139369
-0.169763
-0.181839
-0.200207
-0.195472
-0.173388
-0.139920
-0.105362
-0.054599
-0.010212
0.037913
0.089879
0.097953
0.116976
0.097470
0.083358
0.042080
-0.002580
-0.056555
-0.105082
-0.143143
-0.179779
-0.202523
-0.215131
-0.210956
-0.195480
-0.164655
-0.111371
-0.053860
-0.012383
0.028245
0.076744
0.093104
0.091961
0.082890
0.038520
0.001230
-0.013203
-0.054658
-0.111816
-0.165543
-0.202103
-0.207923
-0.217720
-0.208933
-0.180141
-0.151953
-0.097671
-0.040316
0.016272
0.055069
0.080455
0.099899
0.103401
0.094610
0.064449
0.020267
-0.013255
-0.057071
-0.100337
-0.146982
-0.181947
-0.207109
-0.223983
-0.216856
-0.195735
-0.163856
-0.112673
-0.057461
-0.029867
0.003665
0.054140
0.087148
0.114473
0.103211
0.057579
0.012084
-0.029275
-0.061817
-0.108608
-0.147162
-0.175459
-0.198896
-0.205227
-0.205448
-0.187280
-0.148629
-0.104135
-0.045127
-0.004249
0.032362
0.068445
0.078369
0.101914
0.078035
0.054912
0.015354
-0.032710
-0.055326
-0.100432
-0.134685
-0.169882
-0.205976
-0.237269
-0.225700
-0.194569
-0.152058
-0.107488
-0.062963
-0.013705
0.030443
0.053521
0.070381
0.078724
0.071182
0.037013
0.022026
-0.011775
-0.071894
-0.123521
-0.148189
-0.162208
-0.182614
-0.189993
-0.186576
-0.176798
-0.132637
-0.070728
-0.023089
0.012803
0.059123
0.078602
0.100248
0.117280
0.122283
0.094247
0.050649
0.004736
-0.044845
-0.082165
-0.131380
-0.166050
-0.187770
-0.194714
-0.181677
-0.153423
-0.101866
-0.054300
-0.011274
0.029588
0.058902
0.083919
0.114828
0.124367
0.127596
0.102995
0.064059
0.018250
-0.036824
-0.058468
-0.099102
-0.137817
-0.143007
-0.151970
-0.143877
-0.132739
-0.110213
-0.054806
-0.002905
0.062498
0.096702
0.117424
0.125681
0.120902
0.122293
0.119193
0.092627
0.021269
-0.043441
-0.090686
-0.126470
-0.155759
-0.189862
-0.207338
-0.192127
-0.167672
-0.137167
-0.092856
-0.039038
-0.001270
0.043120
0.078649
0.084493
0.072424
0.075532
0.061953
0.011581
-0.055265
-0.103240
-0.139715
-0.164884
-0.174704
-0.184041
-0.195200
-0.202404
-0.194998
-0.153381
-0.122891
-0.068736
-0.030047
0.001670
0.027627
0.052427
0.071866
0.037248
0.017425
-0.000983
-0.044655
-0.078408
-0.114796
-0.159279
-0.197550
-0.244176
-0.262697
-0.250168
-0.208366
-0.170100
-0.127428
-0.076782
-0.037402
0.007670
0.031107
0.050059
0.060623
0.041929
0.032311
0.018250
-0.024469
-0.074570
-0.129334
-0.168689
-0.210473
-0.233852
-0.244429
-0.260338
-0.262483
-0.215450
-0.115761
-0.063359
-0.026437
0.001782
0.029085
0.057576
0.053906
0.053400
0.022873
-0.017232
-0.056930
-0.112893
-0.138182
-0.182193
-0.232876
-0.258194
-0.246230
-0.236585
-0.215317
-0.169607
-0.131859
-0.082584
-0.037707
-0.012505
0.022638
0.059741
0.071593
0.050956
0.031020
-0.005857
-0.043829
-0.097034
-0.148546
-0.193496
-0.224182
-0.250152
-0.256066
-0.242785
-0.223792
-0.184595
-0.131959
-0.078750
-0.021137
0.026295
0.081759
0.123932
0.148537
0.161559
0.148321
0.129405
0.094444
0.060120
0.036631
0.013813
-0.015544
-0.010110
0.016674
0.056748
0.120786
0.198808
0.277924
0.348675
0.425819
0.508970
0.572665
0.620929
0.664846
0.714213
0.741112
0.747850
0.725262
0.702712
0.672411
0.631488
0.581720
0.563111
0.542213
0.515014
0.510328
0.547752
0.582057
0.572157
0.535230
0.520914
0.488788
0.467974
0.422763
0.349451
0.283672
0.215909
0.150986
0.096749
0.019718
-0.021951
-0.062697
-0.075537
-0.075379
-0.068414
-0.078445
-0.063509
-0.031737
0.010066
0.059663
0.096073
0.139313
0.160881
0.164428
0.152715
0.130021
0.087049
0.047070
-0.012549
-0.060771
-0.098326
-0.138348
-0.167809
-0.182502
-0.181215
-0.167420
-0.132311
-0.090123
-0.051969
-0.011717
0.032074
0.075697
0.108722
0.116672
0.110960
0.097257
0.050176
0.007673
-0.040458
-0.096532
-0.142677
-0.170304
-0.192053
-0.207574
-0.200905
-0.178097
-0.135258
-0.092534
-0.049635
-0.002542
0.035673
0.065775
0.093587
0.107908
0.111677
0.084850
0.052738
0.000442
-0.049485
-0.066725
-0.124665
-0.156935
-0.194004
-0.211224
-0.194718
-0.160888
-0.118360
-0.080433
-0.035797
0.013779
0.065526
0.090949
0.120039
0.124531
0.109516
0.106794
0.071800
0.016494
-0.033425
-0.070455
-0.119803
-0.144435
-0.164483
-0.185831
-0.177696
-0.149600
-0.106430
-0.068961
-0.017352
0.027200
0.067228
0.118898
0.154855
0.151669
0.144563
0.133202
0.098057
0.044036
-0.003282
-0.044722
-0.090037
-0.120203
-0.135581
-0.159380
-0.142863
-0.122164
-0.081880
-0.027232
0.014887
0.057736
0.101960
0.140716
0.166068
0.169151
0.180590
0.171661
0.133682
0.086481
0.039093
-0.011476
-0.056846
-0.090883
-0.116297
-0.119257
-0.118299
-0.093512
-0.053222
0.008408
0.050526
0.098088
0.152073
0.182068
0.206090
0.219992
0.198440
0.183006
0.142179
0.095697
0.041232
-0.004329
-0.053582
-0.070010
-0.083761
-0.083846
-0.080091
-0.062439
-0.023398
0.023419
0.063501
0.110443
0.158511
0.188170
0.214068
0.219601
0.222711
0.188350
0.149614
0.111575
0.073397
0.015978
-0.019209
-0.055956
-0.091253
-0.101798
-0.109245
-0.103954
-0.054064
0.005680
0.063544
0.119719
0.166079
0.185892
0.210649
0.215545
0.203240
0.184693
0.160665
0.126085
0.066682
0.001992
-0.043487
-0.085632
-0.097391
-0.088968
-0.085302
-0.066330
-0.040268
-0.000209
0.041089
0.086831
0.133586
0.161799
0.182482
0.179042
0.188450
0.160720
0.113680
0.063636
0.021447
-0.020424
-0.068623
-0.096277
-0.134058
-0.158931
-0.154458
-0.132107
-0.080698
-0.044015
0.000338
0.059043
0.089943
0.130064
0.151803
0.149851
0.132474
0.116910
0.072519
0.020015
-0.026874
-0.079069
-0.132911
-0.161430
-0.171573
-0.185202
-0.185760
-0.165672
-0.130641
-0.083990
-0.042135
0.004719
0.051106
0.084374
0.115218
0.123285
0.110290
0.073632
0.043051
-0.004180
-0.056098
-0.104886
-0.148883
-0.182575
-0.201199
-0.210311
-0.204810
-0.190359
-0.155677
-0.104005
-0.051372
-0.005775
0.034800
0.063372
0.097541
0.090922
0.050221
0.040647
0.013982
-0.018825
-0.052384
-0.101830
-0.149463
-0.190949
-0.218310
-0.213079
-0.205822
-0.185631
-0.139529
-0.104943
-0.058673
-0.018307
0.030407
0.066149
0.096245
0.090736
0.079937
0.068141
0.022915
-0.010758
-0.045322
-0.097285
-0.134017
-0.182793
-0.206828
-0.200628
-0.195460
-0.178965
-0.136232
-0.067396
-0.030169
-0.004475
0.030354
0.075726
0.100181
0.090539
0.090375
0.069536
0.039657
-0.008908
-0.053707
-0.099270
-0.151278
-0.178595
-0.195823
-0.204743
-0.200026
-0.175169
-0.144113
-0.098564
-0.053370
0.004496
0.040014
0.072018
0.106840
0.123942
0.103061
0.086707
0.048409
-0.009577
-0.052034
-0.100610
-0.125608
-0.192481
-0.206074
-0.196088
-0.186241
-0.166169
-0.125540
-0.099859
-0.072575
-0.015365
0.046579
0.084744
0.103689
0.115450
0.109302
0.067199
0.031147
-0.003571
-0.046871
-0.091086
-0.142421
-0.163602
-0.183161
-0.202323
-0.186371
-0.170490
-0.170043
-0.109591
-0.051560
-0.007247
0.045885
0.085751
0.102702
0.106349
0.109873
0.089356
0.044308
0.003011
-0.045662
-0.101474
-0.149421
-0.183710
-0.204144
-0.194403
-0.162872
-0.163339
-0.147707
-0.107935
-0.057527
-0.014953
0.033899
0.066916
0.093044
0.107548
0.107283
0.060485
0.021039
-0.021318
-0.061746
-0.090872
-0.133806
-0.175625
-0.205756
-0.215861
-0.214955
-0.191220
-0.155312
-0.112962
-0.059483
-0.006067
0.034494
0.069254
0.079698
0.079063
0.085373
0.067818
0.026569
-0.018097
-0.071641
-0.139658
-0.162976
-0.177544
-0.195735
-0.198214
-0.189572
-0.175396
-0.152767
-0.117846
-0.068750
-0.035238
-0.000478
0.042424
0.075869
0.084864
0.078889
0.065029
0.038480
-0.005302
-0.068692
-0.114968
-0.165169
-0.183079
-0.207312
-0.218533
-0.221461
-0.195716
-0.145803
-0.101823
-0.065703
-0.026232
0.016679
0.048315
0.080716
0.084990
0.073144
0.053528
0.019106
-0.025946
-0.067507
-0.109555
-0.154375
-0.187980
-0.229221
-0.231345
-0.212968
-0.191099
-0.163499
-0.127880
-0.078621
-0.031085
0.014475
0.054295
0.074537
0.082411
0.074063
0.047173
0.012393
-0.038215
-0.093543
-0.144842
-0.156593
-0.184398
-0.212710
-0.230159
-0.240946
-0.206312
-0.184620
-0.128084
-0.062660
-0.007792
0.019952
0.046656
0.067956
0.065099
0.042798
0.030419
0.026308
0.003284
-0.046323
-0.100706
-0.152400
-0.187170
-0.209097
-0.217946
-0.200994
-0.169682
-0.146889
-0.109212
-0.050224
0.005048
0.044339
0.071474
0.099551
0.112368
0.104581
0.076514
0.038980
0.003090
-0.036599
-0.081589
-0.126389
-0.175714
-0.197284
-0.188896
-0.181002
-0.155187
-0.123317
-0.081179
-0.045286
0.004140
0.040740
0.058237
0.078656
0.096317
0.098529
0.085319
0.068424
0.032167
-0.008123
-0.061570
-0.107591
-0.153583
-0.166730
-0.179877
-0.180751
-0.149684
-0.113951
-0.067008
-0.011122
0.029336
0.066159
0.105778
0.133431
0.132715
0.118512
0.085471
0.056990
0.017819
-0.052061
-0.116139
-0.145136
-0.173550
-0.193771
-0.201560
-0.200940
-0.173721
-0.147864
-0.112788
-0.065180
-0.020569
0.026723
0.071159
0.092148
0.101128
0.091164
0.059769
0.017561
-0.015911
-0.057195
-0.118538
-0.178786
-0.216737
-0.220403
-0.237790
-0.244722
-0.227426
-0.177780
-0.128381
-0.081330
-0.047669
0.005035
0.046793
0.051804
0.057305
0.036323
0.031632
0.003898
-0.039997
-0.088751
-0.142748
-0.201881
-0.241607
-0.241909
-0.256597
-0.262759
-0.248154
-0.204318
-0.153585
-0.103974
-0.049465
0.009136
0.045381
0.068910
0.063615
0.056088
0.027058
-0.005884
-0.048174
-0.098801
-0.146350
-0.208128
-0.244111
-0.246377
-0.246410
-0.237463
-0.224652
-0.190755
-0.148158
-0.093379
-0.055078
-0.012361
0.022024
0.047268
0.042902
0.029680
0.006590
0.005272
-0.047366
-0.094703
-0.133178
-0.180826
-0.223976
-0.245143
-0.254768
-0.246377
-0.219914
-0.181087
-0.144357
-0.093723
-0.048442
-0.016617
0.023950
0.041321
0.032805
0.040440
0.016536
-0.035084
-0.097028
-0.121095
-0.161116
-0.209335
-0.241577
-0.259920
-0.262728
-0.256467
-0.217215
-0.172169
-0.120699
-0.068110
0.000150
0.061676
0.121916
0.154480
0.177302
0.174376
0.150638
0.117983
0.108362
0.088356
0.069856
0.053757
0.049159
0.059664
0.071334
0.123187
0.187314
0.246252
0.323729
0.415673
0.496661
0.573527
0.640725
0.706253
0.738770
0.766397
0.774771
0.783761
0.768304
0.716448
0.653424
0.615370
0.572684
0.525388
0.493420
0.480798
0.485929
0.490263
0.467200
0.442198
0.431963
0.419612
0.411707
0.372076
0.330026
0.278554
0.226694
0.179797
0.126999
0.055771
0.005088
-0.047658
-0.088396
-0.122223
-0.132496
-0.128154
-0.096266
-0.074647
-0.048525
-0.002416
0.037909
0.067254
0.120974
0.152301
0.157554
0.147453
0.117256
0.072585
0.028170
-0.031152
-0.087921
-0.132144
-0.164803
-0.198129
-0.203695
-0.189962
-0.165532
-0.136960
-0.089406
-0.038670
0.003331
0.055113
0.092502
0.101072
0.100811
0.074609
0.050967
0.028548
0.003320
-0.043908
-0.095360
-0.140118
-0.172443
-0.199797
-0.214646
-0.208936
-0.183248
-0.151478
-0.115031
-0.062045
-0.003330
0.052226
0.094510
0.103916
0.113047
0.108061
0.077413
0.034002
-0.003563
-0.049467
-0.103546
-0.137697
-0.177932
-0.203965
-0.213905
-0.200220
-0.168586
-0.132056
-0.084796
-0.041168
0.013261
0.055047
0.095198
0.110446
0.107454
0.111067
0.079420
0.040777
-0.004096
-0.039541
-0.080993
-0.115825
-0.154795
-0.183831
-0.187668
-0.172868
-0.160483
-0.116028
-0.071614
-0.035737
0.008382
0.072464
0.117492
0.143107
0.139392
0.139452
0.106972
0.086827
0.048057
-0.010741
-0.049638
-0.093086
-0.128115
-0.147773
-0.160484
-0.142129
-0.123553
-0.083059
-0.034824
0.018514
0.071847
0.109144
0.157221
0.170613
0.174946
0.141199
0.119767
0.105198
0.066065
0.014072
-0.027832
-0.071476
-0.114634
-0.123197
-0.122910
-0.109714
-0.080747
-0.045425
-0.004259
0.047436
0.099199
0.142792
0.186503
0.212369
0.218392
0.207699
0.170503
0.126937
0.084817
0.046127
-0.002598
-0.046440
-0.079683
-0.102290
-0.104066
-0.097865
-0.062386
-0.024846
0.013575
0.066121
0.115462
0.161364
0.191642
0.212956
0.220061
0.204651
0.176608
0.137060
0.096929
0.051116
0.008659
-0.038231
-0.078667
-0.088829
-0.093824
-0.085828
-0.071050
-0.030113
0.004604
0.055880
0.097624
0.142495
0.189859
0.195226
0.186201
0.180885
0.177544
0.136827
0.099740
0.046571
-0.013788
-0.059771
-0.092427
-0.105018
-0.124831
-0.116326
-0.089397
-0.056310
-0.013920
0.032958
0.069868
0.104125
0.147600
0.163228
0.168006
0.162868
0.137758
0.098971
0.058175
0.006072
-0.035812
-0.079757
-0.118503
-0.149904
-0.154914
-0.145908
-0.140900
-0.127212
-0.061662
-0.003645
0.036057
0.071721
0.116441
0.141596
0.127070
0.111754
0.087402
0.048197
0.011181
-0.041049
-0.087176
-0.119867
-0.157543
-0.175087
-0.177031
-0.176285
-0.162892
-0.128119
-0.093540
-0.050188
-0.001818
0.056867
0.089602
0.105321
0.107825
0.087905
0.068828
0.035719
-0.011967
-0.065072
-0.113002
-0.154066
-0.192624
-0.204529
-0.220602
-0.225986
-0.197199
-0.134851
-0.087825
-0.043711
-0.005782
0.031704
0.071912
0.087033
0.096512
0.083222
0.059700
0.016190
-0.021488
-0.066045
-0.110081
-0.149227
-0.184785
-0.213688
-0.233375
-0.223697
-0.182034
-0.140549
-0.101144
-0.051185
-0.003921
0.045854
0.080225
0.100104
0.098818
0.085252
0.055624
0.030538
-0.003896
-0.053842
-0.101427
-0.153416
-0.187708
-0.190655
-0.202048
-0.208879
-0.198192
-0.160463
-0.103680
-0.049652
0.006781
0.038432
0.053998
0.080392
0.111453
0.096744
0.071654
0.028367
-0.019808
-0.056453
-0.098053
-0.148745
-0.184570
-0.194567
-0.206976
-0.196892
-0.177985
-0.145087
-0.099831
-0.042629
0.011418
0.045216
0.058072
0.100407
0.096216
0.110843
0.105109
0.069481
0.001870
-0.057810
-0.111106
-0.144808
-0.157300
-0.179169
-0.210727
-0.202144
-0.178449
-0.127922
-0.084582
-0.050167
0.006331
0.050352
0.081212
0.108167
0.116319
0.106146
0.074036
0.035716
-0.000344
-0.048034
-0.111866
-0.151996
-0.178106
-0.189762
-0.186914
-0.176330
-0.149492
-0.112326
-0.082337
-0.047822
-0.001439
0.048421
0.081174
0.082260
0.078679
0.070385
0.074820
0.015209
-0.022070
-0.056016
-0.098971
-0.104045
-0.136191
-0.178204
-0.205175
-0.196233
-0.176925
-0.136729
-0.091672
-0.048915
-0.002690
0.041390
0.075643
0.094906
0.108530
0.090124
0.060662
0.018411
-0.017899
-0.076387
-0.127219
-0.159512
-0.195072
-0.195133
-0.197862
-0.185002
-0.161028
-0.136886
-0.113193
-0.060245
-0.011195
0.042828
0.087571
0.098921
0.095358
0.083138
0.070918
0.038546
-0.008339
-0.059318
-0.099798
-0.152351
-0.180575
-0.210801
-0.220641
-0.218094
-0.201817
-0.150589
-0.092746
-0.056952
-0.007010
0.043696
0.062967
0.085160
0.089624
0.078844
0.069632
0.037517
-0.017792
-0.056766
-0.092690
-0.129490
-0.161649
-0.188754
-0.201447
-0.192369
-0.178684
-0.132839
-0.095438
-0.046853
0.007499
0.059071
0.077155
0.094681
0.124104
0.117228
0.096000
0.054439
0.015129
-0.039867
-0.088594
-0.121307
-0.148530
-0.168534
-0.186673
-0.169982
-0.147622
-0.112393
-0.068913
-0.043397
0.006731
0.047258
0.080781
0.112560
0.128705
0.106093
0.077896
0.028653
0.006477
-0.047065
-0.054235
-0.096012
-0.140705
-0.165169
-0.165284
-0.146983
-0.123250
-0.079506
-0.045206
0.003476
0.047899
0.087602
0.116791
0.139036
0.135348
0.109558
0.086784
0.069769
0.049102
0.001637
-0.050396
-0.104635
-0.129833
-0.156838
-0.182436
-0.170880
-0.145028
-0.107354
-0.078049
-0.030890
0.019398
0.064881
0.108740
0.113947
0.109155
0.094671
0.071450
0.049295
0.010279
-0.038647
-0.099147
-0.149190
-0.180248
-0.192572
-0.201363
-0.202247
-0.176518
-0.147753
-0.114266
-0.061775
-0.018594
0.030789
0.059567
0.083471
0.091776
0.063099
0.044371
0.014019
-0.022712
-0.061545
-0.116203
-0.170394
-0.210356
-0.229191
-0.239803
-0.226607
-0.198486
-0.173018
-0.130249
-0.089952
-0.040105
0.029849
0.056612
0.080472
0.082206
0.064363
0.036461
0.003904
-0.038993
-0.084437
-0.144630
-0.199721
-0.225500
-0.246790
-0.274189
-0.246781
-0.210520
-0.173846
-0.131813
-0.086689
-0.043812
-0.004358
0.017907
0.052627
0.080139
0.063260
0.047871
0.004609
-0.034993
-0.076739
-0.130742
-0.168736
-0.210627
-0.231498
-0.254717
-0.238176
-0.220020
-0.201530
-0.170211
-0.109477
-0.058855
-0.001678
0.039405
0.054244
0.058864
0.052303
0.037149
0.005145
-0.034683
-0.093236
-0.144999
-0.185825
-0.234123
-0.264777
-0.257087
-0.224329
-0.215849
-0.171862
-0.109579
-0.058067
-0.000728
0.057104
0.106315
0.126675
0.156562
0.161271
0.145542
0.145148
0.095217
0.059380
0.021254
-0.000251
-0.008508
-0.009969
0.004130
0.029938
0.085914
0.142246
0.213231
0.314698
0.378829
0.462784
0.525504
0.568663
0.590021
0.621018
0.644030
0.648200
0.630166
0.618754
0.601105
0.583047
0.558017
0.522360
0.515884
0.538729
0.540474
0.555104
0.584686
0.596536
0.608199
0.594429
0.568077
0.512982
0.462757
0.411812
0.339064
0.262869
0.162562
0.090020
0.018676
-0.035520
-0.086162
-0.103937
-0.113862
-0.108310
-0.093182
-0.063376
-0.019120
0.022517
0.070951
0.115832
0.135581
0.149132
0.145087
0.117397
0.099201
0.097271
0.034929
-0.019108
-0.050764
-0.110042
-0.156824
-0.171562
-0.172220
-0.181083
-0.171715
-0.180503
-0.131434
-0.041545
0.016751
0.070807
0.100537
0.141049
0.135571
0.110859
0.081943
0.041298
0.004518
-0.039705
-0.094243
-0.139914
-0.178736
-0.187390
-0.199406
-0.187029
-0.167403
-0.139500
-0.102024
-0.034650
0.009836
0.040828
0.079246
0.107218
0.076945
0.077593
0.083647
0.055427
0.018286
-0.032758
-0.097906
-0.152787
-0.172370
-0.189822
-0.206018
-0.201396
-0.151070
-0.118497
-0.081617
-0.023176
0.035157
0.078998
0.101137
0.122375
0.119613
0.105473
0.095023
0.066564
0.021685
-0.036926
-0.084549
-0.124563
-0.154877
-0.174474
-0.176276
-0.168410
-0.139077
-0.108858
-0.081520
-0.025309
0.045305
0.094976
0.120602
0.151902
0.148123
0.134433
0.098707
0.090160
0.045433
0.001339
-0.049938
-0.098154
-0.132800
-0.156193
-0.157054
-0.140099
-0.101641
-0.069934
-0.027596
0.010503
0.072167
0.121621
0.154986
0.168185
0.167946
0.177419
0.159225
0.113439
0.062819
0.025297
-0.025669
-0.079387
-0.096912
-0.107522
-0.119349
-0.110806
-0.074604
-0.047275
-0.007575
0.036560
0.066232
0.140447
0.191662
0.213722
0.222211
0.217034
0.181501
0.145775
0.099744
0.053821
0.006230
-0.046624
-0.084702
-0.108382
-0.088176
-0.083047
-0.053697
-0.023087
0.020955
0.077643
0.128298
0.172682
0.196312
0.208032
0.201160
0.179724
0.180199
0.155854
0.108628
0.057101
0.017278
-0.023868
-0.057389
-0.085563
-0.109388
-0.102265
-0.067901
-0.017206
0.022794
0.074373
0.115718
0.160839
0.178122
0.204166
0.209285
0.191551
0.172070
0.140747
0.094185
0.040990
-0.014349
-0.063233
-0.095004
-0.118190
-0.124698
-0.114333
-0.090429
-0.046526
-0.002143
0.037938
0.077973
0.131092
0.160105
0.174819
0.181257
0.170155
0.131788
0.095396
0.041118
-0.006507
-0.069000
-0.083843
-0.115152
-0.124719
-0.151509
-0.138131
-0.130435
-0.094288
-0.051144
-0.006373
0.032187
0.079202
0.114475
0.130140
0.131203
0.122660
0.085970
0.040503
-0.008190
-0.031691
-0.069610
-0.120420
-0.151760
-0.172474
-0.187556
-0.194747
-0.172898
-0.143894
-0.097951
-0.046637
0.009756
0.045893
0.083368
0.090923
0.091320
0.080446
0.058276
0.028837
-0.023519
-0.067051
-0.114180
-0.156250
-0.190341
-0.210165
-0.234244
-0.227127
-0.192992
-0.148857
-0.112447
-0.067000
-0.018552
0.022966
0.055929
0.078034
0.072359
0.050701
0.043262
0.022028
-0.019419
-0.073094
-0.141988
-0.172330
-0.213541
-0.230478
-0.237687
-0.226936
-0.196682
-0.164002
-0.120789
-0.073385
-0.030804
0.017502
0.049688
0.071029
0.070508
0.065045
0.036147
0.001748
-0.034185
-0.085377
-0.152422
-0.189034
-0.211958
-0.228648
-0.247219
-0.238097
-0.195356
-0.151618
-0.103829
-0.065917
-0.015605
0.010586
0.047593
0.073535
0.073225
0.069726
0.041023
-0.000247
-0.044310
-0.086199
-0.132020
-0.178119
-0.207288
-0.225546
-0.230764
-0.226471
-0.185439
-0.153351
-0.109243
-0.068202
-0.021083
0.008786
0.038220
0.054717
0.078812
0.073015
0.035218
-0.008169
-0.057848
-0.106775
-0.129552
-0.167892
-0.203510
-0.219637
-0.219156
-0.227721
-0.202788
-0.175192
-0.128996
-0.057879
-0.011388
0.032941
0.050109
0.065477
0.067261
0.057885
0.040625
0.008161
-0.032609
-0.077499
-0.136982
-0.176903
-0.212843
-0.233402
-0.231960
-0.230245
-0.197690
-0.174228
-0.137366
-0.083103
-0.051024
-0.011805
0.026684
0.068904
0.080980
0.048762
-0.000902
-0.009066
-0.043888
-0.079470
-0.128674
-0.162453
-0.200405
-0.232395
-0.243381
-0.234631
-0.217591
-0.204022
-0.127637
-0.061049
-0.032900
0.005051
0.038290
0.054128
0.059013
0.057921
0.027287
-0.009674
-0.056695
-0.108080
-0.147565
-0.193691
-0.224027
-0.243245
-0.252355
-0.240160
-0.230116
-0.189910
-0.144747
-0.095477
-0.048013
-0.015644
0.021869
0.029720
0.027413
0.036417
0.016708
-0.027259
-0.063656
-0.099632
-0.144851
-0.202157
-0.235912
-0.252739
-0.258909
-0.255257
-0.228133
-0.189219
-0.159295
-0.107952
-0.059882
-0.018275
0.014010
0.040430
0.043018
0.037868
0.008817
-0.028852
-0.069540
-0.102715
-0.154711
-0.203103
-0.220456
-0.243980
-0.246194
-0.249569
-0.223537
-0.174088
-0.135482
-0.094991
-0.041846
-0.010144
0.016214
0.060697
0.072928
0.054115
0.034863
-0.006596
-0.040732
-0.077398
-0.140498
-0.192970
-0.207777
-0.231757
-0.235882
-0.224367
-0.218187
-0.181655
-0.135560
-0.087654
-0.049970
-0.000591
0.027864
0.055870
0.067238
0.048883
0.030199
0.012849
-0.028928
-0.067647
-0.120084
-0.156610
-0.197608
-0.227868
-0.228545
-0.215415
-0.197275
-0.151161
-0.108195
-0.063204
-0.020124
0.034249
0.053049
0.063884
0.073006
0.059083
0.042057
0.023225
-0.018123
-0.061742
-0.126000
-0.178674
-0.206750
-0.228310
-0.229687
-0.217536
-0.208944
-0.187873
-0.154914
-0.127600
-0.067530
-0.036049
0.001395
0.021227
0.029233
0.013697
-0.009932
-0.039718
-0.086012
-0.130609
-0.186180
-0.219414
-0.263609
-0.294226
-0.303606
-0.281844
-0.267761
-0.229536
-0.185803
-0.141964
-0.085755
-0.058622
-0.036543
-0.019465
-0.037721
-0.039828
-0.038562
-0.064986
-0.101961
-0.145569
-0.209236
-0.249574
-0.277062
-0.312227
-0.320674
-0.308798
-0.289009
-0.256489
-0.212249
-0.164641
-0.108577
-0.083282
-0.048427
-0.007373
0.012714
-0.007137
-0.034290
-0.086463
-0.138898
-0.186392
-0.234045
-0.264667
-0.293543
-0.305926
-0.317127
-0.312649
-0.283493
-0.251142
-0.204159
-0.161793
-0.118713
-0.068747
-0.047040
-0.017172
-0.021378
-0.029401
-0.043085
-0.054172
-0.105158
-0.157789
-0.221969
-0.263405
-0.287128
-0.329389
-0.330070
-0.313834
-0.293811
-0.264486
-0.210875
-0.168688
-0.109218
-0.071279
-0.041956
-0.020006
-0.019545
-0.023311
-0.053101
-0.082152
-0.127129
-0.182820
-0.236000
-0.275358
-0.303854
-0.321706
-0.306599
-0.292158
-0.266591
-0.209837
-0.153906
-0.078662
-0.019226
0.036221
0.082481
0.113734
0.132168
0.142887
0.125983
0.090370
0.089716
0.074792
0.046942
0.012786
0.019938
0.042124
0.073294
0.101975
0.158258
0.207719
0.267859
0.355594
0.458807
0.524556
0.590436
0.631880
0.683274
0.707788
0.714204
0.677300
0.630985
0.588972
0.527945
0.462279
0.421438
0.388469
0.345347
0.299433
0.242170
0.213919
0.205384
0.205562
0.223907
0.213509
0.203734
0.191643
0.165214
0.124251
0.076504
0.027184
-0.034182
-0.095865
-0.151573
-0.197996
-0.224609
-0.242668
-0.256725
-0.240801
-0.216431
-0.186071
-0.135565
-0.085396
-0.049743
-0.019171
0.013331
0.047013
0.053538
0.034363
0.003509
-0.024040
-0.057643
-0.128191
-0.185903
-0.229844
-0.269655
-0.277835
-0.281494
-0.279930
-0.272200
-0.235682
-0.208386
-0.131445
-0.069909
-0.018800
0.014520
0.021983
0.019085
0.004275
-0.016006
-0.050499
-0.090740
-0.144837
-0.209212
-0.239577
-0.285566
-0.293199
-0.303616
-0.294927
-0.279968
-0.239389
-0.191715
-0.150550
-0.094951
-0.057944
-0.011026
0.010977
0.020076
0.003495
-0.026881
-0.064819
-0.087363
-0.136173
-0.190481
-0.241150
-0.269169
-0.287416
-0.300875
-0.284012
-0.263622
-0.227163
-0.178659
-0.119553
-0.070418
-0.032015
0.000776
0.028828
0.019884
0.005598
-0.017627
-0.051806
-0.088512
-0.139003
-0.199302
-0.229378
-0.267898
-0.289371
-0.275749
-0.253248
-0.225985
-0.189578
-0.160344
-0.109647
-0.059364
-0.017694
0.013162
0.030554
0.042743
0.039547
0.008859
-0.020702
-0.046740
-0.094544
-0.142624
-0.188004
-0.221796
-0.232343
-0.240812
-0.236022
-0.230929
-0.193392
-0.132175
-0.077109
-0.037149
0.004006
0.059042
0.079938
0.072637
0.068837
0.049324
0.019215
-0.021367
-0.071761
-0.124157
-0.175922
-0.214984
-0.238936
-0.235238
-0.220660
-0.190811
-0.148101
-0.099055
-0.056095
0.000456
0.032781
0.066002
0.080633
0.091076
0.090344
0.072372
0.043658
0.001242
-0.058969
-0.106782
-0.160897
-0.196166
-0.198942
-0.211986
-0.200791
-0.189875
-0.158656
-0.099373
-0.047106
0.002286
0.032603
0.064005
0.079186
0.085381
0.071197
0.052916
0.031127
-0.014248
-0.064100
-0.118520
-0.147857
-0.180548
-0.203892
-0.211405
-0.202717
-0.180048
-0.143139
-0.104390
-0.054165
-0.001663
0.031834
0.059935
0.072378
0.076650
0.080686
0.046931
0.000081
-0.039526
-0.103487
-0.128004
-0.168867
-0.196331
-0.219595
-0.223289
-0.225608
-0.204497
-0.189333
-0.139347
-0.082132
-0.040738
-0.008088
0.032147
0.049113
0.047493
0.034778
0.012562
-0.022496
-0.076964
-0.124435
-0.176566
-0.219108
-0.256566
-0.280238
-0.286434
-0.265884
-0.238100
-0.215671
-0.177397
-0.126878
-0.079373
-0.050213
-0.016257
0.005126
-0.003098
-0.001795
-0.018267
-0.058052
-0.106339
-0.169703
-0.206818
-0.242268
-0.284165
-0.299422
-0.325009
-0.307010
-0.276428
-0.236991
-0.215797
-0.163096
-0.106559
-0.057968
-0.031661
-0.027933
-0.019730
-0.036590
-0.058081
-0.093049
-0.145150
-0.194799
-0.235888
-0.265231
-0.298963
-0.314554
-0.331924
-0.336476
-0.304314
-0.254180
-0.214695
-0.158986
-0.112112
-0.079431
-0.038469
-0.028369
-0.022706
-0.030767
-0.054151
-0.092579
-0.142484
-0.191128
-0.225297
-0.272196
-0.319281
-0.323816
-0.321376
-0.328093
-0.301959
-0.255621
-0.208387
-0.149516
-0.104792
-0.075843
-0.053495
-0.047428
-0.034198
-0.047217
-0.068339
-0.109097
-0.135501
-0.182658
-0.238980
-0.281334
-0.305673
-0.323243
-0.336204
-0.298647
-0.276638
-0.270506
-0.220674
-0.160238
-0.127986
-0.077526
-0.047107
-0.030253
-0.025531
-0.038186
-0.059605
-0.086406
-0.132221
-0.173882
-0.221325
-0.254266
-0.293430
-0.308028
-0.311387
-0.319803
-0.288499
-0.255615
-0.199198
-0.155854
-0.119401
-0.080591
-0.048279
-0.030374
-0.020089
-0.028402
-0.053995
-0.087284
-0.131316
-0.193523
-0.242257
-0.281916
-0.328330
-0.331004
-0.325823
-0.295054
-0.261143
-0.235498
-0.199835
-0.146853
-0.104787
-0.073394
-0.037235
-0.019352
-0.023350
-0.025776
-0.047477
-0.082883
-0.120717
-0.173897
-0.222580
-0.251745
-0.282390
-0.297612
-0.322445
-0.308467
-0.284160
-0.251397
-0.221872
-0.180950
-0.113709
-0.068111
-0.032872
-0.023836
-0.016285
-0.030738
-0.068021
-0.093492
-0.139990
-0.190693
-0.221378
-0.261682
-0.304874
-0.310742
-0.322912
-0.312974
-0.297562
-0.271457
-0.226854
-0.167246
-0.120104
-0.077935
-0.054686
-0.042956
-0.037470
-0.046381
-0.058133
-0.096425
-0.139022
-0.185685
-0.232308
-0.283402
-0.315411
-0.325565
-0.324306
-0.324814
-0.298089
-0.271472
-0.224474
-0.179727
-0.129931
-0.102850
-0.059107
-0.043490
-0.037297
-0.032002
-0.052084
-0.090687
-0.130302
-0.175822
-0.215140
-0.261515
-0.301672
-0.321465
-0.332359
-0.338136
-0.311084
-0.265128
-0.225747
-0.167931
-0.122695
-0.092910
-0.063830
-0.015041
-0.003089
-0.009277
-0.036496
-0.064166
-0.105458
-0.160017
-0.205464
-0.255008
-0.295047
-0.312411
-0.304660
-0.284028
-0.269390
-0.235333
-0.193786
-0.140405
-0.102883
-0.066138
-0.035876
-0.029425
-0.000071
-0.009156
-0.037605
-0.059320
-0.104666
-0.168109
-0.216747
-0.261881
-0.279300
-0.297025
-0.295992
-0.291684
-0.275865
-0.224962
-0.184100
-0.131226
-0.091806
-0.047030
-0.002250
0.014380
0.020173
0.003952
-0.014164
-0.051744
-0.104161
-0.144040
-0.176217
-0.222018
-0.269199
-0.281091
-0.288283
-0.297417
-0.288505
-0.257776
-0.197636
-0.136571
-0.083864
-0.048660
-0.029778
-0.012157
-0.010570
-0.029977
-0.048194
-0.080974
-0.128822
-0.183859
-0.222412
-0.257370
-0.309120
-0.327781
-0.330658
-0.327112
-0.313406
-0.286215
-0.256557
-0.200185
-0.156733
-0.131622
-0.071858
-0.038454
-0.038198
-0.053345
-0.088989
-0.128332
-0.156316
-0.211404
-0.256951
-0.298048
-0.336088
-0.365738
-0.365098
-0.359261
-0.339931
-0.303898
-0.261373
-0.222625
-0.174770
-0.134516
-0.103401
-0.087644
-0.068400
-0.065564
-0.079260
-0.118353
-0.171323
-0.223238
-0.269445
-0.310436
-0.344618
-0.365539
-0.368158
-0.362327
-0.342699
-0.311685
-0.256962
-0.215194
-0.163922
-0.127016
-0.093051
-0.072264
-0.062946
-0.075695
-0.095335
-0.131992
-0.171902
-0.216875
-0.253620
-0.315869
-0.349757
-0.372625
-0.376721
-0.373207
-0.350052
-0.315692
-0.264573
-0.220051
-0.173081
-0.129910
-0.092685
-0.065957
-0.060470
-0.074321
-0.097266
-0.136259
-0.183322
-0.229477
-0.282292
-0.345360
-0.371912
-0.395019
-0.376996
-0.367767
-0.347774
-0.314524
-0.268384
-0.217499
-0.164403
-0.114584
-0.101872
-0.063497
0.004082
0.024847
0.015112
-0.013382
-0.035593
-0.071666
-0.118398
-0.148681
-0.164667
-0.168682
-0.157131
-0.118393
-0.076972
-0.010272
0.070800
0.149263
0.239815
0.307970
0.368558
0.408579
0.440161
0.453095
0.469545
0.464847
0.462094
0.448960
0.432269
0.416504
0.416637
0.410968
0.415592
0.405056
0.433832
0.451231
0.484927
0.519115
0.543870
0.537408
0.508029
0.450162
0.394093
0.322968
0.260761
0.188313
0.103709
0.007532
-0.078820
-0.139411
-0.199965
-0.242283
-0.252660
-0.259033
-0.245558
-0.214091
-0.169993
-0.125004
-0.071949
-0.025366
0.007840
0.016060
0.018128
0.004731
-0.023473
-0.060772
-0.098386
-0.151907
-0.209541
-0.245313
-0.269668
-0.298301
-0.307254
-0.295344
-0.281973
-0.249819
-0.201691
-0.150852
-0.107485
-0.058411
-0.039930
-0.025120
-0.017922
-0.031174
-0.067653
-0.101529
-0.131297
-0.180369
-0.237803
-0.311384
-0.314323
-0.317252
-0.316516
-0.323940
-0.300987
-0.262363
-0.206617
-0.163384
-0.122035
-0.079957
-0.053382
-0.027875
-0.020139
-0.034718
-0.054890
-0.090565
-0.124039
-0.175631
-0.228387
-0.272924
-0.293806
-0.314080
-0.325174
-0.314755
-0.287488
-0.258705
-0.210091
-0.160082
-0.105700
-0.070741
-0.038131
-0.024878
-0.010711
-0.019033
-0.041924
-0.082526
-0.126732
-0.165475
-0.217037
-0.254485
-0.288228
-0.310553
-0.301046
-0.284876
-0.265091
-0.233955
-0.186756
-0.138413
-0.090551
-0.055945
-0.023517
-0.011713
-0.018850
-0.018671
-0.014263
-0.034147
-0.091686
-0.140069
-0.185235
-0.235119
-0.278989
-0.308325
-0.281345
-0.257831
-0.237551
-0.199353
-0.145934
-0.112265
-0.053014
-0.020148
0.009708
0.024802
0.037876
0.028310
0.012124
-0.020559
-0.069114
-0.114573
-0.159949
-0.192739
-0.225495
-0.249254
-0.254180
-0.233223
-0.207731
-0.168218
-0.124459
-0.087550
-0.044588
0.005986
0.024985
0.032854
0.055697
0.068354
0.046285
0.013321
-0.047327
-0.088117
-0.130982
-0.169353
-0.196143
-0.201896
-0.202504
-0.209778
-0.198202
-0.158393
-0.108943
-0.064745
-0.027248
0.015889
0.049429
0.071192
0.074137
0.063764
0.039513
0.011194
-0.049273
-0.085843
-0.129015
-0.183874
-0.208145
-0.217970
-0.223323
-0.216834
-0.193875
-0.163253
-0.119727
-0.066741
-0.030719
0.007239
0.042230
0.057807
0.069914
0.055449
0.030343
-0.007989
-0.051477
-0.091954
-0.139212
-0.184893
-0.210480
-0.232340
-0.233981
-0.229164
-0.201283
-0.177764
-0.140592
-0.097739
-0.050031
-0.016180
-0.008158
0.018579
0.028196
0.012183
-0.016451
-0.037549
-0.071474
-0.122256
-0.186207
-0.267349
-0.268158
-0.254736
-0.274356
-0.270983
-0.254802
-0.200316
-0.171442
-0.120624
-0.081117
-0.038839
-0.007517
0.008115
0.003716
-0.006042
-0.031292
-0.065443
-0.114472
-0.163662
-0.201366
-0.248442
-0.278507
-0.301375
-0.306055
-0.304491
-0.279214
-0.250665
-0.202677
-0.157231
-0.116288
