-0.037991
0.019482
0.052079
0.075331
0.089202
0.106193
0.112459
0.095734
0.060576
0.007261
-0.042322
-0.101919
-0.133230
-0.167819
-0.197243
-0.214849
-0.193957
-0.171332
-0.139610
-0.097186
-0.050191
-0.006515
0.030935
0.067800
0.082318
0.092330
0.083655
0.070210
0.049941
0.034069
-0.007992
-0.071191
-0.123700
-0.166337
-0.187953
-0.192687
-0.176571
-0.148305
-0.113799
-0.077412
-0.028021
0.017058
0.050773
0.076631
0.100280
0.115212
0.110406
0.081670
0.026477
-0.008919
-0.049004
-0.095539
-0.126075
-0.162547
-0.184510
-0.189087
-0.177760
-0.164342
-0.127681
-0.076703
-0.031796
0.006071
0.046720
0.074638
0.083975
0.095182
0.086262
0.072582
0.034230
-0.003004
-0.050705
-0.105664
-0.154969
-0.188891
-0.205201
-0.211173
-0.210700
-0.195299
-0.153919
-0.101650
-0.060070
-0.018099
0.022983
0.049191
0.075734
0.094714
0.083481
0.065771
0.031363
-0.004459
-0.054339
-0.098965
-0.130694
-0.160944
-0.178229
-0.199348
-0.182394
-0.180924
-0.145508
-0.101996
-0.059491
-0.002125
0.044964
0.072241
0.097548
0.105741
0.080294
0.053337
0.029037
-0.018396
-0.076879
-0.129396
-0.168912
-0.196767
-0.216536
-0.217578
-0.206551
-0.188322
-0.155960
-0.110634
-0.082082
-0.028520
0.042697
0.094249
0.118029
0.129555
0.095063
0.072218
0.035718
-0.011998
-0.053865
-0.105921
-0.158195
-0.181416
-0.203601
-0.211688
-0.192429
-0.174059
-0.136216
-0.101625
-0.056095
-0.000428
0.049127
0.082253
0.103015
0.100529
0.079736
0.059079
0.019975
-0.019813
-0.057247
-0.096020
-0.133233
-0.158039
-0.182386
-0.184681
-0.167046
-0.164527
-0.122816
-0.073513
-0.024499
0.032121
0.096603
0.124106
0.139284
0.136946
0.122526
0.093915
0.067125
0.028696
-0.024540
-0.091521
-0.133042
-0.152469
-0.190151
-0.177879
-0.173745
-0.145444
-0.095766
-0.046872
0.009103
0.037596
0.074935
0.095826
0.151218
0.159822
0.140229
0.107865
0.094187
0.050983
-0.010976
-0.061033
-0.094401
-0.130749
-0.150770
-0.163292
-0.164983
-0.151073
-0.110104
-0.063715
-0.011524
0.045620
0.073696
0.101273
0.106389
0.113387
0.102465
0.082232
0.043139
-0.012087
-0.054919
-0.102539
-0.152950
-0.196897
-0.218727
-0.221114
-0.222735
-0.200977
-0.167531
-0.113407
-0.066700
-0.020481
0.017473
0.039415
0.055837
0.072009
0.062040
0.045381
0.013608
-0.039265
-0.074302
-0.128274
-0.187036
-0.222596
-0.225159
-0.224256
-0.223103
-0.201799
-0.175189
-0.141949
-0.096051
-0.038570
0.010288
0.033057
0.053790
0.064910
0.058806
0.030119
-0.001681
-0.048134
-0.110350
-0.164231
-0.198816
-0.230479
-0.248529
-0.251913
-0.224575
-0.192773
-0.168244
-0.126656
-0.087927
-0.027554
0.017189
0.064552
0.086508
0.098909
0.062089
0.029056
-0.008022
-0.042502
-0.090670
-0.140762
-0.185600
-0.210464
-0.235237
-0.236694
-0.221509
-0.209050
-0.174571
-0.125467
-0.066272
-0.022163
0.009898
0.044619
0.053019
0.060389
0.048715
0.027670
-0.010521
-0.060647
-0.113496
-0.167990
-0.201945
-0.220144
-0.240424
-0.250239
-0.238815
-0.235170
-0.189433
-0.154152
-0.110696
-0.066492
-0.021572
0.016530
0.041506
0.054221
0.058003
0.046640
0.018483
0.007552
-0.035453
-0.082620
-0.108100
-0.124288
-0.133042
-0.122494
-0.098210
-0.072840
-0.030024
0.039632
0.103939
0.172347
0.234987
0.305452
0.348335
0.384268
0.402097
0.417675
0.420899
0.413104
0.396716
0.372765
0.363030
0.364745
0.388076
0.415018
0.460939
0.510350
0.584621
0.660086
0.717034
0.754225
0.790814
0.835290
0.837906
0.819511
0.786179
0.738833
0.665334
0.560543
0.436404
0.319235
0.224466
0.148712
0.074501
0.016269
-0.033649
-0.044758
-0.027334
-0.007371
0.024181
0.068071
0.120522
0.147387
0.150692
0.151851
0.151276
0.117622
0.091783
0.049422
-0.004964
-0.063351
-0.113138
-0.130501
-0.141152
-0.169419
-0.158569
-0.139085
-0.101652
-0.056583
-0.022350
0.009584
0.049958
0.079912
0.108907
0.115705
0.104802
0.074150
0.046780
0.015724
-0.047534
-0.081785
-0.124721
-0.158702
-0.190532
-0.205853
-0.186334
-0.179930
-0.152148
-0.113338
-0.068860
-0.012534
0.035280
0.062856
0.084823
0.099085
0.096416
0.078545
0.034090
-0.014669
-0.064968
-0.122032
-0.163320
-0.194637
-0.220354
-0.221674
-0.207386
-0.185969
-0.147563
-0.102717
-0.043933
0.018717
0.062114
0.098323
0.110675
0.115448
0.110333
0.084987
0.054201
0.010448
-0.043039
-0.090719
-0.133193
-0.172606
-0.180650
-0.200580
-0.189576
-0.171352
-0.143029
-0.092556
-0.045351
0.007552
0.053523
0.089533
0.114582
0.124674
0.106966
0.082109
0.051985
0.015428
-0.033798
-0.072352
-0.111880
-0.154595
-0.169560
-0.175648
-0.164838
-0.137582
-0.098328
-0.059172
-0.006875
0.037468
0.081809
0.118517
0.150660
0.168637
0.147808
0.125127
0.090700
0.044353
-0.009354
-0.047201
-0.090192
-0.113927
-0.126088
-0.137065
-0.126372
-0.090051
-0.052144
-0.012554
0.028546
0.075660
0.131727
0.186723
0.200116
0.213335
0.192583
0.179584
0.139911
0.083046
0.025373
-0.023250
-0.059761
-0.105485
-0.113978
-0.115933
-0.099569
-0.084309
-0.045268
0.001647
0.067058
0.111197
0.143254
0.168800
0.194328
0.209233
0.192442
0.166458
0.138616
0.100664
0.040997
0.004621
-0.035409
-0.082746
-0.094812
-0.106141
-0.101324
-0.070822
-0.038207
0.000412
0.036087
0.086629
0.142387
0.179049
0.197795
0.207923
0.200935
0.174337
0.139034
0.105916
0.052285
0.002596
-0.058167
-0.088763
-0.110476
-0.111828
-0.109579
-0.097727
-0.065865
-0.010338
0.049619
0.070877
0.113177
0.128784
0.164742
0.176722
0.158463
0.137387
0.090940
0.031140
0.003216
-0.041228
-0.096915
-0.141763
-0.144963
-0.158421
-0.160433
-0.137930
-0.090910
-0.047311
-0.007407
0.038558
0.076235
0.097272
0.118563
0.113415
0.101769
0.085435
0.057452
0.030212
-0.029669
-0.079783
-0.120991
-0.172856
-0.213563
-0.210039
-0.190273
-0.172291
-0.141436
-0.097449
-0.044651
-0.000439
0.041782
0.055141
0.068944
0.089657
0.080878
0.062194
0.022646
-0.031176
-0.084710
-0.136742
-0.174049
-0.206099
-0.216368
-0.222418
-0.207896
-0.191213
-0.163600
-0.124937
-0.070872
-0.023054
0.018465
0.051919
0.070667
0.066867
0.053554
0.027512
-0.006245
-0.057040
-0.093706
-0.142584
-0.182711
-0.230955
-0.249566
-0.253050
-0.235189
-0.209926
-0.178835
-0.146224
-0.093372
-0.055355
-0.010728
0.025492
0.037282
0.041468
0.041738
0.013701
-0.008298
-0.058429
-0.108580
-0.152936
-0.205047
-0.246166
-0.255714
-0.270530
-0.257243
-0.228369
-0.193342
-0.143527
-0.089511
-0.032098
-0.003130
0.012983
0.037091
0.076995
0.051782
0.005363
-0.032546
-0.041533
-0.080924
-0.149964
-0.205627
-0.233355
-0.243151
-0.254242
-0.254450
-0.242987
-0.192893
-0.142232
-0.081990
-0.037673
-0.017001
0.019743
0.034625
0.045219
0.039143
0.016002
-0.003081
-0.044297
-0.109222
-0.144415
-0.179678
-0.218323
-0.235988
-0.233180
-0.228221
-0.203521
-0.177157
-0.131144
-0.093634
-0.052269
-0.018693
0.046777
0.069819
0.058628
0.051147
0.015886
-0.022686
-0.073155
-0.110367
-0.141172
-0.174880
-0.211780
-0.236488
-0.244910
-0.234441
-0.212713
-0.181099
-0.134954
-0.091132
-0.037682
0.005854
0.029809
0.042001
0.055899
0.051764
0.044035
0.022271
-0.041519
-0.096525
-0.135801
-0.179713
-0.220707
-0.224034
-0.230044
-0.222795
-0.202034
-0.187177
-0.156657
-0.098355
-0.054731
-0.026999
0.010596
0.037922
0.043959
0.040306
0.035120
-0.007238
-0.049658
-0.101687
-0.143656
-0.193959
-0.231976
-0.251689
-0.253990
-0.249762
-0.228580
-0.192564
-0.160868
-0.103960
-0.053590
-0.018067
0.003193
0.018150
0.040010
0.031387
0.007330
-0.025364
-0.075395
-0.141846
-0.181520
-0.240656
-0.271729
-0.284994
-0.275126
-0.265372
-0.247317
-0.214532
-0.165725
-0.098532
-0.052065
-0.003552
0.027954
0.038574
0.049856
0.036908
0.026526
-0.016061
-0.065958
-0.111888
-0.163975
-0.201614
-0.242296
-0.264332
-0.275747
-0.274931
-0.245610
-0.217387
-0.175872
-0.134841
-0.055952
-0.017522
0.017473
0.026203
0.027915
0.014982
-0.008531
-0.030604
-0.076804
-0.132736
-0.182101
-0.216394
-0.247264
-0.283128
-0.297138
-0.280563
-0.250564
-0.215489
-0.176207
-0.125118
-0.082758
-0.040022
-0.005868
0.016122
0.035465
0.021935
-0.005819
-0.040595
-0.079354
-0.120310
-0.161743
-0.215422
-0.247798
-0.275909
-0.275821
-0.275887
-0.261018
-0.232513
-0.190952
-0.132541
-0.083633
-0.035140
-0.002977
0.011704
0.016350
0.011307
-0.020981
-0.050745
-0.091444
-0.148056
-0.198773
-0.250718
-0.286374
-0.288479
-0.288741
-0.287587
-0.267632
-0.231542
-0.188758
-0.139146
-0.098647
-0.061818
-0.020343
-0.008835
-0.010049
-0.010254
-0.031624
-0.060595
-0.103796
-0.142188
-0.188885
-0.223459
-0.259725
-0.272799
-0.274534
-0.265937
-0.238327
-0.200189
-0.162637
-0.112946
-0.074125
-0.040668
-0.009440
0.019894
0.018753
0.015050
-0.014324
-0.062489
-0.108700
-0.149907
-0.207036
-0.254387
-0.279666
-0.275632
-0.283273
-0.283410
-0.256738
-0.221776
-0.177501
-0.125196
-0.082345
-0.046642
-0.010323
0.005972
0.011624
0.031840
0.013498
-0.026559
-0.068804
-0.121570
-0.166645
-0.220497
-0.257718
-0.269944
-0.262423
-0.240234
-0.215433
-0.169438
-0.123213
-0.071738
-0.047043
-0.014603
0.016273
0.025438
0.034988
0.032175
-0.004742
-0.050969
-0.090074
-0.138043
-0.170125
-0.216693
-0.244066
-0.254741
-0.236563
-0.228427
-0.207771
-0.168217
-0.112266
-0.069863
-0.025926
0.008876
0.029291
0.048536
0.059172
0.052353
0.023161
-0.005896
-0.054097
-0.110499
-0.154948
-0.190406
-0.225451
-0.259872
-0.255909
-0.246120
-0.239916
-0.217795
-0.171789
-0.123211
-0.067895
-0.021454
-0.008006
0.010909
0.019140
0.024819
0.004710
-0.011675
-0.058926
-0.127485
-0.169656
-0.224624
-0.253837
-0.275267
-0.276118
-0.268226
-0.238878
-0.211688
-0.176604
-0.126892
-0.089738
-0.066326
-0.013395
-0.004762
0.004615
-0.009082
-0.038541
-0.069040
-0.116268
-0.177540
-0.224770
-0.259835
-0.291655
-0.309958
-0.314914
-0.306356
-0.287983
-0.259177
-0.230752
-0.172264
-0.134688
-0.086720
-0.051517
-0.033026
-0.028164
-0.030118
-0.053885
-0.085794
-0.119039
-0.182966
-0.229484
-0.268802
-0.298480
-0.314889
-0.313693
-0.318939
-0.300329
-0.260042
-0.215022
-0.164522
-0.129524
-0.093342
-0.059767
-0.044228
-0.043910
-0.031675
-0.042008
-0.080380
-0.121075
-0.182573
-0.225479
-0.268591
-0.306318
-0.323390
-0.325739
-0.330653
-0.312939
-0.275076
-0.227978
-0.163230
-0.126656
-0.075178
-0.040876
-0.024124
-0.029306
-0.044444
-0.069914
-0.101388
-0.138623
-0.174672
-0.226032
-0.261196
-0.287382
-0.315790
-0.321509
-0.315579
-0.291019
-0.280349
-0.236147
-0.173446
-0.133488
-0.092914
-0.045298
-0.030965
-0.024192
-0.007449
-0.013944
-0.041063
-0.080710
-0.126988
-0.135703
-0.175203
-0.197622
-0.199133
-0.191309
-0.164631
-0.125830
-0.067298
-0.013094
0.054075
0.129243
0.194649
0.263099
0.308622
0.357443
0.378769
0.383246
0.390587
0.391254
0.381652
0.367717
0.374228
0.389527
0.406497
0.444861
0.468754
0.516670
0.587372
0.628490
0.683412
0.739482
0.760409
0.771597
0.756163
0.741674
0.695292
0.599994
0.494020
0.402426
0.286212
0.189472
0.092116
0.023743
-0.074061
-0.114636
-0.126851
-0.121147
-0.098860
-0.050340
-0.002611
0.022889
0.064399
0.086381
0.083356
0.083704
0.084912
0.050379
0.009262
-0.034152
-0.078912
-0.131000
-0.179510
-0.219224
-0.237616
-0.235560
-0.236386
-0.223301
-0.189113
-0.158115
-0.105091
-0.060890
0.000371
0.024836
0.051333
0.051367
0.044030
0.022020
-0.029566
-0.075154
-0.120865
-0.174687
-0.226229
-0.272576
-0.301585
-0.298865
-0.280019
-0.245062
-0.212472
-0.181413
-0.147923
-0.107995
-0.066981
-0.014819
0.017713
0.025390
0.017357
-0.001003
-0.032227
-0.092819
-0.141462
-0.185791
-0.224520
-0.258814
-0.270285
-0.265591
-0.265244
-0.242450
-0.215330
-0.181389
-0.124101
-0.087444
-0.040383
-0.000603
0.027284
0.036989
0.038213
0.012839
-0.018003
-0.063467
-0.115791
-0.171473
-0.202471
-0.235792
-0.251684
-0.256546
-0.256580
-0.238460
-0.195534
-0.151659
-0.095438
-0.046122
-0.002243
0.036236
0.044849
0.047262
0.045369
0.029982
-0.011328
-0.057671
-0.102291
-0.134291
-0.172877
-0.219317
-0.239386
-0.251482
-0.235081
-0.209719
-0.172243
-0.127223
-0.086432
-0.049654
-0.000525
0.035088
0.070295
0.082815
0.091901
0.075186
0.038708
-0.013415
-0.071187
-0.110324
-0.155246
-0.183701
-0.198411
-0.207652
-0.216877
-0.201080
-0.154826
-0.068254
-0.029401
0.014265
0.067514
0.100655
0.135991
0.133922
0.118949
0.092640
0.064515
0.028843
-0.024681
-0.068289
-0.110347
-0.143804
-0.162790
-0.173231
-0.160597
-0.140758
-0.103682
-0.060936
0.008918
0.052780
0.102015
0.130424
0.148385
0.153534
0.141494
0.113459
0.076417
0.034212
-0.020182
-0.063193
-0.111616
-0.156222
-0.173988
-0.178896
-0.162740
-0.124409
-0.100744
-0.050952
0.004461
0.042932
0.070426
0.101936
0.142569
0.147833
0.128783
0.106011
0.069255
0.031169
-0.005442
-0.055168
-0.108302
-0.147406
-0.169679
-0.173256
-0.177149
-0.142439
-0.099493
-0.064432
-0.024785
0.016708
0.050651
0.080563
0.103289
0.111465
0.115569
0.088698
0.052256
0.006961
-0.059028
-0.105443
-0.143377
-0.174020
-0.203058
-0.201536
-0.183381
-0.163861
-0.134871
-0.089713
-0.040424
0.002194
0.028559
0.050153
0.061238
0.074786
0.063258
0.022868
0.000593
-0.027441
-0.089806
-0.141856
-0.181273
-0.202856
-0.223987
-0.235382
-0.231045
-0.217689
-0.187691
-0.150633
-0.102705
-0.055813
-0.024233
0.003568
0.045014
0.043839
0.029009
0.004024
-0.032916
-0.083630
-0.131195
-0.178736
-0.231466
-0.261643
-0.274439
-0.279448
-0.273268
-0.238940
-0.194144
-0.153615
-0.105149
-0.060044
-0.024645
0.005826
0.015708
0.019064
0.022551
-0.005479
-0.046915
-0.100889
-0.143894
-0.196595
-0.232998
-0.248957
-0.274684
-0.283509
-0.283921
-0.260052
-0.224175
-0.181648
-0.133248
-0.084269
-0.049552
-0.008651
-0.007502
0.000726
0.001495
-0.020966
-0.055850
-0.097886
-0.146736
-0.197002
-0.234516
-0.274940
-0.278517
-0.272318
-0.265567
-0.245359
-0.216252
-0.176526
-0.120565
-0.082006
-0.039627
0.001691
0.023408
0.017508
0.006761
-0.007152
-0.033670
-0.075117
-0.134976
-0.165153
-0.196795
-0.225400
-0.262428
-0.269760
-0.240386
-0.214546
-0.188974
-0.156433
-0.106364
-0.068719
-0.046072
-0.000236
0.012148
0.022278
0.023821
0.008041
-0.037365
-0.078638
-0.132868
-0.180159
-0.218412
-0.237476
-0.258219
-0.255232
-0.246433
-0.239558
-0.204781
-0.159662
-0.105954
-0.067960
-0.023816
0.018353
0.043481
0.048322
0.034649
-0.001084
-0.032500
-0.080223
-0.123335
-0.176921
-0.216887
-0.237148
-0.250244
-0.253528
-0.253126
-0.232298
-0.193036
-0.160517
-0.130765
-0.098949
-0.021423
0.008208
0.022535
0.034616
0.027485
0.005316
-0.021136
-0.070858
-0.137931
-0.174329
-0.196875
-0.233018
-0.262215
-0.249423
-0.239714
-0.230889
-0.211507
-0.165648
-0.112513
-0.072691
-0.019534
0.008837
0.027421
0.047214
0.055222
0.025326
-0.008552
-0.045358
-0.092999
-0.143820
-0.188419
-0.216535
-0.237164
-0.254392
-0.247439
-0.251716
-0.215206
-0.179498
-0.129631
-0.085886
-0.039787
0.004751
0.011509
0.009674
0.006023
-0.019044
-0.045382
-0.082854
-0.127882
-0.171708
-0.200104
-0.227818
-0.252648
-0.267709
-0.257299
-0.235973
-0.194128
-0.144060
-0.096895
-0.043280
-0.011893
0.018525
0.033913
0.042159
0.039144
0.009633
-0.044641
-0.094749
-0.137380
-0.158095
-0.198815
-0.223772
-0.247285
-0.263609
-0.254672
-0.249630
-0.224509
-0.181609
-0.129272
-0.071284
-0.021930
0.001463
0.024970
0.024003
0.027813
0.000038
-0.030221
-0.076788
-0.122692
-0.162529
-0.206971
-0.229180
-0.257994
-0.271950
-0.271814
-0.258299
-0.220974
-0.178515
-0.140612
-0.087077
-0.029476
-0.002079
0.028257
0.023916
0.011828
-0.016907
-0.042123
-0.067423
-0.121016
-0.170247
-0.212509
-0.236076
-0.252025
-0.261685
-0.267602
-0.256525
-0.217384
-0.169652
-0.129650
-0.091655
-0.043012
-0.019295
0.012584
0.017868
0.028100
0.009390
-0.031306
-0.080890
-0.132045
-0.187152
-0.210816
-0.243833
-0.264993
-0.280245
-0.271061
-0.260485
-0.222721
-0.178226
-0.147866
-0.095807
-0.038870
-0.014381
0.010103
0.021630
0.017529
0.002430
-0.042089
-0.077543
-0.119415
-0.166944
-0.218195
-0.260240
-0.287233
-0.272627
-0.258325
-0.237718
-0.205962
-0.157713
-0.115667
-0.066889
-0.015858
0.021594
0.056724
0.048399
0.048080
0.032423
-0.006058
-0.054260
-0.095536
-0.160806
-0.201457
-0.246010
-0.262655
-0.262678
-0.255856
-0.238260
-0.208954
-0.166278
-0.137717
-0.085458
-0.041978
-0.006643
0.023814
0.033261
0.023774
0.021301
-0.007572
-0.054758
-0.110861
-0.153027
-0.184985
-0.213843
-0.239022
-0.251350
-0.254061
-0.233060
-0.199834
-0.153009
-0.099201
-0.046054
-0.000452
0.026103
0.054643
0.060161
0.066453
0.038160
0.012810
-0.033661
-0.085211
-0.139424
-0.178351
-0.196777
-0.210877
-0.214419
-0.219524
-0.201804
-0.168690
-0.112104
-0.075823
-0.032582
0.003076
0.030261
0.059349
0.069612
0.065791
0.049174
0.005455
-0.046280
-0.091871
-0.135545
-0.172179
-0.191295
-0.211244
-0.212261
-0.204933
-0.179586
-0.153253
-0.110288
-0.057403
-0.035154
-0.005848
0.017411
0.047364
0.059244
0.081793
0.075739
0.031206
-0.030878
-0.061698
-0.098525
-0.137365
-0.181229
-0.222678
-0.226393
-0.214030
-0.188478
-0.167869
-0.121232
-0.086780
-0.029727
0.018023
0.049683
0.060685
0.062096
0.048654
0.039935
0.000947
-0.044649
-0.098812
-0.135013
-0.192320
-0.225764
-0.246132
-0.237061
-0.221391
-0.198972
-0.176629
-0.133149
-0.102623
-0.050248
-0.010520
0.021658
0.035992
0.042305
0.038524
0.015128
-0.020797
-0.068844
-0.131319
-0.176810
-0.214555
-0.258783
-0.280001
-0.278146
-0.272749
-0.254282
-0.216800
-0.166665
-0.117398
-0.070482
-0.014779
-0.003564
0.021758
0.022866
0.016662
-0.011918
-0.051856
-0.095174
-0.135326
-0.179326
-0.225995
-0.249782
-0.273462
-0.278368
-0.273928
-0.247899
-0.205494
-0.161095
-0.118834
-0.086461
-0.022136
0.030851
0.011103
0.001752
0.004297
-0.007157
-0.042944
-0.077679
-0.127198
-0.164648
-0.212901
-0.250010
-0.267438
-0.266350
-0.244497
-0.228949
-0.200212
-0.153910
-0.108381
-0.065914
-0.017335
0.012009
0.032124
0.026569
0.019853
-0.020538
-0.046301
-0.093672
-0.140789
-0.188239
-0.228943
-0.240639
-0.252400
-0.267366
-0.261508
-0.248612
-0.220051
-0.160953
-0.110406
-0.058791
0.008986
0.056681
0.086056
0.100536
0.084762
0.067886
0.044974
0.018038
-0.018744
-0.046381
-0.072449
-0.073479
-0.060173
-0.057910
-0.029961
0.023062
0.101352
0.198231
0.280402
0.357262
0.441299
0.494615
0.542099
0.585676
0.618370
0.627686
0.637844
0.649869
0.626241
0.609588
0.571692
0.549439
0.581119
0.574520
0.566292
0.596255
0.614936
0.663005
0.677928
0.680509
0.690861
0.643044
0.580368
0.526432
0.461203
0.398354
0.318240
0.222679
0.119362
0.052517
-0.009960
-0.045217
-0.070294
-0.078194
-0.099104
-0.083068
-0.042190
0.000855
0.030161
0.064990
0.089537
0.124626
0.151149
0.155005
0.131686
0.104649
0.063913
0.024914
-0.024315
-0.075151
-0.114027
-0.146910
-0.159984
-0.172167
-0.187946
-0.165070
-0.132494
-0.091860
-0.047111
-0.005958
0.036228
0.058469
0.080099
0.079369
0.073259
0.049689
0.039589
-0.012889
-0.068022
-0.088279
-0.144499
-0.176675
-0.198075
-0.211717
-0.197226
-0.167278
-0.141066
-0.107736
-0.058004
-0.000864
0.039764
0.072112
0.088192
0.083194
0.083230
0.064848
0.026198
-0.028409
-0.064966
-0.096397
-0.129006
-0.151580
-0.176049
-0.206467
-0.204503
-0.174039
-0.145379
-0.106189
-0.043603
0.009729
0.054944
0.070495
0.071362
0.077542
0.069409
0.037297
0.035325
-0.010792
-0.062216
-0.105778
-0.134910
-0.165343
-0.167145
-0.179250
-0.182646
-0.162407
-0.119695
-0.068367
-0.019519
0.037694
0.077596
0.090987
0.116118
0.130348
0.123309
0.111323
0.078130
0.037578
-0.013975
-0.057308
-0.098682
-0.123604
-0.137251
-0.146381
-0.139751
-0.126410
-0.096315
-0.037593
0.014406
0.060336
0.104158
0.140544
0.165668
0.174426
0.173450
0.155897
0.122113
0.069400
0.028731
-0.008656
-0.043810
-0.056478
-0.069618
-0.096439
-0.089247
-0.075369
-0.045372
0.012475
0.064006
0.109088
0.147052
0.186372
0.192632
0.189319
0.175350
0.149090
0.125619
0.076941
0.046502
0.006013
-0.032612
-0.063693
-0.087551
-0.110694
-0.104759
-0.062835
-0.037952
-0.000613
0.030709
0.086738
0.170694
0.221006
0.225830
0.217190
0.215350
0.198965
0.166297
0.109216
0.065918
0.022644
-0.016876
-0.041149
-0.058546
-0.067668
-0.068547
-0.039033
-0.000195
0.041359
0.082595
0.116742
0.164080
0.190316
0.214342
0.229486
0.201485
0.167475
0.143892
0.094510
0.057934
0.007395
-0.052660
-0.065116
-0.099887
-0.114674
-0.080487
-0.065001
-0.039065
0.014296
0.055602
0.089201
0.140242
0.164678
0.174906
0.173458
0.174393
0.166233
0.149787
0.088574
0.027630
-0.020335
-0.065341
-0.115393
-0.127434
-0.127924
-0.116957
-0.101124
-0.071464
-0.030099
-0.027245
0.023385
0.090471
0.094745
0.120712
0.131167
0.131332
0.108119
0.084419
0.037596
-0.027333
-0.075080
-0.132794
-0.170181
-0.195889
-0.200126
-0.173570
-0.132368
-0.106759
-0.054080
-0.021806
0.047558
0.094360
0.120713
0.127468
0.120760
0.117463
0.091095
0.051961
-0.010077
-0.046635
-0.091561
-0.135668
-0.183096
-0.201902
-0.195512
-0.173620
-0.158629
-0.125429
-0.067541
-0.023779
0.016953
0.068617
0.091825
0.120504
0.120337
0.109171
0.087537
0.058529
-0.004614
-0.065226
-0.116455
-0.160153
-0.189684
-0.178956
-0.193035
-0.195372
-0.177716
-0.148050
-0.102598
-0.062286
-0.023448
0.030661
0.068364
0.088476
0.093437
0.093296
0.101672
0.057030
-0.015385
-0.080516
-0.099484
-0.128435
-0.168457
-0.193077
-0.212770
-0.187151
-0.151979
-0.117417
-0.074337
-0.018512
0.018834
0.042704
0.071602
0.099424
0.103787
0.103004
0.086693
0.048936
0.007695
-0.033080
-0.091685
-0.131623
-0.161586
-0.180629
-0.190254
-0.189982
-0.170759
-0.144254
-0.095500
-0.039426
-0.014754
0.017993
0.093128
0.110946
0.113393
0.105187
0.071531
0.047372
0.000368
-0.039357
-0.081972
-0.097750
-0.133022
-0.171515
-0.190505
-0.190055
-0.160913
-0.115724
-0.075741
-0.022308
0.026681
0.058831
0.091340
0.108550
0.108123
0.091338
0.078060
0.054226
0.004252
-0.043946
-0.088586
-0.140938
-0.166967
-0.194158
-0.191056
-0.178150
-0.161968
-0.132506
-0.079165
-0.013733
0.035692
0.065718
0.102016
0.133978
0.135118
0.119554
0.102440
0.069593
0.015987
-0.037766
-0.102906
-0.137462
-0.166978
-0.183088
-0.187572
-0.181895
-0.150165
-0.108594
-0.078165
-0.034254
0.016688
0.064254
0.088137
0.106759
0.123644
0.106275
0.076302
0.040605
-0.002645
-0.042231
-0.095254
-0.141620
-0.176943
-0.191917
-0.208894
-0.199564
-0.179906
-0.148098
-0.082251
-0.036243
0.023287
0.070973
0.105938
0.115553
0.107316
0.097268
0.097437
0.055837
-0.008312
-0.073494
-0.135781
-0.150068
-0.198259
-0.222179
-0.231599
-0.220774
-0.188517
-0.134745
-0.086543
-0.054131
-0.004981
0.043274
0.055011
0.077580
0.084421
0.064306
0.040337
0.016646
-0.025881
-0.061489
-0.110337
-0.147184
-0.173681
-0.184160
-0.198773
-0.195545
-0.182865
-0.145341
-0.097220
-0.054123
-0.003349
0.054057
0.090153
0.103435
0.113280
0.091993
0.063099
0.033058
-0.020047
-0.063314
-0.103883
-0.144404
-0.179877
-0.201927
-0.206325
-0.195859
-0.179591
-0.155363
-0.110542
-0.044286
0.008924
0.038550
0.067136
0.080400
0.076170
0.056082
0.023210
0.023269
-0.035825
-0.085953
-0.130228
-0.166190
-0.199807
-0.213269
-0.227025
-0.209464
-0.172062
-0.148255
-0.097665
-0.045223
0.005758
0.051742
0.080350
0.104194
0.105009
0.090333
0.064002
0.015666
-0.032518
-0.073553
-0.114769
-0.160155
-0.211093
-0.215709
-0.216953
-0.204627
-0.169804
-0.137503
-0.092341
-0.074156
-0.028250
0.003541
0.032710
0.061029
0.087510
0.073884
0.052063
0.023530
-0.025534
-0.076672
-0.115342
-0.166410
-0.194077
-0.227881
-0.238503
-0.219114
-0.198319
-0.168578
-0.107606
-0.069237
-0.026709
0.022302
0.070241
0.088679
0.096378
0.081822
0.053654
0.037777
0.000677
-0.061634
-0.101088
-0.129350
-0.149564
-0.181686
-0.192744
-0.192765
-0.156545
-0.129130
-0.071224
-0.030558
0.016000
0.049075
0.097983
0.109321
0.114794
0.095292
0.077218
0.046333
0.002580
-0.040293
-0.067208
-0.109664
-0.147635
-0.168250
-0.183412
-0.185069
-0.159905
-0.110240
-0.066262
-0.032438
-0.002539
0.039598
0.058307
0.076961
0.097922
0.099846
0.090345
0.069039
0.013196
-0.043215
-0.097028
-0.124081
-0.142633
-0.146401
-0.143395
-0.147152
-0.126758
-0.099472
-0.052143
-0.020434
0.019419
0.075162
0.119111
0.117826
0.119560
0.091415
0.076788
0.061153
0.005575
-0.038306
-0.097096
-0.137506
-0.169653
-0.194472
-0.180505
-0.165770
-0.170875
-0.141366
-0.108508
-0.063984
-0.027804
0.017018
0.052155
0.080698
0.080781
0.072253
0.047465
0.009912
-0.026685
-0.088477
-0.135112
-0.170140
-0.178949
-0.200314
-0.227700
-0.222391
-0.196595
-0.176918
-0.134739
-0.087853
-0.039659
-0.001640
0.026439
0.036872
0.048586
0.040766
0.002941
-0.033770
-0.074689
-0.110093
-0.145369
-0.205344
-0.238527
-0.271144
-0.265167
-0.257548
-0.212427
-0.174468
-0.135511
-0.102432
-0.061321
-0.003109
0.032235
0.044939
0.037671
0.043607
0.027886
-0.013447
-0.054682
-0.089615
-0.141523
-0.189550
-0.233596
-0.234762
-0.247244
-0.239257
-0.214727
-0.172494
-0.109507
-0.073674
-0.027528
-0.003726
0.015484
0.028298
0.046836
0.033163
0.011253
-0.025173
-0.072186
-0.096209
-0.136590
-0.178450
-0.210913
-0.236077
-0.235556
-0.233892
-0.203573
-0.191884
-0.149998
-0.102415
-0.047194
-0.005606
0.031486
0.039286
0.038095
0.040250
0.019924
-0.020066
-0.073179
-0.120674
-0.171667
-0.198299
-0.220892
-0.232868
-0.232425
-0.200479
-0.168496
-0.118182
-0.062767
0.008377
0.049377
0.097876
0.144509
0.180350
0.199836
0.198884
0.194070
0.174480
0.153805
0.138344
0.119496
0.108026
0.108016
0.122440
0.152404
0.177093
0.238225
0.306407
0.378244
0.451678
0.520169
0.599391
0.703137
0.751552
0.789620
0.816730
0.839417
0.808673
0.749590
0.698052
0.643782
0.571993
0.512887
0.470990
0.436486
0.400988
0.339386
0.293675
0.283340
0.275166
0.286484
0.293765
0.270358
0.262969
0.226897
0.185271
0.153583
0.105718
0.051479
0.007108
-0.038707
-0.085229
-0.127946
-0.153597
-0.159060
-0.155953
-0.136795
-0.101587
-0.057588
-0.005789
0.042766
0.068467
0.091605
0.103939
0.113283
0.101095
0.063576
0.019135
-0.042070
-0.062443
-0.094034
-0.125820
-0.162153
-0.184976
-0.203108
-0.194053
-0.153965
-0.124936
-0.096591
-0.052763
-0.023627
0.019586
0.047945
0.068047
0.060801
0.073583
0.062210
0.032258
-0.010158
-0.054762
-0.103700
-0.147162
-0.192305
-0.206627
-0.220098
-0.212676
-0.192555
-0.149125
-0.085263
-0.042758
0.006696
0.043077
0.086336
0.124463
0.147102
0.123922
0.089393
0.056693
0.008755
-0.040274
-0.080665
-0.123950
-0.162414
-0.179846
-0.199332
-0.204268
-0.180616
-0.159318
-0.113885
-0.044761
0.020011
0.083944
0.119577
0.118966
0.119311
0.121322
0.097687
0.060378
0.018171
-0.021074
-0.080455
-0.117089
-0.157108
-0.175002
-0.182767
-0.170368
-0.147466
-0.121196
-0.073008
-0.023079
0.013775
0.036687
0.115786
0.155713
0.167803
0.160144
0.131439
0.084699
0.056135
0.008289
-0.048671
-0.074563
-0.117061
-0.150094
-0.180013
-0.178806
-0.135026
-0.095355
-0.048225
-0.000564
0.038671
0.098455
0.159191
0.176578
0.188803
0.183063
0.154939
0.108547
0.065032
0.018716
-0.015420
-0.052123
-0.082041
-0.103855
-0.124280
-0.116570
-0.087500
-0.048859
0.000331
0.063168
0.112699
0.140194
0.170264
0.193184
0.206215
0.195565
0.178578
0.132356
0.085776
0.042285
-0.008222
-0.044175
-0.088700
-0.088124
-0.096291
-0.091966
-0.057912
-0.016288
0.023461
0.060417
0.104939
0.161840
0.199303
0.207625
0.200218
0.200411
0.183680
0.151054
0.106861
0.059692
0.013626
-0.041475
-0.070717
-0.082204
-0.098027
-0.101392
-0.079951
-0.046796
-0.003820
0.045497
0.099679
0.149415
0.182483
0.218869
0.206751
0.192647
0.163684
0.122101
0.052569
0.001154
-0.054048
-0.093299
-0.088026
-0.118058
-0.125646
-0.119283
-0.102085
-0.072443
-0.016451
0.030449
0.076714
0.112166
0.139723
0.158105
0.158389
0.139998
0.113654
0.081963
0.042123
-0.014712
-0.070668
-0.109574
-0.161049
-0.176932
-0.177957
-0.186939
-0.156325
-0.107742
-0.043239
-0.004575
0.017103
0.065467
0.098496
0.099918
0.103771
0.106578
0.072218
0.049468
0.029993
-0.045145
-0.102292
-0.140901
-0.173965
-0.203658
-0.203313
-0.191115
-0.166015
-0.130674
-0.085661
-0.040323
0.001689
0.050858
0.079277
0.089362
0.092311
0.091609
0.071071
0.013760
-0.025133
-0.089710
-0.137632
-0.173930
-0.199209
-0.221231
-0.232025
-0.219264
-0.194350
-0.167004
-0.130706
-0.060105
-0.007716
0.019815
0.040304
0.053702
0.049966
0.036494
0.026155
0.001021
-0.034259
-0.062810
-0.098077
-0.161790
-0.194316
-0.225054
-0.224909
-0.219967
-0.213051
-0.194113
-0.148785
-0.100995
-0.038982
0.006176
0.027857
0.054514
0.048127
0.041607
0.032594
-0.010538
-0.037386
-0.073826
-0.124736
-0.161810
-0.182277
-0.196384
-0.196623
-0.195861
-0.179275
-0.154727
-0.116040
-0.059495
-0.025723
0.010888
0.052116
0.083459
0.091560
0.070706
0.041911
-0.010698
-0.022063
-0.063969
-0.119253
-0.142098
-0.196452
-0.217257
-0.209431
-0.213481
-0.189572
-0.151579
-0.110281
-0.077373
-0.022076
0.035254
0.074163
0.089042
0.100608
0.087184
0.048489
0.032308
-0.003681
-0.059754
-0.113233
-0.158107
-0.191457
-0.211236
-0.220076
-0.222493
-0.204109
-0.135881
-0.088443
-0.047622
-0.010263
0.019817
0.070267
0.098463
0.096216
0.078813
0.043402
0.013839
-0.034130
-0.090761
-0.088244
-0.126911
-0.192218
-0.207494
-0.208567
-0.209702
-0.200031
-0.159144
-0.112621
-0.065478
-0.029094
0.012444
0.047638
0.084808
0.071446
0.055381
0.032842
0.005257
-0.019551
-0.078408
-0.113590
-0.163268
-0.201786
-0.223020
-0.222243
-0.205054
-0.186217
-0.162205
-0.117054
-0.090236
-0.045074
0.001830
0.062327
0.082594
0.077707
0.070662
0.050448
-0.002123
-0.032296
-0.063180
-0.096065
-0.153095
-0.211164
-0.217594
-0.214817
-0.216070
-0.191628
-0.153476
-0.117019
-0.088173
-0.025012
0.013991
0.047383
0.070529
0.081474
0.058480
0.030191
-0.024714
-0.041035
-0.099119
-0.143743
-0.169745
-0.205780
-0.237317
-0.236648
-0.213274
-0.191263
-0.157220
-0.106590
-0.086254
-0.021320
0.007865
0.042073
0.053402
0.056447
0.063984
0.037891
-0.016655
-0.052617
-0.116324
-0.161906
-0.166166
-0.194824
-0.240884
-0.253098
-0.240685
-0.203899
-0.133161
-0.104123
-0.074318
-0.039520
-0.001121
0.015109
0.027575
0.041909
0.047650
0.030112
-0.013756
-0.044226
-0.067985
-0.118075
-0.165397
-0.210947
-0.248660
-0.268747
-0.251102
-0.225634
-0.190719
-0.152604
-0.100311
-0.024683
0.012324
0.039081
0.065608
0.051289
0.045054
0.026654
0.001951
-0.030887
-0.071937
-0.098888
-0.145575
-0.216748
-0.243846
-0.235579
-0.225785
-0.193331
-0.137196
-0.099288
-0.039150
0.008892
0.039050
0.074153
0.111307
0.118629
0.105527
0.081108
0.026503
-0.012577
-0.052346
-0.108063
-0.154378
-0.193791
-0.206868
-0.207882
-0.187562
-0.175848
-0.136067
-0.113783
-0.045921
0.004445
0.032383
0.041752
0.089510
0.114686
0.096297
0.048260
0.038709
0.016342
-0.021902
-0.104751
-0.152666
-0.166087
-0.161687
-0.185580
-0.178506
-0.164658
-0.128460
-0.092430
-0.046492
-0.002534
0.036156
0.063902
0.070938
0.080624
0.073744
0.042486
-0.005761
-0.041339
-0.103631
-0.167166
-0.187948
-0.213145
-0.230777
-0.235100
-0.216720
-0.194486
-0.144840
-0.109856
-0.043781
-0.018188
0.001733
0.023877
0.036769
0.045995
0.040359
0.009801
-0.028767
-0.070111
-0.123676
-0.178302
-0.208072
-0.242379
-0.260308
-0.260088
-0.265330
-0.250070
-0.192459
-0.158147
-0.114936
-0.056423
-0.021811
0.013982
0.032020
0.035601
0.014669
0.001613
-0.035440
-0.095762
-0.138212
-0.181980
-0.214886
-0.258879
-0.273535
-0.271186
-0.265180
-0.225150
-0.200254
-0.171072
-0.122532
-0.070141
-0.034643
-0.003488
0.013793
0.034731
0.034964
0.009092
-0.046960
-0.082864
-0.131092
-0.173504
-0.213479
-0.242201
-0.264393
-0.267649
-0.266108
-0.248316
-0.212797
-0.142920
-0.127424
-0.080444
-0.041249
-0.013832
0.012608
0.010092
0.006553
-0.005106
-0.046870
-0.074737
-0.133781
-0.177220
-0.228757
-0.257125
-0.266339
-0.258956
-0.240061
-0.239346
-0.187017
-0.152585
-0.129614
-0.085512
-0.026921
0.006198
0.027365
0.037203
0.035966
0.025682
-0.010521
-0.042210
-0.087820
-0.132569
-0.155570
-0.143125
-0.150932
-0.136389
-0.126930
-0.103612
-0.065885
-0.002660
0.059545
0.129681
0.214257
0.270058
0.328347
0.372184
0.393097
0.388855
0.385267
0.370368
0.350224
0.333608
0.320870
0.312811
0.332035
0.402643
0.441261
0.490995
0.590289
0.643315
0.704754
0.742054
0.777392
0.789997
0.796370
0.782572
0.777172
0.724538
0.666113
0.596090
0.501584
0.369546
0.270811
0.188534
0.096832
0.024553
-0.024816
-0.062002
-0.028607
-0.018502
0.004285
0.049073
0.089874
0.129223
0.133302
0.142581
0.130791
0.110276
0.054292
0.021152
-0.035547
-0.081384
-0.127662
-0.156886
-0.180363
-0.190815
-0.185785
-0.160376
-0.125420
-0.100514
-0.049973
0.002970
0.008227
0.051464
0.066903
0.070752
0.059790
0.039525
0.016209
-0.014271
-0.059832
-0.088621
-0.152816
-0.180662
-0.200290
-0.216118
-0.237402
-0.198726
-0.156807
-0.129608
-0.079697
-0.055147
-0.025605
0.005992
0.020222
0.045510
0.040677
0.026304
0.002966
-0.020804
-0.050755
-0.096613
-0.155671
-0.180645
-0.219876
-0.232562
-0.225263
-0.195051
-0.185961
-0.136923
-0.104370
-0.056900
-0.018351
0.046088
0.089152
0.123123
0.100400
0.077257
0.060155
-0.003881
-0.077614
-0.132612
-0.159651
-0.184021
-0.224695
-0.234081
-0.221942
-0.200571
-0.161754
-0.113752
-0.066958
-0.018465
0.020429
0.062215
0.094117
0.109300
0.085184
0.067408
0.036408
-0.005945
-0.057293
-0.085224
-0.112732
-0.145631
-0.164230
-0.203194
-0.184348
-0.145856
-0.113896
-0.074431
-0.034983
0.006853
0.035042
0.075412
0.120707
0.131842
0.101965
0.089495
0.059816
0.014933
-0.022810
-0.077233
-0.122385
-0.144611
-0.162835
-0.162794
-0.160115
-0.154324
-0.106373
-0.053847
-0.004328
0.044320
0.074591
0.101743
0.146622
0.157700
0.157811
0.141365
0.088434
0.049629
0.011599
-0.046876
-0.096364
-0.138216
-0.150330
-0.166645
-0.140929
-0.119194
-0.096777
-0.045830
0.015838
0.073276
0.106201
0.136801
0.133040
0.140378
0.141353
0.124069
0.086053
0.045627
0.017395
-0.036870
-0.084390
-0.120444
-0.141266
-0.148300
-0.146376
-0.132573
-0.083907
-0.023173
0.010527
0.048358
0.100107
0.135623
0.151142
0.166632
0.156689
0.104426
0.085605
0.031966
-0.023815
-0.063764
-0.100825
-0.125544
-0.151484
-0.152063
-0.157280
-0.137984
-0.076851
-0.062451
-0.009272
0.045234
0.090074
0.121318
0.129609
0.157300
0.123949
0.101033
0.051261
0.021200
-0.037379
-0.098741
-0.147574
-0.182890
-0.197207
-0.199669
-0.183660
-0.155097
-0.084659
-0.063599
-0.013545
0.025595
0.068857
0.105753
0.098442
0.095359
0.091675
0.060506
0.025143
-0.025565
-0.091376
-0.110220
-0.168053
-0.186307
-0.223531
-0.225246
-0.208376
-0.166598
-0.118301
-0.066558
-0.027502
0.009564
0.029536
0.047301
0.029281
0.059961
0.049909
0.032716
-0.008973
-0.035312
-0.064678
-0.124726
-0.170442
-0.206421
-0.225368
-0.216453
-0.219481
-0.197439
-0.176477
-0.122494
-0.080220
-0.042208
-0.006935
0.016418
0.045592
0.058966
0.054323
0.016139
-0.026908
-0.061322
-0.094421
-0.162825
-0.181368
-0.231818
-0.239632
-0.249054
-0.220185
-0.204438
-0.178294
-0.116452
-0.078897
-0.029049
0.030849
0.087494
0.107295
0.075601
0.047781
0.024418
-0.015789
-0.039800
-0.091075
-0.149151
-0.182853
-0.194491
-0.197408
-0.201360
-0.216135
-0.168279
-0.120826
-0.084880
-0.046441
-0.005977
0.032176
0.082553
0.090615
0.075560
0.077825
0.047735
0.018761
-0.001121
-0.048192
-0.107402
-0.138793
-0.166110
-0.194177
-0.200426
-0.193846
-0.173506
-0.130098
-0.078360
-0.060863
-0.030067
0.010266
0.033654
0.079690
0.108419
0.091996
0.073475
0.033582
-0.008990
-0.068582
-0.101336
-0.147223
-0.203113
-0.218240
-0.230279
-0.208847
-0.202736
-0.152455
-0.128088
-0.080226
-0.018202
0.007440
0.047093
0.070741
0.068984
0.069941
0.063367
0.024558
-0.017729
-0.057868
-0.114077
-0.151636
-0.194045
-0.210077
-0.226773
-0.211560
-0.196710
-0.121806
-0.087389
-0.045324
0.002980
0.038733
0.081130
0.093567
0.099327
0.084309
0.063084
0.019175
-0.016468
-0.060174
-0.093032
-0.140260
-0.172670
-0.198222
-0.221319
-0.204976
-0.212207
-0.173792
-0.101564
-0.069021
0.005465
0.039768
0.076642
0.094015
0.095531
0.089666
0.051449
0.003289
-0.023687
-0.071846
-0.107640
-0.170066
-0.206135
-0.237688
-0.246115
-0.222725
-0.218459
-0.162163
-0.085949
-0.049870
-0.014930
0.018136
0.062887
0.073248
0.100660
0.102918
0.072406
0.016904
-0.002431
-0.056115
-0.100329
-0.153478
-0.180787
-0.214597
-0.219309
-0.223013
-0.179757
-0.129053
-0.067401
-0.002307
0.022075
0.056445
0.075921
0.091311
0.071043
0.071354
0.036893
-0.021890
-0.070699
-0.111074
-0.114368
-0.158749
-0.204162
-0.194973
-0.202279
-0.214916
-0.191275
-0.153487
-0.107924
-0.032327
-0.010658
0.042964
0.051108
0.073699
0.072091
0.056256
0.039684
0.001131
-0.045771
-0.078282
-0.122549
-0.174101
-0.222507
-0.222259
-0.247945
-0.242017
-0.213015
-0.181771
-0.127908
-0.063291
-0.017059
0.044389
0.051697
0.068740
0.076732
0.053920
0.042724
0.012091
-0.028976
-0.066732
-0.101776
-0.152102
-0.193644
-0.210322
-0.230598
-0.232729
-0.220830
-0.183879
-0.146289
-0.097556
-0.043699
-0.004548
0.069053
0.104045
0.101104
0.084649
0.057656
0.025090
-0.025794
-0.049910
-0.080012
-0.112321
-0.155424
-0.181233
-0.201018
-0.192753
-0.173746
-0.131962
-0.068133
-0.029983
-0.009154
0.037917
0.084164
0.104496
0.122532
0.125804
0.113955
0.066369
0.019927
-0.018523
-0.065596
-0.097167
-0.116932
-0.123414
-0.112945
-0.131055
-0.132125
-0.107079
-0.065248
-0.031409
0.029357
0.070766
0.092400
0.089472
0.114156
0.094164
0.084665
0.056886
0.031276
-0.015195
-0.075697
-0.130178
-0.138638
-0.177996
-0.192878
-0.180255
-0.166688
-0.118401
-0.072588
-0.020128
-0.009487
0.023248
0.045385
0.071663
0.085434
0.054557
0.038917
0.023504
-0.047581
-0.079492
-0.123193
-0.157914
-0.208894
-0.245489
-0.257889
-0.250642
-0.204986
-0.197657
-0.135023
-0.093366
-0.036456
0.002188
0.022370
0.042876
0.043313
0.038609
0.012251
-0.019584
-0.066459
-0.104657
-0.147842
-0.188105
-0.232380
-0.247490
-0.233974
-0.214190
-0.173627
-0.140363
-0.112410
-0.085426
-0.063870
-0.017299
0.011078
0.005744
0.024680
-0.004366
-0.018093
-0.073848
-0.104935
-0.137684
-0.163947
-0.241868
-0.223531
-0.228046
-0.254372
-0.235263
-0.229593
-0.181669
-0.147180
-0.107833
-0.046377
0.026848
0.060659
0.085802
0.064458
0.050921
0.025775
0.000451
-0.053643
-0.119735
-0.180925
-0.223138
-0.263226
-0.282887
-0.277633
-0.276994
-0.274681
-0.235184
-0.169299
-0.093906
-0.045831
0.011311
0.039220
0.061283
0.061626
0.051165
-0.012458
-0.062035
-0.102579
-0.162341
-0.213818
-0.245579
-0.252187
-0.239815
-0.235701
-0.220569
-0.174505
-0.151824
-0.106725
-0.074997
-0.004844
0.062452
0.115588
0.148162
0.160907
0.167578
0.131381
0.101300
0.059419
0.032238
0.014731
-0.001964
-0.020209
-0.005159
0.040893
0.087045
0.126005
0.176069
0.249277
0.322943
0.379853
0.452978
0.538913
0.556915
0.570137
0.599866
0.629676
0.645820
0.631059
0.646082
0.617959
0.587937
0.605695
0.571277
0.543439
0.538289
0.551951
0.574140
0.579847
0.610400
0.638598
0.617062
0.575751
0.518493
0.478249
0.432105
0.349324
0.245448
0.162812
0.082875
0.014015
-0.036295
-0.068351
-0.103925
-0.142846
-0.108265
-0.079347
-0.023550
0.002249
0.050873
0.096692
0.137577
0.151532
0.147552
0.129913
0.098296
0.065736
0.019243
-0.023463
-0.068922
-0.087746
-0.143860
-0.158353
-0.195865
-0.192605
-0.184711
-0.165023
-0.143909
-0.109934
-0.070521
-0.019621
0.016559
0.042598
0.044076
0.049779
0.036376
0.002504
-0.015942
-0.055951
-0.116763
-0.147373
-0.184348
-0.201856
-0.222928
-0.236264
-0.220789
-0.199642
-0.181198
-0.133606
-0.078807
-0.029311
0.013938
0.051112
0.064190
0.088780
0.068333
0.029319
-0.016287
-0.052006
-0.086190
-0.104496
-0.140514
-0.167463
-0.182919
-0.224043
-0.235764
-0.202176
-0.134156
-0.107023
-0.053244
-0.031858
0.010020
0.023205
0.040116
0.059316
0.049292
0.029990
-0.001642
-0.061685
-0.094411
-0.140715
-0.178625
-0.214904
-0.229746
-0.183900
-0.172752
-0.172613
-0.139914
-0.102004
-0.049722
-0.024184
0.003142
0.046688
0.083483
0.082308
0.078843
0.060411
0.025495
-0.015447
-0.067054
-0.109594
-0.148963
-0.181650
-0.202096
-0.202227
-0.195059
-0.175413
-0.155967
-0.104441
-0.041761
0.007865
0.036074
0.050858
0.054718
0.058899
0.072890
0.051694
0.013646
-0.056903
-0.077155
-0.124378
-0.153636
-0.174888
-0.163086
-0.169625
-0.150389
-0.120973
-0.087919
-0.057118
-0.013797
0.020402
0.031196
0.042878
0.049554
0.100196
0.093476
0.081922
0.045422
0.005570
-0.043468
-0.091063
-0.118329
-0.159181
-0.195837
-0.197151
-0.179475
-0.157199
-0.133183
-0.073198
-0.026670
-0.000860
0.024931
0.062674
0.088326
0.090334
0.086972
0.052160
0.041597
-0.006861
-0.056890
-0.094632
-0.133152
-0.189575
-0.213014
-0.235522
-0.222564
-0.214371
-0.158472
-0.098339
-0.055846
-0.021880
-0.007710
0.037184
0.077054
0.073827
0.054217
0.011740
-0.029477
-0.034683
-0.052705
-0.114956
-0.159704
-0.211492
-0.233282
-0.222061
-0.209172
-0.184691
-0.181803
-0.140867
-0.089777
-0.060011
-0.002485
0.023825
0.045256
0.049977
0.050796
0.020746
0.001622
-0.031880
-0.082495
-0.127188
-0.182897
-0.212847
-0.239719
-0.245152
-0.251448
-0.224033
-0.203443
-0.164011
-0.118120
-0.083411
-0.027254
0.002498
0.031174
0.026426
0.024313
0.003531
-0.011983
-0.049032
-0.101837
-0.134429
-0.166495
-0.198574
-0.217030
-0.225721
-0.234336
-0.222343
-0.180144
-0.146469
-0.102425
-0.082103
-0.025436
0.006196
0.043894
0.047694
0.048633
0.012621
-0.017427
-0.057294
-0.110280
-0.163005
-0.166674
-0.204442
-0.254186
-0.274183
-0.252922
-0.222634
-0.197054
-0.162392
-0.112564
-0.038953
-0.003829
0.002790
0.020995
0.048356
0.059887
0.001310
-0.038829
-0.072447
-0.109581
-0.139215
-0.182258
-0.213242
-0.246500
-0.257889
-0.254943
-0.228125
-0.178418
-0.140391
-0.109263
-0.064590
-0.034513
-0.015967
0.024578
0.053017
0.058382
0.017650
-0.025969
-0.060159
-0.114508
-0.146583
-0.187827
-0.216035
-0.232102
-0.248431
-0.237906
-0.212022
-0.180731
-0.130680
-0.086801
-0.042754
0.006072
0.031194
0.057131
0.043267
0.050511
0.019515
-0.013327
-0.048960
-0.107375
-0.150808
-0.185846
-0.227578
-0.250407
-0.232335
-0.237787
-0.232278
-0.198287
-0.136439
-0.088507
-0.069786
-0.007916
0.028439
0.034960
0.055239
0.046403
0.023353
-0.016379
-0.046501
-0.090866
-0.115275
-0.137398
-0.188324
-0.229549
-0.230482
-0.229022
-0.202909
-0.169980
-0.127440
-0.088959
-0.054359
-0.008947
0.019192
0.036330
0.042253
0.035969
-0.001034
-0.030343
-0.075057
-0.118867
-0.165542
-0.195361
-0.226620
-0.218667
-0.221553
-0.226245
-0.212143
-0.174885
-0.114211
-0.077579
-0.058112
-0.027957
0.014552
0.030004
0.045607
0.037204
0.014102
-0.034988
-0.091416
-0.118455
-0.164384
-0.236884
-0.232462
-0.254343
-0.268436
-0.265242
-0.230154
-0.195050
-0.148844
-0.075252
-0.047771
-0.014025
0.024489
0.025212
0.042137
0.034653
0.001351
-0.037669
-0.060803
-0.111910
-0.168254
-0.226454
-0.246306
-0.259198
-0.256701
-0.239933
-0.230878
-0.183176
-0.131959
-0.094478
-0.057862
-0.021110
0.020401
0.031213
0.019311
0.008950
-0.022073
-0.060202
-0.096784
-0.146564
-0.169600
-0.232640
-0.285475
-0.291092
-0.278008
-0.267020
-0.222450
-0.203124
-0.142144
-0.076085
-0.042591
-0.043233
-0.013347
0.013982
0.012578
-0.005865
-0.030526
-0.059113
-0.100173
-0.146044
-0.203075
-0.228731
-0.265323
-0.291865
-0.294789
-0.281338
-0.257057
-0.215117
-0.185940
-0.121925
-0.089368
-0.045991
-0.024105
-0.009003
-0.016504
-0.034176
-0.060431
-0.105402
-0.128062
-0.160409
-0.187951
-0.232448
-0.273487
-0.289780
-0.288561
-0.268375
-0.254086
-0.234041
-0.169507
-0.119510
-0.070174
-0.038847
-0.014753
0.014589
0.013695
0.004037
-0.012267
-0.052538
-0.084552
-0.141304
-0.191577
-0.229486
-0.265182
-0.299889
-0.296332
-0.282943
-0.248151
-0.211056
-0.175706
-0.130778
-0.093701
-0.048126
-0.014367
-0.017359
-0.024644
-0.024779
-0.043662
-0.066212
-0.104583
-0.144617
-0.196032
-0.221581
-0.239816
-0.250103
-0.278603
-0.274877
-0.236229
-0.202037
-0.152072
-0.087740
-0.043804
-0.013066
0.012917
0.031366
0.036048
0.027600
-0.008519
-0.056151
-0.098953
-0.107208
-0.113987
-0.172127
-0.241516
-0.262393
-0.263913
-0.264331
-0.234835
-0.213509
-0.168396
-0.117064
-0.077292
-0.031099
-0.005315
0.000193
0.026956
0.043307
0.025886
-0.024962
-0.066367
-0.101018
-0.138755
-0.185651
-0.214381
-0.244367
-0.242369
-0.247685
-0.199889
-0.168815
-0.140000
-0.095206
-0.023152
0.011840
0.036522
0.036798
0.036594
0.017014
-0.025606
-0.009613
-0.038613
-0.096738
-0.152371
-0.184951
-0.225468
-0.266713
-0.273950
-0.276272
-0.254041
-0.219369
-0.186314
-0.143277
-0.089695
-0.046293
-0.032698
-0.017804
-0.026336
-0.053285
-0.070390
-0.085107
-0.113936
-0.163029
-0.194528
-0.250499
-0.275303
-0.282952
-0.291722
-0.292724
-0.283419
-0.259336
-0.225504
-0.165165
-0.118719
-0.070748
-0.051845
-0.055358
-0.044260
-0.032693
-0.064548
-0.096052
-0.150620
-0.220912
-0.244836
-0.282089
-0.326134
-0.346800
-0.357649
-0.375593
-0.309992
-0.271859
-0.224588
-0.158227
-0.123643
-0.076298
-0.061075
-0.030174
-0.024591
-0.041180
-0.078944
-0.122185
-0.165745
-0.197945
-0.232590
-0.242907
-0.284313
-0.340089
-0.348577
-0.338972
-0.302260
-0.262081
-0.217911
-0.182587
-0.162762
-0.131683
-0.075506
-0.048507
-0.035798
-0.051620
-0.071854
-0.109475
-0.142767
-0.183963
-0.208540
-0.263252
-0.305555
-0.329411
-0.313205
-0.315740
-0.302394
-0.282972
-0.244152
-0.188901
-0.148579
-0.093781
-0.058710
-0.037872
-0.028199
-0.051555
-0.071347
-0.102737
-0.155612
-0.182734
-0.232191
-0.270912
-0.306163
-0.326464
-0.316245
-0.288847
-0.251670
-0.204649
-0.146849
-0.089763
-0.035359
0.013418
0.058728
0.084747
0.092298
0.115050
0.112646
0.112196
0.092184
0.047625
0.031274
0.025098
0.001317
-0.004696
0.027604
0.061933
0.112048
0.173662
0.275562
0.344219
0.419425
0.499181
0.577254
0.635316
0.680193
0.703465
0.677893
0.655432
0.626865
0.580839
0.496097
0.412041
0.383855
0.345256
0.292767
0.267763
0.248259
0.192147
0.159685
0.149817
0.182085
0.181588
0.177487
0.146485
0.139214
0.130382
0.098749
0.073351
0.020548
-0.048720
-0.108493
-0.150017
-0.196340
-0.214693
-0.223743
-0.222069
-0.182300
-0.161161
-0.127987
-0.081817
-0.028906
-0.000110
0.022228
0.019417
0.048192
0.048833
-0.004808
-0.061487
-0.070635
-0.142241
-0.198081
-0.237890
-0.257496
-0.278655
-0.291029
-0.292026
-0.267378
-0.241707
-0.186236
-0.137205
-0.100286
-0.063588
-0.007511
0.019714
-0.000779
0.001751
-0.027766
-0.040984
-0.080263
-0.139775
-0.197896
-0.230098
-0.260413
-0.285825
-0.306496
-0.299520
-0.267390
-0.221276
-0.183354
-0.162302
-0.108508
-0.070899
-0.022425
0.006587
0.001006
-0.006428
-0.046018
-0.077342
-0.124634
-0.158756
-0.187630
-0.235973
-0.276295
-0.285463
-0.311935
-0.292356
-0.259173
-0.236528
-0.206307
-0.148788
-0.095621
-0.049712
-0.012639
0.003422
0.030370
0.032564
-0.033042
-0.060565
-0.096574
-0.137442
-0.186869
-0.215040
-0.246551
-0.261535
-0.284162
-0.276959
-0.240277
-0.202268
-0.164084
-0.106617
-0.056345
-0.022852
0.001961
0.017142
0.022452
0.009014
-0.009334
-0.051286
-0.091731
-0.130821
-0.167119
-0.201430
-0.244610
-0.260670
-0.252230
-0.236882
-0.194412
-0.174613
-0.143080
-0.099433
-0.045447
-0.014200
0.006428
0.028559
0.049053
0.050665
0.007792
-0.023704
-0.071667
-0.100745
-0.137328
-0.195700
-0.219598
-0.228792
-0.244412
-0.239703
-0.218766
-0.183751
-0.114400
-0.059622
-0.029238
0.000409
0.021086
0.044901
0.047885
0.037277
0.028127
0.006560
-0.053750
-0.076423
-0.133457
-0.191312
-0.217187
-0.221585
-0.218830
-0.219727
-0.203524
-0.164931
-0.117433
-0.065575
-0.021407
0.005346
0.043284
0.056873
0.066737
0.035887
0.008125
-0.015964
-0.044545
-0.096880
-0.148855
-0.180139
-0.211889
-0.209721
-0.236459
-0.248341
-0.228050
-0.188521
-0.144865
-0.120553
-0.066396
-0.009225
0.024133
0.036047
0.032678
0.007384
-0.019438
-0.054977
-0.079470
-0.112853
-0.152089
-0.188884
-0.234612
-0.252805
-0.255446
-0.254717
-0.218758
-0.189040
-0.144137
-0.113102
-0.082658
-0.030534
0.003091
0.007699
0.013375
0.011750
-0.006339
-0.040675
-0.080065
-0.131469
-0.179044
-0.214110
-0.260209
-0.275717
-0.261172
-0.239896
-0.224404
-0.224976
-0.183723
-0.150506
-0.099026
-0.043601
-0.005953
0.004757
-0.010506
-0.026190
-0.042023
-0.062353
-0.113957
-0.156596
-0.191869
-0.237356
-0.278240
-0.296165
-0.310712
-0.293851
-0.231606
-0.219824
-0.200291
-0.177567
-0.113365
-0.072135
-0.034552
-0.010935
0.002145
-0.005270
-0.029461
-0.053743
-0.102903
-0.159028
-0.214978
-0.243933
-0.276933
-0.294150
-0.298423
-0.291756
-0.256258
-0.217156
-0.173372
-0.141430
-0.112486
-0.086058
-0.052406
-0.032944
-0.015828
-0.010132
-0.019934
-0.035696
-0.087432
-0.146030
-0.206114
-0.256947
-0.277539
-0.287077
-0.277804
-0.270076
-0.243560
-0.210457
-0.169541
-0.127650
-0.095480
-0.070879
-0.016221
-0.002762
0.004348
-0.007704
-0.024888
-0.056383
-0.097000
-0.147370
-0.196169
-0.235278
-0.265242
-0.286322
-0.297025
-0.291170
-0.276011
-0.235868
-0.194735
-0.152418
-0.110196
-0.067222
-0.042232
-0.021177
0.010861
0.003147
-0.022194
-0.058269
-0.101814
-0.147242
-0.195712
-0.240540
-0.268788
-0.263045
-0.286927
-0.292177
-0.268746
-0.235171
-0.194103
-0.137312
-0.088258
-0.050816
-0.004772
0.018145
0.003523
-0.009246
-0.029610
-0.042929
-0.096225
-0.153399
-0.179311
-0.211722
-0.262765
-0.293025
-0.295087
-0.270092
-0.233073
-0.224025
-0.205225
-0.165749
-0.120756
-0.039080
0.000631
0.011793
0.001527
0.000836
-0.017396
-0.052295
-0.101650
-0.133201
-0.181482
-0.210613
-0.247108
-0.273472
-0.280267
-0.252217
-0.239252
-0.219950
-0.181524
-0.131984
-0.084753
-0.065169
-0.040062
-0.010156
0.005575
0.001272
-0.016539
-0.040880
-0.086454
-0.143733
-0.177313
-0.231033
-0.273117
-0.302558
-0.304813
-0.289218
-0.264185
-0.222678
-0.184465
-0.151126
-0.099970
-0.066361
-0.044585
-0.008889
0.006276
0.006480
-0.028185
-0.065989
-0.120172
-0.154699
-0.199306
-0.240277
-0.276091
-0.304195
-0.328533
-0.310959
-0.256619
-0.208853
-0.165606
-0.125984
-0.089532
-0.053763
-0.028596
-0.003940
0.004864
-0.006263
-0.034252
-0.062370
-0.107717
-0.154971
-0.199945
-0.250645
-0.285336
-0.298061
-0.290283
-0.296328
-0.278021
-0.232543
-0.185872
-0.148963
-0.102631
-0.070580
-0.036706
-0.009271
0.014178
-0.006295
-0.022758
-0.060031
-0.104851
-0.149259
-0.197521
-0.232425
-0.264058
-0.284658
-0.311364
-0.309562
-0.287036
-0.224508
-0.199625
-0.160928
-0.124560
-0.070381
-0.030970
-0.014310
-0.012764
-0.022829
-0.050109
-0.072789
-0.118880
-0.163191
-0.216299
-0.266868
-0.299754
-0.317534
-0.317457
-0.290998
-0.265307
-0.234474
-0.190665
-0.163939
-0.126879
-0.064637
-0.010571
0.021986
0.014955
-0.014894
-0.051332
-0.087632
-0.123088
-0.156271
-0.191562
-0.235235
-0.266009
-0.289308
-0.300575
-0.297496
-0.279406
-0.233975
-0.200469
-0.155716
-0.121310
-0.074668
-0.035679
-0.001172
-0.015515
-0.013050
-0.033430
-0.079800
-0.103502
-0.136066
-0.182673
-0.234949
-0.270549
-0.285275
-0.286271
-0.265137
-0.244597
-0.226760
-0.176795
-0.131777
-0.079962
-0.045373
-0.027512
-0.013143
0.005022
-0.006034
-0.034440
-0.083540
-0.127102
-0.161319
-0.205978
-0.241938
-0.286469
-0.294650
-0.295347
-0.287629
-0.269248
-0.220768
-0.169657
-0.135656
-0.094156
-0.066553
-0.035554
0.006164
0.028620
0.005362
-0.018595
-0.062419
-0.101475
-0.140161
-0.196162
-0.248550
-0.282599
-0.289083
-0.302631
-0.289889
-0.263893
-0.220849
-0.187392
-0.148737
-0.110308
-0.063081
-0.018283
-0.001650
-0.006765
-0.026243
-0.045110
-0.075954
-0.118326
-0.167547
-0.210968
-0.243095
-0.266299
-0.292639
-0.302051
-0.286699
-0.272088
-0.237612
-0.197268
-0.145875
-0.105710
-0.063276
-0.031028
-0.000208
0.009192
0.012576
-0.007362
-0.057839
-0.093255
-0.124370
-0.180664
-0.214583
-0.243831
-0.258303
-0.263300
-0.260236
-0.243940
-0.227017
-0.172298
-0.107218
-0.055609
-0.009269
0.025436
0.034550
0.042385
0.039416
0.017400
-0.012622
-0.051597
-0.076965
-0.131200
-0.188066
-0.230178
-0.218964
-0.232459
-0.229084
-0.199578
-0.161538
-0.113311
-0.078304
-0.042017
-0.005825
0.023709
0.045768
0.047411
0.039742
0.014782
-0.007520
-0.044767
-0.087210
-0.136251
-0.163234
-0.209223
-0.237468
-0.231586
-0.215328
-0.198619
-0.168350
-0.114538
-0.074287
-0.042692
-0.005079
0.027464
0.054164
0.081137
0.060308
0.020625
0.005324
-0.055274
-0.118133
-0.154304
-0.180437
-0.208989
-0.235731
-0.250570
-0.258023
-0.239624
-0.212534
-0.178100
-0.134733
-0.092926
-0.051200
-0.018201
0.010477
0.018350
0.006975
-0.002925
-0.031844
-0.070828
-0.118189
-0.176525
-0.213472
-0.250726
-0.268134
-0.276829
-0.266918
-0.249715
-0.223195
-0.193061
-0.150292
-0.098246
-0.063585
-0.030045
0.013519
0.026464
0.022628
-0.022893
-0.073679
-0.073981
-0.127068
-0.171587
-0.224585
-0.241175
-0.259122
-0.256309
-0.253110
-0.245638
-0.212849
-0.168293
-0.130010
-0.079136
-0.050746
-0.018385
-0.009932
-0.002047
-0.010106
-0.021078
-0.058316
-0.097716
-0.147278
-0.186458
-0.215865
-0.253659
-0.270151
-0.274858
-0.259805
-0.257857
-0.219249
-0.169336
-0.119125
-0.075318
-0.045972
-0.012880
0.019257
0.010954
-0.000403
-0.025006
-0.048190
-0.080855
-0.121399
-0.169581
-0.224015
-0.256783
-0.277906
-0.282681
-0.265804
-0.257578
-0.226955
-0.184949
-0.138006
-0.091567
-0.057460
-0.027418
0.001856
0.007820
-0.002677
-0.026827
-0.063049
-0.109787
-0.142577
-0.195779
-0.235333
-0.266179
-0.296562
-0.290387
-0.261239
-0.237455
-0.198920
-0.147004
-0.085860
-0.024199
0.039383
0.089534
0.144128
0.153694
0.144933
0.140501
0.140871
0.120186
0.103555
0.088687
0.082878
0.069446
0.085991
0.106074
0.152795
0.210005
0.279193
0.334923
0.407770
0.523112
0.604712
0.666616
0.753999
0.772137
0.796251
0.827752
0.808820
0.766904
0.735911
0.695104
0.620722
0.559150
0.515887
0.494186
0.488351
0.466916
0.402492
0.362999
0.340438
0.339043
0.329755
0.311077
0.285721
0.254877
0.219451
0.195712
0.150252
0.098240
0.057908
-0.001077
-0.046242
-0.085155
-0.119629
-0.138536
-0.153015
-0.141449
-0.106977
-0.036515
-0.000116
0.040850
0.073977
0.110530
0.114310
0.095735
0.087284
0.069541
0.024877
-0.003669
-0.053444
-0.105987
-0.162181
-0.178498
-0.190118
-0.179469
-0.179511
-0.182887
-0.160106
-0.138651
-0.090724
-0.017271
0.014078
0.041390
0.059124
0.058437
0.035833
0.049643
0.023540
-0.015155
-0.048264
-0.100772
-0.152121
-0.181820
-0.194401
-0.205989
-0.200576
-0.186148
-0.161069
-0.116033
-0.070038
-0.027705
0.020814
0.066547
0.083058
0.082579
0.075660
0.063092
0.035953
-0.021319
-0.046558
-0.089309
-0.122589
-0.159767
-0.180225
-0.202943
-0.192007
-0.172130
-0.136165
-0.098302
-0.052712
0.003983
0.046652
0.078064
0.102373
0.103934
0.102176
0.085644
0.051490
0.006349
-0.038651
-0.084749
-0.129515
-0.161150
-0.180448
-0.179962
-0.177061
-0.150091
-0.122001
-0.068064
-0.029405
0.010133
0.064768
0.097048
0.113077
0.112816
0.103801
0.074845
0.036280
-0.002178
-0.029549
-0.059311
-0.112419
-0.123322
-0.145817
-0.164407
-0.147949
-0.131666
-0.096351
-0.041339
-0.000446
0.038603
0.093690
0.125712
0.157344
0.175035
0.156779
0.131655
0.084681
0.030921
-0.012958
-0.056480
-0.101413
-0.129205
-0.158037
-0.122471
-0.101151
-0.098252
-0.072050
-0.025696
0.013359
0.058138
0.115468
0.162890
0.164645
0.173542
0.174546
0.175644
0.163282
0.101293
0.026504
-0.015032
-0.047892
-0.071253
-0.089002
-0.109722
-0.084388
-0.067337
-0.040988
0.010762
0.056365
0.104863
0.149876
0.167657
0.184542
0.192907
0.177355
0.166353
0.118246
0.074693
0.030218
-0.017457
-0.055087
-0.086130
-0.110637
-0.117346
-0.111814
-0.083637
-0.047601
-0.009052
0.026301
0.071588
0.113433
0.140977
0.149361
0.155129
0.154164
0.129475
0.084045
0.030688
0.003121
-0.039699
-0.070907
-0.109681
-0.134716
-0.146125
-0.137201
-0.112082
-0.086923
-0.013900
0.037145
0.075344
0.093493
0.128621
0.154682
0.161991
0.143700
0.121944
0.094614
0.045338
-0.005538
-0.052762
-0.101686
-0.139172
-0.167916
-0.163879
-0.171380
-0.137709
-0.099714
-0.073155
-0.033691
0.019408
0.082969
0.122868
0.132725
0.132594
0.125411
0.119049
0.071232
0.008064
-0.037766
-0.082768
-0.123684
-0.161172
-0.177632
-0.175308
-0.149749
-0.121959
-0.077348
-0.029174
0.012210
0.038496
0.064135
0.084636
0.097392
0.113251
0.094508
0.081288
0.042311
-0.009309
-0.052488
-0.088416
-0.124940
-0.161445
-0.195364
-0.193343
-0.182063
-0.161583
-0.130721
-0.084621
-0.043551
0.006356
0.045399
0.060361
0.074392
0.087406
0.082455
0.070007
0.036656
-0.014691
-0.059055
-0.101022
-0.146738
-0.181462
-0.198466
-0.194608
-0.189855
-0.184968
-0.148229
-0.098471
-0.066218
0.007081
0.076306
0.116961
0.113516
0.127829
0.118870
0.097629
0.058659
0.010563
-0.041570
-0.087103
-0.132808
-0.157616
-0.170012
-0.180252
-0.164341
-0.142267
-0.128970
-0.091431
-0.050109
-0.000649
0.033820
0.068576
0.094028
0.098134
0.076707
0.050091
0.023732
0.004761
-0.035833
-0.064734
-0.113556
-0.150064
-0.161525
-0.182922
-0.173480
-0.127520
-0.103786
-0.067816
-0.039066
0.022407
0.071194
0.108556
0.130991
0.129256
0.098828
0.082874
0.060643
0.011711
-0.036624
-0.094269
-0.130453
-0.146253
-0.145227
-0.163964
-0.155379
-0.141440
-0.123928
-0.072155
-0.040312
0.020099
0.071472
0.114240
0.120760
0.125910
0.100429
0.078999
0.052382
0.012435
-0.031790
-0.076757
-0.127356
-0.142878
-0.160734
-0.177374
-0.166373
-0.147222
-0.114849
-0.073010
-0.019312
0.016997
0.054386
0.087144
0.105227
0.104095
0.080282
0.070521
0.046681
-0.002922
-0.043951
-0.059170
-0.101665
-0.155297
-0.171079
-0.181586
-0.153489
-0.136593
-0.112509
-0.074375
-0.024562
0.006807
0.045518
0.074403
0.091041
0.093045
0.083500
0.074614
0.038387
-0.000115
-0.056011
-0.098960
-0.147415
-0.174592
-0.189780
-0.184239
-0.165157
-0.147906
-0.110487
-0.058804
-0.011294
0.023908
0.064063
0.090331
0.116769
0.113871
0.095555
0.056327
0.033484
0.008728
-0.028678
-0.097716
-0.121953
-0.153358
-0.177898
-0.188102
-0.180615
-0.160129
-0.122329
-0.081123
-0.040625
0.008383
0.063256
0.093433
0.098510
0.096378
0.086195
0.083754
0.049827
-0.004845
-0.058925
-0.095982
-0.145198
-0.170152
-0.184009
-0.173306
-0.154904
-0.155739
-0.111703
-0.072654
-0.043176
-0.004734
0.041753
0.081103
0.127273
0.125535
0.083855
0.069082
0.032013
-0.014692
-0.049675
-0.104433
-0.156035
-0.205107
-0.217858
-0.218721
-0.194576
-0.162959
-0.117769
-0.074972
-0.017838
0.047143
0.092658
0.086127
0.090655
0.102093
0.088683
0.061419
0.032255
-0.014916
-0.062362
-0.106928
-0.139511
-0.173383
-0.194095
-0.187723
-0.170533
-0.160872
-0.141759
-0.093786
-0.034899
-0.001976
0.038198
0.079493
0.086396
0.106814
0.098014
0.076537
0.040314
-0.005209
-0.009075
-0.056680
-0.110196
-0.162539
-0.170869
-0.178240
-0.175990
-0.168899
-0.133269
-0.110709
-0.062281
0.005528
0.068365
0.105835
0.105839
0.108005
0.113754
0.078116
0.048629
0.015429
-0.052701
-0.102289
-0.130395
-0.154535
-0.171833
-0.185909
-0.191123
-0.160521
-0.138209
-0.070869
-0.062427
-0.015250
0.037516
0.107509
0.111121
0.085165
0.106726
0.099912
0.046935
0.000493
-0.025622
-0.078221
-0.125287
-0.154490
-0.181372
-0.195102
-0.189962
-0.173943
-0.124756
-0.050468
-0.036425
0.043635
0.074441
0.096626
0.124485
0.143291
0.145009
0.127260
0.088892
0.042705
0.007493
-0.045276
-0.093242
-0.122463
-0.147656
-0.150949
-0.139884
-0.133622
-0.105923
-0.061994
0.004647
0.048370
0.123630
0.151095
0.161877
0.154843
0.131257
0.112135
0.074440
0.041687
0.008194
-0.045000
-0.085077
-0.138552
-0.159681
-0.161175
-0.134266
-0.103135
-0.067700
-0.024683
0.015920
0.051420
0.094989
0.128558
0.152161
0.154678
0.132506
0.106051
0.087868
0.075985
0.027483
-0.034237
-0.095419
-0.100492
-0.140646
-0.159011
-0.147925
-0.128622
-0.100760
-0.052300
-0.011320
0.019723
0.074748
0.106436
0.119212
0.125185
0.111279
0.078722
0.044584
0.002060
-0.044447
-0.094986
-0.138880
-0.167551
-0.171004
-0.186617
-0.170529
-0.147879
-0.133647
-0.112770
-0.071806
-0.001649
0.051306
0.083222
0.101969
0.103629
0.089652
0.072636
0.032780
-0.018367
-0.060076
-0.123659
-0.171808
-0.212871
-0.236507
-0.224909
-0.187627
-0.163255
-0.134120
-0.107772
-0.072964
-0.015933
0.029744
0.075495
0.084962
0.103031
0.088377
0.061542
0.021585
-0.025674
-0.076988
-0.119104
-0.153658
-0.182256
-0.201096
-0.202434
-0.192649
-0.177498
-0.158778
-0.117109
-0.062286
0.000637
0.037025
0.077154
0.097654
0.100276
0.070061
0.073313
0.052858
-0.001510
-0.066159
-0.133499
-0.183227
-0.209602
-0.196007
-0.190041
-0.188614
-0.186920
-0.140264
-0.075037
-0.029029
0.004374
0.051832
0.058794
0.065290
0.075352
0.061673
0.046502
0.019770
-0.015861
-0.064632
-0.108477
-0.164479
-0.192913
-0.225419
-0.241132
-0.236843
-0.195314
-0.175488
-0.113180
-0.051435
0.013857
0.071086
0.127702
0.143619
0.155492
0.160031
0.154984
0.117482
0.099494
0.060061
0.027393
0.017395
0.004001
-0.004767
0.001375
0.051396
0.103057
0.177863
0.259643
0.339854
0.415209
0.493041
0.563999
0.625041
0.655692
0.668753
0.692915
0.729959
0.725751
0.688355
0.684699
0.704074
0.702326
0.691555
0.672001
0.669203
0.683610
0.686737
0.705662
0.715062
0.731940
0.721017
0.703506
0.648576
0.595970
0.517908
0.431041
0.342463
0.278362
0.197325
0.137334
0.085178
0.042461
0.012430
-0.013599
-0.006901
0.001377
0.032656
0.060625
0.098246
0.122972
0.142782
0.171582
0.200360
0.213424
0.196649
0.150700
0.120793
0.076527
0.028073
-0.007308
-0.049453
-0.087674
-0.121521
-0.130765
-0.115720
-0.097350
-0.071677
-0.039695
-0.004306
0.066992
0.094900
0.105500
0.156489
0.147979
0.138337
0.126480
0.087781
0.043747
-0.005723
-0.050608
-0.091415
-0.122376
-0.132525
-0.141951
-0.137975
-0.127067
-0.095555
-0.046016
0.001683
0.042329
0.087485
0.104309
0.113307
0.116035
0.102901
0.103897
0.076407
0.029007
-0.004954
-0.036786
-0.072032
-0.107316
-0.133316
-0.146312
-0.144782
-0.103843
-0.057025
-0.023142
0.029841
0.052384
0.089193
0.128361
0.140483
0.136535
0.125065
0.110760
0.091484
0.047182
0.026392
-0.015762
-0.058368
-0.098928
-0.112470
-0.118095
-0.108828
-0.071688
-0.040731
-0.021101
0.018240
0.054108
0.106596
0.138172
0.146201
0.186769
0.162402
0.128319
0.112087
0.085852
0.019366
-0.034724
-0.073496
-0.069765
-0.091163
-0.095011
-0.078649
-0.028368
-0.000249
0.020469
0.073237
0.101669
0.148311
0.175451
0.193483
0.198561
0.187074
0.169787
0.122990
0.094953
0.042313
0.015622
-0.017840
-0.057882
-0.071627
-0.066441
-0.063692
-0.030763
-0.006262
0.034147
0.079670
0.119780
0.164281
0.199489
0.228278
0.227416
0.211326
0.211070
0.185626
0.148604
0.098323
0.039100
-0.007087
-0.033667
-0.042046
-0.059251
-0.031570
-0.009267
0.022560
0.066274
0.122839
0.163134
0.213637
0.236622
0.237749
0.244708
0.226565
0.218975
0.191708
0.145569
0.097102
0.063211
0.001019
-0.025062
-0.048205
-0.052252
-0.049717
-0.030135
0.002583
0.033036
0.077913
0.131534
0.188118
0.215026
0.226483
0.242758
0.229317
0.212148
0.171425
0.130690
0.085542
0.038892
-0.005971
-0.026171
-0.031859
-0.052524
-0.056201
-0.063468
-0.022564
0.004434
0.052164
0.154217
0.191237
0.203561
0.208565
0.200302
0.191179
0.175143
0.159261
0.107310
0.055597
0.017029
-0.037045
-0.085121
-0.112425
-0.113036
-0.104966
-0.104938
-0.062002
-0.002835
0.043995
0.095831
0.131268
0.162630
0.181027
0.183832
0.172534
0.179966
0.128933
0.103009
0.048036
0.002836
-0.057815
-0.103761
-0.124346
-0.130260
-0.129311
-0.117458
-0.088819
-0.053495
0.005115
0.063197
0.111481
0.145425
0.157147
0.149505
0.132964
0.113882
0.083923
0.032215
-0.011065
-0.045110
-0.089597
-0.113848
-0.146826
-0.154481
-0.142715
-0.119459
-0.088971
-0.055174
-0.012926
0.032350
0.078384
0.123684
0.146507
0.137700
0.124417
0.102597
0.066481
0.032812
-0.023308
-0.066664
-0.105419
-0.126606
-0.150135
-0.163612
-0.149363
-0.144571
-0.117313
-0.071504
-0.006345
0.033656
0.063926
0.098510
0.115257
0.113253
0.109350
0.126689
0.112249
0.053198
-0.000021
-0.052731
-0.092763
-0.115294
-0.152860
-0.178178
-0.166190
-0.143310
-0.115627
-0.061376
-0.012553
0.045923
0.087545
0.103764
0.131846
0.165014
0.150846
0.126516
0.093093
0.053636
-0.006355
-0.053236
-0.081434
-0.123008
-0.147282
-0.159205
-0.150465
-0.125625
-0.105089
-0.061809
-0.000214
0.047477
0.074472
0.104619
0.131588
0.152674
0.143521
0.109213
0.082655
0.043404
0.005885
-0.039561
-0.099913
-0.116413
-0.121085
-0.142352
-0.147409
-0.145398
-0.121342
-0.066061
-0.009875
0.047626
0.092100
0.119017
0.146033
0.143411
0.123731
0.115651
0.076680
0.033422
-0.025881
-0.074444
-0.100826
-0.123902
-0.139464
-0.137084
-0.140302
-0.123033
-0.080679
-0.044254
0.020833
0.049415
0.089874
0.127519
0.144291
0.151675
0.128013
0.097194
0.065267
0.031567
-0.009795
-0.055510
-0.109856
-0.134987
-0.146768
-0.164084
-0.158672
-0.133920
-0.099117
-0.062858
-0.020151
0.031899
0.085680
0.133312
0.146411
0.142222
0.141402
0.119858
0.072232
0.024870
-0.021011
-0.068034
-0.113768
-0.145253
-0.168137
-0.165443
-0.152604
-0.124783
-0.084840
-0.055080
-0.009541
0.028550
0.069471
0.098824
0.123269
0.126064
0.131476
0.126435
0.091630
0.041820
-0.022992
-0.075970
-0.098130
-0.138494
-0.167841
-0.164527
-0.153646
-0.136255
-0.093383
-0.066071
-0.029055
0.012770
0.050190
0.091344
0.134026
0.156213
0.142944
0.095179
0.042931
-0.011829
-0.033941
-0.054875
-0.099113
-0.143206
-0.166866
-0.168920
-0.157201
-0.138854
-0.120709
-0.084115
-0.028122
0.029411
0.063751
0.092976
0.111153
0.104999
0.094661
0.063595
0.037362
0.014566
-0.055095
-0.101752
-0.090321
-0.133223
-0.147870
-0.147828
-0.151140
-0.129617
-0.099919
-0.059602
-0.012699
0.018828
0.060706
0.097949
0.113168
0.110213
0.120885
0.092836
0.060808
0.012166
-0.039261
-0.091246
-0.152132
-0.150511
-0.167417
-0.175348
-0.169112
-0.145619
-0.100190
-0.056679
-0.020459
0.007499
0.038249
0.083896
0.099601
0.102672
0.107524
0.109603
0.066778
0.021305
-0.035097
-0.082677
-0.127936
-0.154110
-0.190628
-0.206091
-0.179185
-0.136448
-0.102951
-0.082101
-0.048278
0.004081
0.066060
0.114339
0.125591
0.117250
0.120896
0.099103
0.050294
0.013367
-0.028538
-0.077169
-0.133911
-0.168819
-0.179465
-0.179156
-0.175077
-0.150192
-0.097945
-0.054721
-0.010862
0.024938
0.053520
0.080561
0.090512
0.098168
0.086908
0.061230
0.058466
0.045278
-0.002505
-0.038942
-0.090963
-0.130114
-0.133011
-0.138438
-0.137166
-0.134296
-0.108618
-0.050418
0.025537
0.059659
0.084116
0.104805
0.157348
0.179738
0.150451
0.118995
0.096153
0.062481
0.010456
-0.049372
-0.088625
-0.120465
-0.142579
-0.142554
-0.122745
-0.114497
-0.079897
-0.039422
0.016554
0.056219
0.107763
0.148613
0.151309
0.124337
0.129847
0.140375
0.122612
0.083686
0.015222
-0.011025
-0.034665
-0.075111
-0.108945
-0.105423
-0.101580
-0.087528
-0.059112
-0.031603
0.021571
0.065057
0.087507
0.118191
0.126970
0.124347
0.119300
0.098725
0.058258
0.013085
-0.026647
-0.075424
-0.105397
-0.158666
-0.159717
-0.155563
-0.123878
-0.092018
-0.075569
-0.058036
-0.020499
0.027055
0.058359
0.089676
0.108396
0.097645
0.091202
0.070320
0.041271
0.002314
-0.040391
-0.084444
-0.128823
-0.160451
-0.165751
-0.169901
-0.176242
-0.153176
-0.131507
-0.100481
-0.068046
-0.024277
0.014516
0.058647
0.075088
0.072368
0.060283
0.042111
0.033872
0.006643
-0.048970
-0.091830
-0.132366
-0.179331
-0.220301
-0.205113
-0.186716
-0.182806
-0.167016
-0.119115
-0.064978
-0.011346
0.032250
0.068246
0.075288
0.071955
0.080676
0.075369
0.038809
-0.005350
-0.053437
-0.089088
-0.138388
-0.181806
-0.197234
-0.199641
-0.183034
-0.172055
-0.137770
-0.106974
-0.064514
-0.025644
0.000259
0.023851
0.084623
0.109193
0.083270
0.053298
0.030359
-0.007303
-0.046876
-0.092303
-0.141357
-0.171441
-0.198432
-0.202570
-0.201627
-0.179219
-0.133658
-0.089728
-0.044939
-0.009762
0.021844
0.051274
0.073974
0.082341
0.086386
0.059385
0.014996
-0.019206
-0.057983
-0.090282
-0.118793
-0.142976
-0.143238
-0.132108
-0.125076
-0.083982
-0.020605
0.008112
0.042844
0.088165
0.164616
0.240405
0.307156
0.318023
0.327666
0.339483
0.344571
0.336721
0.327225
0.314703
0.314817
0.323381
0.341668
0.360018
0.393722
0.447081
0.524144
0.606644
0.681526
0.755430
0.829657
0.882620
0.901568
0.889456
0.909748
0.868227
0.807428
0.738375
0.663103
0.595427
0.496058
0.390577
0.322697
0.259443
0.196719
0.153612
0.123289
0.121675
0.140745
0.187822
0.216837
0.242550
0.257735
0.240325
0.220773
0.192219
0.147381
0.093849
0.050126
-0.000327
-0.035172
-0.070606
-0.070026
-0.082649
-0.091414
-0.097288
-0.065075
-0.015527
0.022688
0.057327
0.099929
0.141528
0.159616
0.152549
0.172081
0.151502
0.106596
0.054449
0.004597
-0.033930
-0.075853
-0.115964
-0.141177
-0.155869
-0.152634
-0.131509
-0.101781
-0.051751
-0.002421
0.041760
0.081362
0.113382
0.111359
0.130637
0.118807
0.112829
0.077641
0.035173
-0.019975
-0.047644
-0.086332
-0.123798
-0.141439
-0.139331
-0.126532
-0.118003
-0.091350
-0.057307
0.002744
0.049284
0.080972
0.110589
0.127300
0.133528
0.133762
0.114427
0.074356
0.039613
0.006040
-0.042899
-0.093575
-0.132981
-0.155537
-0.166999
-0.144609
-0.125504
-0.089151
-0.046280
-0.010465
0.037834
0.074476
0.106412
0.129395
0.146246
0.158739
0.119352
0.118619
0.091408
0.019956
-0.026766
-0.066756
-0.112748
-0.120822
-0.122571
-0.114158
-0.088655
-0.037554
-0.002820
0.037455
0.077225
0.121038
0.144598
0.181665
0.197369
0.178941
0.142329
0.110066
0.063273
0.022871
-0.018730
-0.057173
-0.093865
-0.112952
-0.094808
-0.079399
-0.045064
-0.008604
0.027546
0.071780
0.110687
0.155878
0.210855
0.227429
0.223540
0.208341
0.211219
0.184064
0.122518
0.048642
0.008479
-0.017768
-0.039209
-0.060561
-0.047596
-0.049698
-0.029638
-0.002417
0.027413
0.082184
0.126889
0.166924
0.201848
0.238066
0.263527
0.254863
0.220785
0.177739
0.134568
0.096709
0.039387
-0.000653
-0.033969
-0.061257
-0.052114
-0.051924
-0.026756
0.004168
0.044440
0.092116
0.139648
0.178994
0.208466
0.222986
0.221982
0.219922
0.208651
0.179133
0.140976
0.092411
0.036087
-0.015395
-0.038334
-0.060584
-0.067142
-0.051194
-0.040389
-0.016000
0.005861
0.070923
0.124183
0.170688
0.204686
0.214822
0.202153
0.192636
0.173935
0.148833
0.107369
0.067200
0.022217
-0.013932
-0.064843
-0.107687
-0.094268
-0.078406
-0.062063
-0.022131
0.050887
0.089631
0.122072
0.153813
0.165512
0.190153
0.189034
0.179143
0.127344
0.063718
0.032456
0.006921
-0.026214
-0.071594
-0.094842
-0.105748
-0.131847
-0.096125
-0.085365
-0.061238
-0.036830
0.010548
0.069155
0.105707
0.128555
0.141924
0.142980
0.136807
0.100487
0.053033
0.027481
-0.023416
-0.047900
-0.087930
-0.137938
-0.164388
-0.163510
-0.154711
-0.131028
-0.104079
-0.066195
-0.011136
0.034638
0.061112
0.102316
0.133575
0.133246
0.108611
0.097891
0.061819
-0.001518
-0.043357
-0.079326
-0.101577
-0.138105
-0.169809
-0.174654
-0.171660
-0.152897
-0.112102
-0.060239
-0.028749
0.011139
0.052816
0.081764
0.103920
0.105467
0.090434
0.067986
0.046119
0.026076
-0.023644
-0.066496
-0.111563
-0.133972
-0.150120
-0.170630
-0.172801
-0.162055
-0.121225
-0.072300
-0.024962
0.013975
0.056593
0.091427
0.108762
0.097951
0.094943
0.066618
0.043242
0.012954
-0.028319
-0.055705
-0.094519
-0.129525
-0.164089
-0.165589
-0.156607
-0.129245
-0.079575
-0.035297
0.003107
0.053765
0.098792
0.121413
0.130660
0.118357
0.089238
0.097511
0.036175
0.022583
-0.006193
-0.063878
-0.109977
-0.131992
-0.161359
-0.159078
-0.149446
-0.126921
-0.093416
-0.060400
-0.015858
0.027397
0.072134
0.099155
0.116957
0.112701
0.098899
0.075386
0.063721
0.002783
-0.040207
-0.069608
-0.097043
-0.138474
-0.182714
-0.172497
-0.155729
-0.124611
-0.094114
-0.052141
-0.029203
0.002751
0.042721
0.085984
0.126254
0.110202
0.104860
0.084739
0.039739
-0.000929
-0.036466
-0.075324
-0.128468
-0.158206
-0.164064
-0.172659
-0.161823
-0.136352
-0.091049
-0.049522
-0.001436
0.047323
0.078918
0.117056
0.117745
0.113007
0.120532
0.088387
0.050066
0.009509
-0.020698
-0.049106
-0.086353
-0.126072
-0.159810
-0.164559
-0.147748
-0.130574
-0.099763
-0.063417
-0.020273
0.024907
0.063539
0.096243
0.111813
0.108807
0.096566
0.081273
0.049055
0.002216
-0.049351
-0.077902
-0.104809
-0.148374
-0.166091
-0.173197
-0.172442
-0.147835
-0.119238
-0.073714
-0.039289
0.011478
0.047072
0.075472
0.099344
0.108308
0.098888
0.083752
0.044111
-0.001706
-0.053309
-0.105684
-0.135920
-0.160797
-0.177667
-0.186403
-0.193079
-0.162833
-0.131099
-0.095845
-0.060834
-0.027585
0.013277
0.040280
0.058736
0.077357
0.085328
0.069029
0.034328
-0.006175
-0.035655
-0.077546
-0.123822
-0.141431
-0.149797
-0.172160
-0.177351
-0.135399
-0.115940
-0.077842
-0.039945
0.010876
0.046805
0.066414
0.077572
0.095284
0.099772
0.087506
0.055162
0.008207
-0.035735
-0.087659
-0.123798
-0.156898
-0.189140
-0.186707
-0.175976
-0.155428
-0.131208
-0.082932
-0.043030
0.001157
0.038666
0.066222
0.083113
0.097854
0.108268
0.077266
0.038298
-0.019686
-0.062269
-0.098211
-0.104616
-0.134526
-0.183989
-0.201788
-0.192082
-0.169560
-0.148694
-0.129155
-0.070356
-0.015263
0.027519
0.069344
0.082505
0.088962
0.098252
0.094256
0.045164
-0.008326
-0.052828
-0.081580
-0.122961
-0.147398
-0.173982
-0.176848
-0.180212
-0.162349
-0.130340
-0.084953
-0.045171
0.006716
0.059126
0.093189
0.109236
0.117194
0.105612
0.075158
0.039903
0.017954
-0.005343
-0.033707
-0.071648
-0.114307
-0.128768
-0.150048
-0.154223
-0.144457
-0.108390
-0.081295
-0.030217
0.025632
0.055456
0.082946
0.117783
0.110803
0.132803
0.117030
0.066250
0.016666
-0.017289
-0.069075
-0.126950
-0.125173
-0.133400
-0.122365
-0.119604
-0.108029
-0.079811
-0.043724
0.006570
0.065681
0.114469
0.146646
0.162204
0.144049
0.146157
0.136373
0.103052
0.046378
0.002903
-0.058096
-0.106335
-0.146435
-0.174076
-0.165265
-0.134572
-0.114026
-0.074873
-0.056879
-0.029698
0.024869
0.058145
0.091423
0.103324
0.102705
0.087701
0.077915
0.057339
0.024161
-0.030593
-0.080824
-0.124010
-0.156697
-0.195889
-0.194502
-0.196744
-0.152014
-0.119187
-0.086427
-0.042769
0.013284
0.050742
0.074055
0.085817
0.080655
0.073092
0.059040
0.028807
-0.021035
-0.070273
-0.116276
-0.158767
-0.189472
-0.217067
-0.252513
-0.240581
-0.207400
-0.160379
-0.108215
-0.060567
-0.024413
0.025275
0.059883
0.072376
0.061072
0.048984
0.035305
-0.005130
-0.041297
-0.098407
-0.155566
-0.203709
-0.212299
-0.219516
-0.223731
-0.205407
-0.177926
-0.139667
-0.121572
-0.067407
-0.007053
0.031909
0.064501
0.087702
0.079702
0.067633
0.043023
-0.006735
-0.051982
-0.074412
-0.131944
-0.170452
-0.193232
-0.221291
-0.228922
-0.220620
-0.207091
-0.167440
-0.121493
-0.081538
-0.048877
0.003771
0.043053
0.059285
0.058558
0.051869
0.041956
-0.003100
-0.058515
-0.120429
-0.137114
-0.167049
-0.212154
-0.227324
-0.236243
-0.215185
-0.180436
-0.165801
-0.128334
-0.078076
-0.021983
0.025841
0.056497
0.075372
0.069423
0.061061
0.043729
0.027707
0.002887
-0.029144
-0.063694
-0.074023
-0.085491
-0.096171
-0.091353
-0.061962
-0.026340
0.038920
0.089487
0.154035
0.246180
0.320793
0.381413
0.423260
0.463546
0.495743
0.487305
0.494518
0.485052
0.485421
0.473684
0.469443
0.478139
0.484348
0.510354
0.533375
0.572668
0.651010
0.674117
0.709713
0.746154
0.785507
0.808431
0.777738
0.749471
0.706055
0.625617
0.528173
0.429849
0.338770
0.236675
0.132938
0.077000
0.011301
-0.014726
-0.027165
-0.034780
0.005721
0.041583
0.079677
0.116984
0.151186
0.170525
0.183621
0.173268
0.181482
0.139022
0.093934
0.048231
0.025208
-0.030865
-0.087015
-0.137083
-0.137311
-0.124597
-0.132320
-0.127389
-0.091173
-0.039929
0.004521
0.044425
0.077240
0.092758
0.094723
0.094728
0.096436
0.111848
0.069066
0.012917
-0.039659
-0.088638
-0.124260
-0.144827
-0.181026
-0.187650
-0.171034
-0.149506
-0.115317
-0.077012
-0.024523
0.018298
0.056214
0.088605
0.106181
0.103868
0.092724
0.069263
0.046491
0.007340
-0.024482
-0.075127
-0.112676
-0.147617
-0.170395
-0.167031
-0.155734
-0.136352
-0.102788
-0.075385
-0.043531
0.002894
0.050870
0.083639
0.118366
0.122074
0.108598
0.072762
0.047984
0.015658
-0.018786
-0.049048
-0.064199
-0.113179
-0.156211
-0.175280
-0.156441
-0.117519
-0.091524
-0.030063
0.020964
0.047961
0.082156
0.114446
0.129164
0.126719
0.126667
0.121253
0.086023
0.035544
0.006118
-0.051545
-0.080570
-0.102222
-0.117474
-0.140899
-0.145386
-0.117654
-0.084596
-0.051549
-0.014827
0.017641
0.110810
0.166526
0.169632
0.158031
0.162987
0.148055
0.127710
0.080616
0.010284
-0.023915
-0.068967
-0.099688
-0.105379
-0.096303
-0.087615
-0.071851
-0.044007
0.000995
0.054465
0.113613
0.153208
0.177458
0.192220
0.198861
0.196947
0.176668
0.156486
0.107386
0.058079
0.014008
-0.022382
-0.049786
-0.074283
-0.055936
-0.054881
-0.082769
-0.037470
0.031929
0.076982
0.108832
0.145084
0.170732
0.196408
0.205459
0.204021
0.181403
0.164562
0.136738
0.096221
0.044169
0.006209
-0.036621
-0.073845
-0.074233
-0.078062
-0.058189
-0.016756
0.034147
0.069662
0.109535
0.156631
0.190538
0.193373
0.190182
0.186406
0.164596
0.122113
0.077125
0.029085
-0.013214
-0.031896
-0.047994
-0.081110
-0.056610
-0.053315
-0.060091
-0.021096
0.019626
0.050345
0.094119
0.132731
0.156646
0.179720
0.184954
0.174674
0.162314
0.117553
0.068852
0.011082
-0.009678
-0.053393
-0.092449
-0.116576
-0.150225
-0.139406
-0.110255
-0.084874
-0.038928
0.007917
0.058089
0.103088
0.153407
0.164313
0.143893
0.135308
0.144034
0.106019
0.038496
-0.021190
-0.073543
-0.107871
-0.126998
-0.143954
-0.152089
-0.162292
-0.142502
-0.109010
-0.071488
-0.024358
0.028781
0.065339
0.089909
0.097083
0.099871
0.120910
0.110302
0.076023
0.028549
-0.025328
-0.076048
-0.116656
-0.163334
-0.186145
-0.205843
-0.189560
-0.168208
-0.133863
-0.103360
-0.054133
-0.002933
0.041081
0.062830
0.094699
0.084631
0.071013
0.060598
0.039352
0.001008
-0.050198
-0.090916
-0.126248
-0.152247
-0.193578
-0.210565
-0.199843
-0.164051
-0.138181
-0.107984
-0.070767
-0.015225
0.042381
0.085156
0.101800
0.090758
0.079558
0.048424
0.021127
-0.021410
-0.047697
-0.095542
-0.136326
-0.159059
-0.176856
-0.166971
-0.167443
-0.163372
-0.154825
-0.100715
-0.037686
0.021112
0.057262
0.085598
0.114196
0.114220
0.091624
0.064400
0.030856
-0.001638
-0.050427
-0.097685
-0.124258
-0.162665
-0.197889
-0.176957
-0.172801
-0.172056
-0.140755
-0.096228
-0.055804
0.001537
0.052551
0.070444
0.088460
0.111198
0.105917
0.083094
0.041685
-0.007480
-0.049447
-0.100328
-0.140400
-0.173189
-0.176861
-0.182725
-0.200049
-0.181976
-0.121861
-0.069175
-0.028624
0.006980
0.059660
0.097615
0.125293
0.112189
0.098561
0.082070
0.043322
-0.003077
-0.049996
-0.103160
-0.149014
-0.159470
-0.180976
-0.174260
-0.165158
-0.140845
-0.118513
-0.088392
-0.051916
-0.011450
0.020698
0.055092
0.102255
0.112870
0.085689
0.066345
0.033254
-0.000482
-0.044992
-0.102530
-0.143770
-0.170881
-0.179277
-0.182400
-0.177712
-0.171449
-0.137107
-0.084807
-0.032245
0.021130
0.059034
0.078911
0.085509
0.085700
0.088021
0.080132
0.038140
-0.014050
-0.052244
-0.109448
-0.153209
-0.184043
-0.195455
-0.206866
-0.197551
-0.154560
-0.126444
-0.092587
-0.057181
-0.002193
0.046395
0.076896
0.084478
0.073224
0.052870
0.088004
0.032410
-0.013442
-0.057991
-0.103205
-0.145369
-0.168142
-0.174037
-0.179383
-0.193732
-0.165570
-0.151904
-0.114077
-0.061275
-0.006854
0.053216
0.092471
0.103893
0.097067
0.083327
0.053936
0.020894
-0.036022
-0.063162
-0.087677
-0.137778
-0.168873
-0.197911
-0.186377
-0.172636
-0.165414
-0.140649
-0.103394
-0.060232
-0.014088
0.019403
0.055912
0.074994
0.075826
0.070326
0.058602
0.025252
-0.012865
-0.060954
-0.110396
-0.148277
-0.174708
-0.191027
-0.207184
-0.194765
-0.188326
-0.148536
-0.095330
-0.034558
-0.002643
0.046091
0.078403
0.081176
0.069150
0.061032
0.036160
0.013542
-0.027139
-0.068347
-0.100638
-0.147999
-0.186037
-0.203150
-0.208785
-0.199015
-0.171358
-0.149908
-0.113126
-0.060226
-0.018654
0.003368
0.046043
0.074404
0.086228
0.080478
0.065206
0.034052
-0.015784
-0.076522
-0.118093
-0.165425
-0.185119
-0.204388
-0.217165
-0.209664
-0.192773
-0.163603
-0.141841
-0.064726
-0.023884
0.012972
0.041348
0.065544
0.074477
0.069402
0.057674
0.014106
-0.017362
-0.047219
-0.085648
-0.139716
-0.177614
-0.195326
-0.188551
-0.190013
-0.159252
-0.109059
-0.070568
-0.042587
-0.013733
0.015134
0.055090
0.099751
0.112081
0.115754
0.097283
0.079976
0.033465
-0.027955
-0.067255
-0.100999
-0.132358
-0.167843
-0.171588
-0.164167
-0.152691
-0.102954
-0.057255
-0.025143
0.018455
0.047344
0.072653
0.081817
0.100390
0.098822
0.074558
0.048539
0.012679
-0.023214
-0.064721
-0.086016
-0.125572
-0.161712
-0.162812
-0.154739
-0.121317
-0.089770
-0.053063
-0.014361
0.024240
0.076346
0.114519
0.128303
0.134896
0.116530
0.103139
0.069548
0.011330
-0.026812
-0.086894
-0.133291
-0.159180
-0.174859
-0.184629
-0.173817
-0.165536
-0.146367
-0.107465
-0.063052
0.013345
0.028014
0.060708
0.078196
0.114759
0.106231
0.087804
0.031630
-0.012895
-0.052203
-0.091687
-0.144969
-0.188977
-0.202654
-0.206634
-0.197674
-0.181880
-0.144820
-0.121784
-0.084736
-0.037712
0.005464
0.024654
0.041389
0.035868
0.043418
0.039627
0.011290
-0.024169
-0.075044
-0.117115
-0.147535
-0.189280
-0.207521
-0.221225
-0.220782
-0.210200
-0.186137
-0.126515
-0.085691
-0.029860
0.006761
0.043030
0.060213
0.058864
0.056258
0.025969
0.004471
-0.040816
-0.078446
-0.131541
-0.181020
-0.214625
-0.238551
-0.253735
-0.236412
-0.202882
-0.163798
-0.136678
-0.086373
-0.063984
-0.027296
0.001968
0.047094
0.063037
0.049056
0.038374
0.012021
-0.053491
-0.108123
-0.153058
-0.199534
-0.242326
-0.248187
-0.224395
-0.218008
-0.201532
-0.179597
-0.153202
-0.091859
-0.042802
0.002461
0.049327
0.058388
0.054528
0.049751
0.025856
-0.008636
-0.057854
-0.107607
-0.147117
-0.193627
-0.234065
-0.239821
-0.226809
-0.224988
-0.179072
-0.153602
-0.126783
-0.078850
-0.030015
0.011897
0.070839
0.111702
0.117936
0.135527
0.115284
0.104250
0.074053
0.048632
-0.015804
-0.043442
-0.059007
-0.040162
-0.033734
-0.004452
0.069551
0.138858
0.221400
0.307437
0.367946
0.431928
0.503804
0.564784
0.603252
0.624877
0.633158
0.641632
0.645602
0.631483
0.613750
0.595632
0.563463
0.526654
0.522844
0.538261
0.547162
0.560857
0.614322
0.650290
0.649940
0.630444
0.598268
0.551467
0.507836
0.478447
0.390780
0.281379
0.192475
0.113615
0.051233
-0.010086
-0.068955
-0.081233
-0.076224
-0.069196
-0.060676
-0.059661
-0.041306
0.017613
0.077224
0.104033
0.127857
0.147665
0.158434
0.155653
0.126375
0.089652
0.041994
-0.020346
-0.072478
-0.116061
-0.149880
-0.170411
-0.176963
-0.159588
-0.143960
-0.116727
-0.077882
-0.038295
0.003666
0.040428
0.066705
0.088067
0.109839
0.110832
0.073436
0.044768
0.008806
-0.036233
-0.094238
-0.140944
-0.196838
-0.196399
-0.181351
-0.152523
-0.132361
-0.114971
-0.081769
-0.051824
0.009141
0.037946
0.048553
0.073424
0.093161
0.086462
0.063354
0.044208
-0.008990
-0.053387
-0.092435
-0.122042
-0.137346
-0.145122
-0.161746
-0.152475
-0.133947
-0.119355
-0.068239
-0.007046
0.041718
0.070787
0.091887
0.106817
0.107681
0.108062
0.092779
0.047916
-0.007322
-0.042960
-0.070658
-0.116100
-0.117612
-0.142358
-0.181020
-0.172892
-0.139601
-0.092545
-0.053632
-0.007220
0.035404
0.077396
0.109725
0.147131
0.158502
0.153707
0.115941
0.090582
0.037418
-0.016129
-0.053274
-0.102678
-0.121617
-0.116670
-0.122721
-0.118020
-0.099921
-0.077269
-0.032873
0.018892
0.077681
0.124879
0.153505
0.160014
0.165044
0.154173
0.125237
0.107239
0.079201
0.033068
-0.013979
-0.079112
-0.103197
-0.101547
-0.109324
-0.104390
-0.070080
-0.049381
-0.011705
0.033533
0.075190
0.102209
0.147649
0.134269
0.184627
0.189485
0.164340
0.144530
0.102066
0.056727
0.002788
-0.044553
-0.071667
-0.073882
-0.075571
-0.066924
-0.053959
-0.032997
0.001051
0.058864
0.127629
0.170024
0.195154
0.201537
0.211450
0.198073
0.170041
0.132232
0.099409
0.051200
0.013986
-0.027448
-0.074570
-0.063084
-0.080770
-0.073149
-0.052114
-0.027070
0.010536
0.069551
0.117842
0.155703
0.195203
0.204886
0.206164
0.198930
0.178031
0.135526
0.101139
0.050932
0.003059
-0.037205
-0.085638
-0.105214
-0.114039
-0.106232
-0.083363
-0.060118
-0.013468
0.036925
0.097365
0.147556
0.174802
0.172437
0.180904
0.176177
0.147402
0.111751
0.066552
0.020674
-0.026646
-0.069708
-0.103491
-0.125982
-0.137947
-0.136014
-0.126151
-0.100439
-0.052747
-0.004777
0.038598
0.095357
0.116647
0.113839
0.124732
0.126708
0.096513
0.064918
0.009300
-0.039005
-0.072416
-0.099567
-0.148301
-0.181277
-0.171132
-0.174680
-0.146269
-0.108328
-0.073772
-0.050450
0.009336
0.028893
0.046813
0.073501
0.097055
0.088367
0.086998
0.053759
0.013329
-0.060446
-0.079441
-0.135605
-0.169962
-0.185434
-0.211190
-0.206668
-0.176498
-0.159419
-0.115857
-0.074960
-0.031578
-0.002454
0.055282
0.089831
0.106407
0.101411
0.082317
0.042635
-0.001972
-0.045180
-0.099842
-0.132585
-0.175185
-0.216685
-0.218134
-0.195862
-0.165968
-0.125055
-0.088299
-0.023165
0.017606
0.045940
0.067254
0.077250
0.076201
0.084005
0.069193
0.043623
-0.003491
-0.053992
-0.099800
-0.144778
-0.176665
-0.177504
-0.186606
-0.183134
-0.157031
-0.130195
-0.092972
-0.053051
0.000347
0.044092
0.066499
0.072090
0.081669
0.083144
0.059151
0.038434
0.001363
-0.043856
-0.089415
-0.127427
-0.182384
-0.209644
-0.218999
-0.209871
-0.176289
-0.137877
-0.109622
-0.045826
-0.002697
0.044757
0.099767
0.116830
0.098789
0.081228
0.035386
0.045997
0.022814
-0.023918
-0.080893
-0.117507
-0.147425
-0.165284
-0.182151
-0.181269
-0.157687
-0.140780
-0.103567
-0.063417
-0.008526
0.025774
0.050601
0.076626
0.094964
0.091466
0.079158
0.030574
0.002935
-0.042006
-0.088375
-0.132391
-0.159260
-0.181161
-0.189868
-0.185135
-0.160171
-0.131990
-0.097964
-0.050677
0.004628
0.026151
0.066977
0.077200
0.063608
0.067307
0.055609
0.040285
-0.014558
-0.070162
-0.113246
-0.139014
-0.141823
-0.163666
-0.206205
-0.197290
-0.165192
-0.117211
-0.104163
-0.058924
-0.010633
0.041414
0.065051
0.070708
0.070734
0.068556
0.056491
0.040994
-0.017679
-0.071182
-0.120172
-0.150642
-0.191345
-0.208901
-0.204382
-0.159121
-0.149553
-0.131354
-0.092748
-0.036865
0.005753
0.043210
0.062350
0.068217
0.066239
0.070371
0.049451
0.025890
0.001132
-0.032140
-0.066694
-0.123025
-0.170584
-0.190786
-0.190867
-0.197614
-0.190616
-0.169255
-0.132438
-0.080408
-0.019911
0.046240
0.081264
0.069783
0.078399
0.068530
0.028388
0.003631
-0.031334
-0.073424
-0.128022
-0.144538
-0.185206
-0.205469
-0.214255
-0.200326
-0.183268
-0.174488
-0.131881
-0.090428
-0.038830
0.015809
0.059077
0.089602
0.086200
0.075006
0.075297
0.036854
-0.020754
-0.069435
-0.124208
-0.163569
-0.203110
-0.213523
-0.226362
-0.211142
-0.193242
-0.143788
-0.124363
-0.087264
-0.018842
0.017608
0.043593
0.057179
0.068549
0.062058
0.037930
0.005264
-0.044938
-0.094042
-0.147555
-0.187874
-0.200356
-0.220333
-0.229717
-0.230896
-0.199343
-0.181686
-0.129170
-0.071690
-0.022099
0.018226
0.061041
0.071876
0.090363
0.100058
0.063684
0.032689
-0.004024
-0.045014
-0.110178
-0.149280
-0.192218
-0.213849
-0.215186
-0.205612
-0.182890
-0.160856
-0.110552
-0.050900
-0.002990
0.036652
0.070377
0.075004
0.081110
0.072216
0.048133
0.031663
0.002843
-0.050452
-0.087433
-0.095865
-0.134302
-0.175754
-0.175359
-0.178265
-0.173752
-0.130188
-0.093862
-0.049083
0.053026
0.076580
0.097688
0.110454
0.122668
0.130595
0.090077
0.051457
0.003492
-0.038828
-0.092218
-0.123717
-0.141930
-0.152182
-0.162152
-0.164826
-0.151810
-0.114117
-0.054823
-0.004272
0.034338
0.066362
0.096357
0.123981
0.132188
0.126359
0.100684
0.070093
0.022697
-0.027991
-0.062649
-0.101455
-0.156896
-0.178173
-0.172955
-0.177310
-0.156739
-0.127821
-0.076430
-0.032521
0.004966
0.044309
0.077528
0.084987
0.082418
0.062453
0.040418
0.017979
-0.020490
-0.083015
-0.147612
-0.183268
-0.209783
-0.195981
-0.214444
-0.203112
-0.164775
-0.159865
-0.127843
-0.079002
-0.024061
0.005295
0.016609
0.057295
0.076297
0.061648
0.039560
0.010707
-0.024693
-0.084913
-0.123272
-0.161128
-0.185981
-0.210765
-0.242353
-0.222332
-0.201949
-0.173373
-0.152116
-0.119069
-0.040011
0.001695
0.022323
0.035027
0.045993
0.042250
0.033044
0.002506
-0.044650
-0.086074
-0.119120
-0.160933
-0.195689
-0.211454
-0.233880
-0.234711
-0.207215
-0.189351
-0.152671
-0.105343
-0.052842
-0.013095
0.017031
0.027651
0.033939
0.023450
0.006295
-0.019507
-0.066890
-0.088139
-0.112862
-0.162219
-0.230291
-0.233418
-0.233279
-0.226490
-0.209387
-0.183924
-0.157798
-0.116939
-0.065697
-0.011530
0.021401
0.038779
0.045097
0.024855
0.008174
-0.027675
-0.060714
-0.102625
-0.151486
-0.192621
-0.214979
-0.224643
-0.238563
-0.256758
-0.249868
-0.221606
-0.178219
-0.132232
-0.058828
-0.008667
0.037440
0.064997
0.072009
0.062986
0.048445
0.040577
0.014390
-0.045318
-0.071746
-0.081030
-0.101188
-0.110046
-0.088390
-0.052030
-0.021946
0.026903
0.099947
0.180394
0.258622
0.314461
0.383896
0.421714
0.468416
0.495296
0.512800
0.510430
0.492881
0.489973
0.506820
0.502986
0.487739
0.506510
0.533025
0.555387
0.559035
0.598125
0.645977
0.682970
0.712737
0.713283
0.705612
0.702537
0.672834
0.614145
0.508530
0.411789
0.335408
0.245358
0.175867
0.102408
0.009264
-0.044813
-0.064301
-0.073545
-0.059622
-0.043123
-0.002764
0.033457
0.070149
0.099842
0.116406
0.131268
0.148738
0.118653
0.097562
0.066102
0.071325
0.025764
-0.046547
-0.085481
-0.128503
-0.156879
-0.157500
-0.152256
-0.153444
-0.122076
-0.086148
-0.045541
0.003153
0.041123
0.066901
0.067512
0.085153
0.087449
0.090631
0.067008
-0.003018
-0.070974
-0.120299
-0.144677
-0.165262
-0.174347
-0.186915
-0.186619
-0.153607
-0.132542
-0.095631
-0.052153
0.006247
0.049419
0.082259
0.099711
0.104084
0.091444
0.063271
0.030663
0.009009
-0.024365
-0.085743
-0.142799
-0.163208
-0.182861
-0.193302
-0.191696
-0.179742
-0.153439
-0.100237
-0.044656
-0.010626
0.022304
0.050479
0.071322
0.088547
0.089909
0.073852
0.048075
0.008967
-0.039152
-0.091056
-0.126409
-0.151743
-0.169686
-0.175242
-0.165863
-0.139797
-0.116471
-0.073444
-0.022274
0.024805
0.058570
0.094045
0.100063
0.116128
0.122332
0.110110
0.062557
0.022310
-0.031967
-0.079383
-0.108106
-0.118857
-0.145595
-0.150722
-0.145451
-0.121509
-0.096227
-0.066151
-0.008978
0.042316
0.094684
0.134994
0.147841
0.167957
0.171300
0.145176
0.103632
0.059066
0.010878
-0.035816
-0.059578
-0.093306
-0.112822
-0.129553
-0.116477
-0.088144
-0.060786
-0.020365
0.027598
0.075713
0.109788
0.144149
0.157253
0.205212
0.209030
0.168970
0.115566
0.062415
0.000103
-0.007460
-0.008945
-0.038270
-0.059341
-0.083025
-0.065112
-0.047204
-0.021695
0.009584
0.053271
0.118202
0.158483
0.190456
0.196892
0.209534
0.203734
0.174649
0.134556
0.088676
0.034223
-0.001713
-0.040345
-0.071851
-0.084272
-0.079526
-0.061133
-0.048527
-0.024941
0.012009
0.048576
0.090231
0.138829
0.171711
0.182766
0.169332
0.170006
0.157837
0.127069
0.087908
0.036210
-0.022374
-0.058598
-0.091259
-0.107346
-0.105393
-0.098192
-0.091881
-0.069053
-0.015310
0.034095
0.067539
0.113881
0.146427
0.160578
0.169133
0.159129
0.139964
0.103464
0.054092
-0.005090
-0.049915
-0.084226
-0.110001
-0.139607
-0.155465
-0.143962
-0.115361
-0.078116
-0.057726
-0.018727
0.007995
0.052704
0.097410
0.121848
0.154681
0.156820
0.113952
0.069889
0.026271
-0.020237
-0.068759
-0.111137
-0.150697
-0.157283
-0.170683
-0.159805
-0.144128
-0.112559
-0.078636
-0.025614
0.017517
0.059470
0.090601
0.091833
0.083872
0.080940
0.070428
0.038450
-0.012171
-0.074269
-0.145332
-0.134032
-0.159583
-0.194129
-0.198009
-0.205365
-0.170487
-0.122880
-0.088508
-0.041380
-0.010587
0.033497
0.058336
0.084198
0.096169
0.080706
0.060301
0.023736
-0.015181
-0.067281
-0.124572
-0.160243
-0.192239
-0.207120
-0.219238
-0.206038
-0.193451
-0.167212
-0.117310
-0.064887
-0.024687
0.013908
0.044636
0.054911
0.066459
0.068437
0.051308
0.014284
-0.051910
-0.074030
-0.108074
-0.153243
-0.200593
-0.226957
-0.240104
-0.215988
-0.168546
-0.118223
-0.086822
-0.041382
-0.011061
0.019010
0.058268
0.076362
0.080760
0.084558
0.062523
0.029065
-0.008547
-0.052090
-0.104531
-0.148448
-0.186120
-0.210908
-0.216404
-0.217242
-0.192057
-0.159912
-0.110586
-0.038984
0.003405
0.046790
0.065680
0.073804
0.077363
0.081720
0.056228
0.030637
0.005095
-0.040210
-0.076213
-0.128489
-0.171843
-0.190105
-0.200219
-0.194704
-0.185962
-0.163045
-0.107406
-0.065412
-0.015690
0.031947
0.067258
0.088735
0.075271
0.085461
0.077812
0.050020
0.010898
-0.054510
-0.103108
-0.142326
-0.166552
-0.193621
-0.217202
-0.210462
-0.192063
-0.136607
-0.093628
-0.062682
-0.026351
0.026519
0.062836
0.076691
0.081502
0.078427
0.058868
0.033184
-0.006463
-0.049967
-0.099035
-0.135063
-0.177354
-0.210625
-0.214824
-0.210040
-0.199426
-0.159369
-0.107134
-0.046464
-0.004600
0.026785
0.061379
0.088102
0.088161
0.073790
0.048224
0.008008
-0.018195
-0.045710
-0.093456
-0.146936
-0.184734
-0.207978
-0.200644
-0.198602
-0.176499
-0.144405
-0.103550
-0.063920
-0.021997
0.018946
0.051535
0.065508
0.071400
0.057206
0.043116
0.012835
-0.028020
-0.067079
-0.107770
-0.145116
-0.174669
-0.198783
-0.204203
-0.201735
-0.188440
-0.160657
-0.110219
-0.070263
-0.019164
0.025658
0.046449
0.059302
0.085436
0.089850
0.057050
0.019901
-0.018352
-0.070707
-0.125171
-0.159734
-0.190685
-0.222158
-0.233677
-0.224277
-0.202839
-0.168582
-0.128616
-0.070690
-0.013593
-0.002554
0.029926
0.070364
0.069217
0.063651
0.057851
0.015147
-0.044940
-0.076357
-0.099958
-0.156958
-0.196190
-0.223561
-0.213825
-0.218901
-0.207510
-0.165799
-0.138141
-0.096860
-0.032753
0.022321
0.067520
0.068767
0.072729
0.067050
0.054251
0.013339
-0.017593
-0.073955
-0.124370
-0.162812
-0.193238
-0.211197
-0.222816
-0.211156
-0.187029
-0.141079
-0.107568
-0.078171
-0.033758
0.004901
0.036630
0.045016
0.060515
0.065904
0.043132
0.013413
-0.040544
-0.080526
-0.122637
-0.164548
-0.191422
-0.209022
-0.227991
-0.221245
-0.205461
-0.166537
-0.111023
-0.068569
-0.040050
-0.000486
0.027526
0.045388
0.043650
0.031601
0.024879
0.027036
-0.024289
-0.076314
-0.116358
-0.158381
-0.180581
-0.198577
-0.212564
-0.208422
-0.175846
-0.139231
-0.101268
-0.067649
-0.035772
0.010846
0.065675
0.103055
0.109364
0.096855
0.067013
0.028079
-0.011411
-0.055593
-0.086491
-0.117430
-0.155399
-0.171605
-0.191469
-0.184042
-0.166444
-0.144844
-0.087098
-0.024005
0.016535
0.045368
0.070672
0.075207
0.101516
0.082675
0.080846
0.043121
0.003518
-0.041169
-0.079321
-0.110211
-0.133526
-0.151683
-0.156923
-0.154843
-0.126816
-0.095711
-0.061144
-0.021089
0.021003
0.061816
0.094709
0.123365
0.121620
0.109444
0.082366
0.056978
0.011749
-0.043465
-0.100336
-0.124459
-0.174133
-0.183025
-0.187608
-0.178822
-0.157348
-0.130206
-0.087820
-0.048045
-0.014088
0.029400
0.062348
0.071299
0.086899
0.078800
0.059290
0.014857
-0.017232
-0.064850
-0.115066
-0.161126
-0.192183
-0.212111
-0.202592
-0.199600
-0.191645
-0.164250
-0.119147
-0.089886
-0.047106
-0.013545
0.030667
0.039024
0.021253
0.008107
0.012411
0.008491
-0.036099
-0.095773
-0.143949
-0.185603
-0.233511
-0.212277
-0.248101
-0.246784
-0.216373
-0.183687
-0.140682
-0.087000
-0.043305
0.000141
0.030498
0.042657
0.051065
0.047673
0.034649
-0.015831
-0.058215
-0.102537
-0.155371
-0.188940
-0.208247
-0.218603
-0.227362
-0.234419
-0.208687
-0.178139
-0.131672
-0.108510
-0.056280
-0.017381
0.008125
0.029239
0.039516
0.030029
0.011212
-0.008202
-0.050357
-0.106467
-0.154378
-0.182044
-0.210633
-0.232549
-0.246556
-0.235585
-0.221317
-0.181743
-0.144002
-0.096588
-0.057132
-0.017953
0.020001
0.036615
0.044498
0.032175
0.015604
-0.008681
-0.038858
-0.084224
-0.132611
-0.177181
-0.204023
-0.233297
-0.250996
-0.250971
-0.231450
-0.195019
-0.154041
-0.100085
-0.057351
-0.011340
0.053583
0.088813
0.105028
0.116906
0.082354
0.101419
0.073471
0.028120
-0.016446
-0.034498
-0.039543
-0.047131
-0.031164
0.001562
0.054979
0.112441
0.178040
0.261034
0.330087
0.398100
0.467631
0.536397
0.564795
0.590530
0.620885
0.631629
0.632111
0.612870
0.593163
0.571201
0.563157
0.538137
0.514625
0.526504
0.556531
0.580430
0.603334
0.608899
0.627398
0.643629
0.595010
0.555588
0.496804
0.423002
0.358526
0.266515
0.174563
0.085087
0.052744
0.020222
0.007193
-0.016854
-0.062556
-0.057545
-0.057748
-0.034481
-0.002895
0.031576
0.066784
0.109124
0.129590
0.145599
0.153972
0.138668
0.105542
0.070071
0.018812
-0.023633
-0.072372
-0.119283
-0.164557
-0.186797
-0.189672
-0.183995
-0.165534
-0.136214
-0.091869
-0.038549
0.007662
0.037099
0.065868
0.090819
0.095978
0.091898
0.071435
0.036622
0.009372
-0.020754
-0.055998
-0.110929
-0.169608
-0.207956
-0.207970
-0.195627
-0.172607
-0.124027
-0.100426
-0.071494
-0.006600
0.027470
0.049270
0.045253
0.136250
0.114224
0.073694
0.022470
-0.009110
-0.054345
-0.092759
-0.124292
-0.167459
-0.190494
-0.195753
-0.170140
-0.149586
-0.104935
-0.065806
-0.031461
0.018789
0.063448
0.105220
0.117557
0.118789
0.105343
0.077392
0.056944
0.038841
-0.004885
-0.059686
-0.114918
-0.147435
-0.165505
-0.162987
-0.155695
-0.133773
-0.103931
-0.064942
-0.018436
0.041617
0.078810
0.118549
0.128233
0.125183
0.114946
0.108870
0.094010
0.038367
-0.012163
-0.057816
-0.101917
-0.125268
-0.135809
-0.136576
-0.113534
-0.102892
-0.072545
-0.025720
0.032736
0.068037
0.100638
0.138100
0.175138
0.179709
0.155331
0.152007
0.131554
0.093760
0.045670
-0.001954
-0.049416
-0.080102
-0.097346
-0.092531
-0.082471
-0.063681
-0.019669
0.029477
0.063466
0.098405
0.134131
0.166197
0.187191
0.187202
0.199993
0.179254
0.134416
0.095318
0.062851
0.018045
-0.015641
-0.036167
-0.055683
-0.071964
-0.064007
-0.057185
-0.022081
0.010428
0.068034
0.119002
0.165433
0.184309
0.197646
0.199397
0.192725
0.176608
0.151665
0.114128
0.078298
0.032844
-0.015829
-0.046496
-0.076529
-0.086860
-0.076365
-0.061673
-0.013525
0.032991
0.077736
0.109773
0.145316
0.158392
0.175542
0.192006
0.212727
0.217484
0.158197
0.103290
0.046504
-0.001991
-0.020904
-0.041964
-0.061061
-0.095562
-0.088890
-0.079881
-0.045518
-0.017938
0.034758
0.083314
0.126140
0.154704
0.175913
0.178035
0.154197
0.134210
0.103418
0.061506
0.024936
-0.020512
-0.059463
-0.092561
-0.125378
-0.131679
-0.122952
-0.104606
-0.078184
-0.045131
0.012641
0.060316
0.103699
0.109941
0.139671
0.146878
0.123701
0.086124
0.055644
0.020331
-0.025458
-0.056888
-0.110846
-0.139863
-0.162758
-0.172704
-0.154843
-0.133119
-0.103078
-0.060049
-0.016502
0.036072
0.083387
0.103877
0.112490
0.119148
0.098781
0.079253
0.042418
-0.007551
-0.056929
-0.093236
-0.133688
-0.160192
-0.195200
-0.201423
-0.178260
-0.154886
-0.117976
-0.078913
-0.037367
0.015280
0.054026
0.073640
0.091920
0.091843
0.077503
0.057085
0.035124
-0.008736
-0.068689
-0.096033
-0.135888
-0.172072
-0.206324
-0.211262
-0.194576
-0.176952
-0.151053
-0.106308
-0.054065
-0.011445
0.017069
0.052071
0.077330
0.086524
0.085109
0.071906
0.034168
-0.009462
-0.055917
-0.107080
-0.139756
-0.177006
-0.192290
-0.217721
-0.203408
-0.194943
-0.152515
-0.110648
-0.060678
-0.020420
0.019871
0.049995
0.079347
0.079672
0.076977
0.076400
0.048463
0.007263
-0.057162
-0.098200
-0.149091
-0.165075
-0.189140
-0.195255
-0.198434
-0.190229
-0.141837
-0.087733
-0.053068
-0.007113
0.033546
0.081829
0.114110
0.102569
0.090708
0.076842
0.043392
-0.010364
-0.069148
-0.098738
-0.118882
-0.162301
-0.165074
-0.200598
-0.190541
-0.166079
-0.139969
-0.112114
-0.075800
-0.042855
0.015701
0.068096
0.107920
0.107117
0.090060
0.064556
0.007829
-0.017821
-0.053779
-0.084096
-0.137042
-0.167128
-0.194706
-0.186554
-0.172540
-0.163017
-0.134055
-0.093529
-0.056725
-0.008419
0.030346
0.049480
0.076387
0.081343
0.087650
0.063467
0.036430
-0.008580
-0.057118
-0.100152
-0.143425
-0.165090
-0.172306
-0.195516
-0.201190
-0.189655
-0.153560
-0.114182
-0.061986
-0.014044
0.032028
0.060115
0.079113
0.080384
0.065248
0.056329
0.025929
-0.011269
-0.066310
-0.110759
-0.156746
-0.188814
-0.213402
-0.219641
-0.219969
-0.198288
-0.167696
-0.131540
-0.099232
-0.044857
-0.004773
0.049178
0.070945
0.076152
0.067955
0.051238
0.024086
-0.024187
-0.077378
-0.126047
-0.145551
-0.180438
-0.204962
-0.213350
-0.201249
-0.181274
-0.142903
-0.121727
-0.079295
-0.029613
0.003383
0.023368
0.051083
0.059779
0.061585
0.054653
0.021070
-0.027916
-0.089158
-0.138216
-0.169571
-0.204116
-0.218460
-0.220915
-0.212994
-0.222956
-0.163489
-0.103256
-0.066619
-0.027441
0.002328
0.034593
0.058134
0.068563
0.057773
0.049819
0.023630
-0.029716
-0.088888
-0.123010
-0.161058
-0.187725
-0.206251
-0.218016
-0.224175
-0.214427
-0.171684
-0.136633
-0.087078
-0.030650
-0.003607
0.028695
0.063991
0.053645
0.034906
0.017848
-0.018057
-0.053735
-0.087142
-0.133161
-0.167523
-0.177512
-0.204055
-0.223468
-0.225623
-0.201964
-0.167569
-0.114911
-0.067169
-0.025888
0.009576
0.040634
0.053228
0.057572
0.057487
0.037389
0.005196
-0.042570
-0.095980
-0.140535
-0.185601
-0.218848
-0.241087
-0.246140
-0.235005
-0.210251
-0.185098
-0.147132
-0.095230
-0.041969
0.000622
0.031071
0.054175
0.064795
0.054701
0.034704
-0.006458
-0.051231
-0.088553
-0.129417
-0.167210
-0.193983
-0.223018
-0.228153
-0.221863
-0.211862
-0.173082
-0.119032
-0.078236
-0.023985
0.013523
0.042407
0.060256
0.078815
0.068889
0.050005
0.023044
-0.019208
-0.080516
-0.133395
-0.178880
-0.202434
-0.220783
-0.228796
-0.210347
-0.175183
-0.124415
-0.094687
-0.075223
0.015744
0.056220
0.082638
0.100182
0.115078
0.096273
0.076286
0.027556
-0.021619
-0.069938
-0.100552
-0.145594
-0.182811
-0.211592
-0.206769
-0.189666
-0.180568
-0.128430
-0.077590
-0.024754
0.017487
0.051008
0.067631
0.069830
0.083765
0.109764
0.087420
0.035447
-0.015038
-0.067137
-0.131184
-0.172950
-0.192009
-0.220202
-0.236443
-0.219603
-0.198415
-0.169576
-0.128777
-0.081244
-0.039108
-0.003645
0.020827
0.059028
0.061695
0.070564
0.053938
0.011224
-0.052405
-0.091620
-0.123354
-0.163973
-0.197453
-0.211556
-0.223114
-0.214827
-0.197315
-0.163304
-0.134087
-0.096497
-0.059339
-0.026418
0.005085
0.037402
0.045972
0.028043
-0.004194
-0.020595
-0.058472
-0.110268
-0.150484
-0.196104
-0.174935
-0.217380
-0.225285
-0.243273
-0.239675
-0.213918
-0.159430
-0.103980
-0.048492
-0.025003
-0.001264
0.030725
0.045336
0.026264
0.001017
-0.031561
-0.062585
-0.105517
-0.163372
-0.195912
-0.212913
-0.244264
-0.258563
-0.257666
-0.247783
-0.211712
-0.157250
-0.117152
-0.074679
-0.027686
-0.017230
0.013472
0.017202
0.005598
-0.000866
-0.035301
-0.086048
-0.133536
-0.174494
-0.210099
-0.245096
-0.267601
-0.272366
-0.273427
-0.254990
-0.213543
-0.181625
-0.136216
-0.086066
-0.037690
-0.014108
0.005421
0.030071
0.022309
0.006344
-0.039203
-0.085106
-0.133222
-0.188379
-0.228949
-0.237355
-0.271350
-0.287749
-0.279002
-0.277849
-0.241635
-0.204997
-0.146031
-0.069216
-0.009702
0.024156
0.039739
0.053303
0.057760
0.056808
0.045597
0.016704
-0.008648
-0.037080
-0.063193
-0.077490
-0.083347
-0.067530
-0.042380
-0.000704
0.052311
0.119042
0.205924
0.279720
0.358216
0.409941
0.468387
0.509612
0.512635
0.522545
0.531319
0.509280
0.518149
0.522084
0.498929
0.504067
0.494965
0.484158
0.485515
0.503220
0.524714
0.549999
0.600894
0.627248
0.641719
0.615919
0.559891
0.495943
0.417114
0.353754
0.285448
0.208842
0.134215
0.072491
-0.009272
-0.061373
-0.132619
-0.154397
-0.162899
-0.164252
-0.142420
-0.095657
-0.072342
-0.041196
0.023750
0.057237
0.073228
0.083645
0.078459
0.049682
0.020861
-0.022525
-0.066744
-0.124611
-0.152083
-0.176502
-0.222747
-0.244858
-0.218609
-0.181949
-0.160718
-0.118803
-0.089636
-0.048616
-0.012673
0.013041
0.049115
0.072623
0.059768
0.034186
0.002727
-0.045714
-0.088680
-0.147884
-0.189575
-0.218256
-0.242610
-0.254044
-0.239877
-0.216882
-0.173752
-0.137979
-0.105225
-0.066656
-0.008317
0.014817
0.046071
0.057399
0.083200
0.056434
0.012016
-0.032779
-0.070722
-0.123282
-0.171118
-0.205988
-0.234560
-0.246746
-0.251231
-0.231431
-0.179968
-0.110054
-0.065506
-0.018999
0.012970
0.040028
0.074770
0.080760
0.067064
0.056382
0.031011
-0.011786
-0.062042
-0.110352
-0.136668
-0.164588
-0.207918
-0.225127
-0.200152
-0.179915
-0.136554
-0.106769
-0.072963
-0.028649
0.025165
0.067848
0.093184
0.108253
0.090712
0.080934
0.059934
-0.001041
-0.041754
-0.072535
-0.108295
-0.145613
-0.166726
-0.186719
-0.180400
-0.165087
-0.136460
-0.095292
-0.050633
0.000403
0.050499
0.078536
0.096964
0.118627
0.112438
0.091965
0.070713
0.036611
-0.011958
-0.050620
-0.086487
-0.106169
-0.121579
-0.136503
-0.140287
-0.129176
-0.098104
-0.048324
0.004513
0.050662
0.093199
0.116649
0.140971
0.145540
0.144522
0.133279
0.092137
0.047461
-0.012395
-0.053638
-0.083437
-0.098651
-0.115394
-0.111716
-0.093812
-0.085519
-0.081144
-0.046630
-0.001761
0.061027
0.105274
0.143353
0.152399
0.161100
0.157447
0.147876
0.127932
0.077221
0.017521
-0.011775
-0.060099
-0.097286
-0.116938
-0.124900
-0.124440
-0.103121
-0.074839
-0.031792
0.015137
0.079778
0.125208
0.149544
0.163891
0.149240
0.138429
0.127998
0.098279
0.053898
0.000107
-0.041884
-0.082359
-0.115544
-0.146153
-0.158526
-0.157734
-0.121744
-0.112984
-0.065873
-0.008929
0.038940
0.072374
0.104222
0.131612
0.135392
0.115646
0.098250
0.060701
0.023520
-0.006586
-0.053452
-0.112443
-0.137800
-0.168065
-0.176532
-0.159963
-0.136629
-0.108232
-0.069462
-0.030861
0.005626
0.034103
0.063636
0.094347
0.105741
0.103288
0.073699
0.048971
-0.006409
-0.052037
-0.105613
-0.159313
-0.186486
-0.212537
-0.214386
-0.206456
-0.189514
-0.170963
-0.126729
-0.075603
-0.028706
0.011584
0.027588
0.040256
0.051421
0.047019
0.030484
0.005475
-0.040752
-0.103469
-0.141294
-0.166257
-0.198825
-0.204983
-0.224805
-0.209069
-0.186791
-0.161585
-0.122071
-0.081027
-0.042509
-0.006206
0.018628
0.063579
0.051273
0.037723
0.010962
-0.023024
-0.058851
-0.110267
-0.150158
-0.178205
-0.208893
-0.233616
-0.248160
-0.238863
-0.214888
-0.180111
-0.141514
-0.096515
-0.042819
-0.005662
0.018775
0.045931
0.050704
0.032893
0.019659
-0.008320
-0.048645
-0.089884
-0.140318
-0.187617
-0.211674
-0.235995
-0.243600
-0.242870
-0.218994
-0.185939
-0.137913
-0.092019
-0.046691
0.000428
0.019687
0.050293
0.049092
0.041088
0.030422
0.008514
-0.041179
-0.091304
-0.132435
-0.154074
-0.196207
-0.223115
-0.232836
-0.232988
-0.221902
-0.177305
-0.121165
-0.085834
-0.053137
-0.022088
0.019803
0.051993
0.065860
0.067740
0.054773
0.018543
-0.031778
-0.075447
-0.108391
-0.153256
-0.195627
-0.212174
-0.210601
-0.200434
-0.215379
-0.196823
-0.147082
-0.094437
-0.027143
0.009704
0.039364
0.046836
0.058631
0.057043
0.045849
0.017938
-0.029490
-0.078551
-0.104657
-0.137629
-0.176035
-0.195380
-0.206284
-0.202726
-0.191090
-0.155168
-0.114125
-0.080424
-0.040025
0.007938
0.036835
0.067743
0.065455
0.070165
0.036218
0.000680
-0.038177
-0.087633
-0.121826
-0.160423
-0.200072
-0.227187
-0.230713
-0.229707
-0.209980
-0.172275
-0.125824
-0.081305
-0.034242
0.004237
0.021825
0.053691
0.062680
0.071658
0.061345
0.026824
-0.044075
-0.105404
-0.143161
-0.189443
-0.201898
-0.210151
-0.209224
-0.206124
-0.184064
-0.144359
-0.107132
-0.066343
-0.031475
0.012448
0.039025
0.065566
0.064027
0.056264
0.046878
0.006387
-0.041443
-0.095371
-0.147817
-0.182555
-0.215159
-0.230697
-0.233623
-0.216914
-0.206198
-0.170339
-0.119033
-0.045358
-0.011935
-0.001080
0.015213
0.052447
0.059119
0.046780
0.025839
-0.005563
-0.052372
-0.089691
-0.143920
-0.178652
-0.199253
-0.229326
-0.244535
-0.235006
-0.210359
-0.172682
-0.129734
-0.097669
-0.049263
-0.003324
0.028568
0.050609
0.058482
0.057128
0.037836
-0.001124
-0.044813
-0.095146
-0.150709
-0.204538
-0.222926
-0.226476
-0.219622
-0.209064
-0.192383
-0.163909
-0.113279
-0.069690
-0.026403
0.011573
0.039642
0.070044
0.087804
0.070937
0.035444
0.004333
-0.040854
-0.082770
-0.122724
-0.150386
-0.173353
-0.181615
-0.183030
-0.183918
-0.167431
-0.142269
-0.093699
-0.045060
-0.014907
0.023134
0.060744
0.087248
0.093093
0.096335
0.054315
0.058177
0.000103
-0.065525
-0.119043
-0.150557
-0.172198
-0.169617
-0.178759
-0.175351
-0.150625
-0.104447
-0.050744
-0.020187
0.009517
0.046879
0.089602
0.106981
0.119657
0.105294
0.075707
0.044884
0.004850
-0.056204
-0.092695
-0.137432
-0.175268
-0.210318
-0.216570
-0.212989
-0.172878
-0.138563
-0.109421
-0.060608
-0.021760
0.011209
0.024143
0.048939
0.049955
0.042114
0.027696
0.000956
-0.050093
-0.092747
-0.132161
-0.176071
-0.209666
-0.239525
-0.227465
-0.225957
-0.239783
-0.208891
-0.156071
-0.110085
-0.061949
-0.019075
0.014271
0.037885
0.043120
0.026395
0.008615
-0.010082
-0.049620
-0.093993
-0.148212
-0.186155
-0.222203
-0.245985
-0.259021
-0.244778
-0.218043
-0.188059
-0.152852
-0.122932
-0.076511
-0.041028
-0.006256
0.035114
0.031743
0.009149
-0.007232
-0.040217
-0.095190
-0.129808
-0.172645
-0.227048
-0.259897
-0.264725
-0.247598
-0.239400
-0.235251
-0.196275
-0.168619
-0.112471
-0.055684
-0.024061
0.003756
0.029197
0.045710
0.020130
-0.004484
-0.028087
-0.075345
-0.125567
-0.157280
-0.196251
-0.236085
-0.278467
-0.279454
-0.260969
-0.221689
-0.203272
-0.165213
-0.138513
-0.084949
-0.030379
-0.009818
0.010729
0.018690
0.017637
-0.014826
-0.058092
-0.101277
-0.124189
-0.166818
-0.205459
-0.223883
-0.250001
-0.253192
-0.241868
-0.237590
-0.203750
-0.171973
-0.112324
-0.047566
0.001671
0.047051
0.084437
0.112710
0.121038
0.097854
0.090020
0.059954
0.039963
-0.005587
-0.028257
-0.044424
-0.036432
-0.021191
0.011302
0.063696
0.131755
0.194982
0.258767
0.328367
0.401663
0.451696
0.508729
0.532364
0.575223
0.591913
0.579245
0.565590
0.560851
0.555178
0.537291
0.528364
0.563425
0.566819
0.557902
0.546528
0.558393
0.589007
0.608594
0.605548
0.591515
0.548528
0.498227
0.435869
0.381143
0.318071
0.235193
0.165058
0.100065
0.025880
-0.038960
-0.091941
-0.139529
-0.135812
-0.122074
-0.099448
-0.086128
-0.056384
-0.002440
0.048377
0.090755
0.113173
0.124534
0.131073
0.117433
0.090333
0.066363
0.020269
-0.042093
-0.089966
-0.141023
-0.163848
-0.185891
-0.193659
-0.187597
-0.172982
-0.141816
-0.094760
-0.054782
-0.020107
0.018537
0.047198
0.096578
0.093515
0.085754
0.046714
0.009416
-0.039088
-0.082249
-0.117855
-0.158671
-0.194103
-0.203849
-0.218001
-0.215760
-0.202349
-0.162144
-0.107204
-0.054811
-0.016620
0.020390
0.045454
0.070872
0.070512
0.089455
0.070823
0.028852
-0.015525
-0.069893
-0.105757
-0.144540
-0.173952
-0.191766
-0.187511
-0.189806
-0.173219
-0.144546
-0.116778
-0.073942
-0.027477
0.034741
0.069686
0.084215
0.110559
0.097690
0.063902
0.034262
-0.002005
-0.047147
-0.110779
-0.143990
-0.164188
-0.171943
-0.173133
-0.177895
-0.156767
-0.127315
-0.071900
-0.011032
0.039169
0.069070
0.096107
0.103759
0.127275
0.120115
0.106142
0.077272
0.021225
-0.041335
-0.083666
-0.124104
-0.131656
-0.143051
-0.151649
-0.165371
-0.137545
-0.114226
-0.054824
-0.013029
0.030952
0.068119
0.095852
0.112477
0.136856
0.140196
0.110233
0.085656
0.051570
0.009767
-0.026284
-0.076673
-0.097112
-0.116683
-0.114275
-0.103629
-0.077700
-0.051622
-0.001446
0.049353
0.086666
0.127913
0.162956
0.167533
0.175898
0.172444
0.153557
0.132908
0.085856
0.027444
-0.010446
-0.058609
-0.060151
-0.071411
-0.077984
-0.096686
-0.079191
-0.045395
0.001652
0.050547
0.101578
0.135187
0.168744
0.184319
0.188764
0.184708
0.160817
0.126463
0.087714
0.049266
0.007060
-0.040199
-0.068542
-0.080656
-0.101805
-0.096217
-0.070407
-0.039395
-0.001274
0.027851
0.063778
0.132600
0.177120
0.176192
0.188760
0.172701
0.136437
0.108663
0.081805
0.018090
-0.045265
-0.087972
-0.103760
-0.128221
-0.145945
-0.137173
-0.107036
-0.074170
-0.042546
0.007450
0.062923
0.092204
0.125158
0.142655
0.150311
0.133264
0.115027
0.087595
0.046408
-0.010351
-0.065985
-0.116647
-0.150665
-0.162090
-0.150463
-0.118598
-0.092711
-0.078028
-0.062641
-0.016003
0.015551
0.048298
0.074735
0.098895
0.093789
0.081762
0.071980
0.035650
0.000787
-0.041896
-0.085515
-0.136730
-0.171950
-0.184734
-0.193375
-0.199691
-0.190934
-0.156509
-0.102160
-0.062134
-0.021256
0.010620
0.039882
0.066991
0.074577
0.079018
0.057227
0.028276
-0.023411
-0.072413
-0.105881
-0.143196
-0.189802
-0.201459
-0.208354
-0.208223
-0.197199
-0.169761
-0.138558
-0.101573
-0.042539
-0.000321
0.017858
0.028794
0.039077
0.059328
0.023582
-0.025003
-0.029822
-0.064102
-0.127973
-0.177566
-0.202581
-0.203658
-0.213637
-0.213034
-0.200610
-0.166010
-0.127878
-0.085091
-0.019878
0.021060
0.043890
0.050863
0.073138
0.073219
0.057374
0.004348
-0.029281
-0.068141
-0.106931
-0.140109
-0.181449
-0.207740
-0.213024
-0.203164
-0.188709
-0.163432
-0.127973
-0.094783
-0.039595
0.005076
0.037294
0.057516
0.066973
0.057918
0.033326
0.013624
-0.012988
-0.059612
-0.114389
-0.150885
-0.168096
-0.172683
-0.193679
-0.203695
-0.191549
-0.157978
-0.116967
-0.070257
-0.038784
-0.003721
0.050842
0.093939
0.082520
0.077293
0.055394
0.025478
-0.015346
-0.055497
-0.097386
-0.151338
-0.185764
-0.206454
-0.203971
-0.199620
-0.176195
-0.161342
-0.113822
-0.057552
-0.027042
0.004847
0.046199
0.073341
0.077981
0.076920
0.057366
0.023357
-0.026634
-0.072221
-0.113318
-0.147189
-0.176426
-0.210728
-0.220836
-0.200031
-0.192449
-0.160092
-0.123069
-0.050384
-0.004250
0.028245
0.060649
0.068626
0.073873
0.058633
0.050042
0.028091
0.011771
-0.046138
-0.117668
-0.163420
-0.190693
-0.206891
-0.191382
-0.197980
-0.201343
-0.185289
-0.127212
-0.081106
-0.020730
0.010257
0.032953
0.060312
0.081293
0.090469
0.063024
0.038100
-0.005174
-0.053589
-0.097922
-0.142349
-0.194176
-0.205034
-0.203499
-0.201005
-0.188126
-0.151481
-0.119797
-0.072178
-0.016069
0.024957
0.068514
0.081808
0.080129
0.077733
0.043655
0.007603
-0.033698
-0.067808
-0.106631
-0.156285
-0.196608
-0.217705
-0.220846
-0.220408
-0.192395
-0.176437
-0.135105
-0.074749
-0.025051
0.012478
0.051812
0.071161
0.070096
0.067355
0.040645
0.014493
-0.042628
-0.084631
-0.118957
-0.170991
-0.181781
-0.224439
-0.238259
-0.236905
-0.214862
-0.184453
-0.141050
-0.086736
-0.048430
-0.017898
0.004946
0.040250
0.064548
0.068425
0.042451
0.002357
-0.037216
-0.085731
-0.129502
-0.177672
-0.203569
-0.221599
-0.237338
-0.240432
-0.211715
-0.169408
-0.130400
-0.105866
-0.041987
0.011287
0.035908
0.063085
0.055826
0.053333
0.054057
0.024983
-0.027092
-0.072644
-0.126134
-0.165329
-0.185028
-0.215083
-0.226027
-0.220399
-0.201290
-0.185226
-0.155057
-0.098651
-0.041349
-0.001395
0.039768
0.069085
0.092123
0.074561
0.042348
0.007928
-0.041603
-0.089340
-0.131520
-0.174045
-0.191876
-0.211130
-0.215061
-0.222315
-0.203706
-0.165473
-0.108074
-0.058264
-0.017811
0.017367
0.051806
0.062282
0.069570
0.065152
0.077877
0.026262
-0.020135
-0.062457
-0.117129
-0.142952
-0.167445
-0.201386
-0.214857
-0.200481
-0.173327
-0.131783
-0.094450
-0.055072
-0.012564
0.012753
0.048884
0.092354
0.102013
0.106478
0.087130
0.045974
-0.004476
-0.049186
-0.100477
-0.133840
-0.167107
-0.194972
-0.198990
-0.189305
-0.159541
-0.130941
-0.077327
-0.031094
0.024126
0.059076
0.086682
0.096533
0.094383
0.091275
0.063022
0.048838
0.019884
-0.021261
-0.064592
-0.100409
-0.133069
-0.175947
-0.186261
-0.193850
-0.178358
-0.143942
-0.101800
-0.053367
-0.019480
0.029038
0.074280
0.093449
0.075449
0.057074
0.030495
0.003425
-0.040138
-0.095818
-0.136741
-0.153932
-0.191391
-0.221114
-0.232340
-0.228925
-0.208856
-0.170443
-0.123697
-0.079913
-0.043410
-0.006270
0.022736
0.034557
0.035394
0.032562
0.014080
-0.002790
-0.042673
-0.096756
-0.148116
-0.192222
-0.223801
-0.245633
-0.252784
-0.242314
-0.219393
-0.201210
-0.168724
-0.099874
-0.037330
-0.007307
0.006300
0.015659
0.009615
0.029958
0.025320
-0.005958
-0.052975
-0.104260
-0.151796
-0.192720
-0.228529
-0.243971
-0.251342
-0.266614
-0.260633
-0.201056
-0.133135
-0.090098
-0.043773
-0.014937
0.014090
0.039124
0.041195
0.044295
0.012009
-0.026178
-0.069348
-0.113398
-0.151430
-0.197868
-0.236042
-0.258224
-0.249156
-0.238977
-0.232302
-0.208278
-0.167760
-0.121728
-0.063570
-0.017911
0.004747
0.037855
0.034962
0.036195
0.014078
-0.019442
-0.061701
-0.104601
-0.134929
-0.172595
-0.217665
-0.241514
-0.245480
-0.239717
-0.226214
-0.208996
-0.166116
-0.115410
-0.068691
-0.027282
0.005180
0.029159
0.053888
0.066852
0.063680
0.052421
0.021127
0.001663
-0.033395
-0.068477
-0.081382
-0.093056
-0.083724
-0.070473
-0.028197
0.016980
0.059304
0.138589
0.219855
0.303926
0.379863
0.439159
0.459760
0.490644
0.481582
0.468737
0.474062
0.480341
0.457372
0.457060
0.461354
0.474765
0.506325
0.541244
0.589861
0.628372
0.646753
0.694475
0.707560
0.734485
0.756892
0.751362
0.714377
0.646889
0.567686
0.478352
0.354278
0.252721
0.164907
0.078457
-0.002783
-0.065886
-0.085425
-0.092360
-0.074223
-0.049867
-0.010857
0.027009
0.068307
0.102292
0.122601
0.134020
0.147712
0.157357
0.141716
0.107878
0.053336
-0.010944
-0.067438
-0.103917
-0.133518
-0.143349
-0.150353
-0.156255
-0.145763
-0.123196
-0.078923
-0.026955
0.037830
0.068657
0.080984
0.090442
0.085956
0.115382
0.082143
0.037098
-0.010021
-0.059568
-0.117608
-0.166980
-0.170659
-0.169376
-0.192296
-0.226350
-0.170937
-0.140922
-0.118442
-0.064034
-0.010139
0.037211
0.082088
0.104572
0.103050
0.099420
0.074745
0.033279
-0.012089
-0.052598
-0.087047
-0.133750
-0.165371
-0.193739
-0.192610
-0.197142
-0.169252
-0.134613
-0.104866
-0.059774
-0.015680
0.015479
0.052290
0.074649
0.079847
0.072511
0.049952
0.022192
0.009832
-0.015370
-0.074620
-0.129929
-0.142156
-0.158954
-0.167773
-0.166155
-0.159297
-0.130619
-0.085083
-0.044871
0.007422
0.053570
0.095302
0.126494
0.128310
0.115266
0.087695
0.047467
0.012708
-0.027223
-0.067039
-0.089316
-0.100890
-0.122641
-0.129546
-0.118496
-0.108160
-0.087652
-0.055441
-0.000994
0.050262
0.081975
0.124215
0.155272
0.153087
0.151147
0.141150
0.112346
0.072043
0.024210
-0.027792
-0.074895
-0.103594
-0.102960
-0.099839
-0.093093
-0.075692
-0.055081
-0.019003
0.028418
0.062302
0.106936
0.161557
0.213538
0.216329
0.206027
0.191004
0.148506
0.109119
0.066120
0.009805
-0.018471
-0.043745
-0.083447
-0.105900
-0.113832
-0.081566
-0.017511
0.029759
0.079646
0.117833
0.143270
0.188083
0.218400
0.220339
0.209685
0.192728
0.160474
0.112505
0.060566
0.007423
-0.036845
-0.081784
-0.094444
-0.072364
-0.064804
-0.043015
-0.009389
0.007187
0.046452
0.101116
0.140569
0.166169
0.179810
0.199485
0.196213
0.178233
0.146505
0.099361
0.048955
0.001773
-0.043462
-0.080177
-0.096853
-0.100416
-0.098893
-0.077421
-0.050130
-0.009978
0.042761
0.078114
0.105613
0.138009
0.154248
0.154333
0.154312
0.135976
0.107368
0.069859
0.025215
-0.017345
-0.038941
-0.068578
-0.096210
-0.114880
-0.114465
-0.099093
-0.044768
-0.002275
0.005994
0.048461
0.087337
0.106329
0.130586
0.127449
0.113102
0.111801
0.072159
0.026598
-0.021530
-0.072463
-0.113895
-0.140161
-0.160769
-0.170187
-0.166801
-0.148112
-0.119068
-0.086735
-0.045363
0.001962
0.032458
0.061041
0.073760
0.086064
0.099927
0.072368
0.023275
-0.025581
-0.061088
-0.097930
-0.140238
-0.182423
-0.208502
-0.200949
-0.203789
-0.192245
-0.147193
-0.096226
-0.062543
-0.026463
0.025173
0.056402
0.078718
0.057936
0.080865
0.049846
0.008812
-0.037592
-0.078774
-0.129667
-0.161435
-0.172257
-0.183016
-0.184662
-0.186868
-0.185212
-0.164321
-0.118583
-0.080733
-0.025619
0.007573
0.034270
0.054207
0.064964
0.072551
0.070927
0.036203
-0.013139
-0.044965
-0.097751
-0.147669
-0.190620
-0.208673
-0.210353
-0.227653
-0.187938
-0.135692
-0.100731
-0.054404
0.003154
0.038206
0.081369
0.101935
0.098492
0.082979
0.068927
0.024598
-0.010315
-0.053673
-0.104904
-0.145019
-0.183043
-0.193799
-0.216763
-0.201067
-0.164944
-0.136573
-0.098841
-0.055724
-0.010113
0.018457
0.055666
0.086974
0.093474
0.090080
0.060764
0.022655
-0.011192
-0.057970
-0.099501
-0.128538
-0.167330
-0.197055
-0.206412
-0.195942
-0.180100
-0.127954
-0.084226
-0.056807
-0.010915
0.023524
0.075054
0.091270
0.095728
0.091749
0.074139
0.049819
0.002026
-0.047703
-0.101612
-0.135952
-0.172368
-0.187485
-0.209701
-0.204031
-0.189144
-0.149002
-0.090949
-0.046108
-0.015722
0.033163
0.076327
0.073913
0.069623
0.073255
0.061493
0.032489
-0.007464
-0.069943
-0.106710
-0.136425
-0.162010
-0.162139
-0.181457
-0.186471
-0.182458
-0.149403
-0.100833
-0.065739
-0.020914
0.028996
0.057911
0.084983
0.105237
0.099422
0.061000
0.057454
0.031241
-0.036838
-0.092130
-0.123486
-0.163221
-0.176666
-0.191809
-0.176965
-0.166167
-0.142298
-0.094035
-0.042669
-0.006878
0.019544
0.053828
0.075871
0.086330
0.085275
0.059301
0.019489
-0.018259
-0.052152
-0.086269
-0.125363
-0.177439
-0.219183
-0.214435
-0.203001
-0.184034
-0.148994
-0.125376
-0.074726
-0.010208
0.023746
0.053876
0.072449
0.082595
0.083089
0.055597
0.018555
-0.012510
-0.053018
-0.095360
-0.129502
-0.165973
-0.186134
-0.204874
-0.202935
-0.188653
-0.158874
-0.123222
-0.078898
-0.019324
0.018663
0.043050
0.057468
0.066249
0.063336
0.041523
0.004595
-0.037856
-0.072783
-0.126123
-0.157955
-0.194580
-0.214833
-0.222718
-0.232059
-0.216835
-0.180160
-0.109908
-0.073506
-0.039119
-0.004584
0.042569
0.061509
0.066121
0.066534
0.041734
0.000442
-0.031004
-0.070167
-0.105998
-0.138986
-0.176576
-0.207280
-0.226459
-0.219085
-0.210386
-0.154458
-0.127529
-0.093593
-0.001512
0.048655
0.060697
0.068888
0.079825
0.080823
0.058842
0.017195
-0.028282
-0.065603
-0.106248
-0.134196
-0.169290
-0.212082
-0.223716
-0.214611
-0.185342
-0.142970
-0.103964
-0.052764
-0.012183
0.016094
0.058744
0.081501
0.101598
0.101695
0.087793
0.040300
0.015966
-0.033482
-0.091717
-0.124898
-0.160850
-0.180688
-0.178770
-0.155334
-0.146153
-0.135941
-0.094249
-0.035593
0.015144
0.044687
0.081035
0.113391
0.112901
0.102673
0.071402
0.028014
-0.013106
-0.046533
-0.086500
-0.132553
-0.161204
-0.175565
-0.191595
-0.179541
-0.154639
-0.107981
-0.058673
-0.014342
0.030823
0.062169
0.090272
0.114884
0.128182
0.112406
0.081400
0.053800
0.030273
-0.015191
-0.077883
-0.116662
-0.149564
-0.165565
-0.169468
-0.173852
-0.155473
-0.120248
-0.102540
-0.072756
-0.003831
0.045285
0.092669
0.105128
0.086692
0.076447
0.057414
0.032161
-0.016782
-0.051418
-0.099296
-0.134378
-0.176665
-0.205713
-0.212347
-0.202512
-0.196263
-0.175578
-0.137794
-0.081112
-0.028141
0.004322
0.046944
0.059375
0.064254
0.056094
0.038610
-0.004736
-0.046501
-0.092509
-0.133724
-0.176267
-0.210552
-0.228075
-0.233042
-0.238300
-0.223697
-0.178571
-0.146860
-0.104881
-0.043560
-0.010150
0.028484
0.054650
0.056003
0.046009
0.021545
-0.000291
-0.043662
-0.099451
-0.146537
-0.171090
-0.205741
-0.223567
-0.242444
-0.243005
-0.232933
-0.187415
-0.149145
-0.120290
-0.059851
-0.018909
0.018620
0.041569
0.048432
0.048659
0.026041
-0.017212
-0.043602
-0.094157
-0.134581
-0.160304
-0.195076
-0.224873
-0.239413
-0.223512
-0.205131
-0.189535
-0.146867
-0.105006
-0.061736
-0.025048
0.021430
0.030361
0.046368
0.047872
0.014310
-0.031785
-0.054776
-0.087344
-0.113623
-0.161911
-0.200056
-0.230604
-0.244362
-0.239075
-0.224327
-0.179319
-0.139285
-0.105314
-0.068986
-0.031914
0.000856
0.031529
0.061625
0.066308
0.059058
0.053590
0.026090
0.001118
-0.022092
-0.037874
-0.058589
-0.079605
-0.077655
-0.040220
0.000076
0.051727
0.109944
0.172553
0.246226
0.326726
0.395059
0.458602
0.493815
0.516715
0.538179
0.532277
0.518808
0.515997
0.526411
0.526882
0.525099
0.549154
0.563916
0.574319
