-0.065165
-0.021754
0.021348
0.072558
0.095158
0.106963
0.102008
0.068712
0.045418
0.002719
-0.050314
-0.097626
-0.133021
-0.172302
-0.201341
-0.201762
-0.195367
-0.178128
-0.151532
-0.120335
-0.068397
-0.004913
0.034689
0.063068
0.086500
0.089911
0.084418
0.077228
0.042763
-0.008981
-0.060794
-0.110598
-0.142315
-0.164999
-0.194945
-0.199131
-0.195862
-0.183790
-0.140759
-0.106422
-0.065786
-0.016145
0.020945
0.057038
0.085999
0.096864
0.084835
0.066667
0.026703
-0.007868
-0.041703
-0.080285
-0.124900
-0.171383
-0.188500
-0.205079
-0.200445
-0.182122
-0.153819
-0.124450
-0.074415
-0.031946
0.012621
0.050536
0.075570
0.093932
0.094484
0.091631
0.067127
0.035150
-0.007346
-0.035699
-0.063765
-0.088736
-0.088903
-0.073368
-0.052543
-0.028140
0.034044
0.085093
0.153714
0.227550
0.300146
0.352116
0.415342
0.453941
0.477196
0.488635
0.482623
0.484631
0.469006
0.450161
0.446132
0.443148
0.465232
0.495626
0.546714
0.591399
0.655099
0.721409
0.780488
0.807284
0.845015
0.862107
0.867549
0.855896
0.822743
0.768068
0.682724
0.574422
0.473727
0.374385
0.274738
0.194845
0.118122
0.063223
0.028505
0.034407
0.038597
0.074569
0.119884
0.171302
0.191115
0.219522
0.227410
0.214803
0.196249
0.179640
0.147153
0.101450
0.053473
0.004920
-0.038257
-0.072711
-0.086455
-0.102320
-0.100090
-0.083109
-0.051267
-0.013388
0.036604
0.070681
0.089897
0.129741
0.155646
0.157148
0.147042
0.133905
0.100968
0.066068
0.020657
-0.025728
-0.075103
-0.118697
-0.146537
-0.146458
-0.140588
-0.127714
-0.087679
-0.048094
-0.007318
0.037516
0.090834
0.127269
0.147962
0.159693
0.150962
0.130730
0.092716
0.046153
0.008298
-0.029008
-0.077300
-0.117076
-0.131911
-0.139559
-0.134322
-0.111430
-0.076904
-0.040920
0.013894
0.050300
0.082991
0.125765
0.148538
0.160731
0.150305
0.125809
0.086846
0.052057
0.021689
-0.027091
-0.059360
-0.103198
-0.119019
-0.122749
-0.111284
-0.096072
-0.061753
-0.023429
0.028379
0.074115
0.121343
0.153715
0.171012
0.173058
0.173505
0.159887
0.129193
0.089432
0.038075
0.000154
-0.042057
-0.077113
-0.095061
-0.110439
-0.100511
-0.078834
-0.038663
-0.001612
0.048839
0.097089
0.148778
0.187968
0.212366
0.209122
0.208274
0.185031
0.145992
0.117850
0.071423
0.022293
-0.021405
-0.057658
-0.076243
-0.073270
-0.074294
-0.048295
-0.008441
0.034456
0.084677
0.125635
0.175135
0.215459
0.225943
0.227958
0.222594
0.215499
0.175435
0.130122
0.093293
0.047598
0.016971
-0.007609
-0.030246
-0.040201
-0.036319
-0.022688
0.009529
0.047402
0.103651
0.151109
0.203460
0.247105
0.271017
0.256981
0.261781
0.230581
0.197903
0.160461
0.102197
0.065103
0.029694
-0.018696
-0.035873
-0.041145
-0.045976
-0.029622
0.005515
0.048037
0.093704
0.154515
0.193280
0.229868
0.254551
0.264442
0.250311
0.232286
0.190944
0.153596
0.098608
0.046905
0.002146
-0.015889
-0.048583
-0.052853
-0.047586
-0.017398
0.019074
0.050816
0.087752
0.137110
0.188549
0.212662
0.238584
0.239610
0.226678
0.200286
0.166450
0.123261
0.076977
0.036246
-0.011099
-0.053353
-0.087213
-0.090152
-0.075830
-0.058560
-0.028460
-0.002272
0.044791
0.095613
0.133642
0.168571
0.191852
0.197937
0.191124
0.164162
0.132993
0.088207
0.040738
-0.006866
-0.046887
-0.079479
-0.104875
-0.111262
-0.109949
-0.095469
-0.064993
-0.039911
0.004856
0.052018
0.100636
0.158505
0.176401
0.170558
0.154449
0.131185
0.094515
0.067525
0.016035
-0.036442
-0.075285
-0.109840
-0.127356
-0.141933
-0.132487
-0.115770
-0.076898
-0.049107
-0.002899
0.048783
0.085834
0.116762
0.142606
0.145687
0.138709
0.111926
0.080209
0.037229
-0.004644
-0.060593
-0.092855
-0.130974
-0.166136
-0.171780
-0.155402
-0.125931
-0.094955
-0.055435
-0.016333
0.035041
0.085532
0.120532
0.144414
0.147370
0.138383
0.111634
0.073113
0.043324
-0.007132
-0.052966
-0.095166
-0.142510
-0.159461
-0.170459
-0.159103
-0.131879
-0.100340
-0.058427
-0.009554
0.023750
0.077923
0.113936
0.129196
0.133671
0.133358
0.121094
0.091726
0.053202
0.008745
-0.034658
-0.070106
-0.111416
-0.154660
-0.149237
-0.136601
-0.117408
-0.084238
-0.047173
-0.001026
0.051292
0.081349
0.126403
0.150875
0.151013
0.151062
0.119706
0.089708
0.048943
0.003103
-0.043340
-0.081321
-0.123497
-0.145451
-0.145934
-0.135465
-0.108327
-0.084129
-0.054179
-0.004620
0.043127
0.087301
0.126945
0.142943
0.150686
0.147489
0.126498
0.091042
0.059259
0.004235
-0.033426
-0.082750
-0.117162
-0.136415
-0.143069
-0.137249
-0.110995
-0.083150
-0.049013
-0.008529
0.038259
0.082051
0.120783
0.146751
0.151263
0.147620
0.130653
0.096474
0.052169
0.004997
-0.039988
-0.084704
-0.127627
-0.144881
-0.151451
-0.143257
-0.115572
-0.078400
-0.039530
0.009206
0.052233
0.081950
0.110180
0.122958
0.140469
0.136221
0.110513
0.081983
0.048368
-0.004295
-0.055009
-0.092648
-0.117299
-0.145881
-0.151871
-0.148591
-0.122363
-0.094535
-0.065417
-0.015474
0.025369
0.077782
0.119881
0.138926
0.144032
0.131595
0.109827
0.081095
0.035633
-0.017517
-0.053824
-0.095051
-0.123650
-0.145476
-0.160108
-0.154675
-0.139498
-0.103407
-0.067941
-0.025144
0.020276
0.066589
0.103435
0.121522
0.134349
0.120017
0.102211
0.062962
0.031775
-0.012662
-0.056452
-0.102728
-0.137883
-0.161744
-0.164749
-0.155686
-0.137294
-0.103342
-0.069903
-0.024609
0.026364
0.065091
0.110321
0.135310
0.126478
0.124154
0.104670
0.061703
0.027930
-0.019351
-0.069848
-0.097987
-0.139625
-0.161796
-0.162826
-0.155977
-0.136146
-0.106646
-0.074120
-0.022033
0.012643
0.064956
0.102341
0.113353
0.127551
0.119843
0.110729
0.074608
0.032690
-0.017849
-0.058158
-0.096732
-0.138262
-0.163156
-0.165812
-0.159525
-0.139218
-0.101143
-0.060817
-0.002762
0.038831
0.076013
0.126833
0.146673
0.160097
0.155281
0.133342
0.104371
0.064704
0.005326
-0.035457
-0.082582
-0.121808
-0.132674
-0.140425
-0.136407
-0.111692
-0.080321
-0.050098
-0.003475
0.053487
0.096428
0.137152
0.155951
0.163095
0.166671
0.139755
0.100416
0.062886
0.009526
-0.031816
-0.073016
-0.102162
-0.123657
-0.129738
-0.121539
-0.094476
-0.056052
-0.020180
0.026424
0.068576
0.106955
0.148488
0.179670
0.195034
0.186036
0.152486
0.114168
0.069458
0.030271
-0.016109
-0.049976
-0.097558
-0.119595
-0.134195
-0.145991
-0.126695
-0.091187
-0.056922
-0.003075
0.048071
0.082268
0.122303
0.136493
0.138346
0.130995
0.118465
0.083810
0.033147
-0.011159
-0.046718
-0.098838
-0.139760
-0.160210
-0.169264
-0.170187
-0.148674
-0.112304
-0.077325
-0.023281
0.019386
0.062894
0.095873
0.100206
0.103598
0.102775
0.072789
0.040321
0.013896
-0.035352
-0.085448
-0.120117
-0.169978
-0.195223
-0.198957
-0.197683
-0.166907
-0.134738
-0.099035
-0.052718
-0.003518
0.036750
0.073256
0.096876
0.108291
0.103737
0.079965
0.047595
0.008071
-0.043476
-0.081279
-0.114149
-0.148557
-0.180881
-0.196329
-0.192455
-0.159377
-0.126110
-0.090706
-0.053433
-0.012157
0.031196
0.078417
0.103313
0.105750
0.096771
0.062532
0.036588
-0.004958
-0.051395
-0.104242
-0.136757
-0.175748
-0.193546
-0.200420
-0.194346
-0.174345
-0.143892
-0.107665
-0.057735
-0.016089
0.032848
0.066051
0.088169
0.099539
0.093392
0.069793
0.035526
-0.010062
-0.055882
-0.103532
-0.143710
-0.192124
-0.213815
-0.230246
-0.214602
-0.193530
-0.165077
-0.136080
-0.066346
-0.002684
0.049441
0.097635
0.146947
0.165071
0.188379
0.178983
0.159672
0.136817
0.099857
0.060176
0.030436
0.012380
0.003752
0.013743
0.048836
0.107380
0.163265
0.232790
0.303110
0.383317
0.450395
0.532662
0.582699
0.603626
0.624020
0.639474
0.646364
0.645422
0.623483
0.591737
0.599800
0.596094
0.578002
0.567848
0.578934
0.594932
0.610272
0.635201
0.675675
0.708458
0.701237
0.670839
0.609089
0.552754
0.495737
0.428875
0.357125
0.271313
0.171099
0.079970
0.015443
-0.047223
-0.090854
-0.111354
-0.114936
-0.099420
-0.046985
-0.017792
0.034496
0.079367
0.126087
0.173323
0.192034
0.200632
0.186601
0.160931
0.118746
0.076547
0.020330
-0.033932
-0.070234
-0.106678
-0.137695
-0.146499
-0.135267
-0.119968
-0.084129
-0.044362
0.003868
0.047302
0.082698
0.120558
0.138981
0.152078
0.133808
0.117697
0.076630
0.038805
-0.009986
-0.054276
-0.096399
-0.122021
-0.155431
-0.167276
-0.158941
-0.134465
-0.103724
-0.056481
-0.007900
0.036368
0.073622
0.103779
0.128173
0.139555
0.148264
0.123259
0.093511
0.053496
0.009007
-0.057959
-0.097592
-0.136971
-0.152794
-0.152478
-0.150224
-0.133052
-0.097649
-0.065818
-0.019974
0.032231
0.076834
0.121618
0.137944
0.141092
0.126421
0.108895
0.070077
0.032530
-0.011544
-0.050108
-0.083876
-0.120848
-0.145465
-0.143193
-0.119842
-0.102838
-0.068296
-0.020281
0.018991
0.063639
0.098768
0.133802
0.160004
0.167781
0.155359
0.140507
0.111823
0.069305
0.024005
-0.021720
-0.060201
-0.094685
-0.113342
-0.122251
-0.109466
-0.088175
-0.045803
-0.000799
0.046132
0.091423
0.136928
0.170642
0.190423
0.195963
0.183673
0.170400
0.150325
0.115030
0.057435
0.005812
-0.029755
-0.063825
-0.079999
-0.091928
-0.082340
-0.060131
-0.028266
0.007043
0.058224
0.109402
0.152737
0.187589
0.212931
0.218432
0.228443
0.202009
0.164862
0.128545
0.081534
0.033231
0.000519
-0.041336
-0.072616
-0.085980
-0.084301
-0.054243
-0.010258
0.030120
0.079571
0.119371
0.164894
0.199828
0.225683
0.233533
0.225109
0.199835
0.162654
0.121681
0.073954
0.037303
-0.003745
-0.042234
-0.070931
-0.075280
-0.070250
-0.048427
-0.017237
0.024085
0.070463
0.115362
0.161980
0.202042
0.229178
0.241204
0.222691
0.194617
0.158711
0.115169
0.068985
0.013377
-0.037549
-0.075581
-0.100114
-0.109388
-0.103253
-0.084839
-0.037575
0.000459
0.057411
0.100950
0.146834
0.184914
0.210004
0.213484
0.192300
0.155924
0.119136
0.082039
0.031496
-0.013422
-0.049375
-0.092794
-0.111801
-0.121297
-0.115018
-0.094377
-0.063379
-0.027845
0.018676
0.066871
0.103058
0.138805
0.148493
0.157492
0.157127
0.131497
0.094634
0.063777
0.017919
-0.036973
-0.081248
-0.132858
-0.152592
-0.162770
-0.160789
-0.140213
-0.098952
-0.051689
-0.014358
0.031666
0.064927
0.107422
0.132207
0.131692
0.127737
0.098467
0.068991
0.028235
-0.027414
-0.065665
-0.105030
-0.136590
-0.162844
-0.177733
-0.156306
-0.144203
-0.110178
-0.079925
-0.040506
-0.003790
0.040847
0.070455
0.083990
0.094671
0.080895
0.072443
0.051847
0.008138
-0.030111
-0.067978
-0.118198
-0.153410
-0.175970
-0.174310
-0.176440
-0.151872
-0.110923
-0.084964
-0.031686
0.016341
0.046514
0.081956
0.109641
0.109486
0.107234
0.085598
0.056080
0.017544
-0.037856
-0.078408
-0.108780
-0.148518
-0.169912
-0.181512
-0.169247
-0.142979
-0.107362
-0.077170
-0.033543
0.019934
0.056368
0.093845
0.108692
0.118905
0.114522
0.094911
0.067857
0.033830
-0.014241
-0.063443
-0.107237
-0.153258
-0.173372
-0.173676
-0.165401
-0.150343
-0.109929
-0.073608
-0.029982
0.013763
0.060669
0.101666
0.116255
0.116854
0.117260
0.094005
0.057805
0.022447
-0.024932
-0.073717
-0.115257
-0.156843
-0.178830
-0.186141
-0.177810
-0.155726
-0.123460
-0.092483
-0.040337
0.000989
0.049271
0.100386
0.118802
0.128086
0.113218
0.098597
0.070247
0.038220
-0.016489
-0.074158
-0.114726
-0.154276
-0.176890
-0.171191
-0.170906
-0.153415
-0.115954
-0.079330
-0.018651
0.026318
0.057294
0.106840
0.125942
0.129433
0.122787
0.090547
0.063891
0.028819
-0.022664
-0.078917
-0.127490
-0.166989
-0.181094
-0.183603
-0.172365
-0.153280
-0.107852
-0.070818
-0.023261
0.017349
0.049687
0.086259
0.104674
0.111776
0.111357
0.090393
0.061058
0.022459
-0.028662
-0.071664
-0.102769
-0.144293
-0.179729
-0.188804
-0.194272
-0.175492
-0.139657
-0.107549
-0.045507
0.001750
0.028188
0.063074
0.096621
0.101976
0.094046
0.073312
0.043435
0.006600
-0.040922
-0.091880
-0.125388
-0.160907
-0.184274
-0.192850
-0.180321
-0.161521
-0.116238
-0.087354
-0.050833
-0.002047
0.029492
0.065235
0.084488
0.096729
0.100286
0.073697
0.037553
-0.005065
-0.047014
-0.094416
-0.133997
-0.176996
-0.198251
-0.203656
-0.188972
-0.171119
-0.124222
-0.084922
-0.041600
0.000831
0.034172
0.074701
0.102823
0.110792
0.103869
0.085278
0.054621
0.019998
-0.030815
-0.066845
-0.106104
-0.139961
-0.151923
-0.156675
-0.159436
-0.128811
-0.094749
-0.061969
-0.012153
0.033678
0.067026
0.096101
0.121410
0.126735
0.116236
0.102544
0.074013
0.036734
-0.017799
-0.062723
-0.109631
-0.146325
-0.167612
-0.174384
-0.167767
-0.139827
-0.107908
-0.064053
-0.018489
0.037221
0.072913
0.103020
0.119330
0.135532
0.129897
0.122234
0.098179
0.069317
0.027460
-0.019543
-0.063679
-0.107603
-0.145033
-0.145049
-0.136625
-0.127508
-0.097122
-0.068310
-0.030744
0.014100
0.051657
0.079343
0.109648
0.104715
0.114771
0.090647
0.039428
0.002970
-0.039557
-0.082131
-0.125608
-0.161490
-0.192587
-0.204763
-0.196089
-0.185661
-0.150576
-0.113479
-0.073372
-0.034227
0.019950
0.056729
0.066986
0.075518
0.072828
0.058142
0.025003
-0.008144
-0.062601
-0.105851
-0.157162
-0.201523
-0.226760
-0.222964
-0.227508
-0.209004
-0.172268
-0.131948
-0.080844
-0.049125
-0.015711
0.029846
0.056586
0.064871
0.062888
0.043558
0.007254
-0.020349
-0.075686
-0.120679
-0.149707
-0.192459
-0.217923
-0.246345
-0.239328
-0.212031
-0.181458
-0.152621
-0.102505
-0.049450
-0.010309
0.036944
0.071713
0.079721
0.069508
0.049353
0.013961
-0.033086
-0.082847
-0.131771
-0.168371
-0.205764
-0.215099
-0.230443
-0.219854
-0.201148
-0.170086
-0.131353
-0.095446
-0.042964
-0.003598
0.041386
0.055973
0.061262
0.051417
0.029268
0.003622
-0.037358
-0.088843
-0.119852
-0.159797
-0.201806
-0.229451
-0.243413
-0.243559
-0.224227
-0.191834
-0.162119
-0.109594
-0.064648
-0.013277
0.024352
0.047075
0.070600
0.083097
0.077937
0.063217
0.036193
0.001602
-0.035721
-0.044097
-0.066446
-0.077873
-0.072882
-0.043637
-0.020430
0.040277
0.100190
0.182614
0.254029
0.315788
0.377189
0.425207
0.455606
0.476899
0.480239
0.480234
0.489229
0.484624
0.477824
0.488130
0.487303
0.467268
0.498019
0.537447
0.583213
0.619100
0.654227
0.684343
0.713566
0.739405
0.762085
0.770873
0.740906
0.668377
0.577828
0.475095
0.375745
0.284732
0.204591
0.121062
0.038216
-0.023599
-0.061987
-0.080951
-0.083751
-0.065621
-0.037197
0.000398
0.036252
0.081399
0.117178
0.141312
0.147794
0.152037
0.126718
0.088586
0.050608
0.021033
-0.030003
-0.085940
-0.135466
-0.160860
-0.169363
-0.160113
-0.149987
-0.113829
-0.082561
-0.033244
0.014196
0.056817
0.091811
0.101838
0.108101
0.098481
0.083340
0.052191
0.021814
-0.033208
-0.080540
-0.125577
-0.158094
-0.185451
-0.193721
-0.193881
-0.172604
-0.145744
-0.105698
-0.062067
-0.008423
0.034200
0.063463
0.094620
0.099337
0.100747
0.075802
0.055160
0.010550
-0.041286
-0.097735
-0.138801
-0.174489
-0.198289
-0.197034
-0.185786
-0.159116
-0.125507
-0.096813
-0.048681
-0.001828
0.037304
0.072911
0.097657
0.112151
0.105527
0.092814
0.055812
0.023309
-0.030953
-0.071383
-0.115274
-0.145411
-0.167501
-0.187211
-0.183354
-0.156645
-0.123071
-0.086358
-0.041586
0.007970
0.053299
0.100136
0.123877
0.135006
0.129260
0.120193
0.081808
0.050457
-0.006603
-0.044984
-0.079428
-0.121353
-0.147435
-0.153890
-0.146719
-0.122863
-0.080001
-0.042879
-0.003677
0.048902
0.083417
0.123666
0.152747
0.156333
0.154766
0.129723
0.100776
0.064710
0.016350
-0.033106
-0.087023
-0.102748
-0.110349
-0.116921
-0.115430
-0.083628
-0.060645
-0.026241
0.014754
0.060998
0.121777
0.156314
0.176866
0.174663
0.182092
0.158664
0.126140
0.092362
0.045000
0.006044
-0.024309
-0.067289
-0.099613
-0.109282
-0.111595
-0.089798
-0.041770
-0.007028
0.033601
0.075953
0.111414
0.166235
0.182789
0.198640
0.193535
0.175878
0.142105
0.101089
0.055309
0.008768
-0.039562
-0.076743
-0.095116
-0.106411
-0.107468
-0.089383
-0.050417
-0.015824
0.035678
0.087684
0.121596
0.161206
0.180663
0.188369
0.181275
0.150758
0.118933
0.085971
0.037004
-0.012837
-0.052231
-0.087311
-0.113286
-0.128734
-0.126421
-0.092707
-0.061142
-0.024515
0.020372
0.072961
0.108485
0.144736
0.162060
0.177261
0.181806
0.156463
0.118193
0.080169
0.024678
-0.025279
-0.064828
-0.102896
-0.131128
-0.136732
-0.145810
-0.128687
-0.101457
-0.064158
-0.015506
0.032943
0.076745
0.112326
0.144886
0.143285
0.147879
0.127444
0.090045
0.045789
0.010557
-0.036695
-0.079435
-0.132520
-0.159149
-0.171190
-0.166403
-0.143726
-0.103280
-0.075054
-0.039560
0.007793
0.048846
0.084942
0.109989
0.124862
0.121911
0.110225
0.064248
0.015595
-0.034916
-0.076141
-0.112896
-0.155564
-0.174981
-0.177547
-0.175751
-0.165367
-0.141846
-0.097204
-0.047103
0.008677
0.047269
0.086102
0.109476
0.123710
0.111318
0.086578
0.050442
0.013600
-0.039364
-0.093154
-0.133742
-0.163086
-0.177004
-0.190115
-0.187516
-0.157765
-0.125813
-0.089504
-0.047371
-0.004300
0.039836
0.079394
0.096535
0.110594
0.115413
0.098235
0.052785
0.024049
-0.022348
-0.062799
-0.107981
-0.154881
-0.178639
-0.195316
-0.186765
-0.157518
-0.125424
-0.083087
-0.036158
0.012233
0.053201
0.089603
0.113629
0.117851
0.110449
0.092170
0.064846
0.022612
-0.030041
-0.075021
-0.103824
-0.140530
-0.166290
-0.173836
-0.171881
-0.149443
-0.122370
-0.076385
-0.027019
0.021460
0.052811
0.090907
0.125973
0.131408
0.124674
0.100972
0.072237
0.029176
-0.010494
-0.062225
-0.109471
-0.151178
-0.173553
-0.186108
-0.185390
-0.158062
-0.113281
-0.077385
-0.031200
0.013661
0.041776
0.092818
0.115971
0.120355
0.128997
0.100222
0.063073
0.027724
-0.018010
-0.061096
-0.107239
-0.134744
-0.159756
-0.175249
-0.175447
-0.153727
-0.114880
-0.077253
-0.026537
0.023093
0.066976
0.098613
0.109294
0.122313
0.123703
0.109362
0.078582
0.034272
-0.019772
-0.072411
-0.109406
-0.152786
-0.165923
-0.179269
-0.175239
-0.150236
-0.114646
-0.077346
-0.038797
0.011142
0.059452
0.090685
0.106169
0.115835
0.125151
0.102267
0.076036
0.026541
-0.028218
-0.071175
-0.115371
-0.152079
-0.174164
-0.193284
-0.190704
-0.168531
-0.134292
-0.097836
-0.035174
0.006980
0.043940
0.082043
0.110236
0.121590
0.110492
0.092887
0.063476
0.014601
-0.037086
-0.086464
-0.119413
-0.158814
-0.193955
-0.194397
-0.190042
-0.166806
-0.136435
-0.102828
-0.050352
-0.002500
0.031628
0.076479
0.102867
0.122785
0.116561
0.087082
0.056540
0.025481
-0.025217
-0.082967
-0.125282
-0.165524
-0.173494
-0.182020
-0.185311
-0.163526
-0.125093
-0.083396
-0.032612
0.015046
0.058990
0.101355
0.125913
0.123707
0.121714
0.112597
0.088311
0.047480
-0.003396
-0.054527
-0.093147
-0.130897
-0.154893
-0.160941
-0.154877
-0.134947
-0.105364
-0.064931
-0.015837
0.030985
0.077751
0.118951
0.138584
0.148604
0.141684
0.119713
0.076806
0.042413
-0.002493
-0.052391
-0.092766
-0.122814
-0.149857
-0.146431
-0.135651
-0.128238
-0.092350
-0.046942
0.015592
0.054192
0.093132
0.134720
0.160255
0.170332
0.168535
0.152119
0.106249
0.065678
0.022438
-0.041378
-0.099089
-0.138248
-0.149939
-0.168161
-0.159526
-0.137007
-0.108762
-0.080348
-0.045253
0.009602
0.045621
0.084032
0.106486
0.116862
0.113253
0.092922
0.055906
0.015947
-0.030934
-0.082179
-0.122747
-0.170922
-0.196272
-0.199123
-0.200251
-0.182002
-0.142884
-0.112417
-0.069528
-0.018734
0.020214
0.059432
0.086966
0.102214
0.091576
0.059616
0.031012
-0.011805
-0.066289
-0.119508
-0.151381
-0.202162
-0.225859
-0.230877
-0.228602
-0.214115
-0.174827
-0.131091
-0.073507
-0.033883
0.005290
0.042594
0.065285
0.074379
0.079016
0.052870
0.017816
-0.026791
-0.076045
-0.109228
-0.155801
-0.192346
-0.216644
-0.226913
-0.222048
-0.210926
-0.184445
-0.144230
-0.091939
-0.044492
-0.003744
0.033270
0.058500
0.076996
0.076452
0.064357
0.036410
-0.003611
-0.067290
-0.118447
-0.154360
-0.193943
-0.220356
-0.233098
-0.222944
-0.203671
-0.176885
-0.137424
-0.090501
-0.043117
0.005332
0.038012
0.061502
0.072372
0.075246
0.059432
0.024263
-0.022798
-0.074135
-0.134576
-0.175946
-0.213751
-0.229081
-0.235287
-0.227833
-0.194786
-0.146831
-0.097627
-0.039202
0.014487
0.078970
0.147448
0.177609
0.208558
0.230819
0.220563
0.194836
0.167110
0.140740
0.107709
0.096498
0.084871
0.096646
0.119543
0.162253
0.217445
0.274934
0.359996
0.433171
0.498227
0.579741
0.647467
0.703550
0.750545
0.795077
0.798155
0.796397
0.781494
0.751973
0.713232
0.677377
0.638761
0.592712
0.548348
0.524006
0.532443
0.547194
0.546485
0.531812
0.486191
0.457560
0.431989
0.402680
0.359503
0.317899
0.252246
0.199661
0.151292
0.092492
0.040445
0.008523
-0.038456
-0.068783
-0.086250
-0.085028
-0.063782
-0.040689
0.008150
0.050816
0.083358
0.125859
0.153371
0.170112
0.169677
0.152985
0.139011
0.099574
0.061601
0.006756
-0.034816
-0.078146
-0.133895
-0.155615
-0.170131
-0.163663
-0.153681
-0.121071
-0.072282
-0.020973
0.028231
0.072881
0.111759
0.134660
0.146034
0.147868
0.118219
0.086092
0.039247
-0.013648
-0.068779
-0.110427
-0.152356
-0.165024
-0.169057
-0.167588
-0.146527
-0.107259
-0.066952
-0.029921
0.019640
0.060220
0.102355
0.116367
0.127532
0.120529
0.102119
0.074352
0.030965
-0.023108
-0.056940
-0.106781
-0.140301
-0.162393
-0.166970
-0.158874
-0.131852
-0.106149
-0.068249
-0.011632
0.038053
0.079768
0.117207
0.138571
0.152796
0.141525
0.124053
0.095710
0.050958
-0.001907
-0.048915
-0.096225
-0.127204
-0.142561
-0.146649
-0.141620
-0.125915
-0.082519
-0.033941
0.023863
0.070634
0.102285
0.138555
0.158900
0.161692
0.162883
0.147751
0.112081
0.068324
0.027744
-0.023967
-0.063624
-0.099626
-0.113308
-0.124297
-0.113050
-0.085656
-0.062152
-0.021909
0.022403
0.070920
0.114513
0.159776
0.178586
0.191404
0.197335
0.187665
0.153715
0.125927
0.062647
0.009052
-0.035495
-0.070261
-0.088941
-0.089349
-0.084179
-0.061350
-0.026825
0.000127
0.045535
0.096906
0.145294
0.188627
0.210288
0.211674
0.206248
0.186548
0.159540
0.124769
0.079389
0.032179
-0.019983
-0.051929
-0.072862
-0.079632
-0.068782
-0.042366
-0.007468
0.032339
0.069400
0.125274
0.168522
0.202838
0.210104
0.220678
0.223579
0.198833
0.164325
0.113260
0.066116
0.016402
-0.018005
-0.063832
-0.087926
-0.089498
-0.081302
-0.055789
-0.015815
0.010036
0.059927
0.105353
0.143729
0.182162
0.207156
0.208060
0.197006
0.182190
0.145274
0.106760
0.055173
0.007629
-0.022199
-0.071296
-0.088621
-0.101429
-0.093383
-0.080064
-0.048601
-0.007864
0.039607
0.074276
0.113071
0.147081
0.166762
0.188824
0.178833
0.158761
0.125846
0.078653
0.030461
-0.016501
-0.059616
-0.112626
-0.134151
-0.141096
-0.139128
-0.126737
-0.094230
-0.056826
-0.001141
0.056885
0.106497
0.135096
0.151495
0.153040
0.135539
0.120052
0.094916
0.061056
-0.006239
-0.048991
-0.094971
-0.137245
-0.154968
-0.166057
-0.150672
-0.128011
-0.099846
-0.065332
-0.017040
0.026121
0.074639
0.111399
0.126946
0.127757
0.117183
0.089400
0.057046
0.031107
-0.010813
-0.056020
-0.088653
-0.128118
-0.168672
-0.177579
-0.173853
-0.152138
-0.119194
-0.076750
-0.036994
0.004093
0.052990
0.090558
0.126291
0.130472
0.128755
0.099897
0.061411
0.029049
-0.008225
-0.056393
-0.102060
-0.154355
-0.172839
-0.183618
-0.177475
-0.147035
-0.120094
-0.080200
-0.032344
0.019412
0.056542
0.094459
0.114912
0.122841
0.117846
0.099734
0.068370
0.032092
-0.006739
-0.056380
-0.110139
-0.156038
-0.170930
-0.183342
-0.168405
-0.146978
-0.118325
-0.074487
-0.020871
0.020753
0.060617
0.106736
0.130037
0.130369
0.126002
0.097097
0.067793
0.032215
-0.014542
-0.061974
-0.085480
-0.131220
-0.150323
-0.153858
-0.146376
-0.131622
-0.103749
-0.071553
-0.021741
0.021893
0.073965
0.113720
0.132809
0.137801
0.134193
0.106884
0.068014
0.044940
-0.004923
-0.058324
-0.099029
-0.137874
-0.153632
-0.162992
-0.158540
-0.132102
-0.109025
-0.060131
-0.015812
0.041619
0.076033
0.114499
0.139186
0.135482
0.131048
0.104693
0.076217
0.039572
-0.016387
-0.057028
-0.102266
-0.141943
-0.160288
-0.166332
-0.151884
-0.136281
-0.100986
-0.065971
-0.026099
0.018776
0.065308
0.118711
0.132018
0.132932
0.133319
0.118821
0.089316
0.035389
-0.018970
-0.064611
-0.110889
-0.140456
-0.165301
-0.174449
-0.171642
-0.146210
-0.114341
-0.075527
-0.032800
0.019026
0.064808
0.099794
0.120790
0.124008
0.128480
0.105497
0.068378
0.029340
-0.009351
-0.053910
-0.088358
-0.125157
-0.151597
-0.175393
-0.174573
-0.154653
-0.116112
-0.083833
-0.049817
0.005940
0.045176
0.081363
0.109193
0.112985
0.110050
0.101890
0.065754
0.034616
-0.007389
-0.056667
-0.105225
-0.157921
-0.177581
-0.184550
-0.177556
-0.152497
-0.122785
-0.083971
-0.045718
0.007114
0.043891
0.082404
0.107678
0.118015
0.122906
0.097203
0.068029
0.025355
-0.023194
-0.057767
-0.101318
-0.143992
-0.173147
-0.189864
-0.179983
-0.152090
-0.115480
-0.072861
-0.029205
0.020109
0.055582
0.090241
0.119280
0.128192
0.121149
0.113297
0.081038
0.049604
0.014882
-0.034400
-0.066648
-0.109279
-0.130932
-0.136887
-0.139413
-0.120425
-0.091321
-0.048844
0.000725
0.045517
0.085047
0.123518
0.159537
0.161555
0.147922
0.130701
0.094306
0.058440
0.007379
-0.042959
-0.087896
-0.120641
-0.146012
-0.155350
-0.150259
-0.123566
-0.092712
-0.055101
0.003633
0.060078
0.100962
0.137951
0.166934
0.185857
0.164775
0.145972
0.107457
0.077836
0.020488
-0.020757
-0.060391
-0.095760
-0.129397
-0.133902
-0.139415
-0.125742
-0.087833
-0.050477
0.004328
0.047639
0.083948
0.112105
0.134031
0.140854
0.136161
0.104884
0.083599
0.043185
-0.007716
-0.071259
-0.109946
-0.153576
-0.170864
-0.177325
-0.170004
-0.155744
-0.113790
-0.082078
-0.032092
0.005741
0.049918
0.072010
0.091830
0.106121
0.091766
0.068207
0.036328
-0.004920
-0.046838
-0.096944
-0.141042
-0.175308
-0.195705
-0.213741
-0.209201
-0.194123
-0.153158
-0.107738
-0.070452
-0.015156
0.030132
0.067593
0.089988
0.106082
0.100067
0.063628
0.022909
-0.011938
-0.063035
-0.107430
-0.152410
-0.205788
-0.216603
-0.221626
-0.205916
-0.173132
-0.136254
-0.112123
-0.062108
-0.019907
0.026875
0.074891
0.094388
0.088325
0.089089
0.052814
0.018527
-0.012238
-0.059326
-0.107535
-0.147700
-0.188911
-0.215283
-0.218349
-0.217084
-0.191433
-0.155724
-0.104309
-0.058210
-0.006467
0.020268
0.064772
0.081260
0.089294
0.084535
0.072236
0.039632
-0.006648
-0.058674
-0.104185
-0.150879
-0.196299
-0.208487
-0.222549
-0.223602
-0.201884
-0.172623
-0.132496
-0.083454
-0.036845
0.009856
0.050161
0.082631
0.088047
0.089891
0.082628
0.061559
0.033221
0.005012
-0.031162
-0.054016
-0.094033
-0.088916
-0.087917
-0.071845
-0.030397
0.031238
0.090316
0.157846
0.229267
0.314417
0.391703
0.444819
0.474963
0.504075
0.520358
0.525300
0.527087
0.514270
0.480538
0.471287
0.482088
0.518006
0.543092
0.562949
0.627584
0.700000
0.746411
0.791238
0.829777
0.871447
0.897309
0.886862
0.873703
0.839088
0.779458
0.699575
0.589222
0.472188
0.357847
0.256390
0.156163
0.076142
0.031594
0.011129
0.021012
0.048724
0.077326
0.118081
0.165464
0.189662
0.223650
0.232621
0.231235
0.226296
0.191922
0.156372
0.108971
0.053926
-0.001425
-0.039441
-0.077291
-0.104432
-0.115920
-0.129417
-0.106150
-0.076925
-0.037534
0.001585
0.046035
0.092112
0.131061
0.145871
0.150663
0.144444
0.125352
0.091238
0.060267
0.007147
-0.047073
-0.093664
-0.138514
-0.161457
-0.169929
-0.158822
-0.140219
-0.108756
-0.070366
-0.017321
0.039567
0.082002
0.117088
0.135449
0.140609
0.138510
0.110698
0.078717
0.045691
0.004332
-0.052654
-0.095459
-0.132690
-0.153368
-0.167257
-0.160082
-0.144543
-0.096288
-0.059632
-0.014876
0.040267
0.083582
0.116640
0.148853
0.159332
0.150300
0.133324
0.105032
0.055367
0.006377
-0.034865
-0.078956
-0.125340
-0.143504
-0.157037
-0.141783
-0.128332
-0.092619
-0.047063
0.004259
0.051135
0.098079
0.145266
0.158240
0.162964
0.156447
0.143568
0.104237
0.070673
0.019776
-0.034732
-0.063371
-0.092143
-0.113488
-0.127417
-0.119000
-0.093381
-0.058698
-0.029231
0.019002
0.072881
0.118124
0.171755
0.194201
0.192559
0.197863
0.170309
0.130557
0.087639
0.053675
0.004271
-0.034792
-0.082732
-0.095322
-0.101065
-0.093757
-0.077343
-0.040809
0.002281
0.067257
0.113335
0.147285
0.183272
0.209122
0.223474
0.229052
0.195005
0.166377
0.127917
0.084379
0.032495
-0.012405
-0.061414
-0.072513
-0.072765
-0.060172
-0.029266
0.007100
0.035534
0.083581
0.130773
0.176727
0.204228
0.226584
0.237530
0.225895
0.199296
0.169557
0.130526
0.077166
0.028406
0.000427
-0.041471
-0.064724
-0.070119
-0.068762
-0.047700
-0.014884
0.022198
0.073789
0.125756
0.177594
0.205555
0.227415
0.237453
0.231101
0.197047
0.166597
0.117047
0.073114
0.027260
-0.018383
-0.049292
-0.071956
-0.089643
-0.071474
-0.055486
-0.027581
0.008933
0.060261
0.105599
0.151927
0.189119
0.204616
0.212703
0.198194
0.163166
0.126059
0.092202
0.048603
-0.007046
-0.046818
-0.086956
-0.113418
-0.121318
-0.111335
-0.095195
-0.062820
-0.023576
0.026452
0.077618
0.125042
0.154549
0.170999
0.180562
0.168993
0.144953
0.108030
0.071758
0.022034
-0.030697
-0.079874
-0.124316
-0.144667
-0.155610
-0.151699
-0.130111
-0.092480
-0.055641
-0.024146
0.024769
0.069898
0.116205
0.134864
0.142651
0.128397
0.105829
0.073560
0.043102
-0.016123
-0.066417
-0.112403
-0.144683
-0.167573
-0.177132
-0.170693
-0.145087
-0.103515
-0.063278
-0.018664
0.022225
0.064285
0.102973
0.118561
0.127772
0.118169
0.097154
0.057697
0.025024
-0.025965
-0.067836
-0.106465
-0.157743
-0.176628
-0.189480
-0.184706
-0.157580
-0.116977
-0.080932
-0.031133
0.012645
0.058366
0.098204
0.123532
0.130125
0.125017
0.104078
0.068991
0.022058
-0.021482
-0.073354
-0.114202
-0.154721
-0.173993
-0.185571
-0.182250
-0.156327
-0.119736
-0.075335
-0.032665
0.021034
0.071271
0.100736
0.117525
0.120325
0.115324
0.102418
0.070968
0.025818
-0.031294
-0.074196
-0.101842
-0.134298
-0.153320
-0.171094
-0.164488
-0.141392
-0.107842
-0.068268
-0.024591
0.017119
0.066776
0.103528
0.122631
0.137116
0.130671
0.108351
0.065441
0.031502
-0.015239
-0.059701
-0.094823
-0.135989
-0.162162
-0.161353
-0.153848
-0.129469
-0.091620
-0.059439
-0.021289
0.030175
0.072965
0.108547
0.135380
0.140893
0.132042
0.109376
0.080659
0.042730
-0.008775
-0.053071
-0.096863
-0.139299
-0.160398
-0.172060
-0.163669
-0.143650
-0.107107
-0.074678
-0.019210
0.026776
0.063912
0.105937
0.125213
0.134604
0.132471
0.110122
0.076194
0.032240
-0.021374
-0.064039
-0.111948
-0.152610
-0.161411
-0.172579
-0.170865
-0.140253
-0.117382
-0.077653
-0.022190
0.025744
0.062996
0.099532
0.113980
0.127840
0.125651
0.098440
0.065792
0.026531
-0.017058
-0.068328
-0.110385
-0.153498
-0.172035
-0.188374
-0.181350
-0.169745
-0.127853
-0.090816
-0.031845
0.012814
0.057316
0.090413
0.121688
0.130360
0.123174
0.103989
0.067250
0.025536
-0.025072
-0.064591
-0.107058
-0.154807
-0.184556
-0.198487
-0.186972
-0.164339
-0.121100
-0.078231
-0.030958
0.016179
0.054658
0.094152
0.112453
0.118185
0.114885
0.093368
0.054178
0.018156
-0.032279
-0.085376
-0.119157
-0.161664
-0.183301
-0.192221
-0.172400
-0.155828
-0.124780
-0.084744
-0.043170
-0.001760
0.030721
0.072829
0.096166
0.104511
0.102221
0.081689
0.043685
0.010786
-0.039562
-0.091525
-0.131361
-0.167240
-0.190014
-0.192169
-0.186656
-0.169192
-0.135308
-0.095390
-0.039130
0.018135
0.061444
0.104976
0.118686
0.117962
0.111519
0.095292
0.058509
0.023861
-0.021896
-0.060291
-0.113378
-0.148507
-0.176780
-0.176896
-0.167235
-0.134152
-0.092343
-0.060934
-0.013823
0.047128
0.077331
0.106309
0.120893
0.138014
0.132234
0.114493
0.086311
0.050985
0.006082
-0.053516
-0.079718
-0.115052
-0.140131
-0.162570
-0.151451
-0.127724
-0.091087
-0.068492
-0.022524
0.029425
0.081826
0.134068
0.161508
0.166479
0.157242
0.134061
0.102629
0.062393
0.005485
-0.032721
-0.068407
-0.098663
-0.119929
-0.126669
-0.121541
-0.110680
-0.088701
-0.053158
-0.017956
0.021217
0.061521
0.088402
0.115887
0.119768
0.116573
0.092585
0.061365
0.020189
-0.027751
-0.076455
-0.110338
-0.153068
-0.174027
-0.179068
-0.181408
-0.171595
-0.136147
-0.089571
-0.036993
0.004384
0.041853
0.077980
0.093075
0.107728
0.094624
0.065369
0.026764
-0.022077
-0.057094
-0.110761
-0.147441
-0.193058
-0.204293
-0.217843
-0.204262
-0.184122
-0.148739
-0.112223
-0.067447
-0.027976
0.007155
0.043353
0.067295
0.079957
0.068113
0.050856
0.014662
-0.030481
-0.067564
-0.110028
-0.151533
-0.195017
-0.210353
-0.219469
-0.218298
-0.200942
-0.169588
-0.123212
-0.079191
-0.039908
0.007445
0.050564
0.077337
0.077861
0.067194
0.045122
0.013880
-0.017591
-0.070026
-0.114892
-0.149890
-0.194309
-0.216434
-0.221336
-0.212759
-0.197500
-0.165084
-0.131518
-0.083830
-0.038235
0.005695
0.052273
0.075502
0.087973
0.065621
0.043357
0.008310
-0.025658
-0.069011
-0.121681
-0.167845
-0.195536
-0.219829
-0.221115
-0.216501
-0.202084
-0.174314
-0.144192
-0.097850
-0.050315
-0.009963
0.026727
0.043847
0.055365
0.052752
0.050817
0.017970
-0.013693
-0.050671
-0.085999
-0.112885
-0.139742
-0.143671
-0.139131
-0.122967
-0.088499
-0.040249
0.013082
0.092997
0.148873
0.204790
0.267408
0.307082
0.341199
0.368177
0.382531
0.385666
0.387829
0.372259
0.354496
0.364632
0.362608
0.363434
0.374539
0.428641
0.499940
0.568401
0.625972
0.706841
0.784701
0.844666
0.884849
0.896609
0.911525
0.888403
0.837801
0.783457
0.733749
0.645513
0.536372
0.427560
0.327933
0.240035
0.172319
0.125776
0.094352
0.092574
0.103378
0.136483
0.164071
0.194053
0.222856
0.239056
0.240812
0.224096
0.190898
0.144661
0.092896
0.036401
-0.014157
-0.047249
-0.090856
-0.122531
-0.132971
-0.127519
-0.109887
-0.079061
-0.040101
0.005223
0.050912
0.089908
0.133271
0.141668
0.153898
0.147409
0.115972
0.080996
0.034437
-0.012593
-0.055666
-0.101108
-0.147434
-0.164434
-0.169880
-0.162863
-0.130719
-0.106451
-0.073530
-0.027748
0.016329
0.056560
0.090415
0.109010
0.115358
0.119291
0.094410
0.060564
0.024894
-0.025745
-0.071637
-0.107659
-0.140018
-0.160199
-0.170228
-0.163550
-0.151314
-0.111582
-0.073341
-0.031189
0.018943
0.060316
0.089015
0.111577
0.120973
0.117179
0.095672
0.067820
0.027399
-0.010003
-0.053160
-0.093836
-0.136358
-0.153019
-0.164584
-0.165502
-0.130046
-0.096844
-0.053724
-0.008294
0.035090
0.079962
0.119913
0.142628
0.144620
0.140646
0.122755
0.090771
0.059803
0.011568
-0.033061
-0.061360
-0.104865
-0.139720
-0.154632
-0.145645
-0.113906
-0.087633
-0.039510
0.001912
0.060439
0.106938
0.132654
0.162740
0.172645
0.168873
0.159164
0.120163
0.071991
0.037337
-0.010360
-0.042985
-0.075372
-0.106680
-0.114727
-0.102337
-0.080647
-0.047900
-0.007555
0.034409
0.078521
0.126327
0.161525
0.180696
0.197333
0.204019
0.186211
0.148136
0.114680
0.060201
0.008384
-0.032931
-0.062271
-0.079020
-0.095549
-0.090108
-0.063647
-0.026006
0.012022
0.065126
0.115257
0.159881
0.192722
0.214862
0.217566
0.217419
0.199174
0.165260
0.129515
0.085686
0.037004
-0.004675
-0.048420
-0.068575
-0.073616
-0.076957
-0.052200
-0.018615
0.026301
0.077468
0.122972
0.164761
0.204482
0.213491
0.214296
0.215615
0.200517
0.166261
0.122014
0.064089
0.017058
-0.017682
-0.051626
-0.070948
-0.080724
-0.078603
-0.070904
-0.044259
-0.005294
0.038684
0.078770
0.125034
0.166230
0.187758
0.189974
0.184094
0.174949
0.145365
0.107808
0.050610
-0.000197
-0.047496
-0.089160
-0.110538
-0.123144
-0.112678
-0.090650
-0.053066
-0.026283
0.015965
0.071665
0.102846
0.146067
0.170971
0.174813
0.161636
0.138280
0.103450
0.062064
0.011865
-0.041573
-0.086278
-0.125339
-0.151644
-0.164383
-0.162852
-0.140294
-0.108201
-0.075126
-0.015424
0.038421
0.080389
0.111172
0.135815
0.148126
0.135569
0.110094
0.073964
0.030595
-0.009383
-0.072466
-0.118280
-0.152494
-0.181924
-0.185321
-0.175353
-0.152534
-0.133545
-0.086713
-0.043191
0.013586
0.051651
0.074244
0.099340
0.113853
0.115628
0.088556
0.058691
0.015774
-0.028764
-0.086084
-0.125830
-0.163959
-0.194458
-0.198001
-0.191272
-0.171116
-0.134995
-0.093569
-0.045453
-0.008332
0.037880
0.083109
0.106922
0.119001
0.115054
0.099093
0.062582
0.020673
-0.030076
-0.079027
-0.127075
-0.161228
-0.183069
-0.205577
-0.196901
-0.167294
-0.132602
-0.090382
-0.036658
0.005834
0.045369
0.085170
0.109809
0.129847
0.123903
0.097547
0.062806
0.019083
-0.024285
-0.080802
-0.122169
-0.154574
-0.177043
-0.182191
-0.191118
-0.162018
-0.120420
-0.084217
-0.034224
0.009181
0.046806
0.090667
0.116827
0.124147
0.119094
0.088982
0.059629
0.008886
-0.028691
-0.079355
-0.119588
-0.152971
-0.179187
-0.191097
-0.191088
-0.163766
-0.123439
-0.079425
-0.025889
0.022127
0.069968
0.105884
0.123849
0.127202
0.116194
0.092417
0.073082
0.034069
-0.018518
-0.072687
-0.113056
-0.152473
-0.171636
-0.179546
-0.174915
-0.156483
-0.121838
-0.078070
-0.038123
0.012997
0.042382
0.082622
0.109965
0.126763
0.128252
0.101973
0.063273
0.025838
-0.024151
-0.069241
-0.106632
-0.150184
-0.180293
-0.194341
-0.178303
-0.163067
-0.127206
-0.094647
-0.046766
-0.003526
0.048621
0.085471
0.112304
0.120269
0.111642
0.086399
0.051229
0.008169
-0.042428
-0.084320
-0.119132
-0.156304
-0.189140
-0.196071
-0.188381
-0.164016
-0.125342
-0.088059
-0.043212
0.000959
0.048594
0.079112
0.104999
0.119639
0.110602
0.088927
0.049141
-0.002719
-0.045834
-0.092447
-0.136509
-0.175896
-0.202726
-0.208152
-0.198170
-0.176908
-0.141777
-0.093994
-0.045447
0.002722
0.045814
0.070153
0.098466
0.108900
0.096944
0.077903
0.045927
0.000727
-0.044568
-0.093914
-0.140536
-0.179947
-0.208142
-0.218393
-0.206922
-0.177932
-0.146366
-0.096783
-0.045369
0.004401
0.047730
0.080531
0.101446
0.102708
0.091117
0.070946
0.036894
0.001259
-0.052416
-0.106208
-0.156425
-0.186836
-0.216916
-0.227878
-0.218648
-0.194050
-0.147933
-0.100576
-0.053677
-0.004089
0.037029
0.074114
0.100599
0.098651
0.089108
0.058740
0.024517
-0.004958
-0.050237
-0.106896
-0.150795
-0.185716
-0.202373
-0.213275
-0.212532
-0.189542
-0.161183
-0.117071
-0.074254
-0.024873
0.019691
0.065517
0.085989
0.096676
0.091764
0.065591
0.039507
-0.000431
-0.038371
-0.079214
-0.124800
-0.167369
-0.186684
-0.204267
-0.197729
-0.174118
-0.133662
-0.096865
-0.038925
0.019105
0.055475
0.082695
0.110598
0.118396
0.114114
0.091491
0.057666
0.021679
-0.017007
-0.064660
-0.106333
-0.144368
-0.174929
-0.184451
-0.172770
-0.142132
-0.111695
-0.073475
-0.025513
0.027919
0.068711
0.097359
0.111935
0.121147
0.112125
0.098407
0.062967
0.027444
-0.026283
-0.073092
-0.105948
-0.135120
-0.150277
-0.157474
-0.156970
-0.126919
-0.071847
-0.039752
0.007901
0.050585
0.089693
0.113957
0.135260
0.132289
0.115327
0.088122
0.059823
0.019003
-0.032783
-0.080268
-0.128553
-0.171515
-0.192080
-0.203221
-0.194468
-0.181809
-0.143725
-0.105678
-0.056522
-0.009461
0.026825
0.068501
0.095343
0.100727
0.092859
0.067739
0.030198
-0.011418
-0.062940
-0.117255
-0.167263
-0.211342
-0.231220
-0.230197
-0.208817
-0.185553
-0.161893
-0.115776
-0.067469
-0.023687
0.018039
0.049116
0.065229
0.069004
0.063337
0.034286
0.008352
-0.040317
-0.088184
-0.138779
-0.178358
-0.205762
-0.231944
-0.238022
-0.222030
-0.201437
-0.177303
-0.149341
-0.101965
-0.051497
-0.007044
0.028143
0.052210
0.064983
0.061451
0.042649
0.011175
-0.029384
-0.080039
-0.135210
-0.183272
-0.211190
-0.229165
-0.232357
-0.232080
-0.213221
-0.180365
-0.139705
-0.101060
-0.046635
-0.015600
0.022501
0.037631
0.053608
0.054864
0.033000
-0.002405
-0.031161
-0.080178
-0.126697
-0.164510
-0.204939
-0.225156
-0.232751
-0.220395
-0.210076
-0.176808
-0.137209
-0.087411
-0.038149
-0.002694
0.033036
0.044140
0.042643
0.042885
0.021400
-0.014030
-0.061591
-0.098853
-0.136003
-0.165854
-0.221316
-0.229545
-0.239634
-0.223302
-0.195012
-0.157428
-0.103901
-0.047934
0.026133
0.085385
0.127125
0.168349
0.191378
0.190244
0.184267
0.174881
0.158226
0.128408
0.107904
0.103423
0.093854
0.106612
0.133319
0.175794
0.229361
0.297561
0.372752
0.441169
0.515227
0.602543
0.677292
0.747172
0.795989
0.815744
0.823945
0.818168
0.802308
0.747588
0.704018
0.662226
0.588390
0.541506
0.523052
0.509240
0.494803
0.476554
0.433432
0.404292
0.384700
0.375476
0.353397
0.325367
0.302805
0.263134
0.232660
0.180801
0.143041
0.097263
0.033646
-0.008621
-0.053624
-0.092512
-0.103116
-0.097456
-0.086648
-0.055807
-0.023207
0.010903
0.055404
0.090122
0.114523
0.144179
0.149377
0.141958
0.116431
0.083793
0.041942
-0.002848
-0.055508
-0.095258
-0.128491
-0.152630
-0.174842
-0.172949
-0.147762
-0.115814
-0.085167
-0.039591
0.008454
0.043593
0.081873
0.100451
0.118912
0.111943
0.087691
0.059158
0.018294
-0.025270
-0.067938
-0.114420
-0.151791
-0.182957
-0.195738
-0.183441
-0.166305
-0.138350
-0.099423
-0.049069
0.000225
0.042983
0.080326
0.098034
0.113036
0.103621
0.087614
0.050076
0.019008
-0.034253
-0.077240
-0.119224
-0.154004
-0.179325
-0.193711
-0.181784
-0.154706
-0.132341
-0.090094
-0.046128
0.007274
0.058897
0.109309
0.130342
0.143810
0.127985
0.094561
0.068874
0.035751
-0.011120
-0.054989
-0.102426
-0.138431
-0.161115
-0.170265
-0.166894
-0.138348
-0.094740
-0.056379
-0.016285
0.029385
0.089894
0.125627
0.147630
0.154845
0.141618
0.126326
0.101700
0.055666
0.010791
-0.028617
-0.066751
-0.112294
-0.136982
-0.141399
-0.131334
-0.107610
-0.080851
-0.034002
0.002400
0.050935
0.107596
0.146939
0.169454
0.181241
0.184067
0.156815
0.123827
0.093026
0.042017
-0.005866
-0.045491
-0.084070
-0.097576
-0.101679
-0.096465
-0.070400
-0.031639
0.008101
0.045952
0.092921
0.136291
0.171398
0.188581
0.196839
0.195119
0.168225
0.137213
0.095834
0.054993
0.006992
-0.021373
-0.066469
-0.084774
-0.099175
-0.089760
-0.072338
-0.032124
0.004806
0.045520
0.086873
0.139532
0.172119
0.197568
0.208913
0.206070
0.190942
0.156979
0.107292
0.059815
0.020147
-0.024064
-0.063284
-0.086716
-0.104369
-0.097130
-0.072588
-0.038314
0.000844
0.037308
0.085755
0.126314
0.167174
0.180764
0.189406
0.175515
0.153731
0.124857
0.090090
0.043004
0.006369
-0.039687
-0.082362
-0.100831
-0.113084
-0.127388
-0.103976
-0.062539
-0.027625
0.020255
0.064903
0.103002
0.141371
0.154806
0.159062
0.152263
0.131228
0.098412
0.058820
0.013496
-0.042742
-0.092732
-0.121225
-0.146908
-0.159048
-0.152610
-0.132862
-0.099020
-0.060626
-0.014065
0.024030
0.065644
0.098158
0.122834
0.131088
0.124831
0.106726
0.066043
0.026084
-0.014717
-0.067663
-0.112948
-0.152966
-0.182956
-0.190857
-0.187752
-0.166027
-0.137605
-0.092914
-0.044222
-0.000946
0.049986
0.083654
0.107382
0.109633
0.097167
0.072337
0.045460
0.002825
-0.040725
-0.087009
-0.135737
-0.175427
-0.191931
-0.208086
-0.205318
-0.175384
-0.152306
-0.111058
-0.057726
-0.020553
0.023245
0.067479
0.086904
0.100177
0.092627
0.073793
0.035436
-0.000700
-0.046728
-0.098992
-0.146831
-0.180606
-0.210102
-0.217291
-0.209731
-0.178710
-0.148553
-0.107484
-0.051223
-0.012967
0.029652
0.070087
0.093911
0.106142
0.097438
0.075641
0.051946
0.008485
-0.042102
-0.092920
-0.127579
-0.176984
-0.202638
-0.210360
-0.200131
-0.174892
-0.146646
-0.096202
-0.047701
-0.002395
0.040653
0.072682
0.090522
0.101693
0.099673
0.087584
0.053251
0.025723
-0.040885
-0.081461
-0.129173
-0.169156
-0.198097
-0.206831
-0.202925
-0.171348
-0.142870
-0.100382
-0.054943
0.003755
0.045502
0.084693
0.118739
0.120727
0.119245
0.086618
0.049844
0.012282
-0.037135
-0.083266
-0.121555
-0.156092
-0.182098
-0.193331
-0.181461
-0.156216
-0.135712
-0.095141
-0.042971
0.010465
0.041658
0.078058
0.100224
0.109292
0.104908
0.079487
0.044703
-0.000877
-0.044798
-0.081951
-0.125673
-0.155119
-0.186691
-0.194656
-0.197681
-0.167215
-0.133542
-0.095223
-0.054685
-0.003753
0.034285
0.073841
0.091493
0.106203
0.095623
0.071776
0.038647
0.001259
-0.046069
-0.094050
-0.140160
-0.177502
-0.198685
-0.205827
-0.201880
-0.174216
-0.141038
-0.098801
-0.052812
-0.007059
0.033179
0.060733
0.080712
0.096611
0.091405
0.065655
0.035142
-0.008292
-0.050686
-0.092909
-0.142316
-0.176961
-0.182109
-0.197663
-0.196634
-0.178557
-0.140778
-0.105572
-0.064993
-0.012466
0.023296
0.055730
0.077166
0.087773
0.075681
0.050358
0.010403
-0.027993
-0.072308
-0.124941
-0.158273
-0.181898
-0.198172
-0.207949
-0.193306
-0.182453
-0.147578
-0.109573
-0.077059
-0.032646
0.018505
0.064784
0.077270
0.083731
0.077250
0.052783
0.020479
-0.020337
-0.074539
-0.114380
-0.157000
-0.184100
-0.207360
-0.218639
-0.216254
-0.194492
-0.161600
-0.121264
-0.076006
-0.024731
0.014368
0.040248
0.072729
0.079236
0.076971
0.054719
0.023678
-0.017080
-0.070786
-0.120156
-0.157198
-0.199932
-0.212605
-0.214958
-0.220922
-0.201526
-0.170101
-0.125081
-0.088844
-0.030382
0.009840
0.055154
0.068416
0.078509
0.065627
0.048301
0.007268
-0.028549
-0.076034
-0.114033
-0.150254
-0.193583
-0.213090
-0.225678
-0.210799
-0.192596
-0.163723
-0.121135
-0.084986
-0.040919
0.002790
0.042244
0.066306
0.071109
0.066827
0.043343
0.001798
-0.037195
-0.078363
-0.127400
-0.168441
-0.188820
-0.207585
-0.224678
-0.211261
-0.188519
-0.159867
-0.118598
-0.073520
-0.024128
0.019666
0.053474
0.073216
0.075360
0.076438
0.056737
0.033958
-0.007421
-0.051600
-0.099637
-0.145155
-0.177077
-0.187741
-0.200451
-0.191324
-0.172608
-0.145221
-0.101806
-0.053490
0.008189
0.066311
0.096992
0.118290
0.119923
0.102541
0.080004
0.045922
0.009972
-0.029441
-0.083382
-0.125759
-0.165012
-0.193867
-0.200693
-0.192384
-0.173136
-0.135077
-0.095118
-0.040784
0.011155
0.051446
0.092856
0.122162
0.125748
0.121813
0.102360
0.070340
0.033259
-0.001568
-0.046721
-0.092952
-0.141668
-0.168228
-0.183488
-0.173757
-0.158435
-0.128589
-0.091636
-0.054423
-0.019475
0.025072
0.057681
0.077790
0.094384
0.082471
0.050208
0.021530
-0.012700
-0.056546
-0.105508
-0.143328
-0.177212
-0.212835
-0.219494
-0.213850
-0.192158
-0.161467
-0.128419
-0.076300
-0.036090
0.005661
0.047392
0.066940
0.068820
0.058787
0.039888
0.012438
-0.025178
-0.081214
-0.128217
-0.179021
-0.221314
-0.237301
-0.252093
-0.248096
-0.233896
-0.201303
-0.161233
-0.113132
-0.068777
-0.022270
0.012602
0.035444
0.048436
0.055116
0.033559
-0.000663
-0.044170
-0.097655
-0.139271
-0.183237
-0.227440
-0.256676
-0.271547
-0.256033
-0.230099
-0.194459
-0.159311
-0.120170
-0.061847
-0.017072
0.017354
0.042006
0.046331
0.037625
0.021544
-0.012622
-0.055521
-0.098706
-0.139680
-0.188034
-0.217667
-0.247213
-0.254495
-0.245425
-0.233307
-0.203930
-0.155595
-0.117504
-0.071886
-0.025753
0.019568
0.040003
0.040875
0.048220
0.025047
0.000240
-0.044683
-0.099631
-0.147993
-0.183422
-0.219938
-0.245471
-0.260485
-0.264849
-0.242527
-0.212624
-0.176432
-0.125686
-0.076651
-0.022682
0.011020
0.021535
0.038770
0.042559
0.030250
0.014380
-0.020421
-0.052264
-0.101464
-0.129330
-0.141999
-0.151873
-0.137933
-0.119830
-0.102194
-0.055857
0.008183
0.082998
0.163240
0.231028
0.296731
0.354214
0.395794
0.415871
0.440303
0.423029
0.428139
0.417917
0.401882
0.387247
0.384034
0.405662
0.441655
0.485954
0.527772
0.588136
0.654938
0.719161
0.772443
0.819808
0.854743
0.845464
0.823504
0.789607
0.758253
0.690349
0.588712
0.464143
0.347809
0.244475
0.148871
0.081178
0.020175
-0.012390
-0.020865
-0.001594
0.031709
0.074703
0.118731
0.147090
0.170866
0.189078
0.180357
0.169485
0.147051
0.102756
0.068510
0.030245
-0.016283
-0.081928
-0.125667
-0.144452
-0.158625
-0.154547
-0.142177
-0.110849
-0.069191
-0.038336
0.003687
0.044776
0.066668
0.093668
0.112638
0.116935
0.096468
0.059564
0.018198
-0.030652
-0.092695
-0.135084
-0.167897
-0.202787
-0.213096
-0.206601
-0.186332
-0.149324
-0.117437
-0.070729
-0.015950
0.031989
0.068494
0.080956
0.102616
0.089273
0.075570
0.047474
0.006459
-0.033958
-0.088174
-0.129334
-0.165899
-0.188464
-0.198232
-0.193047
-0.172531
-0.148238
-0.110631
-0.060034
-0.013964
0.028603
0.069743
0.095223
0.103626
0.096340
0.079343
0.049681
0.019648
-0.029885
-0.079249
-0.116356
-0.155620
-0.177082
-0.181094
-0.178258
-0.164372
-0.126357
-0.083340
-0.040058
0.009814
0.051945
0.082123
0.106944
0.116638
0.116637
0.107084
0.075289
0.044417
0.004830
-0.052328
-0.101737
-0.135522
-0.150128
-0.157877
-0.160312
-0.144859
-0.107569
-0.062504
-0.021597
0.025041
0.079322
0.117770
0.138960
0.147219
0.137438
0.120279
0.094913
0.062001
0.019409
-0.029530
-0.070265
-0.107971
-0.126923
-0.140243
-0.134909
-0.110268
-0.084329
-0.031440
0.014511
0.065659
0.108979
0.147878
0.167587
0.179052
0.165351
0.153819
0.130722
0.092514
0.043737
-0.007020
-0.042381
-0.091790
-0.102883
-0.121352
-0.111181
-0.098827
-0.062202
-0.017263
0.029273
0.082714
0.142432
0.173310
0.189455
0.205616
0.190851
0.169450
0.138795
0.093601
0.054994
0.008007
-0.035049
-0.077384
-0.108784
-0.119335
-0.110772
-0.086425
-0.058550
-0.011169
0.027333
0.083454
0.137454
0.166700
0.191623
0.198748
0.181619
0.167479
0.138772
0.092504
0.052057
-0.005832
-0.044421
-0.079990
-0.103979
-0.120747
-0.114439
-0.088215
-0.065592
-0.022309
0.019803
0.064107
0.115988
0.153867
0.175625
0.177661
0.169721
0.144802
0.118559
0.071524
0.029661
-0.025686
-0.071877
-0.110487
-0.135420
-0.148382
-0.143254
-0.128371
-0.097682
-0.059230
-0.018425
0.031173
0.059847
0.089896
0.119837
0.131080
0.129299
0.119411
0.093906
0.053402
0.003700
-0.034863
-0.092489
-0.135291
-0.162423
-0.175689
-0.168845
-0.150116
-0.123109
-0.087155
-0.040794
0.016877
0.050221
0.079023
0.092036
0.113073
0.113535
0.088808
0.052820
0.007503
-0.032605
-0.087220
-0.130315
-0.166821
-0.191264
-0.204431
-0.204025
-0.184590
-0.148167
-0.116129
-0.064569
-0.017464
0.027697
0.065972
0.087191
0.091985
0.097434
0.073206
0.037438
-0.012502
-0.055440
-0.093593
-0.140044
-0.175844
-0.205281
-0.213302
-0.200493
-0.179566
-0.148423
-0.111210
-0.065539
-0.014879
0.030835
0.068135
0.088813
0.102368
0.092740
0.073511
0.039491
-0.003850
-0.049910
-0.093944
-0.138039
-0.180674
-0.197514
-0.202782
-0.200067
-0.179870
-0.148507
-0.104101
-0.052497
-0.008159
0.038540
0.065819
0.088877
0.105905
0.093726
0.071304
0.042485
-0.007973
-0.048881
-0.092154
-0.134697
-0.173968
-0.194435
-0.203049
-0.192197
-0.176872
-0.136489
-0.087109
-0.042584
0.003497
0.051829
0.087664
0.104797
0.119343
0.106715
0.087446
0.054595
0.006083
-0.038644
-0.085145
-0.127467
-0.154710
-0.180244
-0.190133
-0.193489
-0.171701
-0.136061
-0.095166
-0.042004
0.009772
0.055024
0.082940
0.114367
0.119972
0.110984
0.086138
0.056391
0.007301
-0.033328
-0.086310
-0.130727
-0.174799
-0.186235
-0.198146
-0.190623
-0.162941
-0.125777
-0.097170
-0.054015
-0.013633
0.044207
0.091299
0.119885
0.128434
0.123796
0.094044
0.061593
0.009713
-0.043220
-0.094332
-0.130295
-0.170834
-0.179336
-0.195627
-0.182961
-0.167308
-0.128270
-0.096499
-0.048001
-0.005166
0.049493
0.080570
0.108039
0.125811
0.113037
0.096606
0.042105
0.000265
-0.046973
-0.092068
-0.132639
-0.168145
-0.192637
-0.203675
-0.198066
-0.171608
-0.143022
-0.103422
-0.054106
-0.010661
0.034210
0.074903
0.091744
0.095589
0.092998
0.071538
0.040253
0.005631
-0.041795
-0.088042
-0.138649
-0.173269
-0.193481
-0.210458
-0.208674
-0.182552
-0.147821
-0.109967
-0.064776
-0.019688
0.031975
0.068585
0.099696
0.101492
0.089732
0.062689
0.035480
-0.015126
-0.063602
-0.104506
-0.150899
-0.191133
-0.208694
-0.214559
-0.210705
-0.184221
-0.150160
-0.106154
-0.059300
-0.008915
0.026256
0.053825
0.088639
0.101255
0.082864
0.061647
0.032658
0.001725
-0.052159
-0.106952
-0.148745
-0.185330
-0.203501
-0.212283
-0.204797
-0.185566
-0.152180
-0.106774
-0.064758
-0.017010
0.030068
0.053353
0.078717
0.096075
0.092382
0.066577
0.037448
-0.008118
-0.052076
-0.116260
-0.155435
-0.191395
-0.198850
-0.208501
-0.206267
-0.179943
-0.154258
-0.113818
-0.070397
-0.024194
0.026478
0.064460
0.073681
0.081719
0.077917
0.059508
0.029892
-0.016924
-0.062894
-0.107961
-0.144625
-0.195200
-0.217855
-0.224053
-0.211017
-0.189065
-0.159315
-0.110119
-0.064630
-0.012941
0.023182
0.070101
0.097952
0.104586
0.087010
0.067946
0.041389
-0.002592
-0.046356
-0.087338
-0.125771
-0.156849
-0.192418
-0.211703
-0.203367
-0.184892
-0.143599
-0.096083
-0.037393
0.012528
0.052654
0.093583
0.126014
0.139679
0.140454
0.105925
0.074339
0.030764
-0.015654
-0.074940
-0.119184
-0.154844
-0.178901
-0.180972
-0.167117
-0.149397
-0.115528
-0.072373
-0.028592
0.019918
0.065933
0.107032
0.129273
0.144097
0.138558
0.112224
0.079362
0.054700
0.006075
-0.040327
-0.091877
-0.125891
-0.137980
-0.138092
-0.139210
-0.119696
-0.098756
-0.066312
-0.028189
0.019682
0.066116
0.094140
0.119800
0.114413
0.107551
0.090062
0.060832
0.010131
-0.036718
-0.094839
-0.130134
-0.162609
-0.189081
-0.211000
-0.205376
-0.177377
-0.146930
-0.103938
-0.060250
-0.003016
0.033754
0.064996
0.085696
0.097701
0.097241
0.069055
0.026641
-0.023369
-0.063710
-0.107086
-0.156462
-0.191642
-0.204137
-0.212474
-0.212196
-0.192870
-0.164800
-0.129684
-0.079166
-0.040368
0.007090
0.035875
0.063881
0.072862
0.061077
0.035904
0.001928
-0.042921
-0.090711
-0.143344
-0.191719
-0.222996
-0.237918
-0.233882
-0.226488
-0.205509
-0.171569
-0.127581
-0.077838
-0.026697
0.017621
0.052513
0.061590
0.073612
0.061772
0.036052
0.004911
-0.030805
-0.079233
-0.131132
-0.180235
-0.209704
-0.232477
-0.239318
-0.214649
-0.194829
-0.156909
-0.117006
-0.074623
-0.029524
0.012311
0.037737
0.058098
0.065750
0.064680
0.039376
0.010159
-0.037668
-0.082865
-0.124108
-0.158310
-0.194948
-0.216245
-0.236206
-0.234961
-0.206614
-0.175293
-0.126909
-0.080744
-0.036743
0.007354
0.037043
0.050073
0.056546
0.059010
0.027851
0.005180
-0.047874
-0.078193
-0.121330
-0.152251
-0.175985
-0.184298
-0.180940
-0.156928
-0.118689
-0.082334
-0.032997
0.034375
0.099211
0.145737
0.192456
0.254377
0.279830
0.291849
0.296943
0.292696
0.277670
0.274305
0.259817
0.253015
0.252513
0.264883
0.280953
0.324678
0.385812
0.451316
0.540749
0.613391
0.706206
0.774838
0.840214
0.884920
0.906856
0.897919
0.872153
0.835451
0.765989
0.698285
0.626313
0.563532
0.492792
0.410448
0.323947
0.259072
0.219895
0.203177
0.189481
0.186656
0.197998
0.217421
0.240018
0.253847
0.257223
0.240659
0.208167
0.166257
0.117271
0.069964
0.019062
-0.028445
-0.074497
-0.090789
-0.112216
-0.109394
-0.088533
-0.059626
-0.034322
0.005226
0.039423
0.089084
0.127506
0.148240
0.153769
0.146700
0.133466
0.091239
0.048970
-0.005766
-0.044447
-0.094338
-0.126309
-0.150589
-0.161468
-0.166307
-0.146879
-0.109880
-0.069084
-0.029991
0.016563
0.067210
0.094424
0.116968
0.128286
0.111862
0.103094
0.076421
0.028858
-0.009242
-0.051711
-0.106881
-0.137252
-0.164219
-0.173063
-0.159810
-0.144957
-0.118289
-0.076928
-0.037135
0.015438
0.054865
0.093683
0.118677
0.125717
0.128927
0.106653
0.082423
0.033867
-0.015762
-0.060492
-0.098637
-0.132909
-0.147308
-0.158506
-0.147956
-0.131284
-0.095391
-0.055435
-0.011703
0.033018
0.081936
0.115345
0.126794
0.145925
0.143108
0.126947
0.100822
0.059164
0.018246
-0.027372
-0.068840
-0.105726
-0.134307
-0.140424
-0.129962
-0.103425
-0.065264
-0.022539
0.011324
0.053308
0.101211
0.134235
0.156202
0.170884
0.159107
0.144872
0.116464
0.076669
0.026963
-0.026138
-0.060040
-0.091650
-0.106146
-0.111288
-0.104881
-0.077807
-0.043833
-0.004878
0.032640
0.071942
0.123118
0.157222
0.189884
0.209093
0.201253
0.181186
0.155617
0.109290
0.067586
0.023299
-0.026524
-0.054734
-0.080811
-0.086277
-0.069714
-0.042004
-0.022572
0.014657
0.063323
0.106470
0.165450
0.191581
0.209636
0.227234
0.214426
0.201125
0.169825
0.127863
0.085642
0.033786
-0.011660
-0.053217
-0.077135
-0.087177
-0.075826
-0.051662
-0.017465
0.015630
0.057463
0.108659
0.148162
0.186586
0.217095
0.242787
0.217577
0.187705
0.154050
0.116716
0.078962
0.038638
-0.009019
-0.050716
-0.076111
-0.095825
-0.080000
-0.061053
-0.028258
0.001704
0.042622
0.101051
0.143497
0.177753
0.200173
0.204708
0.193629
0.173589
0.141523
0.093673
0.056116
-0.003281
-0.049244
-0.088571
-0.112928
-0.120453
-0.108360
-0.075235
-0.046738
-0.006708
0.026708
0.073429
0.115629
0.157661
0.167003
0.172116
0.164934
0.137699
0.113459
0.062746
0.026731
-0.027696
-0.069680
-0.116340
-0.137948
-0.146456
-0.136979
-0.115208
-0.088155
-0.038568
0.003249
0.057097
0.092612
0.126700
0.146493
0.147998
0.142634
0.121241
0.092145
0.038558
-0.006325
-0.056687
-0.092567
-0.125365
-0.160421
-0.178460
-0.180248
-0.157251
-0.128233
-0.074726
-0.035655
0.011019
0.059184
0.096799
0.130720
0.135519
0.120720
0.088857
0.063653
0.009069
-0.032213
-0.072368
-0.119439
-0.155085
-0.179820
-0.187683
-0.172314
-0.154361
-0.130087
-0.083920
-0.041248
0.019000
0.067169
0.097446
0.121268
0.124233
0.118303
0.088269
0.054983
0.021899
-0.027805
-0.069996
-0.115990
-0.152292
-0.171492
-0.180039
-0.173410
-0.157260
-0.125707
-0.085247
-0.044585
0.008755
0.049097
0.090267
0.113611
0.130396
0.127432
0.110237
0.075085
0.031971
-0.008263
-0.063835
-0.113553
-0.141600
-0.175388
-0.187359
-0.179906
-0.146032
-0.107489
-0.070850
-0.037446
0.021308
0.068488
0.100459
0.116378
0.121635
0.120181
0.096694
0.073193
0.036817
-0.009436
-0.058803
-0.110551
-0.142226
-0.171052
-0.188015
-0.176463
-0.148775
-0.110531
-0.069723
-0.022241
0.022881
0.080409
0.110147
0.131513
0.144034
0.129873
0.110716
0.081874
0.033830
-0.009562
-0.056352
-0.086799
-0.129931
-0.148126
-0.162264
-0.162939
-0.140255
-0.109028
-0.071515
-0.028263
0.027835
0.069394
0.109446
0.120662
0.132040
0.122130
0.099677
0.069927
0.034268
-0.005488
-0.046783
-0.094370
-0.136947
-0.169717
-0.173977
-0.160857
-0.142477
-0.113501
-0.065821
-0.024719
0.026087
0.069216
0.098037
0.115558
0.130988
0.123745
0.106548
0.072870
0.035597
-0.002943
-0.053543
-0.102527
-0.142392
-0.168987
-0.177696
-0.165992
-0.152118
-0.124332
-0.086018
-0.043192
0.002437
0.046288
0.088641
0.107867
0.122228
0.109838
0.100024
0.059374
0.019009
-0.033258
-0.077078
-0.118453
-0.161240
-0.184487
-0.189228
-0.179179
-0.161396
-0.126768
-0.086904
-0.038544
0.001687
0.051621
0.081580
0.112775
0.126904
0.123239
0.089305
0.066690
0.028265
-0.013927
-0.071498
-0.129783
-0.169047
-0.185672
-0.197756
-0.185619
-0.168480
-0.133107
-0.095920
-0.041001
0.013486
0.051910
0.082343
0.112319
0.118292
0.107723
0.088552
0.052808
0.007528
-0.037739
-0.088963
-0.133296
-0.164945
-0.186893
-0.199367
-0.181662
-0.162276
-0.129706
-0.095652
-0.050274
-0.002652
0.044729
0.084227
0.107512
0.116992
0.105951
0.083045
0.052171
0.004876
-0.029568
-0.078480
-0.130271
-0.163590
-0.182769
-0.204334
-0.192893
-0.172828
-0.137019
-0.095593
-0.053251
-0.004252
0.029696
0.067927
0.103783
0.112340
0.097233
0.080010
0.048179
0.004013
-0.043828
-0.089981
-0.138108
-0.180679
-0.198048
-0.205041
-0.191741
-0.167512
-0.127655
-0.089557
-0.039704
0.014412
0.051205
0.079554
0.097878
0.115079
0.108397
0.092508
0.065336
0.012640
-0.044124
-0.093628
-0.136897
-0.167428
-0.192071
-0.195825
-0.189181
-0.162629
-0.127442
-0.091205
-0.046816
0.006884
0.065837
0.106045
0.118154
0.125497
0.123018
0.098924
0.077404
0.038466
-0.003816
-0.055999
-0.104771
-0.131482
-0.147408
-0.159954
-0.148779
-0.128126
-0.094856
-0.055802
-0.014694
0.024058
0.076112
0.115316
0.133082
0.141451
0.130740
0.113404
0.069715
0.027576
-0.017556
-0.066286
-0.091409
-0.125548
-0.151363
-0.155388
-0.149296
-0.115189
-0.072969
-0.024572
0.018440
0.054145
0.092815
0.137173
0.154546
0.168002
0.163580
0.149515
0.104215
0.062481
0.017049
-0.040847
-0.084523
-0.118958
-0.157056
-0.165890
-0.158140
-0.140468
-0.116840
-0.074719
-0.028801
0.032477
0.071637
0.097419
0.121265
0.120909
0.118625
0.099515
0.061242
0.014791
-0.022153
-0.072269
-0.130445
-0.175936
-0.195737
-0.202973
-0.186223
-0.161794
-0.124635
-0.086384
-0.041314
0.007427
0.042305
0.078848
0.097959
0.105081
0.090002
0.069754
0.034287
-0.000191
-0.043684
-0.092284
-0.150822
-0.185488
-0.206616
-0.224559
-0.211996
-0.192590
-0.168179
-0.129934
-0.078616
-0.022540
0.017940
0.052822
0.075978
0.088690
0.084091
0.066383
0.034585
-0.013955
-0.055673
-0.101172
-0.146518
-0.184935
-0.210912
-0.216069
-0.212021
-0.191733
-0.158705
-0.112669
-0.070220
-0.022652
0.009659
0.047038
0.078963
0.088486
0.083001
0.054958
0.020188
-0.010600
-0.054778
-0.094263
-0.143090
-0.184661
-0.206376
-0.213484
-0.206449
-0.190764
-0.159888
-0.117133
-0.070147
-0.018889
0.019788
0.049554
0.078855
0.089609
0.076859
0.059604
0.029540
-0.025111
-0.068285
-0.106921
-0.152416
-0.189832
-0.220030
-0.229263
-0.221075
-0.201051
-0.164714
-0.121940
-0.080237
-0.021764
0.042235
0.083402
0.121844
0.140552
0.147078
0.140002
0.116630
0.096161
0.063073
0.016063
-0.021996
-0.035898
-0.034781
-0.027933
0.002143
0.058943
0.125909
0.207112
0.281163
0.356607
0.422498
0.481183
0.534519
0.579382
0.592775
0.600817
0.607555
0.597322
0.588347
0.571922
0.567785
0.561441
0.562813
0.563688
0.563576
0.582749
0.605220
0.627111
0.656027
0.676383
0.692712
0.677282
0.636873
0.565848
0.489623
0.420117
0.345494
0.265874
0.186173
0.097074
0.025755
-0.031924
-0.066111
-0.080550
-0.075741
-0.048833
-0.026744
0.005279
0.041845
0.079881
0.124436
0.162449
0.179069
0.179283
0.176717
0.145765
0.116225
0.068274
0.023767
-0.025515
-0.075276
-0.107242
-0.124297
-0.139180
-0.142956
-0.116457
-0.099465
-0.060914
-0.013438
0.032720
0.074509
0.103915
0.137481
0.135336
0.129193
0.115390
0.082724
0.028389
-0.017728
-0.067545
-0.102213
-0.144878
-0.156986
-0.175130
-0.165620
-0.143027
-0.095416
-0.052616
-0.020398
0.022157
0.069558
0.103966
0.124597
0.130960
0.120989
0.100648
0.070581
0.033403
-0.013849
-0.061400
-0.102617
-0.129925
-0.165114
-0.169739
-0.162714
-0.141169
-0.103563
-0.060583
-0.005465
0.042840
0.083951
0.110231
0.130564
0.138416
0.130880
0.122087
0.083945
0.056304
0.020277
-0.022991
-0.071036
-0.112183
-0.137612
-0.152059
-0.143704
-0.123390
-0.092141
-0.045158
0.001806
0.048635
0.092195
0.121887
0.146752
0.156367
0.153544
0.143319
0.115300
0.077269
0.036185
-0.013629
-0.059238
-0.092623
-0.111267
-0.110270
-0.103028
-0.085936
-0.050880
-0.012058
0.031252
0.078877
0.119024
0.153646
0.187553
0.196228
0.188307
0.168719
0.141943
0.095491
0.055643
0.012019
-0.023864
-0.069127
-0.092590
-0.098111
-0.087703
-0.059487
-0.035262
0.003386
0.048749
0.111454
0.158373
0.193610
0.220079
0.233201
0.218004
0.196060
0.174792
0.124057
0.082626
0.035328
-0.011357
-0.032953
-0.061974
-0.077249
-0.076567
-0.048995
-0.015531
0.029642
0.068482
0.108760
0.159048
0.208246
0.233867
0.243065
0.236822
0.211470
0.174981
0.127873
0.091039
0.048105
0.004741
-0.020854
-0.051320
-0.060445
-0.050409
-0.038056
-0.003173
0.038102
0.068056
0.124375
0.168343
0.205117
0.234319
0.235461
0.219630
0.198194
0.161205
0.126882
0.081890
0.035214
-0.006438
-0.041715
-0.076747
-0.091770
-0.087468
-0.068721
-0.027602
0.007364
0.049860
0.087139
0.138576
0.174740
0.201846
0.207688
0.190764
0.170145
0.139423
0.098783
0.057458
-0.002125
-0.048197
-0.081806
-0.109739
-0.117944
-0.103350
-0.089614
-0.062609
-0.022058
0.013918
0.064595
0.103097
0.138689
0.150136
0.167442
0.157994
0.140695
0.113742
0.063267
0.013449
-0.035277
-0.074978
-0.115148
-0.146999
-0.154975
-0.151018
-0.127884
-0.090215
-0.055997
-0.004503
0.037039
0.079416
0.120855
0.143159
0.144429
0.130543
0.102874
0.076686
0.030101
-0.003411
-0.054093
-0.099438
-0.133090
-0.164505
-0.183988
-0.171124
-0.150892
-0.116276
-0.071128
-0.030803
0.017942
0.061864
0.094935
0.117000
0.127513
0.123928
0.108107
0.065718
0.020565
-0.011704
-0.063796
-0.103749
-0.145842
-0.170533
-0.188359
-0.176877
-0.156610
-0.121648
-0.079198
-0.041283
0.014716
0.061272
0.096979
0.111678
0.121526
0.127196
0.106746
0.070269
0.018315
-0.021135
-0.066328
-0.112366
-0.147064
-0.170897
-0.173299
-0.161691
-0.148376
-0.123090
-0.078520
-0.032266
0.013833
0.069812
0.100494
0.131098
0.132537
0.121689
0.099393
0.067502
0.022629
-0.005122
-0.066599
-0.107483
-0.148845
-0.171690
-0.186260
-0.175513
-0.154678
-0.116664
-0.056534
-0.000843
0.045685
0.074361
0.099873
0.126463
0.138497
0.134466
0.111212
0.077495
0.039062
-0.019062
-0.067398
-0.104315
-0.132571
-0.163085
-0.166167
-0.158397
-0.148065
-0.116671
-0.079173
-0.029918
0.027165
0.064271
0.104815
0.125259
0.137280
0.124410
0.118510
0.086082
0.037769
0.000733
-0.054647
-0.106425
-0.137930
-0.163168
-0.181470
-0.170320
-0.150481
-0.122349
-0.082063
-0.028830
0.017356
0.064525
0.096754
0.123027
0.133807
0.126907
0.103563
0.068310
0.023106
-0.019828
-0.067937
-0.109940
-0.155453
-0.161987
-0.181861
-0.176185
-0.146372
-0.105784
-0.062452
-0.021585
0.020789
0.064806
0.098083
0.116225
0.126200
0.120052
0.102497
0.072367
0.030938
-0.014762
-0.076719
-0.108193
-0.149396
-0.182507
-0.184820
-0.181908
-0.166831
-0.136771
-0.086879
-0.044928
-0.003831
0.042905
0.072574
0.096716
0.115969
0.107684
0.085202
0.062255
0.015560
-0.027335
-0.073532
-0.124378
-0.166869
-0.183761
-0.191964
-0.184981
-0.172085
-0.148591
-0.090771
-0.045786
0.001965
0.051835
0.077653
0.096545
0.110394
0.113359
0.086525
0.055602
0.012323
-0.026481
-0.076680
-0.134490
-0.172566
-0.198039
-0.201543
-0.193352
-0.172231
-0.136206
-0.092537
-0.039741
0.011974
0.038254
0.077030
0.099703
0.108140
0.092971
0.078486
0.050681
-0.001256
-0.043028
-0.094645
-0.135463
-0.164423
-0.185425
-0.196676
-0.186164
-0.160753
-0.136842
-0.085588
-0.051368
0.002954
0.047534
0.073311
0.103263
0.117614
0.123697
0.105309
0.074001
0.022321
-0.021213
-0.070728
-0.114897
-0.144793
-0.166995
-0.178008
-0.167619
-0.146157
-0.106930
-0.066796
-0.016162
0.026832
0.075062
0.112667
0.130653
0.143573
0.134165
0.125910
0.090201
0.042711
-0.003755
-0.059705
-0.102561
-0.141329
-0.155541
-0.158969
-0.158357
-0.134686
-0.102902
-0.062485
-0.012985
0.045723
0.094639
0.128205
0.155490
0.158617
0.149189
0.128189
0.100418
0.057971
0.013776
-0.033061
-0.080432
-0.122215
-0.151257
-0.163113
-0.151495
-0.143461
-0.109303
-0.060849
-0.011317
0.026401
0.059992
0.086649
0.119302
0.119853
0.103299
0.077381
0.046738
0.003098
-0.039423
-0.096609
-0.127258
-0.160690
-0.192094
-0.197434
-0.190689
-0.174006
-0.146915
-0.101075
-0.062790
-0.015785
0.036872
0.059720
0.080760
0.093058
0.095563
0.072397
0.036854
-0.018702
-0.069158
-0.120085
-0.161517
-0.195487
-0.222564
-0.225282
-0.217254
-0.198887
-0.161547
-0.127522
-0.079952
-0.042839
0.004275
0.046573
0.071332
0.084176
0.075954
0.048780
0.016455
-0.028318
-0.065071
-0.119522
-0.158170
-0.184867
-0.207779
-0.217594
-0.206110
-0.198666
-0.180799
-0.135525
-0.095219
-0.047374
0.006777
0.040977
0.057924
0.059778
0.058301
0.041413
0.009138
-0.027856
-0.066658
-0.111504
-0.150713
-0.181658
-0.209604
-0.226545
-0.220455
-0.204546
-0.171083
-0.124212
-0.085197
-0.033579
0.008266
0.042713
0.063663
0.066263
0.055068
0.042629
0.012749
-0.027112
-0.077972
-0.116400
-0.151038
-0.199750
-0.216783
-0.236632
-0.229018
-0.210759
-0.175860
-0.127909
-0.088501
-0.038289
0.013712
0.055215
0.078465
0.100458
0.101669
0.097694
0.087266
0.068311
0.039833
0.009342
-0.017733
-0.049906
-0.066401
-0.066831
-0.038852
0.009036
0.068928
0.147521
0.214107
0.292319
0.362078
0.427109
0.481486
0.519183
0.546756
0.540817
0.534384
0.518980
0.515426
0.490571
0.483653
0.471873
0.479275
0.507398
0.543045
0.579664
0.621172
0.660924
0.677320
0.709472
0.728930
0.756971
0.749004
0.702292
0.608275
0.529185
0.435996
0.335222
0.250118
0.169448
0.090595
0.009322
-0.025907
-0.061796
-0.082635
-0.075770
-0.055738
-0.023751
0.012954
0.057673
0.096046
0.127860
0.159191
0.166907
0.153818
0.134020
0.096747
0.056812
0.017547
-0.046011
-0.085891
-0.111909
-0.135625
-0.144143
-0.138841
-0.122040
-0.097599
-0.053460
-0.031383
0.029554
0.071025
0.108797
0.125799
0.121090
0.106562
0.092161
0.064598
0.018304
-0.022475
-0.069237
-0.115554
-0.146982
-0.171713
-0.183211
-0.171354
-0.146690
-0.117224
-0.079729
-0.032600
0.002136
0.046449
0.085968
0.106882
0.117488
0.107470
0.088691
0.054188
0.022627
-0.011783
-0.066091
-0.108241
-0.141130
-0.163663
-0.177659
-0.174014
-0.150566
-0.125452
-0.080854
-0.044462
0.012018
0.053147
0.092893
0.134402
0.137285
0.129969
0.110059
0.078665
0.034513
-0.004528
-0.053854
-0.092832
-0.124164
-0.147501
-0.161067
-0.157171
-0.135041
-0.096953
-0.066780
-0.018253
0.036627
0.072080
0.119671
0.146410
0.152394
0.138072
0.120289
0.097215
0.049275
0.018009
-0.026006
-0.073367
-0.099760
-0.130067
-0.140731
-0.132580
-0.112938
-0.075016
-0.037954
0.013843
0.066515
0.110271
0.145589
0.166132
0.175316
0.163662
0.150372
0.133667
0.088393
0.052331
0.002312
-0.051911
-0.075797
-0.104395
-0.119815
-0.115368
-0.095019
-0.059494
-0.014316
0.028002
0.088410
0.135895
0.170385
0.202380
0.214045
0.197557
0.189103
0.149691
0.115202
0.069489
0.017160
-0.030540
-0.062668
-0.086395
-0.101835
-0.096022
-0.075071
-0.024888
0.013355
0.057307
0.108736
0.148702
0.192104
0.210006
0.228000
0.215738
0.192017
0.163051
0.115698
0.070004
0.024576
-0.013156
-0.054434
-0.086132
-0.098184
-0.084444
-0.072368
-0.041697
-0.003019
0.040704
0.101511
0.141822
0.179384
0.195125
0.205123
0.196108
0.190783
0.159329
0.112322
0.068371
0.014905
-0.031890
-0.065191
-0.093546
-0.111504
-0.098800
-0.086159
-0.051331
-0.005178
0.037158
0.088283
0.133489
0.160204
0.184227
0.191208
0.188611
0.160758
0.124159
0.085399
0.037247
-0.019475
-0.054192
-0.087939
-0.110140
-0.131594
-0.117029
-0.101499
-0.077543
-0.031073
0.013841
0.056921
0.095474
0.131428
0.151953
0.156781
0.146904
0.124737
0.094486
0.059092
0.014184
-0.036544
-0.094342
-0.128749
-0.148052
-0.158657
-0.157415
-0.135538
-0.102122
-0.064693
-0.026804
0.022966
0.059292
0.088893
0.113868
0.127958
0.122734
0.100999
0.070008
0.025542
-0.010462
-0.076448
-0.122101
-0.150811
-0.179875
-0.193694
-0.180946
-0.164966
-0.138845
-0.092786
-0.036113
0.014827
0.063095
0.091471
0.104884
0.114479
0.110592
0.089905
0.063306
0.017485
-0.020418
-0.071553
-0.124525
-0.157680
-0.177547
-0.192729
-0.182035
-0.173199
-0.145797
-0.089064
-0.046641
-0.000019
0.029504
0.070331
0.102437
0.133094
0.122429
0.097367
0.051631
0.020184
-0.020778
-0.074328
-0.119795
-0.161440
-0.181817
-0.198587
-0.190928
-0.166243
-0.129892
-0.085960
-0.043029
-0.008889
0.042409
0.074618
0.106853
0.129793
0.120598
0.091636
0.057457
0.018433
-0.014714
-0.067576
-0.104365
-0.142138
-0.160652
-0.172898
-0.163561
-0.148522
-0.119568
-0.085496
-0.038075
0.005735
0.049464
0.077008
0.105330
0.113352
0.100936
0.083418
0.050315
0.006937
-0.026410
-0.072238
-0.116439
-0.149425
-0.164591
-0.173473
-0.162448
-0.146294
-0.116606
-0.070754
-0.028950
0.018645
0.064758
0.090245
0.117592
0.122597
0.113339
0.098140
0.062074
0.027411
-0.008827
-0.066119
-0.107862
-0.143546
-0.169060
-0.187953
-0.183838
-0.148472
-0.118620
-0.083228
-0.034089
0.011902
0.053723
0.086631
0.105969
0.112552
0.119420
0.091282
0.055102
0.016277
-0.016957
-0.067697
-0.121805
-0.161285
-0.183141
-0.190399
-0.176907
-0.148741
-0.117514
-0.071514
-0.041791
0.003564
0.042489
0.083798
0.102239
0.115311
0.107397
0.090384
0.045694
0.002136
-0.038870
-0.085593
-0.128555
-0.163398
-0.183359
-0.190814
-0.183910
-0.158535
-0.136131
-0.094996
-0.053599
-0.001380
0.043087
0.083622
0.113344
0.115846
0.109510
0.087696
0.048160
0.006114
-0.044240
-0.096851
-0.128799
-0.174293
-0.195772
-0.201193
-0.205092
-0.167791
-0.129585
-0.093307
-0.048598
0.001988
0.038740
0.080107
0.098189
0.105884
0.098005
0.073402
0.043644
-0.001942
-0.044532
-0.089827
-0.135398
-0.165528
-0.186229
-0.198033
-0.203108
-0.184392
-0.154349
-0.105449
-0.059422
-0.015162
0.024486
0.071214
0.089859
0.100240
0.086759
0.066272
0.040143
-0.002193
-0.040433
-0.093363
-0.144252
-0.179431
-0.202550
-0.204160
-0.187424
-0.159988
-0.131859
-0.078786
-0.034731
0.010187
0.051970
0.085067
0.101701
0.117225
0.111276
0.092307
0.069954
0.026268
-0.016314
-0.071634
-0.118243
-0.149213
-0.163697
-0.171279
-0.164809
-0.135385
-0.101495
-0.053790
-0.011879
0.041762
0.080620
0.108621
0.126886
0.127048
0.114107
0.092726
0.065048
0.017868
-0.021892
-0.075203
-0.105666
-0.132339
-0.144888
-0.150050
-0.142977
-0.130218
-0.090140
-0.039109
-0.010495
0.040655
0.078704
0.114237
0.144871
0.160908
0.150357
0.128126
0.095840
0.044297
-0.007446
-0.051472
-0.093301
-0.117907
-0.142763
-0.150451
-0.143158
-0.136507
-0.112229
-0.067220
-0.026219
0.011029
0.048736
0.071404
0.094646
0.108531
0.098950
0.081002
0.052760
0.003618
-0.036070
-0.088103
-0.133021
-0.169049
-0.187572
-0.197948
-0.192359
-0.178254
-0.158718
-0.121272
-0.083136
-0.033186
0.014556
0.053175
0.064871
0.084515
0.067852
0.059936
0.028259
0.001817
-0.056092
-0.109463
-0.159725
-0.198010
-0.215712
-0.232712
-0.234076
-0.205080
-0.169076
-0.128044
-0.089680
-0.041222
-0.000724
0.027065
0.054476
0.067814
0.054585
0.029394
0.002424
-0.037452
-0.064345
-0.114014
-0.156660
-0.186754
-0.217243
-0.233250
-0.226638
-0.212845
-0.184561
-0.132813
-0.098880
-0.044269
-0.006241
0.026760
0.056436
0.067633
0.057352
0.045667
0.005416
-0.035203
-0.076904
-0.120863
-0.166255
-0.200472
-0.219465
-0.229153
-0.219586
-0.199781
-0.177655
-0.132677
-0.101376
-0.061801
-0.011604
0.031158
0.059456
0.072309
0.054360
0.033794
0.002719
-0.035628
-0.076359
-0.136127
-0.177430
-0.220736
-0.251262
-0.259447
-0.248911
-0.223916
-0.185970
-0.129942
-0.077350
-0.022127
0.031125
0.079200
0.124822
0.134737
0.155952
0.143327
0.131087
0.114047
0.075337
0.038072
0.003906
-0.007779
-0.017678
-0.002985
0.045036
0.091185
0.150173
0.228394
0.302852
0.380552
0.447719
0.488479
0.541084
0.589307
0.616588
0.630937
0.636749
0.628329
0.616204
0.601021
0.589767
0.594153
0.558066
0.556203
0.555230
0.562670
0.569605
0.600482
0.617593
0.637755
0.640942
0.600389
0.561035
0.512396
0.456745
0.394146
0.321623
0.229396
0.147401
0.066806
-0.008357
-0.068234
-0.093981
-0.114855
-0.104587
-0.092183
-0.070733
-0.041218
0.011738
0.058978
0.094527
0.126255
0.154756
0.163407
0.155263
0.141535
0.110811
0.062948
0.008727
-0.034730
-0.081679
-0.124248
-0.150482
-0.167069
-0.166688
-0.149690
-0.113010
-0.067872
-0.029469
0.024844
0.066965
0.091073
0.116324
0.125749
0.114504
0.087846
0.056743
0.009275
-0.024744
-0.078329
-0.115372
-0.154645
-0.186081
-0.194563
-0.176225
-0.159558
-0.127119
-0.088452
-0.052077
0.011620
0.052021
0.089908
0.116581
0.119931
0.108846
0.092873
0.060542
0.020675
-0.022944
-0.069637
-0.118137
-0.146279
-0.170567
-0.185853
-0.171940
-0.145857
-0.119568
-0.080542
-0.029952
0.013243
0.060574
0.100876
0.118758
0.132904
0.122449
0.098819
0.073846
0.025041
-0.009451
-0.066183
-0.109457
-0.151628
-0.172881
-0.169757
-0.151755
-0.129077
-0.076404
-0.028274
0.005057
0.046889
0.087191
0.115329
0.138292
0.148315
0.140225
0.120225
0.082565
0.054781
0.007286
-0.033852
-0.068831
-0.102853
-0.123079
-0.130759
-0.122092
-0.103750
-0.078768
-0.037012
0.004404
0.067932
0.126119
0.156865
0.176824
0.185118
0.166788
0.143428
0.122885
0.079463
0.038823
-0.007290
-0.050117
-0.081193
-0.100676
-0.106179
-0.104702
-0.087768
-0.053638
-0.008305
0.045126
0.099526
0.146075
0.182569
0.204090
0.204252
0.204939
0.180671
0.141993
0.099912
0.079800
0.021998
-0.021998
-0.064510
-0.088854
-0.095769
-0.090173
-0.061744
-0.020353
0.018167
0.056666
0.111901
0.151514
0.185296
0.202005
0.213514
0.198292
0.170812
0.138786
0.095820
0.051634
0.006637
-0.034353
-0.057850
-0.073918
-0.083235
-0.069236
-0.054480
-0.023262
0.020808
0.060119
0.113795
0.143280
0.169056
0.194574
0.204619
0.187964
0.172151
0.135529
0.089572
0.052923
0.004201
-0.045087
-0.070986
-0.078924
-0.095237
-0.102870
-0.073951
-0.047086
-0.013515
0.030571
0.073909
0.121296
0.146198
0.175074
0.184158
0.181186
0.143288
0.116636
0.070280
0.031403
-0.017155
-0.072303
-0.115521
-0.136202
-0.137987
-0.132545
-0.102609
-0.065584
-0.037715
-0.004421
0.040890
0.078415
0.117497
0.149934
0.142077
0.138797
0.121014
0.085692
0.042424
-0.006772
-0.059203
-0.092158
-0.129701
-0.150942
-0.169827
-0.164313
-0.141374
-0.114122
-0.068620
-0.029291
0.029006
0.072241
0.100219
0.122231
0.119123
0.105624
0.084775
0.059077
0.036501
-0.002168
-0.060090
-0.112951
-0.146558
-0.170903
-0.183857
-0.172290
-0.161616
-0.131317
-0.087688
-0.044342
0.000585
0.046640
0.083423
0.099236
0.106414
0.107037
0.084948
0.048029
0.006226
-0.034961
-0.081590
-0.115049
-0.149014
-0.159331
-0.167443
-0.164806
-0.148487
-0.121692
-0.080559
-0.044406
0.000972
0.049083
0.085927
0.102876
0.115925
0.105538
0.088489
0.053948
0.013601
-0.031220
-0.075009
-0.112338
-0.145379
-0.170795
-0.184162
-0.176997
-0.158439
-0.121872
-0.072032
-0.035653
0.024023
0.056461
0.096822
0.123346
0.121130
0.106855
0.099435
0.063946
0.011119
-0.018101
-0.069914
-0.096898
-0.144686
-0.164659
-0.183830
-0.167082
-0.139177
-0.107523
-0.063740
-0.016996
0.029586
0.067525
0.105383
0.122301
0.134335
0.136998
0.114336
0.070833
0.033503
0.002721
-0.050769
-0.098952
-0.134736
-0.166582
-0.167513
-0.154031
-0.131692
-0.110837
-0.069823
-0.033461
0.011827
0.065215
0.099379
0.118893
0.128310
0.118365
0.101097
0.069779
0.031887
-0.001104
-0.059618
-0.107679
-0.145834
-0.159762
-0.162446
-0.158470
-0.147058
-0.113942
-0.081510
-0.033169
0.016438
0.059975
0.095169
0.121048
0.127830
0.117415
0.100462
0.072150
0.023322
-0.016865
-0.064366
-0.110713
-0.146410
-0.177498
-0.188413
-0.179798
-0.156381
-0.115086
-0.078209
-0.040164
0.020643
0.058714
0.096241
0.120356
0.132583
0.120475
0.090946
0.058133
0.013852
-0.022401
-0.070350
-0.119823
-0.147608
-0.175629
-0.180141
-0.181277
-0.164722
-0.132729
-0.081459
-0.045105
-0.006802
0.043507
0.082710
0.108418
0.123750
0.111843
0.082400
0.057408
0.021106
-0.018251
-0.073251
-0.118349
-0.159234
-0.178502
-0.193374
-0.178997
-0.159482
-0.130887
-0.084577
-0.045855
0.009954
0.048044
0.069400
0.088721
0.105260
0.101961
0.080343
0.053865
0.008839
-0.023534
-0.070190
-0.113057
-0.142004
-0.171547
-0.186141
-0.185221
-0.174705
-0.146474
-0.099418
-0.062291
-0.015463
0.036251
0.072345
0.094250
0.109128
0.104134
0.083075
0.046601
0.006500
-0.029882
-0.085909
-0.136925
-0.162021
-0.185808
-0.195214
-0.180556
-0.158228
-0.140115
-0.094784
-0.067322
-0.008720
0.043376
0.076684
0.107386
0.125058
0.115884
0.085380
0.049144
0.020092
-0.013849
-0.070454
-0.095798
-0.133215
-0.158966
-0.168026
-0.159765
-0.133262
-0.094806
-0.058529
-0.013836
0.034088
0.075416
0.121104
0.140759
0.150908
0.133369
0.117181
0.084644
0.051247
0.008388
-0.043989
-0.090936
-0.133957
-0.161115
-0.168421
-0.160932
-0.132812
-0.097019
-0.050621
-0.005108
0.038602
0.092903
0.121316
0.149797
0.161113
0.141215
0.122192
0.097595
0.065750
0.023719
-0.023804
-0.066992
-0.108508
-0.130657
-0.151315
-0.151202
-0.132647
-0.102764
-0.058192
-0.020318
0.015445
0.059021
0.086233
0.115715
0.122421
0.117499
0.105383
0.075238
0.033299
-0.020814
-0.069535
-0.118501
-0.155147
-0.179419
-0.197116
-0.187708
-0.165748
-0.132948
-0.092472
-0.053801
-0.001986
0.036714
0.076513
0.091468
0.102385
0.084307
0.058816
0.028160
-0.012442
-0.054960
-0.114734
-0.161636
-0.192284
-0.221753
-0.226143
-0.213306
-0.193758
-0.159447
-0.123047
-0.083195
-0.035196
0.013667
0.043648
0.074089
0.078642
0.072546
0.046239
0.012577
-0.032686
-0.064454
-0.117870
-0.157311
-0.189741
-0.214526
-0.226916
-0.213726
-0.197306
-0.166908
-0.122845
-0.086488
-0.037839
0.012643
0.050610
0.069640
0.079957
0.068026
0.048127
0.021035
-0.014248
-0.058414
-0.110404
-0.152302
-0.178956
-0.212973
-0.225472
-0.215306
-0.201768
-0.173777
-0.132565
-0.079239
-0.033691
0.013380
0.045646
0.063875
0.075749
0.073651
0.054484
0.015812
-0.024106
-0.060550
-0.104279
-0.156105
-0.196479
-0.228049
-0.233510
-0.221856
-0.208073
-0.168762
-0.139370
-0.095982
-0.039271
0.001803
0.030921
0.061868
0.075371
0.073791
0.066066
0.048113
0.016144
-0.010175
-0.039766
-0.066101
-0.086904
-0.083109
-0.082711
-0.069833
-0.038598
0.014719
0.078068
0.134975
0.213081
0.288323
0.356921
0.412516
0.461518
0.487262
0.493649
0.496307
0.480733
0.468769
0.455816
0.436859
0.444852
0.461182
0.494080
0.534845
0.586741
0.655076
0.721695
0.750384
0.789750
0.829256
0.846795
0.847808
0.839430
0.818357
0.755798
0.671204
0.546372
0.443928
0.325218
0.231377
0.147910
0.059202
0.001367
-0.019677
-0.011155
0.019623
0.047880
0.096501
0.135036
0.184456
0.200115
0.219631
0.222802
0.210378
0.183049
0.136605
0.083883
0.044921
-0.014838
-0.066627
-0.101253
-0.126675
-0.140303
-0.128153
-0.106385
-0.089010
-0.052047
-0.006137
0.036286
0.079903
0.109599
0.130926
0.143198
0.137506
0.105357
0.071183
0.037109
-0.008422
-0.071116
-0.103801
-0.136181
-0.163069
-0.165278
-0.161279
-0.138670
-0.110694
-0.074029
-0.031210
0.011754
0.059468
0.091220
0.126354
0.133988
0.126962
0.103181
0.071119
0.021019
-0.019273
-0.062006
-0.114442
-0.129316
-0.160739
-0.165968
-0.161075
-0.142437
-0.110564
-0.062318
-0.028434
0.031018
0.067870
0.113747
0.126124
0.151121
0.136844
0.119264
0.079244
0.033766
-0.002130
-0.052832
-0.095068
-0.124193
-0.152259
-0.163181
-0.144101
-0.129335
-0.093954
-0.053581
-0.009725
0.038448
0.096293
0.122523
0.145029
0.150285
0.140568
0.129214
0.096067
0.057604
0.023819
-0.024601
-0.068063
-0.102964
-0.129790
-0.139264
-0.123613
-0.105790
-0.076476
-0.026510
0.019484
0.071899
0.113112
0.154137
0.170845
0.181226
0.178649
0.164559
0.127393
0.085555
0.050972
-0.005524
-0.045167
-0.072843
-0.096096
-0.099613
-0.087414
-0.068437
-0.046210
-0.009463
0.033770
0.091273
0.144476
0.175600
0.207912
0.221497
0.205208
0.187638
0.164675
0.121831
0.080074
0.037104
-0.014308
-0.049244
-0.072264
-0.081983
-0.067423
-0.043354
-0.008085
0.032830
0.076679
0.121791
0.166240
0.202154
0.226775
0.234650
0.220527
0.197124
0.166537
0.121091
0.087180
0.036725
-0.010493
-0.027958
-0.062292
-0.077301
-0.064431
-0.036300
-0.006246
0.034410
0.076912
0.122438
0.160610
0.198315
0.215696
0.230302
0.216614
0.188838
0.170341
0.125742
0.090215
0.027612
-0.012452
-0.049399
-0.075152
-0.089211
-0.076270
-0.054559
-0.027758
0.004287
0.049444
0.097338
0.148152
0.178123
0.193076
0.200968
0.189013
0.172887
0.140747
0.088819
0.048188
-0.007301
-0.041933
-0.073675
-0.101767
-0.115683
-0.110640
-0.090520
-0.059864
-0.017701
0.027242
0.071995
0.105951
0.128915
0.162669
0.171234
0.159149
0.134678
0.091997
0.052059
0.013831
-0.047016
-0.089090
-0.126172
-0.146918
-0.148214
-0.144520
-0.128042
-0.101795
-0.052995
-0.019771
0.032433
0.069932
0.108485
0.126548
0.140261
0.125930
0.106322
0.073081
0.025598
-0.019768
-0.065394
-0.116703
-0.148972
-0.169696
-0.179808
-0.163839
-0.142529
-0.121765
-0.070814
-0.024658
0.026022
0.068540
0.095489
0.114670
0.130417
0.127111
0.102193
0.066566
0.022863
-0.021808
-0.069747
-0.117158
-0.152132
-0.180928
-0.185217
-0.180102
-0.155384
-0.134377
-0.093737
-0.044051
0.013818
0.059549
0.088317
0.116449
0.123208
0.096402
0.085476
0.064606
0.032834
-0.014629
-0.063430
-0.101533
-0.137975
-0.165124
-0.177072
-0.168907
-0.148451
-0.112638
-0.067965
-0.029105
0.019240
0.057974
0.084114
0.107311
0.119253
0.114654
0.098057
0.069586
0.029358
-0.014633
-0.062227
-0.107418
-0.131824
-0.162820
-0.163945
-0.154847
-0.138421
-0.106099
-0.064831
-0.026354
0.025864
0.064346
0.090443
0.115814
0.137044
0.117524
0.101343
0.071065
0.026248
-0.014666
-0.058784
-0.097089
-0.131900
-0.147684
-0.161835
-0.159590
-0.136422
-0.104938
-0.063160
-0.018947
0.033198
0.076526
0.112705
0.131858
0.148460
0.122141
0.101301
0.068219
0.040155
-0.005596
-0.050468
-0.088472
-0.129737
-0.153026
-0.162981
-0.154300
-0.139928
-0.100728
-0.067117
-0.022619
0.025382
0.072587
0.099547
0.133160
0.136808
0.131900
0.113180
0.079537
0.031522
0.001220
-0.055581
-0.100117
-0.137505
-0.159898
-0.163034
-0.156112
-0.139952
-0.102902
-0.069714
-0.027107
0.017945
0.059807
0.091652
0.115677
0.128925
0.115360
0.100933
0.065988
0.027379
-0.009524
-0.056155
-0.098744
-0.128429
-0.157660
-0.173139
-0.157245
-0.135240
-0.106330
-0.061440
-0.031916
0.010580
0.062339
0.094259
0.118551
0.120279
0.106007
0.093575
0.066998
0.022823
-0.005248
-0.058596
-0.104000
-0.142043
-0.165952
-0.181757
-0.177861
-0.159397
-0.130530
-0.092711
-0.047383
0.000318
0.039751
0.078697
0.106450
0.113905
0.117387
0.099505
0.066157
0.022174
-0.019829
-0.065861
-0.112767
-0.154937
-0.176872
-0.188913
-0.185357
-0.167040
-0.124600
-0.085650
-0.052331
-0.002672
0.041995
0.069505
0.097373
0.114223
0.105598
0.088776
0.058196
0.016145
-0.030666
-0.084554
-0.127224
-0.157751
-0.169743
-0.190718
-0.181594
-0.162975
-0.132587
-0.087367
-0.030721
0.012038
0.052596
0.078909
0.097764
0.107855
0.100288
0.083073
0.059469
0.025344
-0.020613
-0.075296
-0.114246
-0.145194
-0.166714
-0.184183
-0.169220
-0.154125
-0.121948
-0.083062
-0.043878
0.009591
0.053441
0.096556
0.127373
0.151829
0.143838
0.122639
0.090232
0.054558
0.015456
-0.034795
-0.091814
-0.118707
-0.142471
-0.146682
-0.146211
-0.127028
-0.093902
-0.044567
-0.014934
0.041914
0.086559
0.110189
0.135364
0.151274
0.143653
0.115252
0.077948
0.038572
0.006689
-0.045406
-0.086013
-0.119406
-0.121866
-0.128348
-0.114696
-0.095134
-0.062066
-0.026335
0.001601
0.047702
0.098776
0.136214
0.170318
0.178152
0.162070
0.143353
0.099866
0.052512
0.016883
-0.038191
-0.093249
-0.127513
-0.157202
-0.165733
-0.164211
-0.155640
-0.117026
-0.079143
-0.037379
0.007748
0.054606
0.085097
0.112406
0.119067
0.105018
0.087610
0.060030
0.013760
-0.022465
-0.076666
-0.118904
-0.143894
-0.175273
-0.202710
-0.191494
-0.176872
-0.142587
-0.112391
-0.073391
-0.035626
0.013162
0.055214
0.080046
0.097057
0.090803
0.073826
0.041638
-0.002044
-0.048206
-0.092178
-0.139937
-0.173317
-0.212086
-0.220173
-0.207296
-0.185704
-0.156285
-0.123368
-0.094760
-0.031606
0.016895
0.052793
0.074996
0.085481
0.079479
0.061097
0.023343
-0.019581
-0.059508
-0.109871
-0.156318
-0.192642
-0.206209
-0.217586
-0.206758
-0.181271
-0.139272
-0.119282
-0.088514
-0.037663
0.015714
0.048257
0.079783
0.094665
0.082604
0.063069
0.022197
-0.008084
-0.056832
-0.111362
-0.150284
-0.199283
-0.210354
-0.228626
-0.213718
-0.193968
-0.161392
-0.121794
-0.079515
-0.025235
0.016538
0.042404
0.076308
0.092538
0.077161
0.067616
0.037417
-0.008692
-0.065000
-0.117912
-0.160391
-0.203326
-0.230772
-0.231630
-0.222154
-0.203261
-0.174421
-0.124927
-0.069153
-0.006700
0.053595
0.091071
0.129544
0.157790
0.161103
0.152152
0.151375
0.119412
0.089723
0.046608
0.027820
0.020461
0.018989
0.035768
0.072365
0.125551
0.189838
0.273913
0.352392
0.424110
0.502593
0.574085
0.627806
0.661262
0.701181
0.734336
0.754403
0.746495
0.740992
0.704953
0.688695
0.673627
0.648674
0.632497
0.634609
0.629262
0.631418
0.653000
0.672549
0.687600
0.679827
0.634169
0.589179
0.538271
0.469906
0.390781
0.310606
0.229610
0.157458
0.095281
0.048475
0.010640
-0.025795
-0.046818
-0.049992
-0.036125
-0.010155
0.023462
0.048458
0.088092
0.121923
0.156574
0.188037
0.187080
0.185023
0.158393
0.116859
0.065508
0.019749
-0.027328
-0.066628
-0.109452
-0.128194
-0.148822
-0.136041
-0.104865
-0.079416
-0.039859
-0.008072
0.039416
0.077303
0.106193
0.127121
0.134980
0.131146
0.115292
0.078170
0.033621
-0.009181
-0.061776
-0.113152
-0.149865
-0.166719
-0.175684
-0.167523
-0.150938
-0.114680
-0.079168
-0.022726
0.039963
0.077659
0.102666
0.120512
0.140156
0.144123
0.121870
0.090046
0.048023
-0.001011
-0.052273
-0.092462
-0.123037
-0.151310
-0.161403
-0.150503
-0.136927
-0.111374
-0.072197
-0.027237
0.028010
0.066168
0.102818
0.126584
0.149120
0.145003
0.128850
0.104401
0.051303
0.005194
-0.047791
-0.087163
-0.119789
-0.146355
-0.155665
-0.144349
-0.125764
-0.090062
-0.045359
-0.003166
0.053336
0.103280
0.136097
0.163228
0.164693
0.156840
0.137793
0.114343
0.072541
0.029386
-0.027440
-0.064612
-0.095597
-0.119496
-0.126135
-0.119939
-0.104208
-0.067868
-0.021581
0.023747
0.083959
0.132160
0.165762
0.202383
0.203946
0.200428
0.181503
0.151557
0.108674
0.073649
0.013039
-0.017334
-0.056494
-0.088160
-0.096154
-0.079091
-0.062976
-0.034822
0.017650
0.052734
0.106693
0.146740
0.180482
0.209520
0.230150
0.217422
0.210076
0.174339
0.130428
0.088906
0.028262
-0.012897
-0.042714
-0.066204
-0.075069
-0.071716
-0.039277
-0.009166
0.039923
0.080359
0.124977
0.175162
0.210484
0.229542
0.240872
0.236915
0.209042
0.170597
0.123336
0.087870
0.038434
0.000943
-0.023620
-0.061687
-0.077205
-0.071178
-0.060020
-0.021621
0.021212
0.069365
0.123413
0.171998
0.203150
0.227135
0.231189
0.222033
0.196367
0.169672
0.114710
0.068947
0.015877
-0.027865
-0.064967
-0.089092
-0.099711
-0.092785
-0.069720
-0.039548
0.002194
0.033637
0.086608
0.133026
0.161265
0.190251
0.203766
0.185636
0.170508
0.131976
0.080680
0.037818
-0.019763
-0.059326
-0.093597
-0.120515
-0.128796
-0.119246
-0.098655
-0.072665
-0.027826
0.015820
0.060261
0.098012
0.124798
0.150885
0.161366
0.143687
0.116834
0.095502
0.047600
0.002303
-0.054707
-0.097888
-0.135092
-0.153914
-0.162311
-0.152447
-0.132485
-0.102948
-0.061014
-0.029163
0.007397
0.053134
0.094130
0.121465
0.136078
0.117429
0.093155
0.064998
0.022788
-0.024154
-0.063013
-0.098948
-0.139653
-0.164398
-0.174472
-0.165568
-0.146529
-0.115116
-0.076649
-0.042426
0.004047
0.053330
0.087833
0.116113
0.116521
0.105533
0.080725
0.057089
0.023247
-0.017682
-0.070494
-0.126088
-0.164015
-0.191862
-0.199902
-0.180445
-0.149581
-0.111294
-0.071222
-0.027235
0.022989
0.067038
0.092659
0.117819
0.136874
0.118679
0.090491
0.058764
0.014526
-0.028413
-0.079175
-0.117153
-0.146508
-0.165468
-0.175745
-0.175963
-0.147737
-0.121083
-0.079427
-0.037592
0.012621
0.053995
0.089377
0.112132
0.121704
0.113265
0.094649
0.058818
0.016464
-0.020195
-0.066030
-0.104202
-0.133220
-0.166514
-0.168210
-0.163395
-0.129965
-0.089549
-0.055011
-0.019770
0.028286
0.063449
0.100438
0.123367
0.129330
0.127132
0.107414
0.076251
0.029300
-0.017073
-0.063229
-0.100593
-0.122796
-0.150789
-0.170136
-0.166386
-0.150989
-0.116616
-0.069332
-0.029501
0.022179
0.063604
0.095295
0.125557
0.141127
0.123574
0.100655
0.076481
0.033482
-0.010332
-0.065645
-0.108256
-0.141017
-0.167317
-0.172972
-0.159616
-0.134281
-0.103950
-0.071367
-0.032104
0.020331
0.061593
0.090920
0.121283
0.126261
0.114799
0.094153
0.072850
0.034960
-0.005021
-0.059115
-0.094041
-0.127289
-0.157931
-0.174262
-0.162048
-0.143470
-0.111945
-0.076167
-0.028549
0.016287
0.059680
0.093911
0.108732
0.120292
0.119576
0.093399
0.063490
0.015538
-0.028496
-0.072459
-0.108357
-0.150950
-0.175176
-0.184092
-0.174484
-0.154177
-0.122788
-0.087283
-0.040992
0.005009
0.048140
0.084501
0.105790
0.114360
0.106057
0.089466
0.059203
0.014304
-0.024460
-0.074262
-0.117706
-0.147601
-0.182330
-0.192281
-0.194419
-0.174206
-0.143428
-0.089290
-0.047174
0.006158
0.055125
0.076305
0.097560
0.102260
0.100260
0.071008
0.046520
0.013448
-0.030169
-0.074191
-0.107662
-0.143917
-0.173130
-0.192731
-0.187085
-0.170698
-0.137961
-0.099967
-0.052383
-0.010972
0.034321
0.069888
0.092731
0.111862
0.104295
0.085672
0.050671
0.015365
-0.031833
-0.081740
-0.127177
-0.153645
-0.189226
-0.199584
-0.192624
-0.176364
-0.139525
-0.105078
-0.054436
-0.000710
0.036108
0.069531
0.099871
0.108749
0.108360
0.080745
0.045895
0.001291
-0.044688
-0.092639
-0.148132
-0.179437
-0.203213
-0.217114
-0.203882
-0.174296
-0.137486
-0.093929
-0.051462
-0.002625
0.047601
0.081252
0.101029
0.101401
0.091856
0.077461
0.054920
0.013907
-0.023433
-0.069655
-0.110937
-0.150948
-0.163118
-0.184070
-0.175519
-0.152086
-0.115972
-0.069763
-0.026160
0.032023
0.071206
0.096184
0.124791
0.140309
0.129859
0.112338
0.083715
0.050095
0.002839
-0.045154
-0.091554
-0.126611
-0.149213
-0.161435
-0.163769
-0.140609
-0.113497
-0.077971
-0.035649
0.029302
0.069942
0.100115
0.127925
0.142048
0.131317
0.114381
0.093599
0.060114
0.017328
-0.037301
-0.075785
-0.115504
-0.125007
-0.132907
-0.117112
-0.112675
-0.077544
-0.047939
-0.011281
0.040870
0.081883
0.097490
0.111051
0.121928
0.117682
0.095213
0.056766
0.025178
-0.017380
-0.067707
-0.105747
-0.134432
-0.165403
-0.184487
-0.172656
-0.165417
-0.137873
-0.092098
-0.062064
-0.011174
0.036125
0.065062
0.088735
0.103127
0.091140
0.066880
0.037841
-0.002971
-0.045865
-0.105201
-0.152183
-0.184891
-0.203178
-0.212858
-0.212186
-0.182517
-0.157551
-0.115063
-0.087041
-0.034731
0.019277
0.038626
0.055664
0.065813
0.061908
0.046394
0.017425
-0.029327
-0.070796
-0.121750
-0.165307
-0.199425
-0.215559
-0.232073
-0.218211
-0.199188
-0.171430
-0.127526
-0.088793
-0.036357
0.001606
0.046458
0.070434
0.075366
0.068937
0.061943
0.029851
-0.013583
-0.066521
-0.109459
-0.152253
-0.197899
-0.219536
-0.225549
-0.223489
-0.202932
-0.173977
-0.132774
-0.088862
-0.050145
-0.004281
0.017351
0.045984
0.057809
0.060411
0.055283
0.037277
-0.017520
-0.059122
-0.110335
-0.162174
-0.198031
-0.217486
-0.230133
-0.225604
-0.207294
-0.183282
-0.143420
-0.110360
-0.056780
-0.013025
0.028270
0.053883
0.062684
0.054053
0.032807
0.000721
-0.038232
-0.090639
-0.128175
-0.173520
-0.187567
-0.203735
-0.196401
-0.182424
-0.144582
-0.094539
-0.035859
0.026229
0.096064
0.139913
0.183810
0.227270
0.269909
0.277781
0.280038
0.284092
0.267314
0.254966
0.240216
0.237095
0.237763
0.250084
0.275220
0.308951
0.350295
0.418097
0.508064
0.603229
0.681910
0.768440
0.815439
0.871910
0.914373
0.909042
0.884682
0.859027
0.799186
0.733781
0.669030
0.614358
0.544953
0.473324
0.391385
0.328411
0.270322
0.241405
0.226468
0.218111
0.232341
0.236431
0.254388
0.274970
0.288856
0.268016
0.232520
0.197458
0.137063
0.087667
0.027585
-0.031847
-0.077122
-0.105294
-0.119492
-0.117272
-0.117014
-0.082331
-0.042280
0.005180
0.060502
0.107589
0.135844
0.159684
0.156668
0.144590
0.121890
0.090783
0.050660
0.011642
-0.049024
-0.092507
-0.133915
-0.164306
-0.168526
-0.167847
-0.151853
-0.116441
-0.081022
-0.037940
0.008560
0.066195
0.100767
0.127727
0.127052
0.113289
0.096594
0.064250
0.020759
-0.023650
-0.067007
-0.112519
-0.149984
-0.175769
-0.184612
-0.171543
-0.149832
-0.119247
-0.083242
-0.039439
0.018329
0.055344
0.095754
0.117124
0.136092
0.126958
0.110911
0.077492
0.027177
-0.011728
-0.058914
-0.098418
-0.133513
-0.152311
-0.161222
-0.161157
-0.136773
-0.109417
-0.072451
-0.029202
0.023398
0.070396
0.106776
0.134934
0.153489
0.145998
0.128549
0.093703
0.051562
0.016693
-0.034625
-0.083105
-0.124981
-0.142946
-0.152608
-0.150153
-0.122870
-0.080823
-0.044231
0.001185
0.066107
0.109188
0.141604
0.164982
0.177060
0.170135
0.154581
0.124003
0.079607
0.031972
-0.012212
-0.057030
-0.103793
-0.127284
-0.128939
-0.122154
-0.099509
-0.064071
-0.016718
0.034923
0.093178
0.136392
0.166582
0.182563
0.205589
0.206520
0.187762
0.149956
0.107009
0.061851
0.022523
-0.020173
-0.059124
-0.083463
-0.086220
-0.081546
-0.065786
-0.028202
0.016073
0.062809
0.113877
0.161846
0.199529
0.219131
0.219100
0.226493
0.208231
0.178156
0.125796
0.087036
0.027871
-0.010134
-0.034325
-0.072459
-0.081147
-0.074953
-0.052133
-0.015411
0.035232
0.076092
0.137041
0.173500
0.191387
0.216574
0.227628
0.209949
0.204046
0.171772
0.126745
0.085366
0.033019
-0.009349
-0.036903
-0.064380
-0.084771
-0.076652
-0.052273
-0.017615
0.033036
0.065203
0.108718
0.154703
0.185848
0.209390
0.221088
0.205639
0.175689
0.156496
0.107053
0.067090
0.009303
-0.033395
-0.074787
-0.094472
-0.108466
-0.102052
-0.081237
-0.056366
-0.015487
0.020867
0.074190
0.107516
0.137388
0.161109
0.167106
0.167965
0.151974
0.117732
0.086056
0.035304
-0.022587
-0.070119
-0.107619
-0.127612
-0.150816
-0.139646
-0.119045
-0.086934
-0.044844
-0.004586
0.045285
0.077212
0.109730
0.143921
0.145843
0.142693
0.115904
0.088705
0.043947
0.000237
-0.049805
-0.091903
-0.135500
-0.165337
-0.177830
-0.167300
-0.146195
-0.109771
-0.059759
-0.024267
0.021347
0.059043
0.100140
0.124466
0.130297
0.106220
0.093554
0.074127
0.013148
-0.027964
-0.078041
-0.119229
-0.150021
-0.160908
-0.172021
-0.169902
-0.147610
-0.125009
-0.085542
-0.035776
0.007141
0.050708
0.084049
0.124831
0.137792
0.116725
0.099899
0.066042
0.022815
-0.017173
-0.073474
-0.117213
-0.144395
-0.168247
-0.182007
-0.177056
-0.160701
-0.129820
-0.073454
-0.034594
0.014342
0.060846
0.098138
0.121730
0.125854
0.125245
0.102448
0.072852
0.026319
-0.023769
-0.071228
-0.109810
-0.147884
-0.167041
-0.179928
-0.176177
-0.151885
-0.117633
-0.072809
-0.039464
0.016608
0.066252
0.102145
0.118626
0.134114
0.129378
0.103478
0.073963
0.027207
-0.018995
-0.069778
-0.111099
-0.144355
-0.172767
-0.171749
-0.161939
-0.142365
-0.105387
-0.064251
-0.028240
0.023539
0.071830
0.112741
0.141848
0.154177
0.141299
0.112480
0.083240
0.036474
-0.009605
-0.053567
-0.095311
-0.128789
-0.155872
-0.169199
-0.160428
-0.140129
-0.106788
-0.069354
-0.018367
0.027929
0.071581
0.101410
0.131374
0.143310
0.137153
0.109875
0.086309
0.040981
-0.000811
-0.055217
-0.103582
-0.138958
-0.158318
-0.164750
-0.158564
-0.134209
-0.094880
-0.059433
-0.038108
0.024742
0.063219
0.097579
0.125919
0.131379
0.117062
0.091692
0.069031
0.023922
-0.013074
-0.062666
-0.111919
-0.152234
-0.177746
-0.179989
-0.164623
-0.140522
-0.110101
-0.072696
-0.027855
0.016827
0.059844
0.093891
0.112636
0.126607
0.123328
0.096372
0.062102
0.023321
-0.017075
-0.064869
-0.114567
-0.147845
-0.174109
-0.182175
-0.181527
-0.160549
-0.129502
-0.082377
-0.044998
0.013642
0.046526
0.085410
0.119693
0.119596
0.108148
0.092969
0.058189
0.011423
-0.031979
-0.075613
-0.109506
-0.146460
-0.182006
-0.181307
-0.171619
-0.158910
-0.130756
-0.082547
-0.041462
0.006069
0.051997
0.078226
0.089983
0.108661
0.089990
0.076341
0.044404
0.009087
-0.039740
-0.083684
-0.122559
-0.156060
-0.182223
-0.192162
-0.178557
-0.156511
-0.124665
-0.081875
-0.051541
-0.002388
0.041495
0.076270
0.103188
0.106782
0.102361
0.068329
0.043050
0.003089
-0.035861
-0.083524
-0.116362
-0.160112
-0.181545
-0.199373
-0.193113
-0.170187
-0.134550
-0.092952
-0.053084
-0.004356
0.036869
0.082317
0.094505
0.111971
0.104486
0.080455
0.049548
0.012429
-0.039811
-0.093217
-0.131183
-0.163778
-0.190614
-0.199911
-0.183082
-0.160804
-0.139023
-0.098555
-0.059071
-0.016740
0.032808
0.068992
0.097446
0.103262
0.094924
0.070373
0.036923
-0.002913
-0.035500
-0.083892
-0.116844
-0.158235
-0.180453
-0.199595
-0.189246
-0.165993
-0.131637
-0.088959
-0.057162
-0.009837
0.024090
0.057914
0.094831
0.097245
0.090906
0.068259
0.048048
0.005852
-0.038039
-0.084208
-0.123505
-0.147311
-0.170155
-0.178858
-0.176326
-0.157831
-0.130681
-0.083727
-0.034097
0.013364
0.054375
0.092908
0.123729
0.139281
0.122250
0.105494
0.074829
0.037487
-0.003349
-0.047954
-0.095262
-0.129181
-0.144348
-0.155355
-0.149614
-0.134299
-0.098669
-0.060870
-0.025677
0.024802
0.075424
0.118645
0.142721
0.151405
0.128301
0.112040
0.069632
0.037067
0.004311
-0.043642
-0.082561
-0.116930
-0.138769
-0.141948
-0.125154
-0.112239
-0.073766
-0.034078
0.010095
0.072597
0.108221
0.141905
0.161154
0.165280
0.153759
0.122335
0.082728
0.036344
-0.005736
-0.063815
-0.100687
-0.141596
-0.170087
-0.181062
-0.166450
-0.151366
-0.122164
-0.084011
-0.039003
-0.002065
0.044953
0.079730
0.107322
0.118845
0.113916
0.086781
0.056010
0.006555
-0.035751
-0.092106
-0.127158
-0.169189
-0.190376
-0.202713
-0.204079
-0.184836
-0.155866
-0.107551
-0.061479
-0.007786
0.031379
0.056673
0.084700
0.100093
0.082470
0.051914
0.014800
-0.031226
-0.075570
-0.128097
-0.158532
-0.185929
-0.208597
-0.215414
-0.208539
-0.190913
-0.157917
-0.124835
-0.074164
-0.027531
0.019171
0.045988
0.073786
0.090679
0.073391
0.045046
0.014210
-0.029305
-0.072128
-0.115508
-0.152581
-0.175620
-0.204035
-0.212284
-0.206248
-0.198738
-0.159041
-0.117041
-0.071351
-0.019213
0.009905
0.038599
0.057878
0.067635
0.063032
0.053309
0.019022
-0.029247
-0.070498
-0.118168
-0.157775
-0.184599
-0.213200
-0.223446
-0.219327
-0.200027
-0.171036
-0.124728
-0.088014
-0.025795
0.020759
0.047232
0.067180
0.079703
0.064375
0.044392
0.013515
-0.037168
-0.076380
-0.129142
-0.165634
-0.205603
-0.225816
-0.235311
-0.220628
-0.202253
-0.162932
-0.102614
-0.049921
0.007993
0.066985
0.123892
0.160126
0.177514
0.189196
0.181954
0.171760
0.146180
0.124484
0.089775
0.069111
0.059547
0.077137
0.099693
0.145436
0.199024
0.266552
0.332204
0.405303
0.498747
0.565870
0.631808
0.703967
0.759481
0.789638
0.804698
0.789882
0.780840
0.774014
0.734835
0.681417
0.648152
0.613248
0.577651
0.564066
0.562849
0.565066
0.568487
0.533707
0.520384
0.486781
0.462142
0.424899
0.388494
0.334621
0.281799
0.232309
0.184944
0.142863
0.092826
0.033114
-0.013709
-0.051119
-0.076417
-0.068634
-0.051140
-0.028180
0.007654
0.045977
0.092615
0.125786
0.150284
0.169792
0.171945
0.157594
0.139203
0.106230
0.056787
0.018148
-0.041484
-0.077695
-0.112702
-0.144227
-0.157168
-0.146465
-0.125418
-0.098464
-0.061944
-0.029215
0.025473
0.068305
0.103428
0.119704
0.137105
0.122269
0.098142
0.071202
0.032226
-0.000828
-0.058692
-0.103442
-0.132595
-0.163286
-0.172141
-0.160166
-0.137499
-0.111933
-0.071692
-0.027545
0.023289
0.066186
0.091831
0.109535
0.113496
0.114046
0.101974
0.070594
0.026979
-0.015153
-0.060686
-0.105901
-0.149516
-0.165651
-0.174081
-0.151977
-0.124364
-0.085383
-0.051194
-0.015671
0.032321
0.080436
0.110087
0.128002
0.142982
0.131785
0.109682
0.086479
0.052538
0.015536
-0.041321
-0.085479
-0.119553
-0.136547
-0.155803
-0.142328
-0.122466
-0.086703
-0.045752
-0.007520
0.056557
0.094652
0.126622
0.141800
0.167669
0.155330
0.144789
0.108082
0.062222
0.026337
-0.019535
-0.068751
-0.102522
-0.119589
-0.135725
-0.120419
-0.081128
-0.046298
0.002625
0.044014
0.084655
0.125174
0.150380
0.173382
0.182315
0.176147
0.160267
0.139868
0.090295
0.050675
0.001269
-0.043377
-0.072172
-0.078478
-0.086670
-0.079290
-0.059388
-0.028699
0.007699
0.052320
0.101473
0.140560
0.178712
0.208534
0.217768
0.205839
0.187159
0.169238
0.129722
0.078711
0.036450
-0.005918
-0.041897
-0.065250
-0.074260
-0.063892
-0.053107
-0.020754
0.032441
0.073229
0.124888
0.162235
0.194187
0.217260
0.220934
0.209283
0.190783
0.159265
0.122718
0.079461
0.027782
-0.002724
-0.038804
-0.062270
-0.079452
-0.062333
-0.047163
-0.024198
0.015423
0.066627
0.104252
0.157143
0.185331
0.219859
0.221151
0.209666
0.184166
0.142531
0.100935
0.062766
0.011350
-0.028428
-0.052420
-0.086161
-0.105029
-0.099850
-0.075741
-0.056791
-0.008097
0.026895
0.076426
0.123688
0.157285
0.179257
0.181801
0.176326
0.158567
0.128120
0.082009
0.038577
-0.017246
-0.061017
-0.101338
-0.119834
-0.130769
-0.125948
-0.107178
-0.075943
-0.033050
0.014882
0.052231
0.096473
0.112998
0.140336
0.144865
0.137589
0.116195
0.086585
0.038963
0.006092
-0.052308
-0.087019
-0.121968
-0.151119
-0.163031
-0.157273
-0.134626
-0.107867
-0.066048
-0.026753
0.022013
0.069341
0.100500
0.126081
0.122098
0.105817
0.092096
0.055966
0.010119
-0.019467
-0.066120
-0.115926
-0.149902
-0.165748
-0.178202
-0.174648
-0.144786
-0.124381
-0.087898
-0.044356
0.011919
0.043447
0.086922
0.110195
0.114834
0.105028
0.089877
0.058301
0.012190
-0.026978
-0.075159
-0.114046
-0.158352
-0.176837
-0.189040
-0.181283
-0.164251
-0.127095
-0.088327
-0.048265
0.013180
0.046368
0.080282
0.106598
0.117608
0.099222
0.084722
0.055237
0.011125
-0.029492
-0.078974
-0.116490
-0.149323
-0.168974
-0.174860
-0.171291
-0.149261
-0.118495
-0.073636
-0.038145
0.012251
0.062879
0.083963
0.110303
0.117946
0.108923
0.090604
0.066176
0.026837
-0.032666
-0.078817
-0.112408
-0.150157
-0.163058
-0.174510
-0.164634
-0.145759
-0.111844
-0.067942
-0.041034
0.012169
0.052759
0.089827
0.122389
0.133635
0.125758
0.101835
0.067570
0.028161
-0.012402
-0.060446
-0.096824
-0.131577
-0.161224
-0.176002
-0.167869
-0.152888
-0.120327
-0.072050
-0.023339
0.013708
0.055431
0.093680
0.125900
0.129863
0.119660
0.096581
0.067626
0.033534
-0.011733
-0.057572
-0.103826
-0.133868
-0.165086
-0.161684
-0.158098
-0.141894
-0.111603
-0.069445
-0.029069
0.013546
0.059164
0.079046
0.103463
0.118223
0.111636
0.091124
0.060372
0.017679
-0.017439
-0.071200
-0.121164
-0.149088
-0.180403
-0.185199
-0.169179
-0.144997
-0.120155
-0.083998
-0.040460
0.000365
0.047872
0.088135
0.106466
0.120639
0.112788
0.094555
0.056519
0.006845
-0.024484
-0.075172
-0.115816
-0.155651
-0.186020
-0.196040
-0.184375
-0.159150
-0.121540
-0.089483
-0.048729
0.001587
0.036565
0.068218
0.093510
0.108765
0.110746
0.087896
0.056048
0.016366
-0.019538
-0.081993
-0.118729
-0.165884
-0.188704
-0.197821
-0.189723
-0.176072
-0.135755
-0.095726
-0.062226
-0.006523
0.040239
0.072767
0.105964
0.105943
0.089995
0.077327
0.049823
0.008545
-0.034359
-0.081494
-0.132088
-0.175785
-0.198534
-0.200848
-0.192531
-0.166372
-0.136796
-0.101144
-0.060333
-0.004679
0.036931
0.062582
0.093013
0.103244
0.090191
0.072952
0.046184
-0.001428
-0.048345
-0.095730
-0.140848
-0.173063
-0.192708
-0.209065
-0.200536
-0.179562
-0.139204
-0.105104
-0.060349
-0.009473
0.045465
0.070398
0.087406
0.088531
0.074349
0.063738
0.037761
0.000025
-0.040548
-0.085963
-0.130072
-0.170361
-0.193236
-0.206291
-0.199827
-0.185531
-0.148426
-0.109912
-0.066827
-0.016619
0.027019
0.060048
0.078609
0.087345
0.083465
0.068101
0.044204
0.000397
-0.029984
-0.096207
-0.140018
-0.173380
-0.196373
-0.212774
-0.203284
-0.173462
-0.148726
-0.106907
-0.068948
-0.019501
0.023748
0.060934
0.090751
0.089649
0.076856
0.059431
0.038383
0.005686
-0.038825
-0.090547
-0.134135
-0.169041
-0.194664
-0.215969
-0.213974
-0.195629
-0.155262
-0.116714
-0.074367
-0.029110
0.016042
0.047619
0.078359
0.092825
0.089901
0.067224
0.048320
0.007223
-0.037432
-0.088078
-0.131419
-0.169355
-0.177372
-0.191959
-0.190548
-0.172619
-0.143672
-0.100665
-0.056558
-0.005073
0.035766
0.076660
0.106849
0.118710
0.107360
0.101699
0.082322
0.037771
0.003332
-0.055688
-0.100672
-0.132858
-0.158713
-0.166974
-0.168332
-0.144832
-0.105622
-0.062479
-0.030738
0.023740
0.067439
0.093210
0.106608
0.119264
0.117607
0.102567
0.067698
0.027723
-0.015040
-0.067191
-0.094997
-0.139579
-0.157055
-0.164403
-0.141992
-0.118948
-0.082221
-0.042354
0.001817
0.047274
0.092110
0.116151
0.143507
0.155687
0.145300
0.113559
0.077274
0.035728
-0.017166
-0.068470
-0.112292
-0.154082
-0.179008
-0.191533
-0.187311
-0.172518
-0.138210
-0.091851
-0.051073
0.004289
0.045310
0.067771
0.089390
0.112926
0.109855
0.088973
0.049750
0.005559
-0.033305
-0.085484
-0.136942
-0.173593
-0.201255
-0.206753
-0.211404
-0.190719
-0.162863
-0.118859
-0.081392
-0.033076
0.005724
0.032377
0.059805
0.074922
0.076633
0.051906
0.020466
-0.033632
-0.065862
-0.111128
-0.165497
-0.204322
-0.232695
-0.232905
-0.223320
-0.210227
-0.172836
-0.133928
-0.100286
-0.045788
-0.006275
0.023140
0.045044
0.065012
0.054264
0.042859
0.019085
-0.022122
-0.062787
-0.111734
-0.165892
-0.193444
-0.213963
-0.224853
-0.221239
-0.204138
-0.172375
-0.129238
-0.092361
-0.042268
-0.008220
0.033971
0.066231
0.073529
0.072267
0.053157
0.012135
-0.033343
-0.074311
-0.125730
-0.171349
-0.196458
-0.224811
-0.237504
-0.230240
-0.211120
-0.180943
-0.137154
-0.097955
-0.045262
0.003649
0.040160
0.071719
0.069293
0.056712
0.046084
0.014571
-0.030825
-0.078547
-0.134008
-0.180399
-0.214050
-0.234024
-0.243312
-0.237950
-0.211241
-0.168891
-0.117416
-0.072920
-0.017060
0.047119
0.107307
0.153309
0.179725
0.193418
0.186078
0.162445
0.132417
0.114826
0.086194
0.065418
0.061745
0.065582
0.082995
0.120089
0.178003
0.242053
0.311583
0.393202
0.483934
0.556434
0.620720
0.678615
0.735626
0.764997
0.771982
0.772759
0.758673
0.746762
0.719657
0.661995
0.629209
0.608256
0.572625
0.558943
0.555612
0.562448
0.563334
0.542342
0.519785
0.498980
0.463518
0.434453
0.395147
0.339075
0.286563
0.230296
0.176446
0.129403
0.075902
0.026442
-0.023230
-0.060256
-0.087658
-0.095543
-0.079143
-0.060134
-0.021023
0.014634
0.075573
0.114540
0.142861
0.158898
0.169447
0.156922
0.139828
0.104465
0.057851
0.011275
-0.039785
-0.074981
-0.115989
-0.151725
-0.172362
-0.162820
-0.153083
-0.122437
-0.079570
-0.038435
0.009641
0.052288
0.082318
0.109772
0.123413
0.122102
0.098490
0.075645
0.026215
-0.025132
-0.085170
-0.120981
-0.146802
-0.172434
-0.180313
-0.171995
-0.154649
-0.126893
-0.085097
-0.050279
-0.003291
0.043358
0.075635
0.102376
0.111835
0.113598
0.106801
0.080522
0.043596
0.000781
-0.052957
-0.104573
-0.144114
-0.172588
-0.181475
-0.162185
-0.148056
-0.117362
-0.068929
-0.031160
0.013925
0.060806
0.094223
0.126518
0.136839
0.131584
0.114352
0.074424
0.024686
-0.015693
-0.053891
-0.097159
-0.126580
-0.153855
-0.159132
-0.152316
-0.124035
-0.088171
-0.045283
-0.010047
0.038513
0.083898
0.121109
0.141849
0.156974
0.146097
0.132526
0.101995
0.056953
0.018646
-0.031567
-0.078392
-0.105135
-0.136185
-0.139297
-0.130411
-0.105905
-0.069055
-0.022437
0.021556
0.073630
0.124738
0.162027
0.171472
0.173927
0.173875
0.167836
0.134297
0.091075
0.045426
-0.004511
-0.044577
-0.085902
-0.103435
-0.107456
-0.103168
-0.079022
-0.044519
0.001254
0.048393
0.101768
0.139237
0.175079
0.204689
0.221880
0.210927
0.183466
0.156070
0.104521
0.065442
0.019537
-0.029585
-0.059008
-0.081657
-0.092896
-0.083133
-0.049976
-0.026386
0.029364
0.061231
0.110855
0.147594
0.185493
0.214712
0.222007
0.213274
0.195614
0.162793
0.120643
0.064588
0.018613
-0.027466
-0.070170
-0.095446
-0.104744
-0.089314
-0.068935
-0.032965
0.012284
0.053626
0.104292
0.157760
0.186670
0.220157
0.221628
0.205103
0.174703
0.139329
0.091009
0.058638
0.007801
-0.040347
-0.077604
-0.110377
-0.117452
-0.110576
-0.082013
-0.053984
-0.015239
0.032404
0.077610
0.120254
0.150059
0.167516
0.180388
0.168648
0.156665
0.117112
0.073844
0.036504
-0.018555
-0.067535
-0.098140
-0.129348
-0.141287
-0.133290
-0.117501
-0.084404
-0.038520
-0.001519
0.038924
0.082140
0.114208
0.144896
0.157437
0.144912
0.123726
0.089456
0.040877
-0.000657
-0.058160
-0.105467
-0.139178
-0.158866
-0.176391
-0.166788
-0.150638
-0.120862
-0.083125
-0.039670
0.007028
0.054739
0.081839
0.111751
0.115408
0.105040
0.089469
0.063864
0.020857
-0.027444
-0.080056
-0.122313
-0.157307
-0.177793
-0.182823
-0.178662
-0.156211
-0.122828
-0.090552
-0.048519
-0.004952
0.034037
0.064519
0.092831
0.105266
0.097669
0.077983
0.050945
0.007828
-0.045361
-0.096631
-0.130281
-0.164874
-0.183310
-0.192153
-0.182937
-0.163933
-0.130653
-0.088365
-0.045199
0.008044
0.052521
0.078664
0.099199
0.111515
0.101039
0.073889
0.046334
-0.006424
-0.041992
-0.101477
-0.133068
-0.163423
-0.186316
-0.191042
-0.173735
-0.158408
-0.121218
-0.077653
-0.040877
-0.003939
0.042198
0.081166
0.114141
0.124070
0.105568
0.080883
0.060661
0.019424
-0.028424
-0.083373
-0.121741
-0.154882
-0.178401
-0.179715
-0.167145
-0.150067
-0.112789
-0.068274
-0.041475
0.005622
0.051989
0.078416
0.099960
0.116262
0.103742
0.084519
0.053080
0.019588
-0.024692
-0.082046
-0.115352
-0.148604
-0.175210
-0.174016
-0.175489
-0.170428
-0.118041
-0.081040
-0.045113
0.008244
0.041194
0.072115
0.091088
0.095930
0.093371
0.075161
0.041548
0.012166
-0.028166
-0.077999
-0.117067
-0.151094
-0.172077
-0.179040
-0.162134
-0.145951
-0.114302
-0.081129
-0.035766
0.017462
0.054713
0.089590
0.105262
0.115353
0.106022
0.089117
0.054542
0.017850
-0.019936
-0.074033
-0.126708
-0.148620
-0.173763
-0.188886
-0.186272
-0.162854
-0.141100
-0.095268
-0.056812
0.004977
0.046653
0.076715
0.107934
0.107933
0.106582
0.076520
0.046866
0.012571
-0.022168
-0.070443
-0.111177
-0.152531
-0.178979
-0.195087
-0.188546
-0.160889
-0.133925
-0.084892
-0.045370
-0.000882
0.028053
0.065226
0.085668
0.094076
0.083975
0.061211
0.032722
-0.007277
-0.044777
-0.101406
-0.140974
-0.174188
-0.196961
-0.197456
-0.191893
-0.168936
-0.130301
-0.090006
-0.047976
-0.001011
0.041100
0.068140
0.087072
0.095649
0.080566
0.054036
0.027982
-0.007722
-0.050348
-0.099978
-0.139799
-0.178870
-0.202829
-0.205969
-0.195731
-0.175547
-0.142008
-0.097231
-0.055284
-0.011077
0.038236
0.071088
0.092352
0.089602
0.080871
0.062005
0.033614
-0.009933
-0.052183
-0.104717
-0.133906
-0.165869
-0.196297
-0.209647
-0.196234
-0.186330
-0.159934
-0.121545
-0.069696
-0.012317
0.030801
0.059873
0.077543
0.088760
0.077879
0.061132
0.030386
-0.003394
-0.053607
-0.095716
-0.143216
-0.175097
-0.203315
-0.208015
-0.197649
-0.182762
-0.148632
-0.100396
-0.066317
-0.015120
0.032871
0.066691
0.078328
0.081276
0.075774
0.053834
0.033232
-0.007030
-0.054329
-0.114159
-0.160465
-0.187562
-0.208956
-0.214099
-0.194425
-0.172647
-0.142984
-0.095416
-0.054569
-0.013933
0.030282
0.067990
0.095557
0.105241
0.098763
0.077747
0.048187
0.004252
-0.026548
-0.069401
-0.107716
-0.132558
-0.173560
-0.186682
-0.170059
-0.144660
-0.114411
-0.066487
-0.023339
0.032027
0.061425
0.087275
0.099458
0.117175
0.115750
0.097282
0.074791
0.037738
-0.017552
-0.083567
-0.126005
-0.155422
-0.182175
-0.190636
-0.163526
-0.139807
-0.105875
-0.062311
-0.016917
0.038796
0.076230
0.106960
0.125040
0.137542
0.126768
0.116446
0.098246
0.051589
0.007558
-0.040301
-0.089943
-0.126929
-0.161392
-0.177841
-0.168248
-0.150491
-0.123851
-0.081370
-0.047372
0.002326
0.047057
0.082608
0.098101
0.106182
0.097471
0.072680
0.041541
-0.002121
-0.049881
-0.096280
-0.138323
-0.172548
-0.197654
-0.206136
-0.201779
-0.180099
-0.159377
-0.120243
-0.077050
-0.032186
0.003365
0.034426
0.064341
0.078328
0.078363
0.047778
0.011597
-0.033826
-0.068437
-0.121316
-0.172117
-0.208866
-0.233875
-0.243106
-0.239251
-0.221860
-0.185260
-0.143505
-0.092747
-0.035198
0.008998
0.030513
0.051950
0.068385
0.059903
0.038464
0.007020
-0.033371
-0.078779
-0.121831
-0.161681
-0.204585
-0.225379
-0.242164
-0.232815
-0.208328
-0.181445
-0.129302
-0.094470
-0.047398
-0.001745
0.028683
0.047069
0.061185
0.045001
0.027258
0.000168
-0.039191
-0.079506
-0.123928
-0.173625
-0.208056
-0.229354
-0.232928
-0.226800
-0.204958
-0.168501
-0.126749
-0.086992
-0.041334
-0.004044
0.018284
0.054483
0.060596
0.049334
0.035516
-0.001598
-0.041366
-0.088744
-0.137513
-0.187321
-0.214447
-0.235585
-0.249989
-0.238928
-0.218952
-0.196377
-0.155446
-0.111174
-0.057997
-0.019564
0.015098
0.052521
0.074247
0.076473
0.070028
0.046122
0.023261
0.008784
-0.021709
-0.053675
-0.070254
-0.076952
-0.089027
-0.063424
-0.024226
0.029295
0.088096
0.167063
0.239377
0.307238
0.355326
0.407050
0.451900
0.495000
0.500879
0.498925
0.480777
0.480261
0.459419
0.443469
0.433045
0.423610
0.452856
0.507792
0.548673
0.587301
0.628341
0.666189
0.706916
0.736741
0.755002
0.758763
0.734227
0.671348
0.574808
0.476092
0.384183
0.298492
0.200252
0.118945
0.046870
-0.018813
-0.052623
-0.077836
-0.078889
-0.062030
-0.029111
0.013147
0.061533
0.101046
0.118867
0.151348
0.155463
0.145698
0.123566
0.089582
0.041577
-0.009195
-0.052434
-0.101630
-0.122849
-0.139867
-0.150809
-0.144629
-0.138650
-0.104388
-0.062181
-0.026612
0.025817
0.061741
0.092259
0.116008
0.126823
0.118456
0.087281
0.049578
0.006456
-0.036272
-0.076990
-0.113487
-0.149721
-0.171447
-0.190940
-0.188718
-0.167883
-0.137050
-0.094142
-0.063596
-0.015796
0.029956
0.058433
0.091206
0.103095
0.099735
0.082080
0.048821
0.010492
-0.036242
-0.086406
-0.129157
-0.159568
-0.180958
-0.184302
-0.178894
-0.159285
-0.132443
-0.088732
-0.053220
0.005178
0.040679
0.065853
0.095864
0.112268
0.112522
0.091711
0.067101
0.028410
0.005105
-0.059467
-0.105459
-0.134830
-0.159248
-0.167126
-0.157565
-0.147032
-0.110463
-0.070079
-0.027142
0.021436
0.066983
0.098484
0.126879
0.141616
0.128913
0.105209
0.081565
0.031647
0.004184
-0.046069
-0.087525
-0.108581
-0.138065
-0.150941
-0.131057
-0.102298
-0.076575
-0.039846
-0.000801
0.044751
0.089359
0.122849
0.152114
0.169527
0.152001
0.132013
0.100346
0.067535
0.036352
-0.018643
-0.068653
-0.100535
-0.119749
-0.129740
-0.116937
-0.086100
-0.049950
-0.010852
0.033050
0.084168
0.129338
0.149466
0.178935
0.192114
0.178174
0.163080
0.133037
0.092072
0.051497
0.003200
-0.033848
-0.063425
-0.083227
-0.095940
-0.088278
-0.068707
-0.033613
0.004038
0.039479
0.085204
0.135175
0.160535
0.179694
0.200385
0.184301
0.169386
0.143885
0.104703
0.064941
0.011338
-0.027472
-0.070226
-0.091461
-0.089070
-0.081256
-0.061602
-0.032970
0.003837
0.034773
0.080726
0.120835
0.160239
0.177946
0.194235
0.195480
0.165821
0.138576
0.095422
0.050409
0.003015
-0.037023
-0.074910
-0.095311
-0.106342
-0.101675
-0.081089
-0.054666
-0.018935
0.019853
0.060035
0.113931
0.144203
0.166036
0.173209
0.163269
0.146794
0.111885
0.069544
0.026459
-0.033604
-0.068610
-0.100290
-0.135464
-0.146873
-0.132638
-0.119488
-0.088415
-0.053027
-0.015576
0.029239
0.082776
0.122143
0.151897
0.152579
0.144776
0.116467
0.074689
0.036733
-0.008034
-0.059279
-0.109433
-0.145669
-0.177290
-0.192793
-0.174758
-0.160784
-0.133257
-0.085168
-0.044025
-0.001670
0.044849
0.070792
0.104569
0.113050
0.110937
0.083847
0.050142
0.002838
-0.042921
-0.086581
-0.121010
-0.145888
-0.174885
-0.191494
-0.188772
-0.172067
-0.132867
-0.091744
-0.048735
-0.004794
0.032989
0.064937
0.078881
0.089634
0.094040
0.073599
0.034994
-0.001384
-0.045687
-0.095460
-0.140507
-0.171467
-0.193908
-0.210361
-0.199257
-0.180868
-0.157202
-0.107355
-0.066891
-0.019461
0.013499
0.049910
0.083433
0.100221
0.099000
0.070965
0.038375
-0.007247
-0.045903
-0.085694
-0.138962
-0.169125
-0.192355
-0.211766
-0.194801
-0.179589
-0.149008
-0.101570
-0.060736
-0.005651
0.033079
0.057918
0.088615
0.097150
0.085203
0.070740
0.035478
-0.009443
-0.046370
-0.089204
-0.131092
-0.164158
-0.194177
-0.211227
-0.187373
-0.169189
-0.135946
-0.088845
-0.052114
-0.000487
0.039460
0.072386
0.103861
0.114603
0.107393
0.086485
0.055472
0.008777
-0.031692
-0.076364
-0.130978
-0.160726
-0.185424
-0.189411
-0.181963
-0.167765
-0.131867
-0.086774
-0.051568
-0.000533
0.038245
0.073468
0.095678
0.106463
0.088538
0.070626
0.040753
0.002514
-0.031311
-0.085195
-0.132915
-0.171820
-0.196631
-0.193897
-0.188835
-0.168053
-0.129296
-0.086186
-0.048568
-0.001905
0.032840
0.065554
0.090222
0.098921
0.088925
0.067483
0.041400
-0.003066
-0.043578
-0.100290
-0.132224
-0.164886
-0.180215
-0.194434
-0.186298
-0.159145
-0.133362
-0.097806
-0.060142
-0.014543
0.027226
0.059762
0.091676
0.105905
0.100652
0.082026
0.047697
0.009173
-0.036112
-0.095146
-0.132408
-0.158185
-0.188364
-0.207085
-0.201929
-0.179865
-0.153285
-0.118013
-0.065524
-0.013208
0.034562
0.057279
0.081620
0.085416
0.078717
0.064127
0.024567
-0.008288
-0.063156
-0.110558
-0.146884
-0.178882
-0.202169
-0.210425
-0.205155
-0.193832
-0.160046
-0.110132
-0.071891
-0.020838
0.025909
0.064510
0.088311
0.084210
0.077323
0.066440
0.033172
-0.013470
-0.048654
-0.106210
-0.154058
-0.192091
-0.213583
-0.222107
-0.210776
-0.185067
-0.161653
-0.125383
-0.076937
-0.030942
-0.001328
0.027204
0.063658
0.072787
0.072055
0.060634
0.020577
-0.023618
-0.054051
-0.104637
-0.152837
-0.194426
-0.217485
-0.231128
-0.223136
-0.202607
-0.173984
-0.126006
-0.084339
-0.040076
0.010178
0.047749
0.072444
0.087060
0.091351
0.067689
0.043309
-0.005001
-0.052263
-0.102676
-0.146484
-0.182010
-0.204983
-0.208295
-0.198526
-0.168593
-0.144026
-0.115279
-0.068058
-0.007034
0.028742
0.063724
0.099602
0.102774
0.100290
0.083015
0.051473
0.016531
-0.018101
-0.056847
-0.102285
-0.142365
-0.173439
-0.193296
-0.174137
-0.161665
-0.135513
-0.090489
-0.045908
0.003543
0.040523
0.071841
0.099552
0.114592
0.106367
0.088593
0.061861
0.022602
-0.027876
-0.068731
-0.106310
-0.147251
-0.160613
-0.158693
-0.167086
-0.148606
-0.106762
-0.061191
-0.037275
0.016745
0.068047
0.099209
0.124685
0.132652
0.112931
0.088798
0.060060
0.024462
-0.020963
-0.072794
-0.117596
-0.155505
-0.185440
-0.200435
-0.189296
-0.168037
-0.140172
-0.099579
-0.062158
-0.021679
0.017871
0.052190
0.080183
0.088734
0.080776
0.053531
0.033054
-0.018592
-0.061420
-0.115190
-0.158105
-0.189434
-0.217967
-0.234516
-0.227711
-0.208851
-0.181229
-0.135285
-0.091253
-0.055028
-0.011944
0.019761
0.037983
0.059471
0.050926
0.038241
0.000936
-0.040382
-0.080784
-0.132619
-0.175917
-0.211286
-0.237325
-0.240929
-0.238282
-0.231613
-0.183382
-0.128630
-0.103597
-0.062681
-0.019882
0.012386
0.052469
0.070083
0.047166
0.010072
-0.005291
-0.047127
-0.090721
-0.134881
-0.174446
-0.211790
-0.240525
-0.262153
-0.243396
-0.215945
-0.193672
-0.152460
-0.112152
-0.053122
-0.024401
0.009891
0.033230
0.056308
0.057377
0.037049
0.003019
-0.053650
-0.091065
-0.127709
-0.180078
-0.204962
-0.237367
-0.254274
-0.247554
-0.221766
-0.201076
-0.154540
-0.111721
-0.065865
-0.026286
0.002430
0.041201
0.054952
0.040817
0.029713
-0.004988
-0.052878
-0.099238
-0.157275
-0.201156
-0.228204
-0.250742
-0.247777
-0.238985
-0.205217
-0.159163
-0.121544
-0.055935
0.008347
0.049678
0.104799
0.147010
0.172130
0.185544
0.173770
0.151212
0.115139
0.099774
0.072169
0.060092
0.056109
0.057532
0.073308
0.106619
0.154580
0.210451
0.282195
0.352089
0.421762
0.503721
0.565772
0.621436
0.680269
0.695279
0.701625
0.719399
0.725939
0.706409
0.656707
0.615247
0.579507
0.527440
0.495337
0.502180
0.514541
0.512448
0.489460
0.459502
0.427920
0.416365
0.390345
0.386941
0.367371
0.318191
0.261135
0.197506
0.119174
0.057804
-0.006075
-0.062148
-0.095215
-0.120036
-0.147251
-0.140997
-0.114739
-0.081025
-0.039543
0.002924
0.051984
0.097401
0.116894
0.143163
0.145455
0.124166
0.104612
0.082574
0.025970
-0.020843
-0.065126
-0.118883
-0.161818
-0.177816
-0.183258
-0.182642
-0.156388
-0.130760
-0.091693
-0.042749
0.005370
0.052662
0.084201
0.096655
0.105029
0.090449
0.087847
0.059284
0.010704
-0.031385
-0.079688
-0.130155
-0.172180
-0.198592
-0.203174
-0.195768
-0.177867
-0.143245
-0.093822
-0.053036
0.002300
0.037138
0.065125
0.095900
0.099624
0.092879
0.075349
0.045159
0.000608
-0.033166
-0.086584
-0.133144
-0.165378
-0.187370
-0.182940
-0.172575
-0.163559
-0.126923
-0.088995
-0.049196
0.003520
0.045631
0.078241
0.102147
0.116310
0.110852
0.100069
0.064961
0.023793
-0.022083
-0.068323
-0.108086
-0.141920
-0.167023
-0.174972
-0.165500
-0.139042
-0.108446
-0.070855
-0.021436
0.021764
0.072080
0.106915
0.130261
0.153874
0.136395
0.113913
0.086428
0.047559
-0.000269
-0.052617
-0.093608
-0.123655
-0.147147
-0.158949
-0.152083
-0.122125
-0.090769
-0.042721
-0.001881
0.048631
0.097765
0.126738
0.163342
0.172888
0.165290
0.148337
0.110706
0.067484
0.033124
-0.010856
-0.062680
-0.100848
-0.127401
-0.137089
-0.128075
-0.111492
-0.066096
-0.017978
0.017205
0.064808
0.113385
0.159535
0.193430
0.212456
0.194390
0.184472
0.143643
0.097818
0.049103
-0.004228
-0.043447
-0.082410
-0.106153
-0.110164
-0.100477
-0.083103
-0.051385
-0.017851
0.023023
0.079825
0.130751
0.162966
0.189259
0.196929
0.181037
0.170347
0.139172
0.089287
0.051312
-0.001094
-0.042275
-0.079454
-0.117956
-0.119256
-0.106354
-0.087570
-0.054345
-0.024859
0.009005
0.066204
0.105955
0.138384
0.163774
0.170824
0.179583
0.162664
0.128583
0.084177
0.032211
-0.022974
-0.061000
-0.102198
-0.130480
-0.126038
-0.127264
-0.111200
-0.080606
-0.042272
-0.003625
0.057850
0.088460
0.120164
0.144697
0.157810
0.154829
0.128442
0.092091
0.043928
-0.003449
-0.055842
-0.104393
-0.136336
-0.155579
-0.170022
-0.162961
-0.150763
-0.106063
-0.064590
-0.022375
0.027078
0.067659
0.094259
0.119132
0.135782
0.125142
0.100261
0.066699
0.017968
-0.024401
-0.073714
-0.116631
-0.163078
-0.190258
-0.197456
-0.197237
-0.177820
-0.152482
-0.106693
-0.054133
-0.009231
0.036102
0.070514
