0.469946
0.442373
0.427679
0.401377
0.378039
0.339255
0.288621
0.223946
0.151747
0.102042
0.029259
-0.012164
-0.050723
-0.100201
-0.131189
-0.141922
-0.120166
-0.097699
-0.063175
-0.028836
0.024400
0.070722
0.103145
0.129435
0.142580
0.142100
0.126422
0.100211
0.076202
0.028672
-0.030240
-0.072844
-0.122405
-0.159601
-0.187782
-0.183935
-0.191374
-0.171208
-0.135572
-0.097913
-0.044107
0.007685
0.041872
0.073125
0.094529
0.105334
0.098055
0.068097
0.048221
-0.001310
-0.040778
-0.096013
-0.142249
-0.177376
-0.197386
-0.209059
-0.211854
-0.195103
-0.155580
-0.112306
-0.058140
-0.008618
0.037590
0.060877
0.079893
0.090635
0.091337
0.068673
0.030991
-0.005604
-0.049059
-0.095306
-0.143084
-0.169597
-0.195031
-0.195637
-0.194014
-0.179971
-0.149232
-0.110607
-0.050923
-0.006539
0.032773
0.076564
0.107605
0.113114
0.102912
0.078804
0.053191
-0.005596
-0.043004
-0.084977
-0.129900
-0.152670
-0.171989
-0.156608
-0.150400
-0.140293
-0.115432
-0.069511
-0.025713
0.012578
0.067120
0.100866
0.131255
0.122057
0.125168
0.107913
0.072894
0.021479
-0.022875
-0.058619
-0.101623
-0.128990
-0.145773
-0.146674
-0.151303
-0.141626
-0.100250
-0.051813
0.003357
0.043417
0.099892
0.125629
0.150639
0.156985
0.146405
0.135953
0.102267
0.048148
-0.002336
-0.034540
-0.076936
-0.101351
-0.116726
-0.141666
-0.134510
-0.115576
-0.072110
-0.041850
0.012082
0.065438
0.111065
0.136458
0.165163
0.183879
0.171808
0.157828
0.119180
0.054772
0.018128
-0.029706
-0.057709
-0.076863
-0.118550
-0.131439
-0.119075
-0.103904
-0.075965
-0.031596
0.034247
0.071466
0.116562
0.140936
0.160190
0.175932
0.160688
0.139800
0.103837
0.067290
0.025452
-0.023892
-0.070421
-0.103973
-0.129190
-0.145328
-0.127237
-0.114720
-0.080577
-0.030558
0.013698
0.056810
0.102696
0.131329
0.150521
0.154106
0.153625
0.140721
0.099499
0.055273
-0.011698
-0.053983
-0.099028
-0.121244
-0.158250
-0.172751
-0.159705
-0.133997
-0.092786
-0.055989
-0.007161
0.033245
0.085978
0.120696
0.134983
0.123116
0.112174
0.088136
0.043655
0.004858
-0.039411
-0.075443
-0.112419
-0.136684
-0.169754
-0.185334
-0.167317
-0.152880
-0.119310
-0.090725
-0.049889
-0.009954
0.032003
0.083344
0.131420
0.120722
0.103308
0.092916
0.061287
0.007344
-0.041436
-0.079651
-0.135758
-0.166007
-0.185813
-0.198262
-0.200384
-0.188667
-0.149373
-0.096229
-0.049099
-0.002904
0.033603
0.061893
0.089302
0.102112
0.080271
0.078146
0.028966
-0.021199
-0.063507
-0.106844
-0.150109
-0.189916
-0.213149
-0.216651
-0.206309
-0.194036
-0.149426
-0.114039
-0.066786
-0.004887
0.029491
0.062910
0.078171
0.081143
0.074719
0.063243
0.026315
-0.026150
-0.079954
-0.126014
-0.159722
-0.193812
-0.211500
-0.221490
-0.200918
-0.181346
-0.134727
-0.116757
-0.052358
-0.024487
0.014831
0.051065
0.080802
0.081138
0.074737
0.052285
0.027147
-0.014823
-0.067700
-0.115428
-0.164992
-0.172839
-0.198761
-0.214218
-0.183471
-0.158245
-0.135682
-0.093467
-0.052383
-0.001129
0.037610
0.076300
0.091297
0.097728
0.093913
0.062984
0.041890
-0.003928
-0.041610
-0.091519
-0.140143
-0.166272
-0.191731
-0.198946
-0.195658
-0.177850
-0.156641
-0.098716
-0.041143
0.002219
0.044732
0.074452
0.103037
0.112961
0.101282
0.083430
0.051643
0.001101
-0.047878
-0.103478
-0.138814
-0.175870
-0.197188
-0.208206
-0.193765
-0.175072
-0.143023
-0.108597
-0.051515
-0.003219
0.040691
0.082854
0.106147
0.122562
0.117455
0.080844
0.042055
-0.012444
-0.043976
-0.094121
-0.132462
-0.167938
-0.185121
-0.209123
-0.199956
-0.179312
-0.147489
-0.099710
-0.058908
-0.014069
0.034283
0.063770
0.100959
0.109175
0.099031
0.088571
0.044266
-0.000180
-0.056234
-0.098641
-0.145716
-0.175305
-0.197983
-0.201248
-0.158945
-0.162620
-0.146223
-0.112267
-0.063321
-0.014188
0.028775
0.050853
0.071257
0.083637
0.085523
0.081583
0.045933
0.009895
-0.035993
-0.084524
-0.132611
-0.173118
-0.198290
-0.204284
-0.200760
-0.188110
-0.148619
-0.104901
-0.060758
-0.005105
0.035412
0.063656
0.083045
0.083818
0.071894
0.068042
0.034569
-0.011465
-0.055678
-0.103816
-0.150413
-0.190885
-0.212182
-0.224400
-0.214251
-0.190957
-0.155736
-0.117308
-0.079082
-0.019981
0.023712
0.055811
0.075761
0.081552
0.082115
0.068769
0.025135
-0.012970
-0.054265
-0.109278
-0.156540
-0.192156
-0.216330
-0.233146
-0.213522
-0.203301
-0.163647
-0.128590
-0.080346
-0.025355
0.019971
0.049264
0.072703
0.076358
0.066121
0.049784
0.019780
-0.024150
-0.064562
-0.116768
-0.159935
-0.206257
-0.227357
-0.227291
-0.217368
-0.199077
-0.156462
-0.116845
-0.079742
-0.017217
0.019878
0.048380
0.063110
0.084416
0.084481
0.059642
0.023041
-0.012788
-0.052100
-0.106300
-0.145898
-0.178378
-0.208331
-0.225038
-0.217196
-0.208122
-0.165887
-0.114952
-0.077990
-0.037013
0.011826
0.052310
0.074074
0.081466
0.067382
0.056575
0.018030
-0.019229
-0.052522
-0.101972
-0.150024
-0.185745
-0.212739
-0.221452
-0.196827
-0.179575
-0.146586
-0.102149
-0.042494
0.001017
0.035576
0.077903
0.100676
0.104031
0.091091
0.074326
0.047964
0.008485
-0.043930
-0.092981
-0.129332
-0.165096
-0.185969
-0.180392
-0.169035
-0.151045
-0.114181
-0.076677
-0.039800
0.011992
0.054021
0.086291
0.106193
0.112648
0.116406
0.075339
0.051263
0.021370
-0.022469
-0.077699
-0.127730
-0.146074
-0.172985
-0.183371
-0.174633
-0.131236
-0.095860
-0.058015
-0.017629
0.028557
0.068111
0.108932
0.126120
0.126182
0.112270
0.100276
0.064383
0.030258
-0.028609
-0.087771
-0.130164
-0.170401
-0.197636
-0.199354
-0.177421
-0.159684
-0.137174
-0.108354
-0.061816
-0.019327
0.022754
0.063269
0.089295
0.089567
0.067396
0.045052
0.023043
-0.022583
-0.064035
-0.107770
-0.160709
-0.198409
-0.218358
-0.228005
-0.226775
-0.198982
-0.165598
-0.121146
-0.084578
-0.020479
0.015824
0.046520
0.059360
0.055068
0.052252
0.036108
-0.004147
-0.057628
-0.108347
-0.144887
-0.191402
-0.217164
-0.233165
-0.239860
-0.253907
-0.243390
-0.199981
-0.150601
-0.095577
-0.032532
0.008595
0.046606
0.068312
0.063595
0.053995
0.028429
-0.008422
-0.048654
-0.099485
-0.138537
-0.179839
-0.212904
-0.243393
-0.246962
-0.219314
-0.212576
-0.171967
-0.140446
-0.094903
-0.037402
0.002833
0.045313
0.060365
0.067592
0.065840
0.040248
-0.004822
-0.048545
-0.092064
-0.136586
-0.166198
-0.205101
-0.233013
-0.251275
-0.236629
-0.214758
-0.177804
-0.132212
-0.092456
-0.050118
-0.006719
0.043325
0.063079
0.060109
0.053841
0.032423
-0.007799
-0.055114
-0.098659
-0.139422
-0.186189
-0.220886
-0.239110
-0.237509
-0.213274
-0.182048
-0.135305
-0.088635
-0.019236
0.039498
0.108197
0.169344
0.205680
0.218780
0.215945
0.219690
0.209947
0.181797
0.150810
0.122468
0.099696
0.106174
0.105170
0.129104
0.179038
0.239395
0.306957
0.366515
0.440828
0.531910
0.607606
0.680259
0.745065
0.784260
0.810644
0.823009
0.814379
0.771167
0.714018
0.675163
0.611980
0.556137
0.509731
0.480073
0.456978
0.422493
0.385365
0.355052
0.330510
0.323516
0.318965
0.316727
0.302059
0.267808
0.238082
0.206570
0.163553
0.112463
0.083143
0.026090
-0.034979
-0.080451
-0.110727
-0.110723
-0.107166
-0.099874
-0.074729
-0.026655
0.033783
0.066297
0.102704
0.136323
0.159537
0.162830
0.136903
0.112626
0.078863
0.043995
0.004243
-0.053536
-0.113935
-0.143270
-0.161638
-0.172486
-0.159823
-0.140380
-0.116654
-0.081766
-0.034662
0.015810
0.046717
0.083810
0.102029
0.105088
0.103056
0.086542
0.051770
0.009487
-0.038027
-0.093237
-0.135046
-0.169409
-0.189524
-0.201408
-0.198742
-0.180217
-0.145778
-0.104555
-0.051718
-0.002653
0.038818
0.073501
0.110352
0.124379
0.122961
0.124062
0.093596
0.038592
-0.016004
-0.074310
-0.128843
-0.152001
-0.159079
-0.166571
-0.167753
-0.152018
-0.121330
-0.082600
-0.031921
0.028253
0.060310
0.109883
0.135312
0.138445
0.122260
0.101582
0.071390
0.031702
-0.011343
-0.058216
-0.098701
-0.140840
-0.157829
-0.160732
-0.122436
-0.118968
-0.096491
-0.052426
-0.000932
0.049099
0.082049
0.111662
0.140204
0.145000
0.145348
0.122348
0.092044
0.057940
0.016003
-0.032627
-0.073786
-0.104306
-0.126083
-0.133631
-0.120885
-0.101795
-0.072433
-0.026567
0.019046
0.074014
0.117198
0.144742
0.163591
0.178552
0.169351
0.153500
0.115989
0.076184
0.030894
-0.014564
-0.061256
-0.099625
-0.116575
-0.117379
-0.122763
-0.099508
-0.066265
-0.012500
0.041384
0.084699
0.126407
0.167512
0.191122
0.199588
0.198636
0.178253
0.145467
0.083183
0.042585
-0.003326
-0.036361
-0.060459
-0.088298
-0.105147
-0.103812
-0.090870
-0.047042
-0.011066
0.046360
0.094328
0.140532
0.171464
0.190461
0.199186
0.196098
0.171231
0.137446
0.098617
0.056003
0.003070
-0.032381
-0.076506
-0.103991
-0.116454
-0.115972
-0.093465
-0.058660
-0.014198
0.034501
0.094233
0.131427
0.162410
0.187720
0.188658
0.179302
0.154056
0.119122
0.077582
0.023014
-0.023240
-0.063049
-0.095344
-0.122808
-0.127794
-0.108731
-0.102293
-0.078573
-0.036186
0.002319
0.049282
0.096038
0.134718
0.157053
0.163573
0.154656
0.127942
0.091968
0.032207
0.000225
-0.037019
-0.082749
-0.121082
-0.151525
-0.171772
-0.152225
-0.128845
-0.100926
-0.069544
-0.017804
0.047998
0.098616
0.130365
0.142612
0.144108
0.133964
0.104084
0.066659
0.033010
-0.026853
-0.079070
-0.120187
-0.161308
-0.180920
-0.189517
-0.177469
-0.154008
-0.128536
-0.086772
-0.035605
0.012390
0.048647
0.095919
0.124738
0.130365
0.113611
0.087412
0.058065
0.017446
-0.030634
-0.088546
-0.128123
-0.168557
-0.194377
-0.194895
-0.188804
-0.164815
-0.126334
-0.080217
-0.027434
0.015536
0.048938
0.089958
0.099576
0.108432
0.103289
0.085613
0.046395
0.006152
-0.036921
-0.085034
-0.121031
-0.156802
-0.171867
-0.183681
-0.185205
-0.169231
-0.148138
-0.099796
-0.048674
0.002899
0.052883
0.090064
0.108698
0.122659
0.128293
0.107077
0.074083
0.018099
-0.031462
-0.081018
-0.117736
-0.158461
-0.177880
-0.188550
-0.182537
-0.168573
-0.128559
-0.094393
-0.052957
-0.004909
0.037026
0.077957
0.103439
0.118044
0.114839
0.102928
0.077356
0.044225
-0.021666
-0.080246
-0.121605
-0.149755
-0.171062
-0.175208
-0.168898
-0.160441
-0.128456
-0.077320
-0.027809
0.018814
0.056036
0.080169
0.110379
0.128811
0.126388
0.105030
0.083163
0.031000
0.000110
-0.067821
-0.117436
-0.145497
-0.168365
-0.173792
-0.166916
-0.140313
-0.122127
-0.078864
-0.036303
0.035015
0.067283
0.098789
0.098438
0.126794
0.121036
0.097829
0.064601
0.021313
-0.014946
-0.077312
-0.111331
-0.154838
-0.177858
-0.186723
-0.169996
-0.151300
-0.108856
-0.045099
0.002786
0.032312
0.078913
0.099829
0.112621
0.117759
0.109720
0.080549
0.054855
0.024587
-0.029156
-0.077089
-0.119791
-0.145716
-0.160028
-0.175361
-0.184527
-0.160076
-0.130691
-0.082269
-0.031485
0.017947
0.037399
0.076205
0.105032
0.103401
0.104722
0.085912
0.059552
0.022682
-0.022515
-0.070667
-0.122531
-0.162153
-0.182234
-0.183461
-0.174660
-0.159813
-0.141189
-0.084720
-0.038076
0.001050
0.048877
0.084885
0.096212
0.098916
0.094930
0.080047
0.057883
0.007224
-0.050693
-0.095736
-0.142841
-0.176019
-0.181454
-0.187057
-0.175938
-0.155032
-0.126422
-0.082371
-0.030976
0.016252
0.050856
0.079203
0.095135
0.101524
0.098303
0.067062
0.042302
-0.009465
-0.064172
-0.100185
-0.141655
-0.183245
-0.204358
-0.197956
-0.196636
-0.166690
-0.128703
-0.082433
-0.022698
0.018610
0.055274
0.095607
0.095649
0.096080
0.087513
0.072462
0.045013
0.005608
-0.042912
-0.081849
-0.146613
-0.181743
-0.207331
-0.204458
-0.202963
-0.179586
-0.145564
-0.111687
-0.058349
-0.003966
0.052803
0.086936
0.104844
0.111880
0.109896
0.096786
0.065650
0.004419
-0.052573
-0.097064
-0.141093
-0.186941
-0.194681
-0.214607
-0.209763
-0.189184
-0.162946
-0.110955
-0.061227
-0.012256
0.026089
0.078796
0.095165
0.102506
0.098195
0.094183
0.072767
0.012588
-0.038554
-0.086030
-0.131282
-0.164753
-0.183541
-0.182898
-0.173532
-0.158974
-0.129283
-0.078702
-0.035378
0.030218
0.090508
0.143511
0.149279
0.146932
0.151035
0.127897
0.098541
0.046778
-0.001945
-0.049400
-0.092192
-0.127768
-0.167366
-0.186593
-0.176154
-0.152567
-0.111518
-0.073847
-0.030089
0.036679
0.083691
0.117118
0.131602
0.141867
0.140632
0.131405
0.102454
0.067064
0.022664
-0.021170
-0.070899
-0.111856
-0.134153
-0.142638
-0.137339
-0.114754
-0.097085
-0.066984
-0.025594
0.009522
0.036663
0.091234
0.127853
0.142512
0.131602
0.121400
0.101261
0.055462
-0.003355
-0.057258
-0.094527
-0.141327
-0.169884
-0.186244
-0.190361
-0.174794
-0.139313
-0.097793
-0.038578
0.000825
0.041781
0.087631
0.105142
0.105840
0.101447
0.070501
0.052482
-0.007815
-0.049168
-0.108520
-0.155721
-0.187549
-0.193041
-0.192660
-0.207639
-0.188271
-0.159181
-0.116326
-0.065327
-0.024054
0.019681
0.047773
0.076972
0.081131
0.072301
0.053579
0.030137
-0.022395
-0.079006
-0.116249
-0.165614
-0.203275
-0.217046
-0.232034
-0.229301
-0.202753
-0.181716
-0.141209
-0.104275
-0.044052
0.019527
0.060347
0.087044
0.089813
0.082918
0.063727
0.044581
0.004414
-0.039587
-0.090840
-0.145392
-0.188983
-0.211566
-0.221912
-0.216545
-0.190323
-0.167780
-0.127456
-0.076698
-0.032869
0.019643
0.047706
0.078418
0.096964
0.085511
0.050093
0.025533
-0.020771
-0.058675
-0.099547
-0.156569
-0.179215
-0.213682
-0.218188
-0.214658
-0.199002
-0.173863
-0.126140
-0.068895
-0.027115
0.018623
0.050575
0.064768
0.066528
0.063872
0.044335
0.018312
-0.030218
-0.068232
-0.098270
-0.150366
-0.181805
-0.195303
-0.197783
-0.182961
-0.154402
-0.096291
-0.031683
0.019571
0.076649
0.146697
0.194684
0.217191
0.248665
0.270107
0.258360
0.253053
0.235610
0.217770
0.210679
0.205977
0.222528
0.238455
0.258555
0.291884
0.342880
0.400360
0.475900
0.569961
0.670425
0.748777
0.807547
0.857148
0.897276
0.897147
0.873348
0.835674
0.790297
0.727728
0.667448
0.617032
0.559854
0.508860
0.437806
0.373065
0.324882
0.287151
0.281291
0.274511
0.278632
0.283952
0.276772
0.291264
0.290442
0.273963
0.258181
0.210671
0.152424
0.093946
0.046243
-0.020262
-0.070979
-0.101537
-0.111388
-0.109288
-0.091849
-0.059017
-0.005133
0.039583
0.065830
0.106745
0.134377
0.152548
0.161932
0.149261
0.133500
0.113108
0.071292
0.006821
-0.031879
-0.091707
-0.139529
-0.157708
-0.159479
-0.144698
-0.127753
-0.109989
-0.059568
-0.016349
0.024608
0.067387
0.095487
0.129526
0.143462
0.134654
0.115314
0.073023
0.045618
-0.009183
-0.060889
-0.110577
-0.142739
-0.165026
-0.174620
-0.163308
-0.145447
-0.118810
-0.071007
-0.034773
0.013087
0.075714
0.107537
0.125460
0.144995
0.137288
0.120845
0.091801
0.043982
-0.005122
-0.049371
-0.098256
-0.126521
-0.149123
-0.156787
-0.145131
-0.129967
-0.101104
-0.051188
-0.001202
0.037215
0.082601
0.122813
0.154727
0.175774
0.165133
0.132042
0.099304
0.066439
0.015229
-0.030226
-0.076443
-0.106404
-0.133158
-0.140036
-0.129649
-0.107190
-0.078639
-0.031487
0.014418
0.060086
0.105855
0.155999
0.165016
0.176481
0.167289
0.138894
0.113542
0.068502
0.019042
-0.012867
-0.052782
-0.084873
-0.109781
-0.117436
-0.106212
-0.069146
-0.045697
-0.001883
0.022913
0.067650
0.131548
0.176686
0.192491
0.210147
0.204147
0.187308
0.156667
0.098848
0.059747
0.017500
-0.028642
-0.054821
-0.078790
-0.091470
-0.084683
-0.052532
-0.027032
0.026853
0.062952
0.097439
0.139679
0.185334
0.217665
0.233894
0.232649
0.219266
0.176086
0.131029
0.087512
0.047005
-0.002827
-0.034357
-0.059719
-0.063659
-0.053756
-0.023026
0.003952
0.047291
0.076712
0.112724
0.157341
0.191827
0.211941
0.218326
0.208711
0.199500
0.160938
0.119866
0.067819
0.030504
-0.019550
-0.058547
-0.070730
-0.054164
-0.042293
-0.039538
-0.021245
0.014573
0.066996
0.117385
0.161442
0.183373
0.198830
0.210770
0.205632
0.170108
0.144893
0.099167
0.048290
0.001683
-0.040894
-0.080258
-0.101645
-0.108732
-0.106249
-0.078496
-0.049914
-0.011303
0.032741
0.073689
0.117097
0.153061
0.170297
0.172449
0.176141
0.151979
0.111586
0.077435
0.031814
-0.012424
-0.050644
-0.085230
-0.127529
-0.131821
-0.124488
-0.112218
-0.089631
-0.032685
0.007782
0.043747
0.095844
0.137066
0.154676
0.171503
0.152499
0.131867
0.094682
0.053553
-0.011288
-0.054832
-0.097023
-0.124561
-0.150620
-0.158804
-0.157198
-0.147424
-0.111628
-0.055318
0.004129
0.039033
0.070363
0.106273
0.125390
0.133244
0.122500
0.101364
0.075971
0.031147
-0.013177
-0.064568
-0.106241
-0.145048
-0.163953
-0.178206
-0.172558
-0.143068
-0.126533
-0.084624
-0.031726
0.015797
0.055607
0.090537
0.123593
0.127992
0.122036
0.103757
0.067300
0.027547
-0.018846
-0.072798
-0.118865
-0.149753
-0.181491
-0.197425
-0.173725
-0.154018
-0.135112
-0.087162
-0.033547
0.017493
0.045772
0.090758
0.124800
0.122287
0.124810
0.097109
0.061648
0.021530
-0.011095
-0.055070
-0.097541
-0.134831
-0.161193
-0.165724
-0.164062
-0.139964
-0.106662
-0.081331
-0.021437
0.032723
0.074299
0.117679
0.144160
0.141296
0.133826
0.121129
0.086809
0.051580
-0.002869
-0.053218
-0.106304
-0.136429
-0.148158
-0.162189
-0.159813
-0.136040
-0.108165
-0.064098
-0.014205
0.017961
0.064794
0.103085
0.130183
0.141107
0.130309
0.110863
0.083417
0.037357
-0.019185
-0.059506
-0.103684
-0.147910
-0.161827
-0.168499
-0.152313
-0.138283
-0.108136
-0.072617
-0.010319
0.026224
0.080233
0.114854
0.130980
0.142029
0.133885
0.114017
0.085934
0.046648
-0.011032
-0.059139
-0.097252
-0.124243
-0.155554
-0.163008
-0.160872
-0.141100
-0.116914
-0.071215
-0.021788
0.028651
0.070460
0.112734
0.139474
0.134878
0.119581
0.099027
0.052464
0.012052
-0.035274
-0.074020
-0.100673
-0.127078
-0.168429
-0.183455
-0.174288
-0.160283
-0.127360
-0.080856
-0.046454
0.008123
0.070510
0.123109
0.147746
0.152568
0.146476
0.115553
0.084458
0.033541
-0.016305
-0.073525
-0.112434
-0.148724
-0.169278
-0.168706
-0.159142
-0.151668
-0.126277
-0.080406
-0.030110
0.028445
0.089363
0.123487
0.136047
0.119565
0.111242
0.083135
0.055485
0.019799
-0.034106
-0.072158
-0.095720
-0.122289
-0.164050
-0.179870
-0.178129
-0.162380
-0.132630
-0.079200
-0.020725
0.019920
0.063038
0.086927
0.113442
0.115921
0.109079
0.095663
0.055079
0.022316
-0.023442
-0.066432
-0.112814
-0.140697
-0.167479
-0.182942
-0.179516
-0.155715
-0.124717
-0.080653
-0.046766
0.010924
0.051348
0.081970
0.103309
0.124174
0.119584
0.095119
0.053212
0.015501
-0.020041
-0.071850
-0.119559
-0.163250
-0.185115
-0.193861
-0.177547
-0.159380
-0.124808
-0.083085
-0.050155
-0.003537
0.037375
0.075550
0.101082
0.109413
0.094067
0.083051
0.055492
0.020526
-0.031942
-0.085578
-0.119530
-0.146113
-0.175307
-0.186199
-0.183020
-0.164977
-0.130958
-0.087612
-0.038189
0.021094
0.068475
0.104580
0.125320
0.135564
0.125570
0.104580
0.081560
0.039084
-0.019853
-0.066254
-0.113693
-0.133700
-0.152576
-0.161390
-0.151788
-0.128289
-0.095677
-0.062883
-0.010609
0.032016
0.091039
0.137489
0.158830
0.164190
0.161219
0.128198
0.090467
0.047356
0.002777
-0.045932
-0.091134
-0.132660
-0.167828
-0.176333
-0.165404
-0.122043
-0.081835
-0.049192
-0.004927
0.048976
0.100470
0.146431
0.158747
0.171644
0.161244
0.135513
0.102933
0.081730
0.029645
-0.026279
-0.070690
-0.105458
-0.126440
-0.134588
-0.136098
-0.125787
-0.091606
-0.053920
-0.015385
0.032685
0.074251
0.100924
0.122313
0.118441
0.119095
0.105919
0.074675
0.045352
-0.008771
-0.072498
-0.107877
-0.157308
-0.183184
-0.177973
-0.152444
-0.140275
-0.113788
-0.091933
-0.038840
0.007289
0.052203
0.088246
0.097349
0.111595
0.102203
0.085525
0.060087
0.022118
-0.045344
-0.097443
-0.138654
-0.173911
-0.200655
-0.209103
-0.207606
-0.179919
-0.151479
-0.117819
-0.067768
-0.011549
0.034373
0.070336
0.093461
0.089881
0.092818
0.063282
0.038436
0.003864
-0.044341
-0.093736
-0.147948
-0.186519
-0.201602
-0.206778
-0.216789
-0.191305
-0.169524
-0.136753
-0.089167
-0.040336
0.002400
0.030728
0.049294
0.060889
0.068691
0.048687
0.017996
-0.007722
-0.034338
-0.072892
-0.119729
-0.154762
-0.191138
-0.205697
-0.195968
-0.165660
-0.132064
-0.112237
-0.069290
-0.012472
0.026146
0.064654
0.084752
0.089834
0.076818
0.056834
0.020300
-0.017456
-0.083337
-0.122117
-0.165487
-0.189036
-0.204081
-0.200017
-0.194113
-0.177407
-0.150258
-0.109297
-0.047358
-0.010646
0.027128
0.063215
0.072147
0.089958
0.091253
0.065103
0.035714
0.021515
-0.010436
-0.057398
-0.091455
-0.110722
-0.111467
-0.101485
-0.082293
-0.060380
-0.024755
0.023186
0.101170
0.170629
0.235027
0.299186
0.354742
0.389711
0.422722
0.444050
0.458022
0.445960
0.427328
0.416553
0.408132
0.412038
0.440890
0.465069
0.489305
0.541308
0.615223
0.673343
0.738567
0.773909
0.797400
0.819103
0.839412
0.834476
0.817725
0.779718
0.716832
0.645584
0.523284
0.426931
0.335021
0.262745
0.198720
0.129527
0.062083
0.045299
0.063499
0.084480
0.129492
0.176869
0.200638
0.225761
0.235055
0.229541
0.204630
0.173046
0.120063
0.084535
0.044194
-0.018753
-0.052376
-0.082300
-0.103009
-0.124249
-0.129937
-0.114729
-0.078351
-0.028783
0.034388
0.070786
0.099802
0.135756
0.161110
0.157416
0.143718
0.122642
0.092985
0.056523
0.013051
-0.041780
-0.083978
-0.122724
-0.145583
-0.148405
-0.145584
-0.137847
-0.098781
-0.057053
-0.008315
0.043833
0.081444
0.113790
0.120654
0.124419
0.118486
0.090276
0.060772
0.039062
-0.005058
-0.058661
-0.114771
-0.149296
-0.173338
-0.186265
-0.172588
-0.153707
-0.127445
-0.073759
-0.005050
0.058782
0.099430
0.139316
0.149666
0.157611
0.138562
0.122371
0.081880
0.036212
-0.009223
-0.043272
-0.081222
-0.116142
-0.137922
-0.158038
-0.154681
-0.148206
-0.122747
-0.084305
-0.016928
0.056670
0.124687
0.154153
0.169379
0.167702
0.149782
0.144922
0.106754
0.078358
0.032392
-0.014272
-0.049949
-0.097707
-0.130088
-0.125864
-0.127845
-0.112143
-0.087296
-0.040486
0.014513
0.063435
0.108299
0.154604
0.199073
0.209705
0.202335
0.187080
0.149165
0.115882
0.065586
0.012171
-0.033800
-0.077204
-0.102958
-0.099973
-0.085000
-0.049277
-0.022398
0.012155
0.057242
0.101314
0.146085
0.179193
0.201326
0.215228
0.210628
0.191289
0.158352
0.122007
0.056846
0.013876
-0.011326
-0.060035
-0.089087
-0.103282
-0.094974
-0.065437
-0.019960
0.021189
0.066863
0.123487
0.177520
0.239311
0.255889
0.264327
0.259416
0.237114
0.173565
0.147754
0.098295
0.050565
0.014521
-0.027616
-0.039499
-0.064270
-0.064449
-0.044826
-0.001177
0.034909
0.086521
0.119748
0.157125
0.185834
0.205743
0.214516
0.205155
0.175561
0.148186
0.118522
0.080225
0.042440
0.000454
-0.046784
-0.063758
-0.075064
-0.065925
-0.051497
-0.025674
0.017922
0.048894
0.103342
0.138076
0.177788
0.193026
0.204119
0.207011
0.180492
0.144126
0.099669
0.049779
0.009779
-0.019546
-0.071571
-0.099658
-0.111302
-0.111259
-0.094561
-0.061825
-0.023948
0.021344
0.069407
0.106622
0.137917
0.163456
0.176699
0.174124
0.136349
0.109297
0.071542
0.023070
-0.026153
-0.059946
-0.108055
-0.135123
-0.122258
-0.118652
-0.115978
-0.081622
-0.053139
-0.013792
0.035911
0.067935
0.108307
0.140329
0.134439
0.118445
0.108063
0.076360
0.048136
-0.000061
-0.042887
-0.088412
-0.131444
-0.162521
-0.174179
-0.160581
-0.130216
-0.103002
-0.074864
-0.039431
0.003899
0.033629
0.082654
0.106014
0.128972
0.116685
0.092658
0.055804
0.014884
-0.032537
-0.078750
-0.114089
-0.153842
-0.184735
-0.183414
-0.165600
-0.138675
-0.107394
-0.071398
-0.020810
0.010106
0.029241
0.078952
0.096267
0.110050
0.105436
0.066603
0.038320
-0.003320
-0.033828
-0.052276
-0.085385
-0.127691
-0.157470
-0.173770
-0.172962
-0.151763
-0.106721
-0.071426
-0.036813
-0.002889
0.034039
0.065642
0.087743
0.106311
0.099071
0.082480
0.066017
0.042259
0.005698
-0.049703
-0.094451
-0.135405
-0.160670
-0.169131
-0.159920
-0.143309
-0.117155
-0.073543
-0.030507
0.008212
0.043264
0.071848
0.092889
0.103472
0.111542
0.100319
0.073405
0.027558
-0.020620
-0.063338
-0.105067
-0.148366
-0.149663
-0.146557
-0.143489
-0.123112
-0.084847
-0.065587
-0.031582
0.007460
0.050551
0.089962
0.102124
0.118995
0.126967
0.105644
0.064898
0.033719
-0.011403
-0.061579
-0.105618
-0.147390
-0.176385
-0.191745
-0.162793
-0.134846
-0.114609
-0.080104
-0.039893
0.003220
0.045398
0.075633
0.104533
0.125389
0.130464
0.133243
0.101458
0.054407
-0.009648
-0.072013
-0.111371
-0.156101
-0.169439
-0.179787
-0.177772
-0.158595
-0.122435
-0.075906
-0.017908
0.024525
0.048263
0.080743
0.097180
0.092309
0.094566
0.074757
0.039368
0.008401
-0.025064
-0.071071
-0.123247
-0.166893
-0.183657
-0.195607
-0.177361
-0.152393
-0.113935
-0.075116
-0.017637
0.027678
0.065055
0.087074
0.112851
0.117823
0.097683
0.068432
0.035908
0.005366
-0.054622
-0.105697
-0.160182
-0.194237
-0.184372
-0.166661
-0.154231
-0.140846
-0.108041
-0.078401
-0.046083
-0.001004
0.041979
0.084175
0.101254
0.104213
0.083602
0.073090
0.040221
0.007154
-0.033667
-0.078253
-0.125228
-0.162923
-0.191117
-0.204244
-0.202034
-0.186044
-0.146797
-0.101374
-0.057331
-0.008605
0.037579
0.076863
0.095674
0.107636
0.109026
0.079668
0.056068
0.008785
-0.046164
-0.105419
-0.133855
-0.178996
-0.196720
-0.215727
-0.214974
-0.184484
-0.134895
-0.095966
-0.042754
-0.009199
0.037190
0.067604
0.097312
0.111415
0.097751
0.064005
0.024027
-0.004529
-0.055094
-0.102593
-0.136748
-0.176111
-0.203230
-0.208756
-0.208537
-0.184430
-0.166630
-0.120992
-0.079798
-0.014380
0.044505
0.089065
0.091665
0.100246
0.100327
0.084946
0.060626
0.010153
-0.036988
-0.080404
-0.117811
-0.150846
-0.163554
-0.171933
-0.161135
-0.138182
-0.113098
-0.080260
-0.043419
0.010658
0.061926
0.093416
0.126079
0.133908
0.131806
0.108982
0.072127
0.036638
-0.008918
-0.069878
-0.103953
-0.130815
-0.154407
-0.182303
-0.166072
-0.139587
-0.105384
-0.067202
-0.029171
0.024509
0.062204
0.095991
0.130699
0.134590
0.120939
0.094646
0.065611
0.030740
-0.013056
-0.049531
-0.086888
-0.116739
-0.126234
-0.133516
-0.131492
-0.115185
-0.093728
-0.066882
-0.006782
0.047782
0.100129
0.130251
0.143524
0.149310
0.138871
0.111235
0.079913
0.040570
-0.011987
-0.054482
-0.102486
-0.142967
-0.169985
-0.189046
-0.180717
-0.165723
-0.130074
-0.104024
-0.064500
-0.020189
0.029202
0.078824
0.089761
0.113947
0.115038
0.098067
0.044142
-0.014799
-0.051317
-0.096185
-0.140651
-0.176523
-0.197455
-0.211384
-0.219049
-0.199646
-0.183716
-0.148897
-0.105315
-0.043818
0.033079
0.072357
0.087415
0.094141
0.076329
0.043750
0.006181
-0.024432
-0.066041
-0.125180
-0.173525
-0.206602
-0.217259
-0.220056
-0.215104
-0.184963
-0.155827
-0.124406
-0.073591
-0.035300
0.006156
0.043829
0.072496
0.065812
0.068730
0.038220
0.004840
-0.027881
-0.076591
-0.125269
-0.167105
-0.201927
-0.235077
-0.241865
-0.238051
-0.219619
-0.177907
-0.128357
-0.074411
-0.031423
0.017432
0.054752
0.070904
0.082660
0.079230
0.050070
0.010602
-0.028765
-0.072156
-0.131889
-0.168152
-0.198032
-0.220251
-0.230140
-0.228372
-0.195956
-0.153020
-0.121079
-0.076348
-0.040036
0.010535
0.040176
0.054461
0.060265
0.053257
0.029269
0.006553
-0.028579
-0.076453
-0.137009
-0.187396
-0.227428
-0.225975
-0.229196
-0.212047
-0.176414
-0.140179
-0.078714
-0.022530
0.029953
0.075308
0.117779
0.154513
0.183126
0.191990
0.190660
0.171880
0.151088
0.122603
0.089539
0.078660
0.070245
0.079622
0.099004
0.136980
0.196186
0.272175
0.344195
0.431254
0.496040
0.568824
0.647877
0.716989
0.759468
0.785938
0.800675
0.798279
0.781392
0.733675
0.675723
0.621105
0.579168
0.546140
0.523012
0.511040
0.521934
0.515533
0.479393
0.453740
0.446553
0.434967
0.417107
0.387628
0.349596
0.304146
0.254236
0.207975
0.158583
0.111413
0.053784
-0.007713
-0.058384
-0.083729
-0.111974
-0.106951
-0.095180
-0.075721
-0.031941
0.019929
0.063179
0.096075
0.138145
0.159745
0.164121
0.155361
0.131556
0.085978
0.044486
-0.007495
-0.052601
-0.093019
-0.120636
-0.148739
-0.157282
-0.149714
-0.126378
-0.107081
-0.085320
-0.047351
0.005055
0.043685
0.081502
0.118827
0.136770
0.142720
0.114300
0.077418
0.030058
-0.033433
-0.091358
-0.128466
-0.170158
-0.186785
-0.187644
-0.174786
-0.157405
-0.116748
-0.069633
-0.021253
0.016139
0.046771
0.092455
0.112996
0.125297
0.118780
0.093318
0.068600
0.029898
-0.009981
-0.057150
-0.106469
-0.136176
-0.167052
-0.181492
-0.180297
-0.166538
-0.132582
-0.088624
-0.045967
0.005631
0.055854
0.119451
0.148261
0.157643
0.143288
0.123103
0.084261
0.041864
-0.001444
-0.043866
-0.084921
-0.125934
-0.141997
-0.161291
-0.159442
-0.135106
-0.089337
-0.051406
-0.001002
0.057421
0.109252
0.137659
0.165105
0.163014
0.158368
0.137889
0.115978
0.065705
0.022633
-0.023072
-0.062758
-0.101155
-0.131451
-0.139137
-0.135430
-0.113261
-0.080933
-0.031509
0.022764
0.082988
0.122572
0.156263
0.187144
0.195434
0.188883
0.170129
0.132910
0.107409
0.063509
0.002402
-0.036842
-0.068934
-0.086858
-0.096448
-0.085149
-0.069893
-0.041096
-0.007227
0.033169
0.088368
0.147873
0.194042
0.213933
0.221625
0.211912
0.188673
0.156801
0.111327
0.071192
0.023926
-0.012115
-0.042817
-0.043483
-0.057731
-0.065790
-0.046734
-0.027715
0.012456
0.057612
0.106972
0.158637
0.185574
0.201376
0.222212
0.210952
0.193815
0.161949
0.117168
0.080092
0.037516
-0.003284
-0.025180
-0.063516
-0.074755
-0.077743
-0.051838
-0.022664
0.023331
0.050939
0.102257
0.140550
0.177534
0.199760
0.205209
0.188722
0.162884
0.132213
0.089918
0.045741
-0.010775
-0.056380
-0.066158
-0.088171
-0.107162
-0.094021
-0.066400
-0.045889
-0.005740
0.033893
0.071037
0.116810
0.153494
0.173234
0.175640
0.155176
0.135162
0.098880
0.047483
0.021912
-0.034069
-0.080476
-0.114018
-0.137777
-0.152445
-0.132212
-0.119308
-0.089708
-0.045272
-0.001821
0.046951
0.084810
0.135281
0.151241
0.154827
0.143765
0.108106
0.071722
0.031382
-0.024773
-0.075614
-0.115143
-0.159923
-0.194520
-0.192208
-0.175510
-0.144146
-0.106521
-0.045745
-0.006193
0.044693
0.079194
0.109131
0.127596
0.122571
0.106871
0.081364
0.043698
0.003458
-0.037240
-0.097904
-0.130860
-0.164262
-0.186106
-0.197294
-0.183880
-0.166751
-0.135518
-0.078713
-0.034665
0.014672
0.038280
0.088020
0.119567
0.128854
0.108567
0.086154
0.032154
-0.007099
-0.032270
-0.092331
-0.142514
-0.177807
-0.204346
-0.221828
-0.206683
-0.176332
-0.137112
-0.085896
-0.059760
-0.012393
0.036660
0.069255
0.098392
0.105472
0.084779
0.077153
0.056864
0.025668
-0.020697
-0.070447
-0.126739
-0.155709
-0.185116
-0.186731
-0.183571
-0.171512
-0.137470
-0.092434
-0.041624
0.005992
0.040107
0.075221
0.104772
0.125881
0.115891
0.080316
0.048335
0.012616
-0.017670
-0.078979
-0.117238
-0.144016
-0.171477
-0.194327
-0.191434
-0.155837
-0.119572
-0.086899
-0.046973
0.001133
0.057500
0.091506
0.117303
0.130798
0.127233
0.098116
0.064660
0.020068
-0.028123
-0.080458
-0.120479
-0.149994
-0.182891
-0.175849
-0.165707
-0.144558
-0.119592
-0.076775
-0.033711
0.022388
0.063154
0.100800
0.126506
0.117192
0.111316
0.084894
0.060456
0.006565
-0.027543
-0.085206
-0.138899
-0.155624
-0.162774
-0.172148
-0.177203
-0.152192
-0.113469
-0.077625
-0.037235
0.007451
0.046884
0.077413
0.105644
0.116196
0.110422
0.099671
0.074001
0.016373
-0.026978
-0.062963
-0.107269
-0.138032
-0.158936
-0.175870
-0.170041
-0.160522
-0.130216
-0.099148
-0.046566
-0.002094
0.038539
0.069727
0.089149
0.102643
0.098939
0.084505
0.054141
0.004054
-0.030977
-0.094246
-0.138342
-0.170647
-0.195732
-0.193998
-0.192895
-0.172115
-0.150449
-0.095862
-0.052832
-0.000896
0.032484
0.070552
0.099002
0.105665
0.094138
0.080681
0.045717
0.016840
-0.028972
-0.086756
-0.126192
-0.156157
-0.181829
-0.193205
-0.184578
-0.172620
-0.131183
-0.093985
-0.042445
0.004563
0.042423
0.060374
0.088990
0.100728
0.090943
0.068766
0.033078
-0.004181
-0.049324
-0.098059
-0.138089
-0.177463
-0.199775
-0.206710
-0.199108
-0.180644
-0.138750
-0.088315
-0.067372
-0.012545
0.028179
0.045474
0.078885
0.083621
0.067212
0.052339
0.028135
-0.011913
-0.046428
-0.084794
-0.132797
-0.175007
-0.194621
-0.197918
-0.194032
-0.184062
-0.145593
-0.102002
-0.066092
-0.017534
0.032393
0.049927
0.078431
0.082197
0.073936
0.050544
0.029147
-0.011418
-0.046808
-0.099479
-0.133313
-0.160798
-0.189147
-0.199578
-0.187946
-0.162168
-0.131317
-0.093394
-0.052743
-0.004664
0.032234
0.079359
0.104171
0.117413
0.109186
0.077313
0.050839
0.008770
-0.020978
-0.073180
-0.112806
-0.126809
-0.158375
-0.163825
-0.164785
-0.140896
-0.110299
-0.066084
-0.020341
0.021088
0.072096
0.092162
0.110720
0.124457
0.117238
0.103133
0.077044
0.045153
-0.005334
-0.068485
-0.104980
-0.145781
-0.172166
-0.175243
-0.157776
-0.134502
-0.110140
-0.060056
-0.020382
0.033761
0.072401
0.110804
0.135904
0.134838
0.129462
0.107762
0.074617
0.048530
0.013587
-0.040748
-0.091792
-0.124208
-0.165993
-0.190039
-0.183703
-0.159670
-0.122954
-0.090768
-0.043541
0.016280
0.066659
0.092386
0.117976
0.114277
0.099699
0.073088
0.055568
0.005598
-0.051042
-0.103470
-0.147063
-0.167173
-0.200814
-0.204647
-0.187202
-0.173188
-0.145414
-0.099842
-0.070301
-0.029028
0.012528
0.050278
0.072461
0.086628
0.090585
0.053786
0.011003
-0.034455
-0.073868
-0.115235
-0.168546
-0.207708
-0.225420
-0.244417
-0.232355
-0.206029
-0.172417
-0.137813
-0.093284
-0.050520
-0.008019
0.017332
0.049394
0.058095
0.055341
0.045317
0.005148
-0.048324
-0.091685
-0.125836
-0.167876
-0.195356
-0.221249
-0.238433
-0.228953
-0.199279
-0.176226
-0.127561
-0.088245
-0.019793
0.029404
0.055863
0.084970
0.088708
0.067913
0.047588
0.003898
-0.040220
-0.087598
-0.142555
-0.181217
-0.203671
-0.222681
-0.232665
-0.231774
-0.223219
-0.187385
-0.133088
-0.089577
-0.043695
0.004314
0.016700
0.045232
0.049798
0.049799
0.041542
0.013939
-0.035374
-0.077548
-0.123905
-0.171836
-0.200335
-0.233495
-0.246144
-0.237027
-0.227473
-0.198990
-0.152688
-0.103162
-0.050585
-0.006726
0.036680
0.066677
0.076993
0.080408
0.071178
0.054849
0.029721
0.006682
-0.029208
-0.060209
-0.077567
-0.105387
-0.097944
-0.073981
-0.023186
0.014672
0.091569
0.168055
0.253442
0.321300
0.379314
0.440007
0.480421
0.503836
0.531318
0.542475
0.516190
0.503559
0.490676
0.500013
0.509039
0.510391
0.528840
0.551232
0.590393
0.633934
0.661829
0.708488
0.727342
0.751331
0.779479
0.798452
0.779495
0.722896
0.640192
0.545255
0.436577
0.342792
0.250947
0.160342
0.074643
0.000144
-0.022149
-0.037960
-0.022115
0.006712
0.042423
0.072223
0.113461
0.140750
0.165074
0.194030
0.199476
0.183788
0.150487
0.116753
0.062162
0.016396
-0.036420
-0.073344
-0.106924
-0.139037
-0.159078
-0.162454
-0.149969
-0.118576
-0.083855
-0.034385
0.012492
0.052204
0.081534
0.106553
0.116389
0.112849
0.095775
0.073303
0.024873
-0.012170
-0.060572
-0.105083
-0.136831
-0.170222
-0.187197
-0.180805
-0.163075
-0.134355
-0.084561
-0.048215
-0.002348
0.045470
0.076446
0.102495
0.102064
0.091557
0.071531
0.046551
0.009188
-0.027144
-0.074583
-0.122261
-0.144172
-0.174879
-0.182113
-0.164924
-0.145372
-0.116893
-0.086676
-0.050478
-0.007388
0.055004
0.098660
0.116731
0.121896
0.104424
0.082248
0.049480
0.008248
-0.029511
-0.069225
-0.116302
-0.151435
-0.173273
-0.174277
-0.171462
-0.150947
-0.106024
-0.047161
-0.007030
0.032372
0.064226
0.100864
0.133728
0.132104
0.130246
0.113561
0.083561
0.038490
0.011042
-0.043027
-0.084523
-0.123961
-0.145301
-0.159509
-0.149093
-0.135147
-0.107772
-0.053228
-0.002030
0.047421
0.093573
0.130370
0.163169
0.162447
0.159465
0.131340
0.112414
0.074658
0.028984
-0.012083
-0.053335
-0.092248
-0.123842
-0.125859
-0.114552
-0.084518
-0.053259
-0.021540
0.025393
0.075016
0.118503
0.170393
0.193696
0.210496
0.205356
0.183576
0.142234
0.092454
0.047568
0.007965
-0.031668
-0.061661
-0.083655
-0.091580
-0.097394
-0.071588
-0.045723
-0.010495
0.041148
0.099919
0.141237
0.170153
0.194754
0.200194
0.195550
0.174763
0.142588
0.100806
0.058793
0.008899
-0.033922
-0.065673
-0.096317
-0.096509
-0.083190
-0.067805
-0.029794
0.016637
0.051090
0.100038
0.126443
0.165992
0.187956
0.200385
0.190754
0.159167
0.121734
0.083781
0.041640
-0.009632
-0.049566
-0.089128
-0.115463
-0.119162
-0.106908
-0.079807
-0.045666
-0.003313
0.023481
0.068402
0.108460
0.137902
0.172886
0.178748
0.166601
0.140718
0.098707
0.056288
0.016823
-0.022087
-0.066564
-0.105954
-0.136109
-0.148828
-0.146098
-0.119967
-0.086721
-0.040369
0.008906
0.046532
0.084523
0.117557
0.131863
0.133862
0.127309
0.100682
0.065027
0.027091
-0.024045
-0.072247
-0.126114
-0.159538
-0.185603
-0.181276
-0.170275
-0.148438
-0.124005
-0.088063
-0.045166
0.007371
0.051976
0.082728
0.100075
0.090501
0.093290
0.075887
0.039874
-0.002349
-0.048305
-0.083782
-0.140342
-0.175593
-0.204786
-0.205279
-0.191675
-0.180807
-0.154053
-0.108242
-0.062127
-0.015419
0.022426
0.051633
0.068065
0.074010
0.072695
0.068603
0.034593
-0.011325
-0.053179
-0.100919
-0.147307
-0.182862
-0.203124
-0.214054
-0.209860
-0.184447
-0.147760
-0.111344
-0.065154
-0.021267
0.028429
0.061307
0.087221
0.095870
0.097046
0.073490
0.032341
-0.011869
-0.054935
-0.105975
-0.145578
-0.171477
-0.196741
-0.210151
-0.211406
-0.188742
-0.151592
-0.108345
-0.061376
-0.014349
0.026226
0.054740
0.081825
0.086606
0.085485
0.073557
0.041169
0.005739
-0.033365
-0.092409
-0.135328
-0.180271
-0.206726
-0.220078
-0.202879
-0.175383
-0.135982
-0.085135
-0.050237
-0.004746
0.030870
0.052203
0.085016
0.105398
0.096767
0.077439
0.051765
-0.007022
-0.051876
-0.102605
-0.141469
-0.168673
-0.191805
-0.194310
-0.187674
-0.161962
-0.130380
-0.096666
-0.055308
-0.012159
0.036583
0.072529
0.091537
0.101561
0.101141
0.074564
0.036470
0.001580
-0.044301
-0.089497
-0.144832
-0.163975
-0.184010
-0.197888
-0.200812
-0.168304
-0.132052
-0.095830
-0.050237
-0.015900
0.015109
0.045137
0.073029
0.096341
0.085659
0.062481
0.029604
-0.006635
-0.052009
-0.093243
-0.135274
-0.168204
-0.208133
-0.213766
-0.205125
-0.189242
-0.152572
-0.107041
-0.059006
-0.014580
0.037115
0.070710
0.105386
0.115172
0.095453
0.066815
0.036869
-0.007935
-0.051058
-0.101063
-0.147834
-0.182789
-0.215778
-0.216846
-0.217681
-0.194930
-0.151315
-0.094286
-0.055750
-0.012925
0.030934
0.063009
0.083428
0.085227
0.070483
0.049486
0.025001
-0.008994
-0.058316
-0.100479
-0.135357
-0.166019
-0.175882
-0.202238
-0.206309
-0.184074
-0.157990
-0.117855
-0.067800
-0.028002
0.017638
0.051317
0.082931
0.084938
0.078031
0.057131
0.020183
-0.019559
-0.069727
-0.118145
-0.143410
-0.168615
-0.204431
-0.211298
-0.217821
-0.204014
-0.178591
-0.136644
-0.088543
-0.025428
0.016721
0.051020
0.069321
0.069482
0.063098
0.036994
0.011035
-0.037714
-0.067951
-0.113163
-0.159613
-0.199130
-0.213927
-0.221882
-0.213315
-0.187798
-0.159468
-0.114178
-0.084705
-0.040853
-0.014929
0.020760
0.045070
0.057034
0.055586
0.037722
0.026889
-0.018401
-0.062944
-0.117030
-0.153660
-0.182206
-0.206831
-0.221569
-0.218707
-0.194882
-0.164310
-0.124937
-0.074551
-0.036117
0.008341
0.041913
0.060012
0.066261
0.050793
0.044405
0.009122
-0.030956
-0.074814
-0.123976
-0.156830
-0.170161
-0.193083
-0.208475
-0.206024
-0.177421
-0.142428
-0.091303
-0.055802
-0.016368
0.028432
0.075822
0.092054
0.097570
0.086884
0.068580
0.041014
-0.008486
-0.053015
-0.099147
-0.124967
-0.156106
-0.178589
-0.178946
-0.178070
-0.161815
-0.142252
-0.106242
-0.063475
-0.020754
0.024760
0.062708
0.090610
0.100102
0.087586
0.062919
0.037370
-0.011485
-0.039076
-0.057768
-0.102119
-0.146276
-0.171661
-0.187226
-0.177377
-0.145055
-0.119226
-0.089084
-0.039481
0.005457
0.053162
0.081081
0.101778
0.104560
0.103141
0.086546
0.049955
0.007424
-0.042364
-0.072582
-0.118021
-0.153713
-0.189139
-0.190945
-0.181999
-0.162531
-0.139662
-0.107652
-0.055912
-0.016444
0.022909
0.065322
0.071837
0.079417
0.081051
0.065275
0.016960
-0.035795
-0.081827
-0.125080
-0.164253
-0.204966
-0.226004
-0.233958
-0.234790
-0.211167
-0.182197
-0.137697
-0.093436
-0.058969
-0.014031
0.014698
0.042119
0.032898
0.026311
0.005734
-0.020094
-0.071427
-0.114301
-0.137930
-0.189413
-0.226547
-0.249101
-0.251917
-0.257231
-0.224118
-0.200677
-0.149237
-0.103585
-0.061455
-0.019605
0.015445
0.031483
0.049392
0.031083
0.012717
-0.020766
-0.052405
-0.120757
-0.160894
-0.195079
-0.233238
-0.260023
-0.259056
-0.256627
-0.224891
-0.200715
-0.156927
-0.111863
-0.077918
-0.029031
0.018606
0.029102
0.035992
0.034828
0.017965
-0.024461
-0.067752
-0.117069
-0.152388
-0.189294
-0.220541
-0.243425
-0.258161
-0.258169
-0.237446
-0.209048
-0.168685
-0.115426
-0.076129
-0.017544
0.008892
0.027778
0.037773
0.033500
0.007373
-0.027802
-0.069490
-0.125807
-0.174463
-0.215826
-0.237227
-0.254064
-0.258870
-0.253086
-0.220111
-0.190384
-0.149533
-0.101856
-0.041631
0.016895
0.065518
0.097064
0.118544
0.140345
0.135400
0.107714
0.079254
0.044138
0.031110
0.003867
-0.004913
-0.001217
0.025652
0.055456
0.104727
0.165227
0.232088
0.311413
0.390375
0.480836
0.560148
0.603782
0.643348
0.698398
0.721880
0.712869
0.693404
0.675680
0.651285
0.608031
0.565431
0.544450
0.539982
0.515588
0.527422
0.530334
0.544223
0.547457
0.522217
0.511722
0.486246
0.451831
0.409754
0.364186
0.298125
0.220748
0.165840
0.099543
0.052788
-0.004848
-0.062161
-0.084376
-0.106086
-0.113020
-0.096643
-0.068429
-0.028837
0.017252
0.042764
0.073894
0.118213
0.136688
0.140163
0.137514
0.105068
0.075309
0.030817
-0.025352
-0.055980
-0.112589
-0.141573
-0.165278
-0.183465
-0.191165
-0.165484
-0.139147
-0.106945
-0.067753
-0.025099
0.014578
0.055283
0.086103
0.081858
0.080875
0.061264
0.019053
-0.017657
-0.058346
-0.096574
-0.144757
-0.178988
-0.212748
-0.221491
-0.213522
-0.186113
-0.164051
-0.135798
-0.082490
-0.033667
0.006259
0.049690
0.070712
0.082128
0.076517
0.061432
0.040303
-0.004576
-0.054378
-0.092567
-0.136441
-0.166021
-0.190444
-0.196734
-0.203087
-0.176828
-0.143112
-0.100876
-0.067052
-0.017997
0.028042
0.060009
0.078393
0.093807
0.086944
0.075125
0.045224
0.009382
-0.037314
-0.082522
-0.117053
-0.150255
-0.161915
-0.172658
-0.171250
-0.141131
-0.110774
-0.072224
-0.024386
-0.000835
0.042600
0.087217
0.104028
0.128032
0.135785
0.107741
0.071060
0.020594
-0.018878
-0.054559
-0.106471
-0.131669
-0.160986
-0.167812
-0.157705
-0.140773
-0.097623
-0.053725
-0.002156
0.043723
0.087333
0.122845
0.130780
0.149476
0.137514
0.113909
0.082664
0.043626
0.000317
-0.032222
-0.071200
-0.097636
-0.115431
-0.127933
-0.114112
-0.096505
-0.064567
-0.027993
0.021000
0.061321
0.101114
0.137501
0.162775
0.173054
0.166144
0.128686
0.104362
0.085554
0.049272
0.001495
-0.056324
-0.086506
-0.098962
-0.111727
-0.113525
-0.092765
-0.048866
-0.008334
0.038479
0.067519
0.124435
0.167036
0.196491
0.197871
0.191389
0.170159
0.126621
0.096069
0.043013
-0.007730
-0.061123
-0.094176
-0.116452
-0.128414
-0.118635
-0.101149
-0.065441
-0.024435
0.018065
0.056330
0.107315
0.153419
0.182140
0.194744
0.178913
0.156564
0.122975
0.073226
0.021891
-0.025305
-0.062187
-0.106540
-0.123493
-0.137719
-0.129731
-0.113283
-0.086156
-0.051435
0.006258
0.046307
0.083045
0.100090
0.120550
0.136206
0.124623
0.104894
0.080875
0.041604
0.002317
-0.038949
-0.096655
-0.132124
-0.162721
-0.175045
-0.180222
-0.154881
-0.123913
-0.075687
-0.023234
0.010267
0.051159
0.097022
0.101804
0.105695
0.092218
0.072253
0.032439
-0.005839
-0.052674
-0.100272
-0.139033
-0.174888
-0.179752
-0.185513
-0.194530
-0.170904
-0.140372
-0.102175
-0.051669
-0.008280
0.028709
0.056976
0.069116
0.069954
0.075915
0.057010
0.027560
-0.017226
-0.065835
-0.101338
-0.138191
-0.178737
-0.206487
-0.228120
-0.216787
-0.194908
-0.150626
-0.119186
-0.075966
-0.035447
0.001036
0.031269
0.047616
0.062849
0.067325
0.057755
0.019786
-0.009866
-0.058848
-0.096977
-0.144991
-0.182022
-0.214000
-0.222322
-0.220016
-0.202142
-0.176351
-0.135896
-0.090873
-0.044127
0.008686
0.041443
0.052566
0.065025
0.071296
0.052391
0.024134
-0.005881
-0.053785
-0.103935
-0.147202
-0.193146
-0.222448
-0.232826
-0.216834
-0.194177
-0.164725
-0.124317
-0.073218
-0.030792
0.019341
0.047519
0.074542
0.078465
0.076485
0.056199
0.030716
-0.010295
-0.045137
-0.086443
-0.130132
-0.158000
-0.185127
-0.201637
-0.205461
-0.189141
-0.151695
-0.095230
-0.053052
-0.010401
0.025029
0.059184
0.073824
0.091976
0.079646
0.057519
0.021730
-0.018689
-0.059448
-0.092974
-0.146248
-0.173793
-0.190238
-0.217127
-0.210588
-0.192911
-0.155366
-0.120332
-0.072881
-0.034984
0.022243
0.071172
0.090831
0.115886
0.116386
0.085500
0.046624
-0.006689
-0.052300
-0.099550
-0.152460
-0.193141
-0.209004
-0.213555
-0.204288
-0.186517
-0.163857
-0.114557
-0.071984
-0.028635
0.019415
0.049047
0.067525
0.080320
0.084904
0.071642
0.038895
0.001560
-0.051891
-0.088981
-0.126199
-0.169908
-0.196248
-0.207131
-0.214958
-0.188929
-0.157846
-0.118491
-0.079811
-0.029174
0.016839
0.050606
0.066413
0.075914
0.077968
0.059731
0.026761
-0.013386
-0.062754
-0.112107
-0.146364
-0.165738
-0.195189
-0.213737
-0.206790
-0.195850
-0.163107
-0.118911
-0.070358
-0.026183
0.014367
0.044005
0.061871
0.080359
0.075916
0.048380
0.023455
-0.025288
-0.068277
-0.113259
-0.164229
-0.202443
-0.224737
-0.235735
-0.225517
-0.198639
-0.157667
-0.112158
-0.070835
-0.034914
0.000746
0.030119
0.042439
0.062069
0.053484
0.031673
0.004646
-0.030730
-0.087908
-0.122954
-0.159133
-0.194530
-0.219745
-0.228551
-0.230749
-0.214549
-0.177603
-0.135936
-0.090183
-0.054852
-0.008926
0.027177
0.042528
0.061891
0.060157
0.046083
0.016869
-0.032736
-0.076497
-0.115411
-0.164654
-0.195786
-0.214120
-0.225421
-0.221105
-0.190990
-0.150075
-0.112101
-0.067302
-0.027614
0.008677
0.034761
0.057133
0.061934
0.050631
0.048681
0.020180
-0.026932
-0.073968
-0.112272
-0.164322
-0.203172
-0.223752
-0.241684
-0.227278
-0.203257
-0.167907
-0.135938
-0.085552
-0.043699
-0.003468
0.038313
0.059557
0.089468
0.075715
0.055311
0.019027
-0.024933
-0.073296
-0.110538
-0.156145
-0.188695
-0.204295
-0.217061
-0.200213
-0.177846
-0.146715
-0.099975
-0.060691
-0.009188
0.035467
0.065363
0.091987
0.097292
0.091573
0.067096
0.034975
-0.006363
-0.049849
-0.092608
-0.120064
-0.174054
-0.186692
-0.207743
-0.194226
-0.169307
-0.130537
-0.083396
-0.036361
0.000812
0.041761
0.073501
0.095665
0.103556
0.098114
0.079144
0.060831
0.023173
-0.026531
-0.066497
-0.113140
-0.148152
-0.167406
-0.186734
-0.164058
-0.144448
-0.121315
-0.081911
-0.042474
-0.005284
0.040021
0.076773
0.094504
0.104575
0.086281
0.063264
0.036334
0.007957
-0.054028
-0.093783
-0.138919
-0.176562
-0.199874
-0.214489
-0.205931
-0.203015
-0.169195
-0.125272
-0.074727
-0.038337
0.004167
0.033437
0.066023
0.080114
0.062126
0.048523
0.012981
-0.030643
-0.085043
-0.125598
-0.166670
-0.202983
-0.224513
-0.239521
-0.234499
-0.216372
-0.180854
-0.143511
-0.098940
-0.070777
-0.027734
0.010940
0.036473
0.045573
0.044110
0.018290
-0.019264
-0.053732
-0.103515
-0.155894
-0.203932
-0.235976
-0.251784
-0.268293
-0.247473
-0.225255
-0.191109
-0.152553
-0.104817
-0.068480
-0.028937
0.000862
0.029357
0.030531
0.036241
0.026050
0.000748
-0.052504
-0.097317
-0.142584
-0.181488
-0.213329
-0.244325
-0.250632
-0.241415
-0.218577
-0.188465
-0.152067
-0.107588
-0.066387
-0.021031
0.014539
0.035862
0.047774
0.037431
0.000936
-0.013137
-0.039497
-0.093306
-0.142561
-0.186896
-0.218847
-0.236938
-0.249870
-0.247221
-0.219012
-0.191937
-0.158241
-0.110343
-0.070982
-0.037966
-0.002160
0.015100
0.027510
0.029600
0.009065
-0.018112
-0.057806
-0.102346
-0.134760
-0.183123
-0.207733
-0.210232
-0.208938
-0.176812
-0.139357
-0.090380
-0.035706
0.022239
0.070566
0.134515
0.178874
0.232825
0.268372
0.275478
0.277251
0.273311
0.258666
0.240495
0.234326
0.231633
0.224905
0.252062
0.268003
0.311107
0.361494
0.435887
0.530040
0.601970
0.676223
0.740391
0.801703
0.826307
0.830634
0.817915
0.811538
0.765819
0.703145
0.637900
0.590458
0.511208
0.425331
0.324748
0.258450
0.196894
0.175649
0.160283
0.155123
0.160713
0.166496
0.189175
0.207242
0.217792
0.224486
0.210193
0.185112
0.140379
0.093424
0.035704
-0.021441
-0.077935
-0.120126
-0.142149
-0.145126
-0.141516
-0.129988
-0.082451
-0.051611
-0.026131
0.031094
0.068708
0.098711
0.111283
0.123379
0.109395
0.090055
0.057867
0.014687
-0.042185
-0.080151
-0.125399
-0.154520
-0.175120
-0.176068
-0.181315
-0.159958
-0.132181
-0.099395
-0.051459
-0.000806
0.036623
0.059218
0.075978
0.089641
0.078116
0.048851
0.008590
-0.021904
-0.072372
-0.096278
-0.135267
-0.172882
-0.192410
-0.195979
-0.180247
-0.150469
-0.121498
-0.086169
-0.034610
0.003375
0.044509
0.073121
0.094937
0.092764
0.091036
0.067687
0.031281
-0.006658
-0.056898
-0.099752
-0.135462
-0.167874
-0.177527
-0.179627
-0.174836
-0.163846
-0.136238
-0.092144
-0.036264
0.014188
0.049326
0.085003
0.105876
0.113933
0.112328
0.103809
0.068802
0.018043
-0.028780
-0.067963
-0.112737
-0.140586
-0.166736
-0.161568
-0.145361
-0.117792
-0.095170
-0.062356
-0.012383
0.039921
0.074034
0.115943
0.136431
0.156698
0.150944
0.124230
0.090986
0.050947
0.004932
-0.046853
-0.088628
-0.115160
-0.131722
-0.136434
-0.127854
-0.115862
-0.074967
-0.025176
0.016095
0.063372
0.102195
0.140250
0.160313
0.183756
0.168967
0.145898
0.113671
0.062362
0.011589
-0.042370
-0.065012
-0.093185
-0.102923
-0.108801
-0.123177
-0.111788
-0.078868
-0.021379
0.039179
0.099052
0.134556
0.155312
0.188491
0.200438
0.197945
0.186411
0.154684
0.131309
0.076859
0.028482
-0.015416
-0.054618
-0.083348
-0.103886
-0.089335
-0.066127
-0.033765
0.009005
0.050031
0.100742
0.142259
0.177838
0.194634
0.210160
0.203055
0.187361
0.155708
0.105089
0.043475
-0.010980
-0.053050
-0.089707
-0.116521
-0.116732
-0.111191
-0.096674
-0.062199
-0.014587
0.030858
0.071422
0.110390
0.142507
0.161680
0.182604
0.176127
0.154334
0.113403
0.073629
0.029280
-0.013215
-0.055479
-0.091815
-0.131109
-0.132941
-0.130944
-0.113988
-0.069414
-0.033232
0.011922
0.052063
0.092308
0.115626
0.145403
0.153294
0.129090
0.121460
0.082920
0.049055
0.003143
-0.050513
-0.101884
-0.137584
-0.163502
-0.165457
-0.151652
-0.134578
-0.106887
-0.064425
-0.026182
0.015107
0.059477
0.085740
0.086488
0.093832
0.087882
0.066870
0.038536
-0.002363
-0.043346
-0.093996
-0.139484
-0.166833
-0.178936
-0.186172
-0.182570
-0.169067
-0.139256
-0.090479
-0.044455
0.003618
0.041617
0.075070
0.101674
0.116357
0.093913
0.073952
0.037257
-0.002003
-0.056359
-0.100487
-0.134495
-0.162413
-0.190791
-0.210494
-0.206260
-0.185413
-0.143405
-0.103658
-0.056808
-0.008394
0.028390
0.057632
0.081621
0.085099
0.082241
0.060058
0.027905
-0.010172
-0.056693
-0.104902
-0.150710
-0.183038
-0.202918
-0.192256
-0.183475
-0.170672
-0.143617
-0.103182
-0.059514
-0.010936
0.030181
0.061403
0.077607
0.087004
0.068931
0.055069
0.015751
-0.022742
-0.055282
-0.093401
-0.107891
-0.134764
-0.173267
-0.184513
-0.181174
-0.167942
-0.142512
-0.097674
-0.055742
-0.013334
0.034297
0.078389
0.088124
0.091845
0.089476
0.070248
0.036002
0.000335
-0.056666
-0.108355
-0.143411
-0.158788
-0.169406
-0.181243
-0.193366
-0.168077
-0.142663
-0.096818
-0.043918
0.011961
0.048636
0.070721
0.100174
0.102017
0.100786
0.086243
0.050586
0.001563
-0.042313
-0.089724
-0.120960
-0.156713
-0.182261
-0.203204
-0.193608
-0.171820
-0.134426
-0.087706
-0.041963
-0.001792
0.043822
0.075540
0.104276
0.107790
0.107332
0.085833
0.049275
0.011618
-0.046748
-0.095893
-0.138040
-0.175490
-0.198266
-0.193770
-0.187677
-0.174615
-0.144516
-0.097753
-0.045932
0.004502
0.059833
0.102309
0.103168
0.112269
0.083725
0.060407
0.022655
-0.015828
-0.052032
-0.096264
-0.134137
-0.171604
-0.199626
-0.210791
-0.199248
-0.183356
-0.141779
-0.103265
-0.062612
-0.023441
0.017285
0.053489
0.092102
0.098476
0.086866
0.066584
0.032356
-0.003606
-0.037424
-0.087551
-0.122509
-0.163623
-0.192969
-0.209112
-0.218687
-0.187392
-0.154011
-0.102299
-0.064249
-0.021420
0.022127
0.061741
0.091165
0.096614
0.088868
0.066921
0.030793
-0.020054
-0.067678
-0.114309
-0.149204
-0.180121
-0.198666
-0.209478
-0.210828
-0.188799
-0.141691
-0.099310
-0.057304
-0.019211
0.020046
0.053155
0.085725
0.085046
0.086128
0.066683
0.038219
-0.001245
-0.058100
-0.109869
-0.145325
-0.180349
-0.206530
-0.223453
-0.216742
-0.194938
-0.159964
-0.123694
-0.074567
-0.030739
0.011636
0.063935
0.079106
0.083214
0.080806
0.060079
0.018702
-0.023087
-0.069862
-0.119186
-0.153065
-0.184811
-0.208079
-0.211645
-0.211551
-0.187011
-0.157606
-0.114695
-0.072213
-0.021074
0.011098
0.061949
0.083477
0.094737
0.091385
0.067209
0.031917
-0.003979
-0.038183
-0.093996
-0.132825
-0.155035
-0.193239
-0.195603
-0.186506
-0.160196
-0.129389
-0.089992
-0.046321
-0.008947
0.033462
0.073515
0.099139
0.112376
0.104060
0.096473
0.051309
0.013177
-0.038864
-0.084081
-0.125794
-0.151366
-0.167863
-0.167369
-0.168546
-0.154852
-0.116813
-0.078305
-0.029331
0.010003
0.047848
0.087557
0.112015
0.118038
0.117568
0.097577
0.068321
0.024471
-0.022509
-0.062102
-0.105973
-0.143947
-0.166853
-0.160312
-0.147297
-0.127271
-0.092746
-0.063601
-0.024978
0.026112
0.047299
0.084135
0.119669
0.119527
0.110942
0.092389
0.056546
0.015043
-0.023533
-0.075157
-0.119279
-0.163446
-0.179945
-0.197060
-0.189363
-0.172712
-0.143370
-0.104722
-0.060180
-0.009604
0.023766
0.055513
0.074070
0.081127
0.076093
0.052533
0.011279
-0.045833
-0.075024
-0.125508
-0.155272
-0.181841
-0.211239
-0.218609
-0.217323
-0.205874
-0.169097
-0.125834
-0.080783
-0.035006
-0.003951
0.019818
0.039972
0.046583
0.050170
0.033921
-0.012312
-0.041509
-0.089123
-0.142763
-0.167913
-0.196338
-0.215636
-0.222907
-0.229106
-0.216525
-0.167362
-0.131772
-0.091398
-0.039794
-0.006351
0.027150
0.042772
0.047932
0.043420
0.026182
0.005778
-0.030830
-0.081447
-0.129368
-0.165617
-0.201846
-0.226794
-0.230718
-0.226516
-0.208085
-0.171447
-0.138291
-0.090142
-0.045973
-0.009879
0.023207
0.040357
0.050753
0.041724
0.021539
-0.014584
-0.044442
-0.080457
-0.128588
-0.164924
-0.195318
-0.213474
-0.217532
-0.224011
-0.201882
-0.178837
-0.144576
-0.103704
-0.054572
-0.021851
0.040248
0.038126
0.042929
0.048678
0.047022
0.013058
-0.017162
-0.053197
-0.097404
-0.131659
-0.150324
-0.150178
-0.150136
-0.129954
-0.096443
-0.039874
0.013505
0.070789
0.129008
0.186966
0.234859
0.284049
0.312234
0.337433
0.358885
0.348243
0.328573
0.304038
0.281308
0.276702
0.267162
0.267461
0.286843
0.323055
0.371189
0.447108
0.521434
0.601584
0.679821
0.740880
0.787958
0.802133
0.810410
0.806638
0.779931
0.739818
0.679573
0.608233
0.505356
0.395112
0.294191
0.215789
0.157447
0.106433
0.087776
0.077145
0.077639
0.095609
0.116587
0.143337
0.159972
0.177322
0.175081
0.164573
0.144353
0.108939
0.063884
0.017828
-0.025011
-0.062310
-0.106622
-0.136963
-0.151316
-0.149995
-0.125329
-0.085820
-0.042630
0.001184
0.039407
0.075181
0.107970
0.122219
0.130620
0.127646
0.105145
0.075186
0.026273
-0.025792
-0.060690
-0.096433
-0.143107
-0.175006
-0.182637
-0.177611
-0.174467
-0.145118
-0.094338
-0.047329
0.012450
0.055169
0.081421
0.087498
0.105187
0.119669
0.087647
0.060723
0.022655
-0.029594
-0.080842
-0.110482
-0.143610
-0.164279
-0.173646
-0.179763
-0.156098
-0.120928
-0.084652
-0.032248
0.014175
0.052230
0.075070
0.104886
0.101921
0.093913
0.078472
0.065312
0.029105
-0.016657
-0.064263
-0.101938
-0.129793
-0.147202
-0.162375
-0.160715
-0.133476
-0.101883
-0.055994
0.000932
0.046143
0.060657
0.098555
0.119918
0.125541
0.131678
0.105065
0.067574
0.032151
-0.009661
-0.040092
-0.071036
-0.116139
-0.141205
-0.138841
-0.137527
-0.121334
-0.092625
-0.048540
0.010287
0.052204
0.096934
0.139935
0.164896
0.169479
0.171480
0.135902
0.101572
0.066583
0.032592
-0.011623
-0.051300
-0.094235
-0.114229
-0.121819
-0.110791
-0.084214
-0.030978
0.001237
0.048155
0.097285
0.135113
0.166849
0.183298
0.185795
0.188788
0.165143
0.137947
0.096419
0.050038
0.003963
-0.028231
-0.049558
-0.068371
-0.072766
-0.072601
-0.050217
-0.012114
0.021604
0.056708
0.102935
0.142304
0.176244
0.197612
0.211375
0.209901
0.176859
0.151290
0.112953
0.072809
0.028811
-0.013435
-0.051560
-0.068384
-0.074504
-0.058941
-0.037603
-0.009129
0.026714
0.073455
0.127025
0.147878
0.185085
0.208117
0.203487
0.203377
0.179525
0.142963
0.100090
0.062539
0.023040
-0.018600
-0.059898
-0.071537
-0.082817
-0.073054
-0.064516
-0.028141
0.013496
0.061055
0.104239
0.134899
0.175617
0.189376
0.196895
0.195298
0.174653
0.156970
0.104577
0.061044
0.015607
-0.030631
-0.074123
-0.108714
-0.110597
-0.102059
-0.080623
-0.053277
-0.022111
0.021090
0.069930
0.088913
0.127330
0.166984
0.171643
0.172947
0.140916
0.103148
0.059650
0.011194
-0.038775
-0.073753
-0.102791
-0.135302
-0.135251
-0.138617
-0.119476
-0.093930
-0.055787
0.007913
0.047258
0.082298
0.109030
0.124616
0.118974
0.126822
0.103233
0.073296
0.034811
-0.011553
-0.069899
-0.112585
-0.138715
-0.160391
-0.180512
-0.178935
-0.146879
-0.112047
-0.073375
-0.024135
0.029871
0.055547
0.090869
0.126518
0.138061
0.148427
0.119259
0.069932
0.018904
-0.027936
-0.075466
-0.117250
-0.145062
-0.174603
-0.181187
-0.176485
-0.154029
-0.126238
-0.087209
-0.033460
0.012422
0.050225
0.079582
0.095729
0.101860
0.099056
0.087688
0.070379
0.026203
-0.020716
-0.070364
-0.119849
-0.144430
-0.172804
-0.193937
-0.193816
-0.163204
-0.126018
-0.078280
-0.011469
0.032427
0.073457
0.104883
0.128444
0.130757
0.122630
0.111840
0.075881
0.029704
-0.025053
-0.073459
-0.113617
-0.146686
-0.172191
-0.167718
-0.159406
-0.142143
-0.115535
-0.076581
-0.025699
0.026245
0.053626
0.079851
0.106345
0.126789
0.120471
0.099294
0.072733
0.031640
-0.009804
-0.059271
-0.103302
-0.144011
-0.170994
-0.170836
-0.171508
-0.143993
-0.113876
-0.071030
-0.016168
0.037108
0.073961
0.113304
0.140236
0.144814
0.142269
0.116135
0.080094
0.031920
-0.011094
-0.048145
-0.088482
-0.116446
-0.141147
-0.158210
-0.150768
-0.137020
-0.106788
-0.066517
-0.016660
0.032732
0.079985
0.103333
0.126308
0.130439
0.134335
0.113448
0.083609
0.054234
0.003002
-0.050646
-0.088907
-0.123053
-0.159795
-0.167950
-0.161498
-0.141288
-0.122957
-0.072426
-0.022805
0.020487
0.067563
0.115281
0.134367
0.138098
0.129489
0.096055
0.064080
0.016467
-0.030838
-0.075318
-0.100429
-0.119678
-0.152457
-0.162028
-0.165102
-0.154769
-0.118126
-0.074624
-0.019975
0.032207
0.067365
0.092466
0.122433
0.123876
0.110663
0.087163
0.055986
0.023365
-0.022186
-0.068852
-0.112283
-0.141764
-0.158004
-0.169907
-0.172078
-0.155987
-0.132126
-0.079687
-0.033593
0.013911
0.060623
0.087433
0.108329
0.121902
0.118408
0.101047
0.068397
0.019439
-0.021931
-0.066516
-0.105261
-0.140348
-0.166732
-0.175248
-0.176578
-0.146767
-0.107980
-0.069083
-0.029441
0.013654
0.065007
0.101193
0.113886
0.131401
0.122480
0.088452
0.059258
0.023993
-0.014278
-0.059029
-0.099413
-0.131742
-0.155055
-0.173236
-0.160992
-0.144135
-0.107793
-0.070028
-0.037211
0.012035
0.050674
0.074064
0.102191
0.110134
0.122104
0.093738
0.067919
0.015932
-0.036420
-0.075068
-0.105471
-0.142202
-0.162244
-0.174339
-0.170832
-0.142034
-0.109960
-0.061995
-0.013829
0.048458
0.074028
0.102836
0.118721
0.135259
0.133706
0.102171
0.073310
0.035516
-0.010074
-0.048466
-0.084191
-0.113967
-0.130881
-0.131844
-0.127017
-0.119541
-0.089305
-0.035695
0.010264
0.048935
0.082469
0.112953
0.137581
0.149416
0.138632
0.111298
0.098317
0.051445
0.010761
-0.031969
-0.065284
-0.100736
-0.124850
-0.131209
-0.127158
-0.111005
-0.076023
-0.032392
0.020208
0.069050
0.113345
0.142113
0.171642
0.191175
0.180906
0.159747
0.120733
0.069701
0.017784
-0.036335
-0.083427
-0.115808
-0.146043
-0.151677
-0.143268
-0.117398
-0.083306
-0.048094
-0.002107
0.049354
0.075013
0.104565
0.123084
0.135854
0.134794
0.103187
0.081190
0.042731
-0.013454
-0.060412
-0.109743
-0.140474
-0.172438
-0.174433
-0.166224
-0.148512
-0.124697
-0.080895
-0.033725
0.000639
0.041121
0.088196
0.103856
0.105238
0.113352
0.079506
0.044775
0.005775
-0.037852
-0.099967
-0.133937
-0.164746
-0.191554
-0.195469
-0.189463
-0.162211
-0.120307
-0.086147
-0.046888
-0.005901
0.036342
0.071710
0.096221
0.095795
0.091373
0.072569
0.047420
0.005438
-0.050417
-0.088662
-0.130682
-0.169176
-0.191748
-0.202702
-0.201948
-0.181921
-0.152409
-0.111046
-0.056518
-0.008398
0.028589
0.061071
0.079779
0.100746
0.099221
0.075806
0.037921
-0.003128
-0.045831
-0.093633
-0.138650
-0.168264
-0.186638
-0.195818
-0.190543
-0.170050
-0.133748
-0.097328
-0.056133
-0.004093
0.039450
0.074511
0.094426
0.101810
0.103862
0.083397
0.044429
-0.010013
-0.058693
-0.106934
-0.144143
-0.174454
-0.188946
-0.190325
-0.195230
-0.163634
-0.135841
-0.085541
-0.030728
0.025848
0.073448
0.118429
0.169054
0.188580
0.199450
0.202711
0.176018
0.141853
0.102343
0.077287
0.045546
0.037016
0.057485
0.093404
0.126074
0.155098
0.217242
0.287173
0.362371
0.436672
0.519592
0.566047
0.613591
0.655869
0.682592
0.693575
0.701843
0.685092
0.681948
0.656339
0.629059
0.609273
0.583471
0.572631
0.569027
0.573249
0.589569
0.613422
0.603684
0.587863
0.567167
0.551755
0.497489
0.467689
0.419537
0.343185
0.277585
0.205207
0.142484
0.080851
0.013400
-0.032506
-0.069009
-0.088292
-0.081408
-0.058424
-0.036967
0.006948
0.046144
0.099235
0.131484
0.163485
0.190094
0.195436
0.182667
0.156228
0.123636
0.073457
0.027259
-0.019008
-0.063570
-0.092570
-0.122478
-0.136954
-0.123850
-0.101934
-0.076799
-0.034482
0.010595
0.061054
0.093611
0.122299
0.144469
0.151239
0.143154
0.116811
0.089768
0.047657
-0.000645
-0.041231
-0.072400
-0.112619
-0.140869
-0.144848
-0.140033
-0.111338
-0.079023
-0.044118
0.008945
0.049510
0.087632
0.135607
0.143744
0.154013
0.140874
0.126739
0.103050
0.057708
-0.001061
-0.035868
-0.082766
-0.105515
-0.131596
-0.127696
-0.130248
-0.114462
-0.076185
-0.030890
0.008042
0.054739
0.097505
0.122606
0.150848
0.165983
0.164610
0.138974
0.105708
0.068139
0.022703
-0.025731
-0.072955
-0.101674
-0.116082
-0.128021
-0.102460
-0.083356
-0.046880
-0.000826
0.030767
0.076969
0.125479
0.158395
0.190645
0.189195
0.174116
0.160514
0.124910
0.081371
0.039372
-0.008834
-0.045823
-0.079253
-0.095777
-0.088683
-0.083475
-0.068883
-0.040166
0.009488
0.062647
0.100065
0.143323
0.165407
0.192859
0.212591
0.192385
0.179586
0.159170
0.118830
0.089328
0.033302
-0.017772
-0.040970
-0.062490
-0.073315
-0.067639
-0.052883
-0.014781
0.025360
0.073953
0.108676
0.165275
0.199934
0.243203
0.259263
0.248147
0.224527
0.193214
0.148425
0.106608
0.066906
0.027336
-0.018698
-0.042822
-0.047514
-0.040112
-0.015664
0.016121
0.052820
0.101046
0.146791
0.192622
0.224079
0.234675
0.235935
0.238617
0.222594
0.182689
0.146207
0.092638
0.042460
-0.002734
-0.029476
-0.045802
-0.049069
-0.050182
-0.031998
-0.006647
0.033239
0.077336
0.118677
0.167563
0.190856
0.222621
0.227399
0.230348
0.209307
0.182365
0.134628
0.083639
0.033913
-0.018427
-0.046910
-0.070265
-0.080977
-0.074382
-0.050423
-0.020842
0.019841
0.053853
0.103501
0.139817
0.159505
0.192252
0.215681
0.192236
0.166243
0.146396
0.107077
0.049839
-0.010333
-0.053117
-0.071172
-0.097127
-0.109635
-0.114588
-0.094800
-0.063222
-0.025299
0.012534
0.072630
0.115866
0.143004
0.162514
0.167925
0.152178
0.124429
0.098702
0.061661
0.016919
-0.029835
-0.063746
-0.101170
-0.111342
-0.122911
-0.118261
-0.107197
-0.085768
-0.046071
-0.000254
0.039623
0.076679
0.106942
0.145690
0.148731
0.129833
0.111832
0.089217
0.039922
-0.002814
-0.049218
-0.085762
-0.113265
-0.142668
-0.158198
-0.147131
-0.135848
-0.114039
-0.060393
-0.013666
0.037239
0.074635
0.103369
0.119306
0.135056
0.125725
0.101785
0.074260
0.036460
-0.019545
-0.058876
-0.097967
-0.132112
-0.151775
-0.163553
-0.154795
-0.130100
-0.106575
-0.065323
-0.021415
0.022444
0.060329
0.091965
0.113647
0.123442
0.111497
0.097626
0.078329
0.030352
-0.024522
-0.070240
-0.115502
-0.138170
-0.151666
-0.150894
-0.146662
-0.133002
-0.100698
-0.054258
-0.014762
0.028534
0.063455
0.087205
0.105850
0.125514
0.132026
0.116520
0.083953
0.033401
-0.007187
-0.051479
-0.105779
-0.134544
-0.152433
-0.156743
-0.144904
-0.132593
-0.104000
-0.057235
-0.012271
0.029892
0.067918
0.091875
0.124494
0.140192
0.137088
0.114346
0.081677
0.024135
-0.010676
-0.042261
-0.085027
-0.119832
-0.152009
-0.152138
-0.146039
-0.134469
-0.107278
-0.070643
-0.018951
0.025262
0.072536
0.100123
0.120670
0.125049
0.130874
0.123611
0.098614
0.045686
-0.008956
-0.049981
-0.090625
-0.119899
-0.153956
-0.163467
-0.163122
-0.136474
-0.085029
-0.056789
-0.010225
0.032173
0.062831
0.087219
0.121860
0.134509
0.118548
0.103395
0.065648
0.022891
-0.025835
-0.070973
-0.115019
-0.134687
-0.162057
-0.162691
-0.157109
-0.130766
-0.107116
-0.070829
-0.017763
0.032130
0.061120
0.094124
0.113319
0.118187
0.114224
0.099200
0.069649
0.025886
-0.015882
-0.062988
-0.096978
-0.131572
-0.165012
-0.187049
-0.184921
-0.159086
-0.117340
-0.072373
-0.039054
0.015340
0.062575
0.093776
0.115940
0.106618
0.095189
0.078571
0.044401
0.001403
-0.044092
-0.082025
-0.124252
-0.141559
-0.167486
-0.171899
-0.166543
-0.145095
-0.118242
-0.079950
-0.039630
-0.001316
0.051193
0.086559
0.119900
0.121978
0.103924
0.081976
0.049969
-0.001524
-0.049560
-0.103996
-0.136221
-0.159851
-0.175958
-0.186432
-0.179006
-0.167526
-0.131457
-0.093952
-0.051006
0.009682
0.058922
0.077360
0.100971
0.098059
0.097319
0.083614
0.041094
-0.011751
-0.050420
-0.105624
-0.139272
-0.173581
-0.180813
-0.186225
-0.178253
-0.169677
-0.139846
-0.098967
-0.047339
-0.003505
0.051629
0.070325
0.098076
0.101385
0.105201
0.089749
0.058054
0.020084
-0.037239
-0.097851
-0.138557
-0.165379
-0.189320
-0.195294
-0.179446
-0.157623
-0.125855
-0.079336
-0.027115
0.016403
0.047429
0.073371
0.096226
0.109397
0.111363
0.108511
0.081110
0.031485
-0.013695
-0.068295
-0.113648
-0.128297
-0.151113
-0.162513
-0.157481
-0.137945
-0.098891
-0.065339
-0.020437
0.034455
0.077046
0.096306
0.124077
0.131469
0.109647
0.090472
0.052863
0.011717
-0.011325
-0.049229
-0.100854
-0.126031
-0.146017
-0.154569
-0.144489
-0.138506
-0.096442
-0.050144
-0.005441
0.039221
0.084161
0.124640
0.142657
0.147153
0.139079
0.120837
0.090186
0.045680
-0.004525
-0.055312
-0.107994
-0.137712
-0.172696
-0.182792
-0.178545
-0.167156
-0.133403
-0.095294
-0.038587
0.001428
0.044599
0.073852
0.100654
0.098376
0.089488
0.064754
0.040354
0.003192
-0.049170
-0.095840
-0.138575
-0.176254
-0.203323
-0.218727
-0.209468
-0.192465
-0.156418
-0.105947
-0.070136
-0.031512
0.015013
0.045231
0.078754
0.087999
0.070076
0.047941
0.013534
-0.028832
-0.081837
-0.130062
-0.164432
-0.178858
-0.208712
-0.215180
-0.203163
-0.194337
-0.178930
-0.131095
-0.095096
-0.064152
-0.014799
0.022604
0.050268
0.066335
0.038482
0.025034
0.002778
-0.032142
-0.087632
-0.144577
-0.176696
-0.211941
-0.230269
-0.235455
-0.228798
-0.218503
-0.180243
-0.125913
-0.083006
-0.049270
-0.004390
0.027375
0.057388
0.051146
0.042833
0.031164
0.004342
-0.043577
-0.094228
-0.143391
-0.183367
-0.201499
-0.235068
-0.238827
-0.211989
-0.198185
-0.174188
-0.140691
-0.096129
-0.051895
-0.014456
0.015950
0.038608
0.050008
0.041335
0.032270
0.006687
-0.040423
-0.082333
-0.141595
-0.181079
-0.201612
-0.235004
-0.254336
-0.244986
-0.212602
-0.172621
-0.120505
-0.075301
-0.026341
0.030886
0.071871
0.098903
0.122111
0.134342
0.132468
0.119674
0.081789
0.057706
0.017947
-0.015833
-0.025008
-0.011861
0.002890
0.043272
0.078155
0.139418
0.208710
0.286481
0.361774
0.427259
0.486474
0.541174
0.577474
0.600094
0.622208
0.644814
0.656004
0.641064
0.627046
0.595917
0.596134
0.566111
0.555267
0.554465
0.555114
0.577415
0.614464
0.625517
0.634788
0.617174
0.576728
0.535968
0.482298
0.409848
0.348999
0.270193
0.180301
0.095770
0.031206
-0.018104
-0.060265
-0.070551
-0.074931
-0.088054
-0.071510
-0.053501
-0.025995
0.011636
0.052784
0.094381
0.128150
0.144888
0.149727
0.132973
0.120646
0.086381
0.034609
-0.019921
-0.078995
-0.126225
-0.161723
-0.175326
-0.174986
-0.171642
-0.159231
-0.122920
-0.081537
-0.034551
0.008766
0.056789
0.078220
0.097976
0.094714
0.084970
0.076004
0.042062
-0.002388
-0.042300
-0.086440
-0.147574
-0.165887
-0.182369
-0.204435
-0.191923
-0.182453
-0.154821
-0.110832
-0.063623
-0.009789
0.029317
0.058958
0.085768
0.087948
0.083718
0.068690
0.030740
-0.002328
-0.054187
-0.103594
-0.141985
-0.160682
-0.183831
-0.198000
-0.190055
-0.175162
-0.147552
-0.115367
-0.065896
0.002573
0.053560
0.073040
0.094877
0.098657
0.096928
0.072852
0.037903
-0.000050
-0.037884
-0.083405
-0.113906
-0.147722
-0.174435
-0.185183
-0.180584
-0.154145
-0.117508
-0.077272
-0.029485
0.014124
0.052201
0.096084
0.109018
0.129031
0.128595
0.116732
0.069448
0.040816
-0.011134
-0.053585
-0.104638
-0.141452
-0.153258
-0.164342
-0.144024
-0.126291
-0.101929
-0.069123
-0.016588
0.035618
0.077673
0.112782
0.135369
0.150437
0.154213
0.138647
0.105017
0.058797
0.016586
-0.037882
-0.067830
-0.099082
-0.119143
-0.118959
-0.117820
-0.105084
-0.061482
-0.025582
0.021928
0.066938
0.101311
0.133327
0.161232
0.169312
0.164168
0.162368
0.119586
0.081751
0.048027
-0.004482
-0.045470
-0.084490
-0.109622
-0.109378
-0.104198
-0.085384
-0.049285
-0.008280
0.030328
0.076480
0.112487
0.145507
0.182672
0.192193
0.167648
0.161574
0.130120
0.092684
0.049714
0.007891
-0.044872
-0.076134
-0.092945
-0.103546
-0.097072
-0.086586
-0.048387
-0.015535
0.032946
0.080787
0.117079
0.140284
0.159318
0.165521
0.166422
0.142405
0.103601
0.070025
0.023310
-0.024125
-0.044510
-0.083799
-0.114673
-0.124008
-0.116439
-0.102374
-0.073176
-0.044619
-0.002851
0.040632
0.074716
0.112633
0.130718
0.132420
0.121082
0.108158
0.065465
0.040499
-0.008856
-0.057319
-0.097946
-0.124817
-0.151616
-0.160746
-0.149076
-0.139367
-0.121773
-0.084009
-0.042743
0.004884
0.042779
0.074492
0.089116
0.092356
0.077188
0.058483
0.031704
-0.011550
-0.046762
-0.101955
-0.152304
-0.170636
-0.192023
-0.207204
-0.185077
-0.171559
-0.139134
-0.107954
-0.058952
-0.022415
0.020042
0.049069
0.068055
0.062328
0.059173
0.037292
-0.004439
-0.049264
-0.071801
-0.115225
-0.155248
-0.182425
-0.201587
-0.224307
-0.230372
-0.208679
-0.168884
-0.126384
-0.086671
-0.048195
-0.005755
0.039656
0.050940
0.053402
0.050673
0.045646
0.011375
-0.035483
-0.080663
-0.124739
-0.169706
-0.201735
-0.233726
-0.238282
-0.233113
-0.207035
-0.167156
-0.125755
-0.082412
-0.034209
0.001596
0.036174
0.055968
0.058486
0.048006
0.033061
-0.001920
-0.051351
-0.095278
-0.139734
-0.176057
-0.195135
-0.224002
-0.227914
-0.229328
-0.215170
-0.178781
-0.143470
-0.081179
-0.039989
0.011623
0.033051
0.052863
0.062421
0.063747
0.048093
0.006800
-0.036902
-0.079723
-0.124265
-0.168041
-0.202853
-0.217011
-0.222124
-0.214548
-0.206553
-0.175887
-0.140992
-0.093418
-0.042568
0.007105
0.047843
0.062615
0.078927
0.080892
0.054025
0.008460
-0.026683
-0.073002
-0.123530
-0.150585
-0.183960
-0.209826
-0.217993
-0.214606
-0.204844
-0.174251
-0.127283
-0.070531
-0.024163
0.012652
0.048631
0.074668
0.084870
0.073719
0.054217
-0.002622
-0.037659
-0.078309
-0.130725
-0.151583
-0.175454
-0.192360
-0.201053
-0.192815
-0.201930
-0.170422
-0.127072
-0.071203
-0.026189
0.010106
0.035891
0.054484
0.066358
0.054035
0.039189
0.014644
-0.024236
-0.068132
-0.134738
-0.176340
-0.205285
-0.220864
-0.227194
-0.214986
-0.197423
-0.168339
-0.132450
-0.083879
-0.044720
-0.008576
0.032243
0.048871
0.062436
0.055525
0.032907
-0.011390
-0.046748
-0.088128
-0.127437
-0.172690
-0.208744
-0.224270
-0.229164
-0.229854
-0.219211
-0.184904
-0.146649
-0.087606
-0.047548
-0.004641
0.030790
0.057024
0.056828
0.043825
0.021565
-0.003917
-0.037154
-0.090666
-0.136761
-0.177673
-0.213783
-0.247110
-0.234751
-0.218050
-0.198768
-0.174884
-0.143125
-0.105221
-0.055806
-0.013943
0.026729
0.049777
0.052347
0.043352
0.027185
-0.012245
-0.060587
-0.103532
-0.149479
-0.183731
-0.212520
-0.235349
-0.252719
-0.241860
-0.211217
-0.179095
-0.128602
-0.092016
-0.047680
-0.011583
0.021506
0.032000
0.047565
0.042661
0.015753
-0.008186
-0.058165
-0.095739
-0.138587
-0.174247
-0.217072
-0.225402
-0.248280
-0.245318
-0.234570
-0.202522
-0.163882
-0.108160
-0.057662
-0.018237
0.012701
0.030591
0.048317
0.039966
0.028098
-0.007211
-0.042701
-0.096254
-0.144544
-0.185463
-0.210827
-0.226990
-0.236797
-0.240623
-0.231323
-0.203214
-0.159018
-0.115317
-0.064186
-0.020095
0.010655
0.028581
0.032751
0.019046
0.005531
-0.023631
-0.061173
-0.094816
-0.135258
-0.175632
-0.211960
-0.240527
-0.256507
-0.244089
-0.207395
-0.177048
-0.131475
-0.088098
-0.040023
0.001041
0.021053
0.047270
0.059470
0.083440
0.067215
0.019226
-0.032777
-0.073936
-0.125889
-0.159539
-0.188135
-0.205900
-0.216462
-0.209077
-0.198778
-0.158391
-0.118799
-0.080891
-0.032827
0.010452
0.049336
0.064802
0.069871
0.061242
0.039448
0.017359
-0.017028
-0.065027
-0.112573
-0.144009
-0.169699
-0.187432
-0.195896
-0.185960
-0.163550
-0.133563
-0.097902
-0.051157
-0.001402
0.037837
0.069298
0.093511
0.087753
0.082567
0.059180
0.017999
-0.025722
-0.069413
-0.121902
-0.171254
-0.199428
-0.216014
-0.216547
-0.203246
-0.190742
-0.172135
-0.134584
-0.093647
-0.038140
-0.007388
0.017034
0.025499
0.036555
0.039341
0.029781
-0.004235
-0.053907
-0.104357
-0.151890
-0.189577
-0.227036
-0.249468
-0.255164
-0.253968
-0.233612
-0.199153
-0.172898
-0.120411
-0.071712
-0.024948
0.013827
0.015025
0.015581
0.017384
-0.009260
-0.044455
-0.091188
-0.136663
-0.187872
-0.224236
-0.257721
-0.279910
-0.292691
-0.267598
-0.237913
-0.205617
-0.175796
-0.132569
-0.072484
-0.034330
-0.003108
0.017390
0.016991
0.005833
-0.014925
-0.048109
-0.090637
-0.140633
-0.176929
-0.215389
-0.246760
-0.262886
-0.269409
-0.255980
-0.247648
-0.215880
-0.188322
-0.136589
-0.094170
-0.048163
-0.016531
0.007952
0.010651
-0.006735
-0.027824
-0.057899
-0.088845
-0.136198
-0.180666
-0.214349
-0.244268
-0.266936
-0.270643
-0.262667
-0.240748
-0.209048
-0.164267
-0.126211
-0.083179
-0.040700
-0.006174
0.004174
0.017056
0.013545
-0.011505
-0.050783
-0.091650
-0.136816
-0.190578
-0.229783
-0.267657
-0.279992
-0.282084
-0.263875
-0.240886
-0.206114
-0.166035
-0.099679
-0.042954
0.008621
0.053283
0.104827
0.110097
0.119728
0.127659
0.102222
0.066620
0.040955
0.018696
-0.008698
-0.021030
-0.010771
0.000420
0.034390
0.099261
0.170891
0.237760
0.321926
0.402127
0.478133
0.537025
0.590962
0.624281
0.668690
0.683077
0.676390
0.678165
0.656491
0.631883
0.584884
0.541672
0.544951
0.539017
0.512029
0.508906
0.504822
0.506049
0.508082
0.493667
0.477864
0.451445
0.411586
0.372039
0.313045
0.248570
0.170310
0.113088
0.043608
-0.021830
-0.067871
-0.100678
-0.124489
-0.147467
-0.150010
-0.127551
-0.100412
-0.070586
-0.027660
0.012827
0.047831
0.092306
0.108610
0.117425
0.112030
0.071413
0.047976
0.006778
-0.041418
-0.097133
-0.150461
-0.186782
-0.204309
-0.207990
-0.209779
-0.192088
-0.149233
-0.101231
-0.063450
-0.015609
0.013453
0.038468
0.047014
0.053286
0.047879
0.030153
0.015237
-0.029858
-0.080876
-0.129763
-0.163958
-0.206642
-0.225857
-0.223901
-0.212598
-0.212720
-0.172671
-0.146313
-0.099421
-0.042823
-0.000270
0.030166
0.049022
0.058344
0.051708
0.025500
-0.005749
-0.039131
-0.081833
-0.131404
-0.150283
-0.184350
-0.211370
-0.221392
-0.220309
-0.200100
-0.153617
-0.115523
-0.070079
-0.024152
0.011532
0.051092
0.065904
0.085905
0.071851
0.055747
0.024930
-0.013201
-0.063693
-0.104927
-0.146386
-0.176384
-0.194464
-0.209449
-0.197546
-0.185216
-0.154926
-0.109660
-0.052600
-0.006225
0.035472
0.069531
0.086607
0.104551
0.087845
0.067166
0.042402
0.008757
-0.041579
-0.087308
-0.128723
-0.156834
-0.168524
-0.161302
-0.156746
-0.147897
-0.113514
-0.072593
-0.021247
0.020787
0.066949
0.113318
0.132096
0.142176
0.127990
0.105977
0.085897
0.047508
0.001211
-0.051342
-0.095259
-0.134891
-0.130013
-0.146404
-0.141405
-0.113141
-0.094723
-0.053773
-0.004500
0.049837
0.083974
0.108277
0.134931
0.164720
0.151604
0.132227
0.093549
0.067680
0.013417
-0.030886
-0.067242
-0.095603
-0.097175
-0.102945
-0.110073
-0.087287
-0.056377
-0.025644
0.028135
0.075505
0.116561
0.151726
0.160441
0.175242
0.165271
0.148391
0.115782
0.069481
0.021112
-0.026697
-0.069654
-0.106083
-0.113478
-0.120985
-0.122317
-0.104973
-0.065900
-0.028017
0.023125
0.073069
0.113040
0.142514
0.144259
0.150298
0.143630
0.119325
0.071976
0.047353
-0.001426
-0.041733
-0.082865
-0.124359
-0.138908
-0.145967
-0.143157
-0.120389
-0.097468
-0.052371
-0.004738
0.050608
0.078714
0.104281
0.122716
0.135002
0.132247
0.093000
0.054604
0.008454
-0.041354
-0.078326
-0.124953
-0.157534
-0.178774
-0.184845
-0.177377
-0.139318
-0.119048
-0.093013
-0.045114
0.000645
0.034531
0.069144
0.080574
0.087574
0.079456
0.061583
0.015949
-0.014302
-0.066992
-0.113806
-0.148623
-0.189211
-0.191828
-0.211301
-0.212202
-0.196239
-0.169720
-0.125128
-0.079336
-0.040810
0.001094
0.038677
0.048079
0.056533
0.044926
0.030774
-0.005006
-0.041480
-0.078439
-0.133405
-0.175229
-0.202877
-0.225282
-0.228389
-0.217401
-0.202076
-0.175072
-0.132157
-0.090110
-0.049843
-0.012185
0.020291
0.043591
0.053729
0.043889
0.030026
-0.014936
-0.054403
-0.106444
-0.162194
-0.195595
-0.218912
-0.227136
-0.242967
-0.235465
-0.202446
-0.166467
-0.137376
-0.092766
-0.046267
-0.002494
0.022589
0.033914
0.041189
0.034260
0.017736
-0.010911
-0.046113
-0.091036
-0.132530
-0.168297
-0.205152
-0.216196
-0.241426
-0.250567
-0.232773
-0.201575
-0.151312
-0.085693
-0.043327
-0.009289
0.032264
0.057105
0.071179
0.064035
0.036030
-0.003945
-0.043298
-0.084089
-0.132317
-0.188555
-0.207516
-0.216620
-0.220244
-0.211059
-0.203974
-0.179078
-0.122861
-0.071345
-0.032122
0.007362
0.041322
0.066678
0.068339
0.066873
0.039623
0.011599
-0.035414
-0.079972
-0.131885
-0.174508
-0.198459
-0.216149
-0.231135
-0.224102
-0.209394
-0.175489
-0.122248
-0.071823
-0.023753
0.001775
0.036153
0.059215
0.071799
0.060095
0.040749
0.016777
-0.041392
-0.094376
-0.129200
-0.166775
-0.187766
-0.201865
-0.209583
-0.213163
-0.195101
-0.155443
-0.120522
-0.075900
-0.033887
0.002335
0.028574
0.043283
0.060872
0.046751
0.029874
0.011833
-0.023926
-0.075342
-0.132527
-0.181059
-0.215021
-0.230269
-0.230287
-0.230951
-0.199639
-0.157661
-0.123693
-0.078336
-0.036010
0.014210
0.043979
0.059343
0.075798
0.057646
0.031921
-0.000672
-0.037337
-0.090492
-0.141016
-0.186127
-0.217655
-0.223853
-0.236433
-0.218253
-0.201293
-0.170352
-0.140132
-0.096117
-0.050903
-0.012933
0.029696
0.040488
0.042974
0.040991
0.029763
-0.002579
-0.040494
-0.085619
-0.128160
-0.172773
-0.204913
-0.228549
-0.243317
-0.227329
-0.201494
-0.176211
-0.137193
-0.085840
-0.045134
-0.006603
0.026912
0.048636
0.049108
0.038178
0.013941
-0.012307
-0.058354
-0.085415
-0.129607
-0.171880
-0.212613
-0.237626
-0.250338
-0.236924
-0.211169
-0.176095
-0.142985
-0.100788
-0.044387
-0.010842
0.019194
0.032556
0.043610
0.043463
0.030477
0.007307
-0.037436
-0.086164
-0.141067
-0.182279
-0.212141
-0.225836
-0.234570
-0.236229
-0.219897
-0.194297
-0.149789
-0.097083
-0.027609
0.008599
0.031899
0.038028
0.048834
0.041396
0.028736
-0.004964
-0.048429
-0.099839
-0.147151
-0.193593
-0.227789
-0.238836
-0.246087
-0.232550
-0.202784
-0.169145
-0.139924
-0.100453
-0.057795
-0.021564
0.011932
0.030828
0.038986
0.042487
0.024115
-0.003001
-0.049476
-0.092985
-0.143094
-0.178922
-0.223046
-0.233989
-0.244186
-0.236985
-0.216352
-0.192965
-0.150712
-0.098947
-0.060837
-0.006859
0.022843
0.041892
0.051550
0.049486
0.024995
-0.009821
-0.047668
-0.098896
-0.147729
-0.182359
-0.209753
-0.229674
-0.241535
-0.240970
-0.211904
-0.199279
-0.155935
-0.114845
-0.062514
-0.022190
0.011924
0.029124
0.045555
0.053945
0.033585
0.010470
-0.018276
-0.062850
-0.116462
-0.164781
-0.205197
-0.214100
-0.225269
-0.215989
-0.204915
-0.164631
-0.125104
-0.083447
-0.045659
0.005316
0.047217
0.076382
0.091673
0.081558
0.052668
0.027217
-0.019944
-0.064460
-0.111665
-0.140402
-0.166619
-0.185889
-0.194546
-0.182875
-0.147273
-0.133213
-0.100404
-0.054365
-0.018426
0.018764
0.048829
0.053862
0.062530
0.069418
0.043928
0.024444
-0.005561
-0.048981
-0.084756
-0.116719
-0.154674
-0.174236
-0.176611
-0.171488
-0.151299
-0.119221
-0.076646
-0.024403
0.020316
0.057113
0.082192
0.102871
0.103305
0.085832
0.051489
0.033201
-0.019604
-0.072108
-0.123305
-0.176865
-0.210241
-0.218973
-0.225273
-0.210902
-0.191458
-0.161290
-0.127652
-0.081693
-0.024712
0.009357
0.043931
0.058760
0.061026
0.055974
0.026847
0.000543
-0.040939
-0.089270
-0.124837
-0.169333
-0.196862
-0.223175
-0.233724
-0.236816
-0.220204
-0.197830
-0.156565
-0.113356
-0.042210
-0.010856
0.021728
0.041794
0.048290
0.034382
0.009027
-0.023462
-0.071435
-0.116823
-0.160084
-0.196637
-0.239925
-0.270438
-0.267765
-0.253088
-0.225106
-0.191538
-0.145977
-0.108830
-0.061808
-0.016004
0.026155
0.033597
0.037292
0.024611
0.002019
-0.022037
-0.068730
-0.116437
-0.163562
-0.203917
-0.248777
-0.261301
-0.268248
-0.250480
-0.220808
-0.199234
-0.150154
-0.102782
-0.062952
-0.033576
0.000201
0.018077
0.025123
0.020822
0.002287
-0.020862
-0.059094
-0.107770
-0.159726
-0.202762
-0.230229
-0.245040
-0.260430
-0.248202
-0.222258
-0.197105
-0.167647
-0.114912
-0.070186
-0.026880
0.006512
0.024580
0.037313
0.016631
-0.004558
-0.019906
-0.053644
-0.107136
-0.156508
-0.189748
-0.223303
-0.241047
-0.245413
-0.235508
-0.208477
-0.158666
-0.110475
-0.051223
0.004817
0.060999
0.100933
0.155663
0.171686
0.185057
0.169591
0.164318
0.131382
0.101082
0.073464
0.062479
0.058651
0.076390
0.091115
0.141974
0.201631
0.251712
0.344721
0.417664
0.483199
0.554292
0.631756
0.689000
0.738088
0.765226
0.781598
0.773393
0.748447
0.694193
0.646628
0.618978
0.571515
0.525232
0.500756
0.476488
0.471651
0.446873
0.412834
0.401794
0.394004
0.387924
0.378319
0.333705
0.299114
0.248081
0.209005
0.166418
0.100764
0.043613
-0.007511
-0.059841
-0.101037
-0.125648
-0.134706
-0.123067
-0.099944
-0.084677
-0.055776
-0.007473
0.037516
0.086052
0.114105
0.127235
0.138719
0.128731
0.096695
0.070166
0.021749
-0.028270
-0.082260
-0.133500
-0.171475
-0.181700
-0.184742
-0.190502
-0.161800
-0.130498
-0.091280
-0.052929
-0.005842
0.039281
0.075656
0.084116
0.083856
0.075495
0.053379
0.022126
0.003961
-0.042664
-0.092730
-0.136780
-0.168433
-0.191343
-0.205758
-0.203852
-0.182019
-0.145281
-0.101362
-0.063077
-0.010390
0.044629
0.065887
0.094721
0.093649
0.089012
0.058038
0.038027
-0.007388
-0.055657
-0.096935
-0.136536
-0.162864
-0.184227
-0.188869
-0.184326
-0.171606
-0.137098
-0.091958
-0.055533
-0.008705
0.038373
0.064163
0.095218
0.110252
0.105617
0.095326
0.062293
0.019725
-0.023990
-0.059242
-0.110370
-0.145241
-0.165687
-0.181963
-0.162428
-0.142608
-0.117814
-0.067789
-0.023733
0.021176
0.066110
0.099417
0.114444
0.119625
0.123790
0.099554
0.070099
0.026087
-0.008561
-0.052134
-0.089884
-0.124743
-0.130616
-0.142993
-0.130278
-0.101159
-0.072083
-0.037535
0.012501
0.049771
0.088350
0.133737
0.154724
0.160303
0.161401
0.144809
0.110938
0.065554
0.015584
-0.030964
-0.067843
-0.087203
-0.102238
-0.102379
-0.099488
-0.076856
-0.051682
-0.006558
0.042040
0.091378
0.136892
0.160956
0.176691
0.183394
0.180048
0.172457
0.149474
0.097774
0.051895
0.010528
-0.043296
-0.068854
-0.081146
-0.091966
-0.077984
-0.059238
-0.023072
0.013541
0.059819
0.093536
0.136378
0.163150
0.186076
0.193663
0.194336
0.178239
0.157077
0.099529
0.063171
0.015997
-0.030825
-0.058094
-0.069073
-0.079076
-0.074656
-0.052398
-0.030894
0.014222
0.062029
0.104750
0.139132
0.168386
0.180428
0.180282
0.169674
0.145397
0.110455
0.078913
0.034324
-0.011432
-0.047464
-0.089131
-0.114937
-0.111898
-0.109960
-0.087005
-0.054003
-0.014596
0.005092
0.056235
0.097178
0.125325
0.156287
0.153902
0.147794
0.124899
0.100327
0.052746
0.013469
-0.042662
-0.079625
-0.123995
-0.135331
-0.138644
-0.146060
-0.132026
-0.093692
-0.052447
-0.011727
0.034677
0.070483
0.103419
0.123751
0.126890
0.117003
0.088982
0.060010
0.025692
-0.018134
-0.073773
-0.120042
-0.159605
-0.183341
-0.184399
-0.179750
-0.150639
-0.128594
-0.088104
-0.047984
-0.012396
0.019807
0.058485
0.075654
0.087239
0.074514
0.063037
0.032729
0.001883
-0.040299
-0.088623
-0.136012
-0.171535
-0.190741
-0.202787
-0.205015
-0.179027
-0.138496
-0.114373
-0.067268
-0.013789
0.028111
0.065222
0.087655
0.083761
0.070757
0.048474
0.020157
-0.024079
-0.060627
-0.117084
-0.158627
-0.187853
-0.212669
-0.216508
-0.199633
-0.161470
-0.132870
-0.090918
-0.052178
-0.016818
0.030196
0.062968
0.081048
0.083437
0.070950
0.059863
0.023231
-0.022957
-0.076246
-0.122950
-0.155603
-0.172774
-0.197187
-0.197300
-0.193380
-0.167968
-0.137189
-0.096144
-0.044148
0.000100
0.040362
0.057286
0.075043
0.076854
0.070344
0.058865
0.044351
-0.006101
-0.053253
-0.092099
-0.130245
-0.166327
-0.192327
-0.192951
-0.192013
-0.167107
-0.132277
-0.101558
-0.052920
-0.005641
0.030890
0.066014
0.106385
0.095858
0.085453
0.071352
0.038216
0.001154
-0.035425
-0.082781
-0.128728
-0.166055
-0.182952
-0.185327
-0.186110
-0.160659
-0.124181
-0.089331
-0.047001
0.009641
0.050968
0.081043
0.102276
0.105982
0.100489
0.077053
0.046694
-0.003828
-0.043315
-0.088888
-0.123345
-0.154490
-0.186680
-0.189910
-0.186929
-0.169012
-0.146125
-0.100390
-0.052458
-0.001801
0.042699
0.078869
0.091977
0.095369
0.101814
0.082031
0.051230
-0.007834
-0.045818
-0.095137
-0.135955
-0.168346
-0.184108
-0.191136
-0.184288
-0.167135
-0.130588
-0.100356
-0.057984
-0.016139
0.033209
0.072380
0.086754
0.095600
0.084631
0.064633
0.029239
-0.003272
-0.052204
-0.099065
-0.146456
-0.183814
-0.193442
-0.178787
-0.179928
-0.162148
-0.144129
-0.102715
-0.062111
-0.013670
0.025372
0.066528
0.092330
0.092062
0.079353
0.070867
0.034265
-0.015807
-0.055265
-0.095069
-0.134460
-0.164695
-0.184321
-0.193106
-0.189312
-0.181959
-0.154528
-0.111091
-0.069738
-0.022209
0.030958
0.063059
0.078365
0.081122
0.079859
0.051041
0.022198
-0.014497
-0.065468
-0.107326
-0.157522
-0.186340
-0.205481
-0.210536
-0.198537
-0.178701
-0.145595
-0.100343
-0.064329
-0.020672
0.020260
0.061864
0.082665
0.088136
0.082422
0.057699
0.031843
-0.003497
-0.051329
-0.113701
-0.157937
-0.186853
-0.208331
-0.208193
-0.201396
-0.174750
-0.140915
-0.103849
-0.060174
-0.019497
0.014425
0.044866
0.072128
0.067555
0.062042
0.057855
0.030607
-0.015015
-0.058316
-0.119200
-0.156410
-0.184473
-0.198548
-0.206813
-0.218414
-0.202318
-0.168088
-0.127401
-0.081255
-0.017193
0.037399
0.048793
0.065723
0.075221
0.061874
0.041055
0.015542
-0.037575
-0.058160
-0.110272
-0.156910
-0.187413
-0.203395
-0.214999
-0.206756
-0.182199
-0.149904
-0.106038
-0.065393
-0.015044
0.015175
0.053081
0.074337
0.086812
0.073253
0.048187
0.004414
-0.033580
-0.072901
-0.117971
-0.160132
-0.195195
-0.208556
-0.204133
-0.200057
-0.184848
-0.157047
-0.113381
-0.074939
-0.019648
0.022824
0.055328
0.081388
0.077584
0.077169
0.051198
0.007506
-0.043299
-0.077286
-0.122108
-0.171211
-0.196574
-0.212133
-0.214278
-0.212227
-0.196138
-0.151146
-0.105136
-0.060582
-0.017168
0.013700
0.043988
0.075876
0.083700
0.069796
0.054274
0.018930
-0.028993
-0.078047
-0.119372
-0.160511
-0.176482
-0.197160
-0.207181
-0.201958
-0.174977
-0.144534
-0.105771
-0.056967
-0.016902
0.027952
0.062039
0.097839
0.103069
0.112356
0.087747
0.045190
-0.002207
-0.043140
-0.087273
-0.130385
-0.141224
-0.177444
-0.180839
-0.178636
-0.154831
-0.104872
-0.064916
-0.031029
0.017750
0.068320
0.093644
0.111635
0.103827
0.093852
0.074810
0.055763
0.010051
-0.032147
-0.077100
-0.110700
-0.141108
-0.159318
-0.156939
-0.155794
-0.143421
-0.112560
-0.073188
-0.020316
0.032559
0.081817
0.116548
0.144726
0.141640
0.138711
0.106359
0.066335
0.015811
-0.037925
-0.077145
-0.117365
-0.157650
-0.192134
-0.198981
-0.200015
-0.172405
-0.138833
-0.094345
-0.058849
-0.008504
0.035971
0.069983
0.083412
0.096307
0.091140
0.058279
0.022791
-0.017832
-0.057580
-0.110878
-0.148521
-0.169657
-0.198922
-0.215808
-0.208316
-0.188917
-0.160933
-0.128333
-0.085123
-0.035339
0.000399
0.029871
0.053512
0.055227
0.058912
0.036111
0.002834
-0.045270
-0.075077
-0.118067
-0.162272
-0.200686
-0.236793
-0.238474
-0.243546
-0.207993
-0.161553
-0.135995
-0.099717
-0.043239
-0.010370
0.022219
0.052521
0.053521
0.048486
0.037734
0.005113
-0.034342
-0.079986
-0.129274
-0.165669
-0.197597
-0.217956
-0.212100
-0.205321
-0.200964
-0.170064
-0.134696
-0.099153
-0.051668
-0.005957
0.019018
0.048600
0.049239
0.055202
0.036886
-0.006024
-0.045337
-0.086321
-0.142504
-0.183320
-0.210615
-0.229418
-0.226988
-0.225142
-0.197226
-0.170309
-0.138391
-0.088934
-0.042523
-0.003501
0.026934
0.042024
0.050557
0.050940
0.038567
0.003916
-0.036733
-0.094597
-0.143728
-0.180719
-0.211815
-0.227728
-0.242228
-0.232255
-0.208121
-0.175096
-0.125007
-0.081472
-0.028097
0.019108
0.062092
0.091018
0.115366
0.130478
0.119230
0.103958
0.104601
0.060516
0.013425
-0.001558
0.009817
-0.015537
0.000780
0.039540
0.087862
0.140812
0.211012
0.296906
0.382891
0.458120
0.514595
0.583639
0.603308
0.644882
0.646964
0.655345
0.641102
0.643781
0.637617
0.640913
0.629720
0.597679
0.583339
0.583819
0.594552
0.601276
0.631640
0.649326
0.678198
0.672313
0.639185
0.592138
0.535809
0.459700
0.398078
0.321582
0.213405
0.124059
0.060776
0.010159
-0.032188
-0.064776
-0.064053
-0.080655
-0.065303
-0.034707
-0.001799
0.036230
0.083278
0.115672
0.142506
0.162189
0.164962
0.156910
0.127977
0.083798
0.035536
-0.010327
-0.062289
-0.096231
-0.135643
-0.158780
-0.158485
-0.163866
-0.145091
-0.109229
-0.067196
-0.034374
0.011512
0.053120
0.089769
0.109014
0.104993
0.096261
0.077603
0.042737
0.009054
-0.034056
-0.083457
-0.129425
-0.157166
-0.179149
-0.173640
-0.180640
-0.169759
-0.126654
-0.076363
-0.043971
0.006376
0.049891
0.082315
0.099552
0.087377
0.087074
0.073545
0.039103
0.007503
-0.050454
-0.093600
-0.127501
-0.155296
-0.165610
-0.167628
-0.170184
-0.146864
-0.115943
-0.080288
-0.039410
0.003070
0.037390
0.075852
0.100190
0.105253
0.104788
0.085933
0.057083
0.016078
-0.026711
-0.073592
-0.109892
-0.126011
-0.149047
-0.158112
-0.164906
-0.153465
-0.120628
-0.073033
-0.011353
0.042961
0.080587
0.115622
0.133906
0.139473
0.131087
0.117938
0.088074
0.050227
0.004800
-0.050737
-0.092731
-0.119588
-0.140212
-0.136642
-0.134353
-0.114038
-0.082776
-0.034487
0.010692
0.066453
0.111965
0.149508
0.167424
0.163766
0.168396
0.153310
0.117836
0.083256
0.034442
-0.014376
-0.059076
-0.095425
-0.110822
-0.114731
-0.106957
-0.086101
-0.048298
-0.012866
0.034897
0.085530
0.140327
0.166682
0.187734
0.200282
0.210494
0.177816
0.142621
0.107074
0.054275
0.009153
-0.035506
-0.067381
-0.085877
-0.092130
-0.084952
-0.062272
-0.025849
0.020840
0.066543
0.110791
0.149802
0.183549
0.205354
0.206408
0.203519
0.194453
0.163519
0.120822
0.073301
0.028492
-0.026082
-0.057665
-0.088481
-0.087269
-0.078764
-0.066581
-0.023181
0.021155
0.067145
0.114635
0.145350
0.171227
0.192614
0.185436
0.192630
0.169921
0.143891
0.106858
0.058435
0.004911
-0.039006
-0.075116
-0.094553
-0.102180
-0.100152
-0.069872
-0.042716
-0.011488
0.028691
0.080015
0.125701
0.165039
0.184604
0.171661
0.177521
0.149840
0.104875
0.071524
0.032031
-0.015732
-0.061511
-0.098143
-0.129305
-0.126279
-0.131559
-0.117365
-0.088622
-0.052554
-0.005597
0.039717
0.069320
0.100989
0.119013
0.119030
0.114239
0.087954
0.047582
0.022072
-0.003875
-0.057564
-0.106476
-0.144060
-0.161065
-0.163175
-0.155806
-0.133920
-0.114445
-0.078882
-0.036316
-0.000137
0.034491
0.082688
0.104614
0.103732
0.093183
0.064005
0.024880
-0.008286
-0.052022
-0.098564
-0.141309
-0.171807
-0.179725
-0.190428
-0.171239
-0.158366
-0.128223
-0.098213
-0.066942
-0.025421
0.016455
0.050039
0.084844
0.100967
0.089036
0.053958
0.026558
-0.007990
-0.049069
-0.091244
-0.134246
-0.168345
-0.192744
-0.200170
-0.197645
-0.175302
-0.139063
-0.100874
-0.052509
0.001241
0.021877
0.056644
0.073409
0.077013
0.077562
0.059063
0.028029
-0.012597
-0.057442
-0.103223
-0.138862
-0.166450
-0.182785
-0.181728
-0.181759
-0.164902
-0.132009
-0.107087
-0.060353
-0.017421
0.026835
0.065366
0.088326
0.091960
0.073317
0.055975
0.030510
-0.012295
-0.049719
-0.089813
-0.138903
-0.168635
-0.194204
-0.176157
-0.174972
-0.162326
-0.120179
-0.092413
-0.058223
-0.011098
0.043023
0.070166
0.093031
0.106676
0.092030
0.068085
0.034827
-0.006432
-0.047268
-0.087974
-0.140381
-0.172374
-0.184039
-0.187517
-0.183004
-0.156827
-0.126117
-0.094210
-0.037673
0.008477
0.045193
0.079862
0.101340
0.101456
0.099358
0.075546
0.040503
0.005685
-0.045012
-0.088813
-0.126722
-0.161042
-0.186597
-0.198042
-0.191006
-0.163597
-0.125677
-0.091493
-0.057675
-0.010219
0.031995
0.081532
0.097646
0.098955
0.091708
0.063641
0.024741
-0.009543
-0.045467
-0.094108
-0.128560
-0.153857
-0.170331
-0.168146
-0.173894
-0.162208
-0.122698
-0.096164
-0.055225
0.000414
0.036535
0.071547
0.099192
0.100038
0.086841
0.061890
0.027131
-0.014909
-0.058084
-0.091692
-0.130728
-0.160084
-0.173200
-0.193399
-0.196006
-0.172664
-0.138532
-0.091671
-0.040013
0.002138
0.039942
0.075393
0.091916
0.080896
0.072569
0.061250
0.028519
-0.012364
-0.057577
-0.119771
-0.163056
-0.190891
-0.207033
-0.212198
-0.197348
-0.151610
-0.127811
-0.101002
-0.061299
-0.018329
0.024759
0.054386
0.081450
0.079399
0.081295
0.060450
0.021034
-0.017412
-0.062334
-0.109766
-0.147147
-0.181368
-0.201824
-0.213608
-0.206343
-0.182318
-0.152516
-0.116425
-0.064960
-0.021332
0.020323
0.048191
0.077531
0.077880
0.069440
0.034278
0.016399
-0.015894
-0.065565
-0.109720
-0.144027
-0.176246
-0.205998
-0.202483
-0.207079
-0.187661
-0.155622
-0.110229
-0.055056
-0.009516
0.018846
0.050608
0.072359
0.069111
0.059067
0.038478
0.019198
-0.007377
-0.066963
-0.118384
-0.172509
-0.209849
-0.216795
-0.212702
-0.208976
-0.192624
-0.147997
-0.109488
-0.069527
-0.022585
0.021803
0.058132
0.066179
0.075774
0.070288
0.046263
0.014319
-0.031530
-0.077802
-0.115738
-0.154784
-0.176268
-0.202941
-0.202698
-0.193053
-0.187624
-0.155821
-0.130761
-0.065953
-0.022170
0.014449
0.045078
0.080445
0.082150
0.069450
0.043413
0.010429
-0.026406
-0.072646
-0.129855
-0.165927
-0.185951
-0.201399
-0.209987
-0.194362
-0.183757
-0.157988
-0.110182
-0.056973
-0.008833
0.026257
0.053220
0.068529
0.065317
0.062273
0.042519
0.013074
-0.032007
-0.072129
-0.114474
-0.165454
-0.203363
-0.219484
-0.210564
-0.202479
-0.189358
-0.146495
-0.107109
-0.070902
-0.018931
0.022672
0.049729
0.074676
0.089870
0.083058
0.059541
0.012644
-0.033337
-0.073317
-0.118865
-0.157730
-0.196943
-0.219874
-0.227049
-0.210133
-0.193400
-0.163333
-0.122515
-0.064561
-0.013604
0.027760
0.047850
0.069048
0.083933
0.087241
0.069409
0.031549
-0.011709
-0.056386
-0.105509
-0.153199
-0.179844
-0.197732
-0.201734
-0.185344
-0.155390
-0.122648
-0.080282
-0.040530
0.005398
0.038968
0.078883
0.098646
0.111056
0.102628
0.097160
0.058588
0.008818
-0.026229
-0.077935
-0.116641
-0.159048
-0.170533
-0.177594
-0.168725
-0.152948
-0.127353
-0.095726
-0.044344
0.000717
0.051784
0.089158
0.116726
0.120891
0.126307
0.111300
0.083200
0.039998
-0.014208
-0.063678
-0.088118
-0.125336
-0.145851
-0.144029
-0.151431
-0.128111
-0.092419
-0.054417
-0.013871
0.010071
0.048671
0.081569
0.085621
0.087171
0.080262
0.068667
0.043642
0.008353
-0.045805
-0.103430
-0.134884
-0.164960
-0.190149
-0.195787
-0.192804
-0.177346
-0.133109
-0.108113
-0.058294
-0.013469
0.033900
0.067733
0.080759
0.076067
0.060876
0.047498
0.009106
-0.024513
-0.070357
-0.122910
-0.160507
-0.194467
-0.221334
-0.213747
-0.221131
-0.196519
-0.171210
-0.130762
-0.087623
-0.053265
-0.018830
0.020524
0.049707
0.061700
0.047988
0.032342
0.001348
-0.036848
-0.078013
-0.131753
-0.182128
-0.205728
-0.219597
-0.224735
-0.215821
-0.199432
-0.168191
-0.131298
-0.093927
-0.053734
-0.017231
0.017141
0.036855
0.050124
0.040030
0.028533
0.001505
-0.027618
-0.092935
-0.134026
-0.184953
-0.211163
-0.218174
-0.220612
-0.225309
-0.202831
-0.165792
-0.125379
-0.080457
-0.037515
-0.000420
0.021226
0.043142
0.051711
0.043606
0.021226
-0.016462
-0.045393
-0.098283
-0.128971
-0.161983
-0.193891
-0.219936
-0.224280
-0.210940
-0.193210
-0.170963
-0.139404
-0.096613
-0.053276
-0.011424
0.029950
0.053030
0.053776
0.030695
0.014175
-0.010448
-0.038246
-0.087096
-0.125233
-0.157983
-0.190209
-0.201155
-0.196089
-0.177885
-0.133141
-0.083645
-0.016184
0.054369
0.109904
0.156168
0.198459
0.248464
0.269212
0.278753
0.281416
0.274680
0.274724
0.257275
0.254756
0.247575
0.240523
0.255810
0.287410
0.319109
0.371343
0.450626
0.541645
0.622840
0.699470
0.769770
0.826751
0.884986
0.889188
0.869570
0.841421
0.785710
0.721419
0.664323
0.610033
0.536747
0.461931
0.368232
0.300604
0.248626
0.206903
0.190740
0.193431
0.186059
0.194039
0.215341
0.218766
0.222527
0.232865
0.216454
0.193270
0.151766
0.110215
0.049999
-0.014832
-0.057365
-0.087127
-0.115394
-0.126882
-0.118433
-0.108896
-0.074410
-0.036950
-0.000713
0.045875
0.086227
0.115735
0.127278
0.136711
0.130087
0.105508
0.071615
0.030284
-0.009632
-0.061971
-0.103662
-0.142649
-0.170005
-0.179471
-0.162203
-0.154508
-0.116838
-0.083190
-0.035129
0.004049
0.049769
0.077642
0.101441
0.113155
0.104262
0.069753
0.042351
0.007549
-0.037343
-0.067188
-0.119135
-0.156527
-0.179548
-0.185271
-0.169838
-0.151499
-0.126534
-0.078119
-0.040915
0.005618
0.045710
0.075914
0.100279
0.116986
0.110602
0.100897
0.060662
0.011333
-0.032261
-0.069426
-0.107928
-0.139155
-0.163843
-0.175586
-0.168158
-0.146621
-0.112970
-0.071594
-0.018242
0.030467
0.063313
0.098474
0.124072
0.128505
0.127766
0.113979
0.078791
0.033251
-0.004810
-0.047188
-0.084203
-0.117728
-0.141411
-0.152609
-0.150645
-0.123263
-0.083318
-0.041589
0.008819
0.061267
0.100367
0.131167
0.149181
0.157183
0.146846
0.145857
0.110208
0.073612
0.027386
-0.015857
-0.053032
-0.086910
-0.106261
-0.107440
-0.104339
-0.088185
-0.051824
-0.002905
0.042463
0.087270
0.127952
0.164962
0.177061
0.180082
0.175351
0.160936
0.135351
0.102967
0.061364
0.023788
-0.016053
-0.057363
-0.076107
-0.071236
-0.061361
-0.056173
-0.026009
0.018343
0.066848
0.104759
0.141621
0.180325
0.215421
0.234164
0.221886
0.188198
0.163407
0.122784
0.070882
0.032975
-0.009162
-0.039457
-0.056346
-0.060680
-0.056343
-0.045079
-0.005689
0.031076
0.070028
0.103801
0.149723
0.185743
0.198158
0.206115
0.192454
0.158712
0.122666
0.108542
0.068099
0.032227
-0.004161
-0.028490
-0.056264
-0.058118
-0.056504
-0.044815
-0.008927
0.027698
0.073053
0.124900
0.158109
0.187492
0.214951
0.215463
0.206021
0.181751
0.142764
0.100775
0.055499
0.005800
-0.037719
-0.072332
-0.087449
-0.095645
-0.093449
-0.080843
-0.046467
-0.006061
0.042079
0.084913
0.119038
0.146469
0.152639
0.171913
0.156822
0.138616
0.096383
0.056229
0.010196
-0.020674
-0.072162
-0.109240
-0.134312
-0.139127
-0.130696
-0.113757
-0.086307
-0.052003
-0.007886
0.032852
0.074006
0.101448
0.129828
0.140912
0.118235
0.100130
0.075890
0.022959
-0.026891
-0.077542
-0.116541
-0.152195
-0.168137
-0.174335
-0.159775
-0.144614
-0.099238
-0.072408
-0.016553
0.024096
0.056418
0.094295
0.116820
0.119953
0.106738
0.084490
0.057006
0.011128
-0.034480
-0.080059
-0.126441
-0.165995
-0.182978
-0.184879
-0.174183
-0.162032
-0.139870
-0.083293
-0.037876
-0.006980
0.031632
0.066516
0.097560
0.114493
0.093777
0.070302
0.045271
0.005371
-0.036574
-0.085050
-0.136032
-0.156523
-0.176992
-0.199645
-0.183503
-0.153771
-0.121244
-0.082169
-0.044361
0.007538
0.055179
0.101625
0.120952
0.112711
0.094698
0.076517
0.041861
0.000619
-0.040716
-0.084920
-0.126477
-0.169108
-0.187470
-0.186624
-0.161548
-0.138692
-0.109755
-0.067425
-0.030609
0.008061
0.051152
0.091091
0.108610
0.119935
0.102861
0.080889
0.048243
0.014519
-0.026603
-0.084926
-0.128915
-0.150929
-0.166131
-0.178102
-0.162823
-0.140701
-0.103749
-0.072665
-0.029526
0.012801
0.057342
0.095287
0.109056
0.120231
0.095935
0.081095
0.051524
0.007379
-0.029000
-0.080070
-0.110439
-0.128725
-0.156776
-0.171925
-0.154862
-0.138396
-0.110852
-0.075045
-0.033931
0.004991
0.055297
0.099530
0.121790
0.129308
0.120140
0.101631
0.060207
0.026978
-0.017738
-0.068549
-0.110360
-0.138710
-0.166229
-0.174119
-0.160997
-0.137435
-0.109844
-0.070411
-0.016761
0.031924
0.065941
0.095357
0.115564
0.114892
0.105491
0.086920
0.054873
0.021160
-0.034201
-0.075142
-0.115071
-0.143941
-0.162713
-0.167901
-0.169069
-0.147929
-0.123268
-0.076289
-0.036377
0.012828
0.053654
0.088475
0.109891
0.111886
0.098716
0.079280
0.054555
0.016911
-0.033242
-0.071275
-0.125094
-0.164457
-0.180077
-0.176307
-0.157491
-0.156377
-0.126026
-0.083753
-0.033905
0.009037
0.062616
0.078993
0.105304
0.103991
0.088839
0.063416
0.040710
0.003415
-0.030263
-0.085124
-0.119567
-0.156111
-0.166003
-0.174345
-0.160722
-0.145553
-0.122988
-0.077623
-0.037448
0.006780
0.040268
0.079464
0.099626
0.109817
0.089293
0.073432
0.043069
0.003818
-0.041614
-0.092151
-0.121855
-0.156630
-0.186386
-0.200367
-0.176619
-0.162036
-0.140712
-0.082947
-0.039668
0.009701
0.043510
0.071723
0.100412
0.108739
0.099432
0.077591
0.037297
0.001526
-0.049099
-0.099758
-0.129831
-0.167668
-0.177871
-0.189774
-0.176273
-0.158040
-0.121661
-0.076152
-0.033318
0.004591
0.054030
0.077712
0.096098
0.106736
0.086559
0.061318
0.023175
-0.017209
-0.053344
-0.090942
-0.116580
-0.146309
-0.181897
-0.181782
-0.176502
-0.158796
-0.138477
-0.090224
-0.040205
0.012084
0.045629
0.072766
0.091490
0.099828
0.085074
0.065755
0.035318
-0.004650
-0.046218
-0.097164
-0.136610
-0.163317
-0.174105
-0.183224
-0.176318
-0.157188
-0.117166
-0.081991
-0.038897
0.005749
0.049632
0.083929
0.098436
0.098740
0.087712
0.066240
0.034648
-0.005477
-0.045240
-0.085199
-0.127739
-0.166383
-0.185622
-0.194957
-0.178782
-0.163089
-0.131626
-0.089646
-0.049842
-0.005625
0.037586
0.066369
0.088088
0.101943
0.093934
0.074507
0.039569
0.001715
-0.042472
-0.081593
-0.130952
-0.177141
-0.192547
-0.203658
-0.185135
-0.158914
-0.119066
-0.080346
-0.033581
0.009780
0.049680
0.077690
0.105671
0.111114
0.105219
0.079609
0.041236
-0.008717
-0.054954
-0.093852
-0.132729
-0.166024
-0.164824
-0.165894
-0.165176
-0.147377
-0.106783
-0.059661
-0.022411
0.011443
0.054326
0.075878
0.110745
0.112842
0.092520
0.074483
0.046237
0.013242
-0.026270
-0.067487
-0.098691
-0.127343
-0.149642
-0.160586
-0.151348
-0.127919
-0.101122
-0.049223
-0.007169
0.044626
0.095773
0.118051
0.128819
0.131981
0.125634
0.110472
0.075665
0.049858
-0.011167
-0.064992
-0.102161
-0.123002
-0.136738
-0.147814
-0.140492
-0.122829
-0.091551
-0.059170
-0.013894
0.049936
0.104369
0.137050
0.161379
0.168895
0.149550
0.117849
0.093542
0.068437
0.036641
-0.014327
-0.053646
-0.100973
-0.138216
-0.152432
-0.139301
-0.130661
-0.099316
-0.055050
-0.011031
0.029210
0.069521
0.102452
0.107403
0.111306
0.113796
0.093257
0.074033
0.031055
-0.029440
-0.081056
-0.126379
-0.159276
-0.177762
-0.178119
-0.173265
-0.164729
-0.138976
-0.099226
-0.050326
0.008084
0.056236
0.092440
0.102737
0.111068
0.087408
0.063907
0.037986
-0.007195
-0.044007
-0.093120
-0.136003
-0.168735
-0.191060
-0.198031
-0.190674
-0.179931
-0.145747
-0.102303
-0.059418
-0.022753
0.021947
0.050800
0.060105
0.079494
0.078851
0.067252
0.028780
-0.024784
-0.065751
-0.115398
-0.152230
-0.175826
-0.193407
-0.200339
-0.186686
-0.165335
-0.139879
-0.094192
-0.050574
-0.006948
0.021205
0.054685
0.077222
0.080150
0.069343
0.061650
0.022141
-0.018674
-0.067462
-0.108950
-0.155638
-0.184063
-0.197766
-0.208592
-0.194269
-0.176140
-0.145860
-0.103385
-0.061337
-0.020958
0.017401
0.056883
0.084869
0.094416
0.070923
0.050266
0.027104
-0.027692
-0.081307
-0.111535
-0.149073
-0.185228
-0.211467
-0.222692
-0.200757
-0.182975
-0.144355
-0.102171
-0.058722
-0.007170
0.033662
0.064625
0.087393
0.111631
0.107778
0.105276
0.078928
0.037406
0.004337
-0.022563
-0.062094
-0.077942
-0.078165
-0.068407
-0.037388
0.004074
0.052205
0.129441
0.193624
0.262180
0.337575
0.405058
0.453232
0.493329
0.520748
0.536751
0.539800
0.515598
0.503871
0.472900
0.481947
0.512887
0.534361
0.558697
0.600371
0.639657
0.674919
0.706542
0.740677
0.794111
0.824866
0.836820
0.841008
0.813610
0.760983
0.682290
0.581724
0.479847
0.374877
0.281199
0.187967
0.109376
0.040857
0.008854
0.007457
0.019371
0.039965
0.087197
0.106964
0.137309
0.172267
0.198272
0.209679
0.205699
0.179392
0.159945
0.129441
0.088423
0.054043
0.012735
-0.050523
-0.088057
-0.117736
-0.124034
-0.111785
-0.103709
-0.059380
-0.029343
0.006860
0.057061
0.090685
0.128928
0.154781
0.157837
0.146514
0.115610
0.084549
0.042795
0.002313
-0.045580
-0.093711
-0.130154
-0.157274
-0.157261
-0.139544
-0.120325
-0.077906
-0.034755
0.008446
0.045115
0.078198
0.105034
0.140274
0.136999
0.116739
0.095395
0.082617
0.034943
-0.008470
-0.046025
-0.087026
-0.113825
-0.133761
-0.150638
-0.139259
-0.119655
-0.089120
-0.051214
-0.004017
0.045146
0.093401
0.114775
0.135554
0.139347
0.127434
0.113793
0.081222
0.037990
0.006719
-0.034957
-0.080411
-0.112598
-0.128263
-0.133945
-0.112762
-0.088798
-0.065855
-0.030005
0.009354
0.059625
0.097795
0.134385
0.159961
0.166732
0.154359
0.139740
0.104973
0.056366
0.024832
-0.020840
-0.058308
-0.089421
-0.110093
-0.111195
-0.090574
-0.068850
-0.035793
0.008024
0.044656
0.101797
0.138718
0.164789
0.199471
0.206895
0.192405
0.163721
0.129174
0.091852
0.048731
0.006469
-0.031441
-0.061530
-0.088456
-0.092587
-0.070085
-0.040720
-0.000761
0.038379
0.086348
0.141684
0.186360
0.206569
0.228036
0.240162
0.225573
0.196644
0.162548
0.135695
0.100543
0.038392
0.007753
-0.026954
-0.050318
-0.049785
-0.036429
-0.012462
0.021881
0.057006
0.095081
0.142492
0.185142
0.216290
0.236418
0.253026
0.243812
0.220974
0.190009
0.142805
0.101985
0.060818
0.019475
-0.016192
-0.043626
-0.046572
-0.036363
-0.017025
0.019431
0.057340
0.103009
0.161356
0.189518
0.221478
0.243101
0.260543
0.244999
0.225361
0.186264
0.137103
0.087067
0.046159
0.012026
-0.016863
-0.042568
-0.055445
-0.058862
-0.029628
0.005231
0.050655
0.092609
0.126024
0.175617
0.208756
0.223789
0.223317
0.200360
0.185773
0.154992
0.102601
0.055976
0.014702
-0.029120
-0.074327
-0.096536
-0.104947
-0.084847
-0.051714
-0.028719
0.008205
0.064970
0.107704
0.145609
0.164189
0.176838
0.175801
0.167992
0.170113
0.135800
0.078552
0.029454
-0.013673
-0.057785
-0.091125
-0.116295
-0.123281
-0.114890
-0.110600
-0.089796
-0.036383
0.001117
0.053672
0.096631
0.126638
0.146469
0.156354
0.139138
0.123667
0.096172
0.063430
0.018511
-0.034956
-0.077578
-0.124782
-0.150900
-0.151922
-0.146782
-0.121368
-0.085335
-0.049121
-0.012465
0.032876
0.063773
0.097332
0.128598
0.117746
0.113019
0.114574
0.083440
0.041296
0.004382
-0.058131
-0.101773
-0.144826
-0.164190
-0.171495
-0.154551
-0.129629
-0.101785
-0.052219
-0.013523
0.029039
0.062321
0.103279
0.122350
0.137089
0.129899
0.103881
0.067419
0.018686
-0.027533
-0.079368
-0.119219
-0.138733
-0.149961
-0.161276
-0.138535
-0.112508
-0.078801
-0.044031
-0.007746
0.027231
0.057348
0.094247
0.119849
0.130244
0.124357
0.091627
0.064114
0.016334
-0.018196
-0.064152
-0.104817
-0.143343
-0.159118
-0.157467
-0.142557
-0.129572
-0.092313
-0.045435
-0.001248
0.039388
0.077436
0.113921
0.143198
0.143723
0.134900
0.107234
0.084733
0.040535
-0.013237
-0.046755
-0.085259
-0.125029
-0.148078
-0.145481
-0.129148
-0.112054
-0.081358
-0.048961
-0.005618
0.040214
0.085819
0.110033
0.138904
0.151843
0.136759
0.114616
0.080084
0.022086
-0.015332
-0.050392
-0.093301
-0.120367
-0.139641
-0.145177
-0.133135
-0.105701
-0.069863
-0.030215
0.011239
0.049979
0.088798
0.109916
0.132301
0.139880
0.133510
0.108778
0.065752
0.018440
-0.022009
-0.065013
-0.105352
-0.129646
-0.153512
-0.155820
-0.138494
-0.113861
-0.074981
-0.029760
0.012805
0.049475
0.074868
0.107133
0.132895
0.138867
0.123701
0.107665
0.081336
0.033073
-0.008965
-0.060231
-0.105161
-0.142146
-0.166429
-0.162084
-0.161207
-0.138138
-0.100886
-0.051872
-0.011468
0.045053
0.079217
0.108151
0.131692
0.137146
0.124944
0.100296
0.065941
0.021492
-0.021651
-0.071367
-0.108682
-0.155574
-0.169313
-0.163911
-0.140073
-0.123510
-0.095469
-0.063869
-0.017749
0.019841
0.062837
0.100323
0.121529
0.134214
0.134143
0.108427
0.074353
0.028261
-0.015066
-0.055576
-0.090021
-0.129063
-0.156386
-0.167993
-0.152771
-0.138121
-0.111344
-0.068191
-0.026138
0.013542
0.050394
0.097337
0.115445
0.117954
0.100039
0.090771
0.060371
0.018810
-0.016175
-0.075210
-0.108270
-0.146150
-0.164790
-0.166676
-0.169764
-0.141007
-0.118315
-0.075384
-0.035494
0.009091
0.044960
0.083670
0.118989
0.139430
0.123882
0.101410
0.066438
0.011848
-0.045105
-0.081100
-0.108955
-0.137271
-0.161254
-0.162979
-0.162993
-0.151271
-0.115056
-0.075171
-0.034675
0.006906
0.048586
0.090153
0.113571
0.115360
0.109080
0.092836
0.064024
0.006680
-0.025093
-0.070153
-0.102491
-0.155296
-0.175619
-0.177779
-0.165628
-0.146886
-0.113465
-0.074698
-0.033885
0.014214
0.053257
0.079564
0.106704
0.115210
0.103810
0.075762
0.053625
0.017118
-0.030791
-0.072318
-0.117255
-0.161006
-0.178813
-0.177440
-0.168237
-0.143430
-0.111019
-0.067891
-0.031648
0.016412
0.052486
0.098319
0.108548
0.111757
0.108823
0.085993
0.061533
0.011117
-0.037777
-0.089856
-0.124546
-0.156689
-0.164571
-0.166804
-0.156911
-0.132749
-0.104065
-0.073239
-0.037569
0.006461
0.045132
0.080646
0.105281
0.132211
0.119465
0.101645
0.069691
0.018355
-0.030984
-0.073966
-0.106637
-0.142022
-0.159035
-0.158149
-0.151058
-0.133291
-0.090843
-0.043455
-0.001377
0.047556
0.083242
0.119241
0.140046
0.138723
0.141884
0.115914
0.093890
0.057836
0.002019
-0.048493
-0.078216
-0.105706
-0.131387
-0.130056
-0.121456
-0.113142
-0.088195
-0.048003
-0.001688
0.057644
0.103870
0.126409
0.149706
0.155885
0.156016
0.122841
0.086228
0.046365
0.002751
-0.049791
-0.077327
-0.099894
-0.121971
-0.119937
-0.110147
-0.097183
-0.068927
-0.028508
0.009573
0.065413
0.101681
0.132001
0.154243
0.157027
0.151033
0.131559
0.094234
0.057793
0.005358
-0.048039
-0.096730
-0.127967
-0.153222
-0.167975
-0.160473
-0.134006
-0.089356
-0.047552
-0.013233
0.025300
0.073264
0.106910
0.121633
0.127061
0.114420
0.093601
0.070205
0.028255
-0.028911
-0.082578
-0.139610
-0.162764
-0.183946
-0.187226
-0.177340
-0.154585
-0.118158
-0.086096
-0.037665
0.016555
0.044986
0.078551
0.096390
0.092641
0.082570
0.071175
0.039539
-0.013369
-0.063895
-0.107426
-0.145468
-0.185028
-0.199197
-0.208710
-0.201198
-0.172928
-0.133061
-0.093331
-0.056946
-0.010683
0.029422
0.056358
0.082660
0.096641
0.090871
0.056332
0.025859
-0.003488
-0.053162
-0.095173
-0.152331
-0.187686
-0.208966
-0.219043
-0.195281
-0.164749
-0.131943
-0.093345
-0.041512
-0.010314
0.034999
0.074232
0.097016
0.094029
0.079437
0.056545
0.029785
-0.016895
-0.056739
-0.103774
-0.149351
-0.180994
-0.189808
-0.200847
-0.194574
-0.169214
-0.138502
-0.110191
-0.055864
-0.008290
0.020856
0.054131
0.077733
0.080899
0.075338
0.046763
0.008386
-0.031657
-0.061924
-0.103357
-0.143680
-0.167827
-0.165056
-0.160378
-0.141509
-0.119142
-0.078603
-0.026190
0.030876
0.093974
0.149617
0.206407
0.236381
0.267566
0.287443
0.290613
0.279181
0.268488
0.250384
0.236816
0.231715
0.239022
0.245273
0.267574
0.309760
0.361189
0.422165
0.487776
0.581865
0.666240
0.750453
0.824689
0.872045
0.893372
0.906933
0.873852
0.844810
0.785440
0.725590
0.660147
0.604553
0.543517
0.481686
0.420552
0.363785
0.328240
0.289959
0.294911
0.291480
0.271878
0.270970
0.293064
0.286196
0.272158
0.257075
0.227917
0.176549
0.129694
0.079521
0.024500
-0.020312
-0.063097
-0.083382
-0.103555
-0.096287
-0.070778
-0.047502
-0.004798
0.046175
0.097758
0.129852
0.160137
0.190646
0.182181
0.163166
0.125077
0.089836
0.057933
0.010115
-0.032926
-0.073573
-0.109130
-0.130210
-0.161135
-0.163128
-0.136981
-0.094034
-0.048551
-0.004736
0.046736
0.086679
0.112501
0.130098
0.128749
0.112525
0.104135
0.078158
0.035147
-0.016776
-0.052559
-0.087842
-0.105631
-0.129476
-0.138443
-0.138311
-0.116268
-0.099239
-0.057459
-0.012802
0.028181
0.057919
0.094164
0.116026
0.131467
0.125798
0.092568
0.061934
0.033730
0.003767
-0.043960
-0.073781
-0.104921
-0.123114
-0.129018
-0.126553
-0.111782
-0.081824
-0.038658
0.024881
0.069116
0.088928
0.121234
0.156995
0.162608
0.164061
0.140912
0.107530
0.065265
0.020111
-0.030359
-0.072545
-0.110279
-0.138281
-0.135863
-0.108747
-0.076792
-0.048774
-0.015453
0.030668
0.079075
0.121884
0.166840
0.192622
0.194481
0.174656
0.149997
0.117815
0.083775
0.055399
0.012316
-0.032461
-0.074418
-0.076201
-0.081206
-0.080769
-0.046289
-0.022767
0.015444
0.057250
0.102572
0.153074
0.209099
0.225360
0.207126
0.195180
0.186859
0.171541
0.132101
0.085275
0.023395
-0.024024
-0.062827
-0.067273
-0.055318
-0.043823
-0.013730
0.011822
0.037974
0.096097
0.137472
0.173611
0.224056
0.252712
0.250493
0.239284
0.212905
0.177782
0.139607
0.084683
0.033476
-0.011857
-0.035952
-0.049240
-0.049195
-0.035541
-0.021013
0.018303
0.082333
0.117930
0.160787
0.198906
0.218243
0.246104
0.248811
0.243917
0.220128
0.196242
0.153912
0.107010
0.063222
0.027428
-0.012506
-0.042911
-0.047771
-0.041720
-0.022086
0.019701
0.061923
0.097967
0.138270
0.172795
0.206355
0.223395
0.230497
0.241274
0.223469
0.184804
0.128074
0.064788
0.026057
-0.006288
-0.040708
-0.069399
-0.071637
-0.067916
-0.047393
-0.015249
0.023217
0.058841
0.107132
0.140801
0.185935
0.208260
0.208933
0.202176
0.178866
0.133675
0.094812
0.045516
-0.009194
-0.041613
-0.078431
-0.109993
-0.114970
-0.102546
-0.072814
-0.047505
-0.004612
0.027641
0.070267
0.101967
0.129633
0.156901
0.166424
0.160278
0.141130
0.102779
0.053004
0.013046
-0.031730
-0.078186
-0.111942
-0.132703
-0.143560
-0.132691
-0.114650
-0.091187
-0.048280
-0.008478
0.030538
0.078835
0.127649
0.141332
0.137463
0.134616
0.105931
0.067775
0.023254
-0.023521
-0.067980
-0.101267
-0.136927
-0.166431
-0.170301
-0.154955
-0.125684
-0.088267
-0.062025
-0.014652
0.039424
0.081883
0.115724
0.130219
0.134088
0.112207
0.085259
0.059937
0.010332
-0.019993
-0.077059
-0.117200
-0.146985
-0.152607
-0.159090
-0.152372
-0.118503
-0.089761
-0.045479
-0.014078
0.038290
0.081963
0.109933
0.130907
0.127235
0.109470
0.096142
0.066890
0.031130
-0.013691
-0.049325
-0.095585
-0.127375
-0.152980
-0.173016
-0.155058
-0.116021
-0.085507
-0.043683
-0.006948
0.017091
0.056810
0.095343
0.122466
0.145613
0.138095
0.112081
0.084708
0.048118
-0.003288
-0.039180
-0.084097
-0.123082
-0.143751
-0.163699
-0.155820
-0.120881
-0.085262
-0.046498
-0.011834
0.039353
0.081808
0.120813
0.133160
0.135748
0.132141
0.100988
0.071808
0.037987
-0.005912
-0.047610
-0.089259
-0.133849
-0.146881
-0.148583
-0.143514
-0.106914
-0.076577
-0.047256
-0.004401
0.033939
0.074404
0.107929
0.137524
0.143310
0.132571
0.101049
0.062727
0.031919
-0.012777
-0.050026
-0.083483
-0.114022
-0.137736
-0.146567
-0.145553
-0.123078
-0.088190
-0.037006
0.009555
0.044822
0.082521
0.111423
0.141617
0.140456
0.137405
0.096748
0.060926
0.029505
-0.032772
-0.078036
-0.111795
-0.133761
-0.149472
-0.148367
-0.149563
-0.117112
-0.090356
-0.041404
0.009578
0.057111
0.103467
0.132984
0.155062
0.138623
0.118527
0.082666
0.064516
0.025161
-0.031293
-0.067746
-0.097684
-0.125635
-0.145264
-0.155225
-0.151871
-0.132187
-0.102856
-0.060608
-0.013296
0.040625
0.071600
0.089651
0.108531
0.123301
0.103422
0.084790
0.058105
0.016228
-0.021653
-0.064519
-0.096746
-0.134449
-0.165377
-0.174133
-0.154943
-0.136573
-0.095741
-0.062624
-0.010335
0.029250
0.062416
0.095158
0.111275
0.126242
0.128142
0.096796
0.068634
0.027642
-0.037024
-0.075923
-0.118175
-0.147452
-0.172167
-0.176912
-0.159433
-0.143712
-0.120649
-0.071021
-0.020634
0.022296
0.061866
0.098614
0.115544
0.109668
0.110728
0.069612
0.038065
0.006532
-0.036536
-0.080188
-0.120354
-0.146018
-0.163804
-0.175191
-0.159447
-0.146724
-0.103013
-0.069927
-0.020187
0.022952
0.056540
0.084964
0.109183
0.119702
0.116467
0.096128
0.058774
0.014504
-0.036247
-0.083267
-0.119050
-0.153158
-0.170962
-0.179645
-0.171933
-0.139345
-0.105638
-0.075103
-0.017611
0.013171
0.059343
0.095226
0.114315
0.123159
0.110320
0.070862
0.032911
-0.003478
-0.047264
-0.086802
-0.124335
-0.152666
-0.169385
-0.183603
-0.156442
-0.131184
-0.112705
-0.077647
-0.022034
0.015055
0.058238
0.086451
0.109705
0.123010
0.116190
0.090019
0.067527
0.021809
-0.018730
-0.066680
-0.117764
-0.153538
-0.175589
-0.176825
-0.168252
-0.148515
-0.118540
-0.075773
-0.024624
0.008326
0.056988
0.097995
0.121512
0.128768
0.122084
0.107940
0.066238
0.033063
-0.029670
-0.067756
-0.107740
-0.133978
-0.148164
-0.151166
-0.139794
-0.114056
-0.080025
-0.031620
0.004154
0.045341
0.083202
0.126772
0.143155
0.141453
0.141098
0.112265
0.081615
0.036252
-0.007399
-0.053828
-0.087591
-0.121667
-0.141658
-0.153868
-0.145783
-0.135916
-0.099644
-0.045114
0.023102
0.051054
0.091895
0.131398
0.162637
0.169624
0.155209
0.118206
0.078433
0.038108
-0.003268
-0.030736
-0.059752
-0.094613
-0.122949
-0.132272
-0.132595
-0.115998
-0.082474
-0.047350
-0.000338
0.028582
0.061436
0.090342
0.119201
0.132761
0.115750
0.104262
0.077037
0.033124
-0.016615
-0.069655
-0.125584
-0.159172
-0.177657
-0.175396
-0.176547
-0.153982
-0.129868
-0.088813
-0.046169
0.001146
0.035720
0.063078
0.089619
0.099073
0.090152
0.062202
0.022975
-0.010867
-0.061025
-0.114255
-0.151805
-0.191511
-0.214032
-0.212530
-0.204020
-0.174570
-0.132272
-0.091099
-0.054844
-0.021279
0.028550
0.061534
0.082413
0.097451
0.086655
0.056336
0.019272
-0.017094
-0.066603
-0.103386
-0.153467
-0.174203
-0.192960
-0.186822
-0.187167
-0.181028
-0.162628
-0.115065
-0.058976
-0.036228
0.003255
0.030406
0.059071
0.073641
0.067798
0.043599
0.013841
-0.022887
-0.075790
-0.115331
-0.149920
-0.164402
-0.177612
-0.199772
-0.202025
-0.188300
-0.155465
-0.114415
-0.056433
-0.027476
0.027447
0.051294
0.075547
0.078193
0.075933
0.061404
0.026300
-0.023441
-0.078892
-0.113658
-0.141839
-0.170220
-0.197298
-0.209005
-0.194292
-0.162403
-0.138442
-0.088228
-0.040622
0.008037
0.059403
0.098211
0.138203
0.164552
0.172371
0.171408
0.146614
0.113415
0.069129
0.049509
0.038418
0.036325
0.039089
0.049765
0.095859
0.137278
0.193429
0.271066
0.343565
0.404981
0.480797
0.533794
0.582862
0.629633
0.653234
0.649663
0.649711
0.653142
0.649829
0.637399
0.599568
0.571699
0.553187
0.553947
0.550467
0.562352
0.593011
0.597903
0.605799
0.591267
0.553361
0.528718
0.493086
0.453579
0.397994
0.331256
0.255714
0.185856
0.116390
0.053092
-0.015253
-0.063599
-0.101459
-0.103630
-0.097731
-0.084487
-0.062995
-0.028235
0.029066
0.080054
0.122410
0.151191
0.163496
0.164559
0.163091
0.136352
0.106122
0.046778
0.002415
-0.041776
-0.082101
-0.106350
-0.117539
-0.123324
-0.114451
-0.089458
-0.071232
-0.040345
0.005379
0.043977
0.087401
0.112435
0.125197
0.125127
0.109679
0.086592
0.046373
0.011276
-0.036844
-0.064278
-0.097706
-0.133766
-0.155185
-0.166221
-0.151323
-0.119512
-0.077789
-0.058588
-0.011082
0.021730
0.063811
0.102065
0.121265
0.124191
0.109265
0.092465
0.056654
0.027770
-0.018052
-0.045777
-0.096840
-0.137209
-0.154015
-0.162823
-0.159925
-0.137759
-0.088842
-0.042286
0.002022
0.050591
0.091457
0.124766
0.137167
0.140960
0.137870
0.116861
0.080770
0.049438
0.003483
-0.045471
-0.078597
-0.123717
-0.141333
-0.141955
-0.121097
-0.101246
-0.056792
-0.023377
0.021186
0.056675
0.100112
0.144405
0.163068
0.176057
0.163917
0.131336
0.094341
0.062673
0.017589
-0.021614
-0.058470
-0.101105
-0.104090
-0.108494
-0.111954
-0.087565
-0.058426
-0.012828
0.029608
0.073541
0.117346
0.158106
0.180207
0.195318
0.200850
0.179613
0.146865
0.098682
0.045172
0.008440
-0.029136
-0.054528
-0.070648
-0.074939
-0.077171
-0.050762
-0.012490
0.029444
0.076449
0.120374
0.172066
0.207161
0.223446
0.230655
0.225846
0.208618
0.171890
0.132515
0.071827
0.031068
-0.013360
-0.051871
-0.066779
-0.055534
-0.046389
-0.029634
0.001892
0.044912
0.091602
0.150979
0.188204
0.212241
0.219984
0.223013
0.219900
0.208423
0.174835
0.137458
0.090616
0.044209
-0.002763
-0.037284
-0.062765
-0.065619
-0.058888
-0.032798
-0.008521
0.040329
0.086224
0.128024
0.160525
0.186131
0.213277
0.232474
0.226230
0.201783
0.146560
0.117762
0.078042
0.028823
-0.027671
-0.044450
-0.065380
-0.076146
-0.068989
-0.047388
-0.015081
0.010022
0.054045
0.100239
0.141420
0.173186
0.195436
0.203312
0.195934
0.174008
0.136985
0.094985
0.046920
-0.004974
-0.061239
-0.098549
-0.113850
-0.116684
-0.109810
-0.092384
-0.059025
-0.021635
0.018809
0.061594
0.095595
0.123415
0.149207
0.155075
0.149701
0.129904
0.097174
0.049527
-0.006004
-0.053859
-0.094044
-0.117805
-0.138840
-0.164103
-0.157405
-0.125916
-0.092788
-0.061032
-0.018479
0.022883
0.063260
0.098751
0.135620
0.144399
0.121257
0.079612
0.051195
0.008306
-0.039156
-0.084722
-0.122470
-0.158611
-0.186835
-0.193884
-0.171076
-0.154934
-0.116977
-0.075949
-0.016058
0.014311
0.063783
0.096572
0.103006
0.112781
0.095516
0.072949
0.052048
0.017018
-0.032748
-0.091188
-0.131816
-0.149226
-0.174523
-0.183434
-0.176808
-0.147745
-0.116423
-0.092388
-0.045316
0.005567
0.050582
0.067319
0.096132
0.103263
0.107954
0.090462
0.054496
0.008387
-0.045348
-0.093322
-0.130594
-0.157110
-0.180140
-0.187124
-0.184618
-0.155043
-0.118917
-0.089284
-0.041720
0.009393
0.056557
0.096702
0.122661
0.118288
0.108437
0.083280
0.045859
0.008368
-0.025940
-0.067848
-0.120640
-0.159709
-0.183911
-0.198189
-0.178154
-0.140084
-0.104616
-0.077713
-0.027476
0.022468
0.076181
0.106140
0.112089
0.109769
0.104276
0.085243
0.044743
0.008108
-0.038733
-0.072153
-0.115980
-0.150950
-0.179202
-0.177358
-0.169627
-0.146103
-0.115254
-0.077132
-0.030740
0.020526
0.055124
0.083054
0.110851
0.113385
0.104823
0.089833
0.054208
0.006402
-0.037768
-0.088407
-0.118228
-0.151349
-0.167298
-0.158010
-0.161322
-0.148813
-0.117120
-0.070619
-0.031993
-0.002452
0.046264
0.074009
0.114435
0.125039
0.107881
0.084784
0.054106
0.010600
-0.052865
-0.102505
-0.148699
-0.166565
-0.186278
-0.185150
-0.184238
-0.158633
-0.124609
-0.091807
-0.045857
0.005898
0.054922
0.095667
0.099920
0.107417
0.097509
0.084535
0.053768
0.005334
-0.037252
-0.074276
-0.114305
-0.152198
-0.172384
-0.175819
-0.160306
-0.151186
-0.121899
-0.073801
-0.025368
0.000707
0.038517
0.082135
0.102530
0.098848
0.093707
0.072445
0.043254
0.014617
-0.033261
-0.078260
-0.128003
-0.165665
-0.192992
-0.193247
-0.188368
-0.166398
-0.123536
-0.084995
-0.038734
-0.000290
0.036598
0.068828
0.089501
0.096677
0.096645
0.067099
0.035558
-0.005648
-0.045453
-0.098736
-0.143154
-0.168245
-0.200172
-0.202844
-0.205912
-0.181205
-0.134124
-0.098132
-0.062892
-0.015579
0.032420
0.062360
0.070165
0.074923
0.077212
0.068034
0.035718
-0.006996
-0.057858
-0.103414
-0.133872
-0.172232
-0.197266
-0.204020
-0.192095
-0.189342
-0.139033
-0.094316
-0.050711
-0.003555
0.037278
0.060713
0.078768
0.085893
0.079105
0.053300
0.010232
-0.019869
-0.052605
-0.122513
-0.141961
-0.175766
-0.189797
-0.190703
-0.177297
-0.155600
-0.117634
-0.087327
-0.030189
0.023821
0.058940
0.098840
0.120632
0.133313
0.120596
0.097367
