-0.033197
0.007541
0.041993
0.079925
0.107157
0.112569
0.091750
0.071540
0.039248
0.005889
-0.036262
-0.101451
-0.144277
-0.157409
-0.186569
-0.210073
-0.209215
-0.195833
-0.148640
-0.092735
-0.048709
-0.019891
0.017175
0.056958
0.080988
0.093687
0.088931
0.068025
0.031479
-0.015836
-0.064433
-0.110817
-0.154980
-0.180573
-0.196634
-0.207858
-0.208535
-0.186788
-0.148875
-0.101511
-0.056403
-0.023141
0.022438
0.050974
0.064060
0.063899
0.061127
0.042746
0.021959
-0.015591
-0.065387
-0.108056
-0.152738
-0.179269
-0.201036
-0.208509
-0.188924
-0.165701
-0.128991
-0.080432
-0.045904
-0.007712
0.035165
0.074999
0.095731
0.104166
0.096373
0.071809
0.022440
-0.020017
-0.058300
-0.112847
-0.156420
-0.176567
-0.194330
-0.200563
-0.183938
-0.154407
-0.131891
-0.084197
-0.041722
0.006058
0.046495
0.082516
0.095524
0.102225
0.091671
0.063651
0.039321
-0.004698
-0.038850
-0.092745
-0.134404
-0.169978
-0.193138
-0.191142
-0.186707
-0.175488
-0.138327
-0.089066
-0.037999
0.002252
0.032441
0.061417
0.093407
0.095232
0.093309
0.075561
0.039943
-0.007317
-0.047937
-0.095732
-0.138362
-0.166294
-0.186855
-0.194849
-0.191389
-0.155957
-0.151730
-0.112318
-0.045996
0.003947
0.031955
0.067752
0.100583
0.095736
0.090443
0.069444
0.043298
-0.003327
-0.071798
-0.122690
-0.159784
-0.175370
-0.208940
-0.202434
-0.192957
-0.157612
-0.130119
-0.085895
-0.044961
0.001462
0.043402
0.058647
0.082516
0.086797
0.087498
0.065268
0.033661
-0.019205
-0.065753
-0.107791
-0.150335
-0.187402
-0.196582
-0.201990
-0.197523
-0.173625
-0.146383
-0.097281
-0.056132
-0.007231
0.027807
0.055363
0.071843
0.076168
0.081688
0.054889
0.015535
-0.032188
-0.077466
-0.117017
-0.150167
-0.186784
-0.211194
-0.208302
-0.195993
-0.155219
-0.130414
-0.095197
-0.058153
-0.019893
0.023790
0.057237
0.079728
0.090936
0.091532
0.058594
0.031428
-0.000083
-0.044597
-0.094003
-0.130010
-0.154611
-0.177837
-0.181170
-0.165619
-0.133182
-0.109363
-0.068436
-0.020274
0.027857
0.070261
0.097474
0.110953
0.121231
0.117421
0.090720
0.067752
0.008698
-0.040964
-0.080006
-0.112418
-0.148104
-0.172655
-0.187740
-0.176817
-0.152663
-0.117507
-0.072868
-0.018698
0.027873
0.077303
0.107475
0.138667
0.143969
0.132195
0.107894
0.068859
0.007029
-0.016737
-0.045144
-0.092026
-0.136802
-0.155169
-0.171567
-0.155383
-0.116233
-0.089181
-0.058596
-0.015558
0.035154
0.065096
0.099103
0.132102
0.134147
0.120880
0.089921
0.054710
0.006163
-0.057391
-0.107420
-0.141933
-0.179767
-0.198999
-0.197390
-0.192147
-0.174389
-0.144489
-0.105933
-0.046774
-0.002400
0.018351
0.055615
0.083346
0.086509
0.069344
0.038802
-0.003487
-0.049548
-0.092215
-0.131858
-0.162777
-0.188039
-0.220232
-0.217611
-0.215344
-0.186799
-0.155443
-0.125468
-0.078193
-0.032041
-0.004018
0.028587
0.052023
0.059402
0.056169
0.035973
0.002569
-0.047668
-0.086083
-0.132726
-0.166515
-0.207039
-0.231882
-0.246635
-0.228059
-0.201880
-0.165090
-0.127408
-0.084635
-0.042108
-0.008447
0.029749
0.055510
0.056944
0.046484
0.006328
-0.007826
-0.038471
-0.080398
-0.126666
-0.169509
-0.201235
-0.230430
-0.232003
-0.225681
-0.202094
-0.164863
-0.127871
-0.088496
-0.047079
-0.009458
0.025428
0.047110
0.058188
0.056539
0.030137
-0.007170
-0.048864
-0.095870
-0.139567
-0.181223
-0.214138
-0.248476
-0.251887
-0.250656
-0.224346
-0.193262
-0.142611
-0.083880
-0.052732
-0.007886
0.023290
0.051357
0.074318
0.069136
0.044967
0.022934
0.014764
-0.006186
-0.038525
-0.064875
-0.095672
-0.128649
-0.115244
-0.086087
-0.026284
0.025720
0.095969
0.178833
0.248216
0.322026
0.386818
0.451604
0.490674
0.515487
0.525799
0.526365
0.516600
0.504992
0.508060
0.502304
0.514726
0.524407
0.551329
0.582176
0.625575
0.654875
0.692437
0.744146
0.754757
0.774756
0.797638
0.789629
0.747320
0.672597
0.568915
0.473327
0.366745
0.258283
0.164031
0.074147
-0.000105
-0.035554
-0.042871
-0.050650
-0.019190
0.006786
0.032449
0.069091
0.097682
0.126908
0.165910
0.179932
0.183411
0.174559
0.146397
0.099252
0.055572
0.009320
-0.056360
-0.105867
-0.131819
-0.145135
-0.153359
-0.148472
-0.135257
-0.099832
-0.055686
-0.009169
0.018987
0.049530
0.076495
0.096571
0.096559
0.091625
0.065881
0.045594
-0.010571
-0.058659
-0.094222
-0.127312
-0.174511
-0.207475
-0.216131
-0.182263
-0.161302
-0.122914
-0.088372
-0.037884
0.027781
0.057135
0.082965
0.105440
0.109796
0.102001
0.071388
0.043798
0.006902
-0.040113
-0.086323
-0.128515
-0.161886
-0.179152
-0.205606
-0.181835
-0.157781
-0.129284
-0.081140
-0.028479
0.005665
0.042988
0.082036
0.113015
0.126626
0.109655
0.085086
0.053635
0.015257
-0.031957
-0.071140
-0.115225
-0.158379
-0.182028
-0.180682
-0.168929
-0.139194
-0.110521
-0.071817
-0.021676
0.028563
0.075262
0.108214
0.124746
0.132936
0.118824
0.100778
0.079637
0.030187
-0.018331
-0.061607
-0.106071
-0.138231
-0.164958
-0.170668
-0.143480
-0.110269
-0.079664
-0.035365
0.019994
0.055715
0.091962
0.130179
0.141992
0.155887
0.152227
0.126345
0.097723
0.066848
0.017449
-0.029523
-0.082173
-0.098780
-0.114900
-0.128824
-0.124858
-0.093206
-0.048295
-0.002516
0.039465
0.085006
0.123000
0.154493
0.176089
0.183662
0.179289
0.148328
0.117111
0.073648
0.025534
-0.019395
-0.054913
-0.077167
-0.108031
-0.119580
-0.108375
-0.078513
-0.043194
-0.007679
0.050125
0.085861
0.120975
0.161525
0.182398
0.191881
0.172992
0.147513
0.117958
0.083509
0.044967
-0.003349
-0.053241
-0.083877
-0.101275
-0.100710
-0.085910
-0.079558
-0.050501
-0.009738
0.044207
0.088228
0.129298
0.152225
0.171191
0.168470
0.163363
0.140330
0.114513
0.056318
-0.001859
-0.039466
-0.076916
-0.099745
-0.118580
-0.127877
-0.115322
-0.086012
-0.074404
-0.032188
0.009252
0.059395
0.106654
0.141651
0.153945
0.154261
0.146929
0.132758
0.099236
0.058067
-0.006550
-0.063772
-0.101150
-0.130050
-0.148031
-0.157600
-0.152446
-0.126118
-0.096728
-0.056469
-0.001421
0.046582
0.073503
0.098039
0.115478
0.118536
0.113974
0.091771
0.053627
0.016023
-0.039421
-0.090670
-0.136775
-0.162755
-0.177872
-0.194087
-0.172606
-0.140493
-0.108353
-0.083991
-0.029132
0.013137
0.051825
0.078209
0.098545
0.103291
0.095275
0.066644
0.040439
-0.006485
-0.060905
-0.094660
-0.137294
-0.171587
-0.202432
-0.213611
-0.205711
-0.177513
-0.130509
-0.085552
-0.051170
-0.015491
0.033479
0.071231
0.092013
0.098858
0.091501
0.067093
0.029952
-0.026550
-0.062008
-0.103210
-0.154200
-0.189797
-0.209410
-0.209730
-0.195447
-0.167598
-0.126762
-0.099879
-0.051249
-0.000337
0.040258
0.055332
0.083637
0.091805
0.078052
0.058722
0.028380
-0.015284
-0.056197
-0.098562
-0.144217
-0.167773
-0.195578
-0.204223
-0.188442
-0.170995
-0.140818
-0.089404
-0.042668
0.008135
0.046613
0.081232
0.092639
0.105462
0.096857
0.067821
0.024728
-0.013738
-0.053690
-0.102202
-0.145927
-0.171801
-0.189769
-0.202188
-0.197829
-0.166365
-0.122505
-0.084672
-0.031720
0.007688
0.048825
0.076681
0.098823
0.098816
0.098129
0.072855
0.047576
0.010726
-0.049972
-0.091437
-0.140385
-0.168291
-0.180771
-0.193468
-0.198023
-0.171676
-0.129716
-0.080568
-0.029249
0.012471
0.053504
0.088368
0.099578
0.109336
0.098489
0.075297
0.014798
-0.024488
-0.070090
-0.116399
-0.164719
-0.185331
-0.203208
-0.217319
-0.212902
-0.174642
-0.138737
-0.105275
-0.068349
-0.007782
0.038496
0.085684
0.105097
0.108204
0.087997
0.064944
0.015296
-0.026100
-0.073789
-0.122006
-0.166964
-0.186135
-0.187792
-0.192799
-0.192751
-0.192010
-0.142304
-0.097059
-0.051990
-0.017983
0.028143
0.059948
0.082338
0.092139
0.082539
0.059689
0.021295
-0.010508
-0.065572
-0.120620
-0.166386
-0.192257
-0.212480
-0.218847
-0.206336
-0.192935
-0.147303
-0.097276
-0.056098
-0.041116
0.010376
0.045675
0.063269
0.062742
0.060533
0.047821
0.017686
-0.024153
-0.065845
-0.119690
-0.154723
-0.192491
-0.216007
-0.226979
-0.215355
-0.189776
-0.152006
-0.116095
-0.059181
-0.017990
0.029478
0.059291
0.071612
0.084805
0.083288
0.066006
0.032202
-0.003297
-0.046467
-0.095281
-0.138744
-0.171041
-0.188488
-0.196680
-0.188118
-0.156824
-0.116722
-0.080877
-0.044046
0.014639
0.070734
0.096207
0.102804
0.094384
0.105409
0.078954
0.031802
-0.004547
-0.054688
-0.098804
-0.140325
-0.171184
-0.187575
-0.187431
-0.179849
-0.160923
-0.121441
-0.083860
-0.033974
0.015505
0.054733
0.094349
0.111665
0.118534
0.116954
0.099312
0.068448
0.026719
-0.019669
-0.073614
-0.113223
-0.143725
-0.165185
-0.177814
-0.166106
-0.150251
-0.110831
-0.064567
-0.029242
0.016585
0.056966
0.090284
0.112657
0.111334
0.095206
0.070511
0.025370
-0.014703
-0.070591
-0.123810
-0.173802
-0.200923
-0.224101
-0.237694
-0.215950
-0.187527
-0.153809
-0.118122
-0.076013
-0.043865
-0.001539
0.034915
0.056081
0.068284
0.060448
0.028175
-0.019663
-0.063196
-0.099524
-0.145466
-0.189794
-0.227689
-0.254534
-0.263846
-0.253292
-0.242008
-0.196978
-0.150005
-0.099013
-0.057973
-0.016034
0.016622
0.035698
0.034113
0.023421
0.007554
-0.030953
-0.070355
-0.108625
-0.160782
-0.186149
-0.222086
-0.252510
-0.267073
-0.266915
-0.232987
-0.175110
-0.139456
-0.106248
-0.061842
-0.018901
0.020152
0.042385
0.044342
0.037751
0.014199
-0.043060
-0.080664
-0.119525
-0.169651
-0.202504
-0.234798
-0.255689
-0.272934
-0.272639
-0.236154
-0.190842
-0.140848
-0.099422
-0.050526
-0.013582
0.025166
0.044904
0.048165
0.032457
0.002882
-0.041591
-0.080924
-0.132155
-0.172610
-0.201813
-0.240452
-0.267328
-0.266819
-0.252903
-0.231431
-0.213237
-0.180869
-0.131425
-0.073037
-0.031628
0.006466
0.042557
0.059393
0.067728
0.056257
0.028769
-0.004178
-0.030800
-0.063209
-0.095192
-0.124366
-0.124179
-0.116190
-0.092419
-0.053286
0.026536
0.098468
0.177483
0.254388
0.334439
0.420960
0.481379
0.511225
0.551985
0.548100
0.548552
0.562415
0.590823
0.584996
0.577888
0.561643
0.563461
0.600080
0.617402
0.627000
0.661926
0.713772
0.730889
0.767741
0.774599
0.788218
0.763871
0.702361
0.613253
0.513069
0.415267
0.313631
0.208743
0.117975
0.046700
0.001022
-0.033385
-0.046418
-0.047266
-0.043940
-0.022181
0.012906
0.040359
0.079968
0.102406
0.121105
0.148045
0.152712
0.146022
0.111469
0.068154
0.015465
-0.036758
-0.077375
-0.110588
-0.153843
-0.176342
-0.183274
-0.188119
-0.170081
-0.138251
-0.090584
-0.042587
-0.003055
0.026644
0.062275
0.091627
0.097750
0.085837
0.066221
0.027439
-0.021700
-0.072757
-0.120670
-0.161760
-0.204444
-0.220095
-0.221310
-0.219242
-0.191901
-0.148606
-0.110105
-0.068295
-0.014075
0.017006
0.048076
0.079926
0.089167
0.061288
0.032545
0.005498
-0.027013
-0.068186
-0.121080
-0.157462
-0.186074
-0.204747
-0.212887
-0.202696
-0.181242
-0.146879
-0.097965
-0.053230
0.001941
0.031584
0.059180
0.077591
0.082822
0.085066
0.064047
0.024550
-0.011219
-0.060967
-0.108237
-0.148865
-0.184851
-0.187370
-0.196684
-0.197952
-0.172693
-0.128466
-0.090570
-0.045494
-0.004365
0.034388
0.080436
0.123063
0.117899
0.103764
0.086756
0.048913
0.001307
-0.043926
-0.089258
-0.135282
-0.154651
-0.171839
-0.178053
-0.176565
-0.148456
-0.105428
-0.066698
-0.023614
0.028047
0.068740
0.101077
0.128538
0.124254
0.124173
0.109867
0.074294
0.036354
-0.018407
-0.063327
-0.096774
-0.119221
-0.135823
-0.141852
-0.141941
-0.131255
-0.098291
-0.029933
0.021593
0.062355
0.091890
0.136657
0.165058
0.170595
0.157743
0.130938
0.092201
0.059094
0.003979
-0.038353
-0.071556
-0.101755
-0.124250
-0.145919
-0.125186
-0.101536
-0.061095
-0.013354
0.027110
0.068698
0.109754
0.140561
0.154288
0.157727
0.147635
0.136200
0.104556
0.065277
0.018098
-0.035496
-0.072599
-0.107751
-0.136192
-0.147999
-0.133213
-0.105682
-0.065549
-0.032260
0.009734
0.055952
0.100931
0.127594
0.150537
0.153865
0.142082
0.120133
0.093083
0.047712
-0.012421
-0.058234
-0.104473
-0.131248
-0.150287
-0.156847
-0.163005
-0.133186
-0.093404
-0.054391
-0.017570
0.033022
0.074350
0.105547
0.117645
0.125450
0.118205
0.095100
0.070435
0.026283
-0.031787
-0.084947
-0.122336
-0.161364
-0.181575
-0.183231
-0.174164
-0.151647
-0.116890
-0.072545
-0.032610
0.011077
0.048881
0.088633
0.110129
0.103376
0.096197
0.078440
0.036495
-0.040513
-0.086271
-0.113664
-0.134368
-0.179201
-0.206900
-0.210125
-0.219594
-0.193389
-0.147205
-0.104766
-0.057807
0.002841
0.032232
0.056866
0.075553
0.083916
0.061626
0.038544
0.018646
-0.026825
-0.070628
-0.133975
-0.167610
-0.198283
-0.212696
-0.225237
-0.219555
-0.191295
-0.151421
-0.103633
-0.063024
-0.018914
0.024085
0.049272
0.071636
0.070575
0.061775
0.046434
-0.002880
-0.043806
-0.094573
-0.125888
-0.173615
-0.201358
-0.205555
-0.211880
-0.205974
-0.184765
-0.160397
-0.121102
-0.067811
-0.019033
0.012989
0.043238
0.055351
0.075062
0.071904
0.048368
0.015734
-0.037602
-0.091118
-0.135957
-0.158803
-0.189622
-0.211352
-0.229296
-0.205057
-0.177470
-0.144422
-0.097604
-0.042103
-0.000921
0.035791
0.065115
0.084065
0.087820
0.081501
0.055864
0.026619
-0.014013
-0.066087
-0.117408
-0.156187
-0.191052
-0.206250
-0.207908
-0.198819
-0.185673
-0.153110
-0.101222
-0.058131
-0.006888
0.030597
0.062529
0.080569
0.083754
0.084779
0.059702
0.026419
-0.019014
-0.066099
-0.119366
-0.153595
-0.173751
-0.205052
-0.212321
-0.195813
-0.173988
-0.145043
-0.102616
-0.054979
-0.014323
0.020248
0.070337
0.091241
0.091638
0.081222
0.061487
0.020703
-0.039616
-0.088009
-0.111788
-0.153069
-0.186420
-0.193314
-0.204278
-0.211944
-0.192813
-0.173831
-0.103125
-0.041009
-0.009572
0.030707
0.058861
0.079469
0.088222
0.078048
0.048154
0.016963
-0.030293
-0.078731
-0.122790
-0.159095
-0.195125
-0.217115
-0.230860
-0.236342
-0.200085
-0.163324
-0.118262
-0.069862
-0.023907
0.016578
0.049188
0.081105
0.084607
0.075033
0.048243
0.022915
-0.021202
-0.068882
-0.120956
-0.159601
-0.189047
-0.216146
-0.228816
-0.234241
-0.204403
-0.161277
-0.111421
-0.071662
-0.022691
0.012596
0.040906
0.066045
0.063168
0.055049
0.035247
0.003042
-0.041259
-0.090880
-0.129207
-0.181030
-0.209660
-0.224059
-0.231581
-0.233473
-0.201805
-0.175890
-0.145787
-0.078650
-0.018845
0.025575
0.042261
0.049850
0.061448
0.062215
0.033742
-0.003075
-0.051756
-0.099816
-0.138233
-0.174350
-0.207776
-0.231277
-0.235038
-0.230334
-0.209135
-0.162365
-0.118753
-0.070274
-0.023598
0.009822
0.045070
0.070586
0.092539
0.078198
0.046359
0.017003
-0.031120
-0.080819
-0.119194
-0.154895
-0.189259
-0.205237
-0.211325
-0.192672
-0.169519
-0.135577
-0.084990
-0.045370
-0.001962
0.042440
0.068536
0.087695
0.106895
0.102956
0.075481
0.035047
-0.017814
-0.055292
-0.097192
-0.145080
-0.181661
-0.197675
-0.201596
-0.198759
-0.180450
-0.144405
-0.073546
-0.026234
0.011491
0.058542
0.091911
0.123633
0.131351
0.125870
0.102276
0.061548
-0.002247
-0.051568
-0.082552
-0.119627
-0.148556
-0.181148
-0.192800
-0.184752
-0.167052
-0.135810
-0.085389
-0.040682
0.002158
0.036784
0.058648
0.089016
0.094527
0.082631
0.054392
0.027176
-0.013357
-0.067895
-0.122346
-0.170119
-0.220163
-0.228574
-0.231575
-0.236083
-0.204761
-0.172489
-0.122944
-0.072440
-0.029348
-0.000670
0.021088
0.046334
0.053694
0.032270
0.018186
-0.008651
-0.067577
-0.108387
-0.152032
-0.205701
-0.222605
-0.242818
-0.250727
-0.235140
-0.216033
-0.195526
-0.149117
-0.092901
-0.058792
-0.015265
0.005767
0.025981
0.032920
0.020231
0.002810
-0.039586
-0.080291
-0.114543
-0.165303
-0.213491
-0.229146
-0.256446
-0.265332
-0.249984
-0.219794
-0.183316
-0.138246
-0.105791
-0.062578
-0.019206
0.014989
0.029518
0.052145
0.024816
0.007071
-0.031919
-0.081988
-0.119225
-0.165718
-0.209632
-0.244697
-0.250144
-0.259254
-0.245656
-0.218227
-0.188654
-0.143045
-0.102306
-0.065071
-0.022008
0.003638
0.042642
0.053502
0.033102
0.000700
-0.039439
-0.076523
-0.114467
-0.164206
-0.209813
-0.242949
-0.260728
-0.266478
-0.254689
-0.241474
-0.208849
-0.163518
-0.116686
-0.069881
-0.018509
0.018655
0.061190
0.079687
0.071476
0.060385
0.048418
0.015050
-0.018864
-0.048693
-0.081156
-0.105053
-0.117769
-0.091816
-0.065288
-0.014268
0.035890
0.112507
0.194552
0.276942
0.355795
0.418579
0.474869
0.521241
0.545210
0.550773
0.550342
0.538506
0.528737
0.539814
0.537551
0.545425
0.540598
0.567976
0.588264
0.586910
0.618010
0.662318
0.694331
0.718465
0.747380
0.732027
0.703166
0.623990
0.562389
0.466544
0.371044
0.273690
0.190520
0.111898
0.021114
-0.023132
-0.054143
-0.070896
-0.060998
-0.051805
-0.012950
0.021975
0.050898
0.084684
0.116639
0.130998
0.149695
0.153444
0.138187
0.116712
0.091451
0.026653
-0.044410
-0.075272
-0.110734
-0.141362
-0.175670
-0.183324
-0.183412
-0.156115
-0.126725
-0.086007
-0.031575
0.020787
0.045998
0.078248
0.086996
0.097261
0.086743
0.064395
0.027729
-0.022344
-0.071838
-0.114831
-0.164407
-0.184353
-0.204915
-0.211958
-0.208658
-0.181904
-0.149883
-0.105533
-0.060645
-0.015493
0.031241
0.064984
0.085816
0.080209
0.072125
0.054359
0.027724
-0.008865
-0.056691
-0.120146
-0.163932
-0.191795
-0.201719
-0.199554
-0.204291
-0.189144
-0.135029
-0.082596
-0.033394
0.011358
0.040704
0.070840
0.092007
0.091356
0.082186
0.070432
0.044953
-0.001545
-0.050847
-0.089712
-0.122797
-0.159143
-0.178999
-0.196769
-0.186622
-0.167628
-0.137733
-0.082642
-0.029451
0.016204
0.062894
0.092806
0.110798
0.123122
0.108172
0.094457
0.068100
0.030867
-0.027529
-0.070976
-0.112890
-0.144276
-0.157377
-0.166277
-0.162785
-0.138489
-0.102045
-0.056753
-0.007305
0.043377
0.095684
0.124013
0.141369
0.143398
0.138716
0.108926
0.068796
0.023229
-0.005334
-0.037170
-0.077428
-0.111532
-0.130026
-0.151143
-0.132420
-0.112161
-0.076560
-0.032110
0.022262
0.067183
0.106693
0.141989
0.177426
0.179092
0.165362
0.144351
0.118290
0.073921
0.020733
-0.034641
-0.082738
-0.106236
-0.115219
-0.106898
-0.097807
-0.077416
-0.047505
-0.003484
0.032909
0.079222
0.111200
0.141748
0.175736
0.181137
0.171309
0.153097
0.113932
0.070985
0.026139
-0.025930
-0.066735
-0.103974
-0.121266
-0.117120
-0.108432
-0.092432
-0.055809
-0.013366
0.021114
0.072468
0.122841
0.153200
0.160126
0.163502
0.163881
0.134939
0.101952
0.053957
-0.004866
-0.048265
-0.079890
-0.106661
-0.132499
-0.146401
-0.137328
-0.106933
-0.069517
-0.029462
0.014262
0.057410
0.102160
0.124822
0.135967
0.150652
0.142105
0.121276
0.081721
0.026279
-0.021550
-0.069311
-0.113629
-0.138698
-0.155584
-0.170085
-0.155120
-0.142474
-0.112779
-0.064397
-0.014987
0.026005
0.068131
0.097292
0.121461
0.127802
0.107552
0.081705
0.056584
0.012256
-0.029983
-0.076130
-0.127730
-0.160812
-0.178871
-0.188487
-0.188586
-0.164843
-0.138326
-0.091622
-0.035430
0.010268
0.047801
0.074409
0.089969
0.091342
0.090200
0.068303
0.043459
0.000399
-0.060237
-0.109447
-0.154794
-0.178847
-0.195795
-0.212266
-0.203505
-0.181153
-0.159952
-0.104014
-0.048001
-0.008043
0.042825
0.060681
0.093272
0.106489
0.086242
0.071816
0.041617
-0.006535
-0.066810
-0.110472
-0.139502
-0.168741
-0.195810
-0.202644
-0.194631
-0.180735
-0.138647
-0.098217
-0.053099
-0.002315
0.039820
0.062937
0.094161
0.105240
0.098881
0.069935
0.029894
-0.008035
-0.051103
-0.107421
-0.143447
-0.193606
-0.202997
-0.195724
-0.199849
-0.180247
-0.134358
-0.081646
-0.019667
0.017005
0.052279
0.089785
0.114026
0.112068
0.096946
0.078935
0.038875
0.009513
-0.044774
-0.088747
-0.135547
-0.173105
-0.193364
-0.202185
-0.206423
-0.179361
-0.134636
-0.096872
-0.028710
0.015945
0.054003
0.093549
0.120223
0.131316
0.123372
0.102700
0.056586
-0.001462
-0.035183
-0.073416
-0.132252
-0.161192
-0.178085
-0.202908
-0.190341
-0.162792
-0.132615
-0.087267
-0.032638
0.019112
0.066069
0.104689
0.120787
0.119063
0.102605
0.069796
0.044905
0.002214
-0.044585
-0.097480
-0.148385
-0.182545
-0.195741
-0.207516
-0.199627
-0.174500
-0.126848
-0.085820
-0.029715
0.019387
0.052146
0.078130
0.111337
0.112706
0.107162
0.084907
0.054390
0.011103
-0.049559
-0.099686
-0.134505
-0.166495
-0.192745
-0.197970
-0.200400
-0.180559
-0.135681
-0.087511
-0.041532
0.003113
0.046562
0.075265
0.091145
0.091229
0.084100
0.060016
0.034152
-0.008835
-0.060990
-0.098479
-0.142028
-0.176954
-0.193044
-0.199390
-0.188163
-0.167986
-0.126458
-0.091967
-0.043544
0.003733
0.043690
0.075740
0.085001
0.092760
0.087264
0.069607
0.035205
-0.007125
-0.061188
-0.116872
-0.157412
-0.183532
-0.204630
-0.219084
-0.202522
-0.171302
-0.143750
-0.109292
-0.047343
0.013505
0.059852
0.085294
0.091844
0.091052
0.088296
0.074238
0.038464
-0.013191
-0.055080
-0.107470
-0.146326
-0.175012
-0.190768
-0.210397
-0.190147
-0.166949
-0.137213
-0.095640
-0.032095
0.013129
0.052555
0.103681
0.116515
0.114307
0.098629
0.088299
0.074419
0.045719
-0.023878
-0.071609
-0.111450
-0.151182
-0.165163
-0.172881
-0.163583
-0.145088
-0.108599
-0.063021
-0.026616
0.013067
0.062229
0.096613
0.122005
0.143671
0.127732
0.093935
0.044661
0.007468
-0.040520
-0.087946
-0.123905
-0.152051
-0.157517
-0.149410
-0.131206
-0.113955
-0.067950
-0.027283
0.019683
0.058799
0.093871
0.127944
0.148432
0.156458
0.151236
0.131125
0.083369
0.027531
-0.026483
-0.084032
-0.112919
-0.133311
-0.161788
-0.166262
-0.155268
-0.142085
-0.105926
-0.073207
-0.021439
0.013976
0.060133
0.087100
0.100339
0.106124
0.105056
0.087029
0.050081
0.000616
-0.053844
-0.096231
-0.139309
-0.171530
-0.192019
-0.204133
-0.191041
-0.173202
-0.147451
-0.120663
-0.066249
-0.015649
0.011338
0.045915
0.075021
0.081845
0.076431
0.053025
0.009008
-0.036185
-0.089337
-0.136227
-0.177561
-0.209631
-0.235789
-0.231756
-0.221347
-0.200530
-0.162620
-0.124169
-0.075409
-0.022418
0.014108
0.051398
0.072584
0.063140
0.055138
0.035963
-0.004255
-0.037984
-0.091735
-0.137502
-0.173780
-0.219416
-0.229194
-0.231523
-0.225592
-0.203711
-0.165071
-0.122417
-0.065336
-0.027604
0.018546
0.045938
0.052743
0.073154
0.055160
0.028376
-0.003033
-0.037456
-0.085495
-0.136397
-0.190989
-0.218767
-0.228435
-0.226869
-0.225530
-0.200666
-0.170160
-0.126876
-0.068293
-0.026363
0.004602
0.040292
0.062311
0.071904
0.063166
0.041267
-0.002830
-0.047783
-0.092295
-0.136756
-0.177570
-0.220924
-0.242404
-0.248190
-0.238112
-0.200864
-0.170640
-0.118527
-0.050733
0.004169
0.065711
0.110966
0.162424
0.191874
0.201759
0.164802
0.130124
0.125219
0.090588
0.066910
0.057812
0.051031
0.070412
0.091042
0.124010
0.175363
0.248902
0.323356
0.412547
0.491185
0.567513
0.640880
0.699547
0.746208
0.766849
0.785616
0.769959
0.745296
0.713662
0.658802
0.623872
0.578399
0.549338
0.529151
0.504098
0.497338
0.479596
0.442238
0.427145
0.418954
0.418159
0.399699
0.370999
0.330196
0.284930
0.239533
0.193349
0.143078
0.087735
0.042818
-0.015675
-0.059904
-0.088745
-0.098567
-0.102279
-0.084322
-0.052561
-0.006543
0.042478
0.085881
0.117264
0.144594
0.160109
0.158651
0.147190
0.125647
0.076589
0.037229
-0.011886
-0.074074
-0.112538
-0.131662
-0.165403
-0.187336
-0.178830
-0.151850
-0.106441
-0.070413
-0.019486
0.033626
0.070715
0.106891
0.114354
0.108709
0.082730
0.063198
0.033088
-0.011966
-0.049292
-0.096947
-0.131034
-0.147824
-0.169062
-0.177816
-0.171777
-0.159598
-0.125370
-0.074599
-0.024458
0.012325
0.052054
0.101406
0.123868
0.133822
0.120317
0.101530
0.062131
0.011163
-0.040854
-0.089951
-0.133433
-0.163824
-0.175589
-0.179036
-0.172438
-0.144605
-0.111367
-0.062633
-0.014359
0.037492
0.074507
0.109989
0.126358
0.130827
0.121211
0.100705
0.073756
0.028766
-0.015415
-0.053319
-0.104206
-0.138515
-0.162692
-0.167742
-0.159324
-0.128879
-0.088767
-0.043094
0.010480
0.052301
0.090956
0.125225
0.143613
0.150617
0.144836
0.134095
0.109773
0.066488
0.017300
-0.033858
-0.068781
-0.109646
-0.136880
-0.146592
-0.134231
-0.105389
-0.077622
-0.030305
0.025779
0.073070
0.122138
0.156185
0.178183
0.180576
0.174097
0.144702
0.108393
0.070944
0.029297
-0.017901
-0.064153
-0.088437
-0.095603
-0.102413
-0.091265
-0.072101
-0.041598
-0.002106
0.047426
0.099052
0.141951
0.174118
0.183277
0.191851
0.179734
0.152847
0.117385
0.086913
0.038457
0.000954
-0.021103
-0.059983
-0.083823
-0.093774
-0.098306
-0.064521
-0.026562
0.022543
0.061548
0.102703
0.141904
0.171079
0.187385
0.187570
0.178467
0.162920
0.140238
0.095559
0.050771
-0.003474
-0.035227
-0.064777
-0.097326
-0.121399
-0.113212
-0.082458
-0.038295
0.004266
0.055245
0.081611
0.113121
0.159900
0.190193
0.186622
0.181915
0.154154
0.115765
0.073681
0.030584
-0.021198
-0.073423
-0.097061
-0.115954
-0.132066
-0.126750
-0.103353
-0.056799
-0.011096
0.031660
0.082420
0.118859
0.147353
0.162294
0.167008
0.164152
0.136514
0.097731
0.054243
0.006328
-0.043937
-0.088442
-0.118369
-0.149849
-0.149877
-0.151416
-0.131973
-0.104467
-0.059048
-0.007378
0.056124
0.097263
0.126962
0.139971
0.140287
0.132987
0.110560
0.077126
0.029287
-0.026024
-0.073833
-0.120575
-0.156071
-0.179544
-0.186097
-0.175961
-0.162607
-0.122196
-0.077175
-0.035650
0.017942
0.059328
0.088393
0.109893
0.123185
0.105854
0.086600
0.056239
0.012075
-0.032097
-0.087994
-0.140892
-0.166336
-0.182359
-0.188277
-0.170177
-0.153490
-0.130758
-0.089821
-0.050241
0.004448
0.055497
0.082567
0.106434
0.116647
0.102049
0.084743
0.059627
0.013774
-0.039550
-0.093952
-0.139945
-0.173371
-0.191867
-0.192852
-0.185800
-0.157371
-0.126148
-0.073266
-0.018274
0.039840
0.059958
0.081797
0.102807
0.109356
0.113128
0.093825
0.056831
0.021215
-0.026351
-0.082831
-0.123240
-0.145527
-0.164045
-0.176049
-0.168169
-0.157279
-0.128624
-0.101944
-0.032325
0.021737
0.055401
0.083116
0.114592
0.137095
0.122724
0.109115
0.062781
0.016151
-0.031001
-0.080569
-0.126416
-0.161238
-0.186608
-0.191940
-0.191177
-0.151009
-0.113270
-0.063962
-0.017560
0.038116
0.077252
0.108293
0.124780
0.122739
0.118248
0.085878
0.060304
0.012929
-0.037600
-0.094447
-0.132005
-0.163265
-0.183131
-0.190080
-0.166484
-0.145325
-0.113810
-0.084679
-0.042256
0.018641
0.059113
0.101703
0.121069
0.126027
0.121424
0.094731
0.058110
0.009086
-0.044370
-0.094373
-0.126090
-0.154771
-0.180450
-0.185229
-0.180369
-0.155986
-0.131243
-0.075862
-0.030779
0.021944
0.055213
0.093343
0.110174
0.115770
0.097946
0.079265
0.044650
-0.006188
-0.043551
-0.089325
-0.139026
-0.163821
-0.190527
-0.199122
-0.184293
-0.185163
-0.153518
-0.102561
-0.047827
0.020542
0.056254
0.072809
0.089022
0.105869
0.097865
0.069857
0.047283
0.007215
-0.046235
-0.104259
-0.148415
-0.186754
-0.208815
-0.207667
-0.192092
-0.166603
-0.135827
-0.101183
-0.058018
0.002330
0.050929
0.087153
0.099665
0.103930
0.090891
0.063209
0.030592
-0.017717
-0.065156
-0.109675
-0.139740
-0.184326
-0.204567
-0.208594
-0.197072
-0.162478
-0.126614
-0.095227
-0.049808
0.004788
0.047713
0.074999
0.091704
0.102236
0.093440
0.072935
0.035000
-0.002558
-0.042207
-0.097488
-0.131743
-0.168323
-0.181342
-0.182821
-0.176810
-0.153958
-0.118825
-0.072027
-0.028989
0.032231
0.081714
0.108354
0.126953
0.127486
0.119807
0.094236
0.061395
0.024571
-0.020234
-0.078994
-0.118782
-0.157829
-0.185335
-0.199896
-0.182312
-0.129479
-0.110962
-0.080937
-0.025492
0.019683
0.076347
0.109831
0.137962
0.150431
0.146443
0.131229
0.096637
0.044997
0.006698
-0.055553
-0.092088
-0.121787
-0.157076
-0.154795
-0.143176
-0.117179
-0.078108
-0.038716
-0.001452
0.053284
0.077901
0.106895
0.129336
0.127118
0.106718
0.092867
0.065284
0.017736
-0.032272
-0.072595
-0.104253
-0.151805
-0.191623
-0.202143
-0.194255
-0.179121
-0.142465
-0.085450
-0.037925
0.011180
0.049376
0.083682
0.092842
0.095681
0.081670
0.058389
0.023467
-0.019215
-0.073424
-0.124304
-0.165009
-0.194989
-0.215371
-0.230644
-0.223671
-0.210274
-0.187417
-0.127002
-0.077899
-0.040600
0.008847
0.046098
0.077393
0.072209
0.067683
0.041185
0.007232
-0.037037
-0.084295
-0.144122
-0.195453
-0.213605
-0.241730
-0.230685
-0.240910
-0.239240
-0.190805
-0.141759
-0.079832
-0.032400
0.007180
0.042269
0.061739
0.068188
0.064953
0.029292
-0.011265
-0.057374
-0.093756
-0.141932
-0.187899
-0.211590
-0.233140
-0.234028
-0.223078
-0.203938
-0.172733
-0.129643
-0.084274
-0.039939
0.001206
0.036763
0.061239
0.056786
0.047193
0.037774
0.011098
-0.042204
-0.096451
-0.154913
-0.200744
-0.212722
-0.237510
-0.240257
-0.244131
-0.219921
-0.177534
-0.133286
-0.091500
-0.049964
0.000085
0.023625
0.050377
0.057696
0.051689
0.020489
-0.002081
-0.032165
-0.073463
-0.114876
-0.163176
-0.169392
-0.172927
-0.165310
-0.131255
-0.090456
-0.051402
-0.016738
0.069546
0.137567
0.196522
0.245263
0.297130
0.334485
0.366826
0.370289
0.367717
0.361043
0.353936
0.338022
0.318067
0.313688
0.328739
0.370012
0.411860
0.468651
0.548295
0.611456
0.685378
0.748177
0.775074
0.810778
0.816435
0.799883
0.783871
0.744800
0.684275
0.588513
0.463286
0.351116
0.243955
0.151723
0.090753
0.057036
0.019188
0.007817
0.019586
0.051608
0.079258
0.127674
0.173063
0.184371
0.207066
0.196465
0.183836
0.158331
0.113937
0.066750
0.016714
-0.031970
-0.070811
-0.113045
-0.139112
-0.144597
-0.140973
-0.133676
-0.096616
-0.062049
-0.021409
0.036564
0.086646
0.110470
0.121053
0.127601
0.110001
0.085867
0.063191
0.015732
-0.034263
-0.088663
-0.132649
-0.184555
-0.207205
-0.200009
-0.192321
-0.159963
-0.130613
-0.090915
-0.048902
-0.000326
0.036797
0.075400
0.108867
0.117491
0.103108
0.074661
0.038797
-0.004086
-0.048001
-0.096197
-0.157476
-0.178480
-0.204933
-0.221879
-0.209894
-0.174709
-0.139390
-0.085153
-0.041039
0.013420
0.053311
0.087619
0.117379
0.116818
0.097574
0.101768
0.061854
0.021172
-0.038732
-0.082577
-0.124279
-0.159978
-0.182654
-0.184721
-0.180783
-0.148865
-0.120098
-0.081766
-0.027424
0.022880
0.072830
0.111578
0.124116
0.125984
0.130499
0.108397
0.065589
0.037419
-0.004454
-0.060966
-0.110971
-0.148725
-0.168487
-0.170058
-0.140652
-0.114481
-0.088742
-0.060509
-0.013482
0.055350
0.107038
0.131805
0.149292
0.160935
0.165129
0.149300
0.108889
0.060248
0.021627
-0.031238
-0.069583
-0.105745
-0.136775
-0.135477
-0.128864
-0.106611
-0.055046
-0.010139
0.026823
0.073233
0.128244
0.159234
0.178809
0.190171
0.178050
0.158172
0.122872
0.077985
0.036229
-0.008777
-0.056465
-0.085495
-0.118461
-0.115536
-0.102635
-0.077530
-0.043427
-0.005562
0.049413
0.098824
0.148064
0.182907
0.199001
0.201681
0.189028
0.160891
0.137318
0.092303
0.034587
-0.014433
-0.047838
-0.084462
-0.108195
-0.110383
-0.090578
-0.078077
-0.034344
0.003453
0.052349
0.093295
0.133954
0.153890
0.175430
0.186178
0.191708
0.171591
0.128148
0.086412
0.035729
-0.013164
-0.062077
-0.081908
-0.096780
-0.119688
-0.110805
-0.079497
-0.059807
-0.011820
0.032533
0.083024
0.127004
0.151788
0.162356
0.172760
0.179421
0.153586
0.116221
0.073298
0.017334
-0.041626
-0.090627
-0.114225
-0.133131
-0.144767
-0.143053
-0.115135
-0.074867
-0.041022
0.005344
0.045586
0.095170
0.132834
0.140041
0.152432
0.150899
0.122821
0.079166
0.032764
-0.024211
-0.077090
-0.121869
-0.144291
-0.166569
-0.178034
-0.166513
-0.144659
-0.115370
-0.073351
-0.014255
0.034278
0.073827
0.106844
0.121422
0.124911
0.119270
0.089112
0.067711
0.025243
-0.024658
-0.073685
-0.145969
-0.168658
-0.182053
-0.199667
-0.201587
-0.171958
-0.140241
-0.099661
-0.045622
0.015190
0.053345
0.087450
0.112848
0.118606
0.101928
0.069004
0.041412
0.011388
-0.039980
-0.098924
-0.135080
-0.165337
-0.196687
-0.208599
-0.201785
-0.167564
-0.130965
-0.089527
-0.047723
0.008313
0.058061
0.091357
0.111648
0.106901
0.101448
0.079014
0.043831
0.008444
-0.036240
-0.086382
-0.129556
-0.168482
-0.184990
-0.200601
-0.185324
-0.155022
-0.131548
-0.090254
-0.038562
0.004451
0.050813
0.075259
0.102502
0.113382
0.113976
0.094310
0.076615
0.013714
-0.044837
-0.079288
-0.127466
-0.157920
-0.173222
-0.176873
-0.172758
-0.147418
-0.112413
-0.079749
-0.033044
0.015952
0.060011
0.094755
0.111385
0.117611
0.115142
0.091943
0.052172
0.007151
-0.044910
-0.089012
-0.131848
-0.167095
-0.185542
-0.174698
-0.170982
-0.168884
-0.142602
-0.081970
-0.018619
0.017037
0.074007
0.103667
0.119507
0.124194
0.113342
0.091215
0.057382
-0.003913
-0.041000
-0.079338
-0.137380
-0.159225
-0.178158
-0.200519
-0.194535
-0.162724
-0.125647
-0.085308
-0.029405
0.019549
0.066301
0.094289
0.120742
0.128560
0.114832
0.079776
0.056616
0.001925
-0.043514
-0.096430
-0.135758
-0.153398
-0.179451
-0.189101
-0.184769
-0.166028
-0.130087
-0.089070
-0.044737
-0.001975
0.046414
0.078087
0.095876
0.100880
0.104618
0.070329
0.041176
-0.002499
-0.044393
-0.101564
-0.149225
-0.178685
-0.201117
-0.213230
-0.197134
-0.175157
-0.139449
-0.091588
-0.027905
0.014251
0.047434
0.078751
0.106622
0.107594
0.088457
0.058755
0.022882
-0.008907
-0.042377
-0.094059
-0.138939
-0.179729
-0.202859
-0.206083
-0.191386
-0.164834
-0.136951
-0.104813
-0.058932
-0.023051
0.024747
0.057590
0.087829
0.106312
0.092084
0.077868
0.054471
0.012376
-0.041087
-0.079523
-0.122324
-0.161336
-0.205244
-0.215920
-0.182077
-0.163761
-0.135144
-0.079171
-0.033070
0.015590
0.062554
0.093527
0.120456
0.124346
0.111491
0.105100
0.088782
0.025857
-0.020667
-0.060259
-0.103127
-0.131972
-0.157929
-0.165593
-0.162373
-0.147872
-0.116116
-0.068868
-0.019500
0.015503
0.060070
0.098717
0.118020
0.126905
0.120667
0.093505
0.060151
0.028100
-0.006008
-0.050369
-0.104547
-0.130350
-0.135919
-0.146353
-0.143280
-0.129867
-0.104883
-0.042330
0.012191
0.059510
0.103082
0.131006
0.145122
0.150647
0.141588
0.117050
0.083236
0.039533
-0.015642
-0.064384
-0.111234
-0.138833
-0.167033
-0.184905
-0.183945
-0.169894
-0.131213
-0.082892
-0.033651
0.009872
0.054152
0.082069
0.111953
0.115374
0.098541
0.074698
0.039800
-0.011229
-0.056666
-0.106491
-0.154769
-0.191205
-0.212032
-0.235789
-0.218515
-0.194084
-0.164798
-0.121611
-0.073953
-0.028310
0.019863
0.050950
0.065455
0.079940
0.064531
0.043396
0.001499
-0.047786
-0.095268
-0.133227
-0.174359
-0.218486
-0.241894
-0.252666
-0.238290
-0.226262
-0.180578
-0.137555
-0.082252
-0.027836
0.024409
0.056585
0.063947
0.082030
0.056653
0.030598
-0.013587
-0.045624
-0.080622
-0.116547
-0.164038
-0.203563
-0.236379
-0.250404
-0.231369
-0.212324
-0.186073
-0.136217
-0.081098
-0.037184
0.014077
0.047016
0.055621
0.066226
0.056615
0.031780
-0.011849
-0.048447
-0.087911
-0.126540
-0.182013
-0.223451
-0.236585
-0.231660
-0.227855
-0.218004
-0.181531
-0.135816
-0.094171
-0.057084
-0.022448
0.024353
0.058040
0.058091
0.044253
0.031657
-0.002631
-0.041646
-0.094769
-0.140705
-0.171264
-0.197196
-0.201975
-0.194973
-0.171893
-0.144902
-0.102508
-0.032877
0.022594
0.086867
0.140368
0.201313
0.237275
0.251064
0.256741
0.271889
0.268805
0.250978
0.220544
0.209492
0.205118
0.218133
0.224637
0.241122
0.289416
0.342964
0.432410
0.516985
0.592150
0.679044
0.749296
0.818674
0.839435
0.849305
0.838261
0.805992
0.749359
0.698181
0.622418
0.550264
0.465988
0.362215
0.284014
0.218203
0.176837
0.148586
0.124828
0.135345
0.141151
0.161885
0.205139
0.222041
0.233375
0.236534
0.218632
0.177051
0.138532
0.098854
0.042502
-0.011066
-0.069488
-0.115621
-0.139474
-0.143104
-0.142791
-0.129095
-0.087507
-0.065453
-0.020243
0.022991
0.067043
0.102714
0.131466
0.135208
0.123470
0.096252
0.067252
0.008116
-0.052611
-0.095664
-0.149192
-0.184055
-0.198205
-0.197282
-0.177018
-0.154378
-0.140972
-0.107241
-0.064063
-0.013945
0.031951
0.070216
0.093387
0.100262
0.082190
0.059009
0.035901
0.001154
-0.044793
-0.089316
-0.134899
-0.164941
-0.182763
-0.201753
-0.208096
-0.159222
-0.121793
-0.089145
-0.044315
-0.000516
0.037050
0.079849
0.105649
0.118885
0.117212
0.093005
0.060733
0.014623
-0.040040
-0.088963
-0.142520
-0.170895
-0.187524
-0.192007
-0.170904
-0.157960
-0.125493
-0.089025
-0.040789
0.004081
0.046558
0.099009
0.119831
0.122493
0.114317
0.087499
0.049250
0.018265
-0.012399
-0.053857
-0.101676
-0.137565
-0.155422
-0.171016
-0.161119
-0.137404
-0.102392
-0.051656
-0.002662
0.037034
0.088641
0.124686
0.143453
0.147943
0.141942
0.118639
0.075345
0.049908
0.008353
-0.040025
-0.084598
-0.102494
-0.125107
-0.139364
-0.125146
-0.101694
-0.067048
-0.025202
0.018887
0.061789
0.101693
0.143623
0.166104
0.182619
0.176970
0.157219
0.113333
0.082003
0.039967
-0.006166
-0.058280
-0.085838
-0.107563
-0.114232
-0.117436
-0.103968
-0.051517
0.003052
0.035837
0.100685
0.151323
0.172318
0.180231
0.186281
0.181359
0.160486
0.134287
0.100042
0.058687
0.010706
-0.041592
-0.086880
-0.106685
-0.118617
-0.097966
-0.084238
-0.053954
-0.005919
0.035384
0.084096
0.141212
0.167555
0.185088
0.194122
0.197610
0.168876
0.129263
0.091606
0.039938
-0.010684
-0.051364
-0.086142
-0.111977
-0.122437
-0.112252
-0.095872
-0.074510
-0.033616
0.019136
0.061391
0.100822
0.149677
0.167685
0.176357
0.165591
0.143158
0.110220
0.063203
0.004820
-0.042104
-0.084265
-0.120262
-0.132609
-0.125348
-0.119262
-0.101047
-0.069616
-0.040553
0.000947
0.041113
0.088606
0.119533
0.138834
0.142321
0.137666
0.130351
0.094765
0.034861
-0.013990
-0.058871
-0.107387
-0.143325
-0.166227
-0.178554
-0.167917
-0.149864
-0.110033
-0.078018
-0.037696
0.004012
0.050814
0.089076
0.108968
0.111786
0.114600
0.096798
0.058749
0.021768
-0.026494
-0.081904
-0.133622
-0.174967
-0.201236
-0.238429
-0.225650
-0.183089
-0.136530
-0.078956
-0.029585
0.004395
0.048299
0.081279
0.094772
0.099318
0.103149
0.081400
0.029656
-0.019250
-0.063011
-0.096241
-0.147815
-0.188184
-0.214977
-0.208273
-0.192721
-0.172257
-0.137896
-0.105710
-0.054287
-0.011028
0.030197
0.078994
0.102454
0.117109
0.104103
0.079899
0.034341
-0.000284
-0.047049
-0.094985
-0.146873
-0.190576
-0.208618
-0.219177
-0.200719
-0.173358
-0.140339
-0.105639
-0.052972
-0.004878
0.046210
0.081367
0.096762
0.106468
0.105449
0.075475
0.044765
0.000310
-0.041367
-0.093541
-0.129613
-0.167447
-0.188396
-0.201285
-0.200979
-0.173199
-0.136515
-0.090883
-0.036966
0.009511
0.049712
0.082990
0.097576
0.102395
0.105365
0.084345
0.048407
0.006068
-0.041271
-0.078608
-0.129707
-0.159253
-0.172117
-0.184750
-0.171271
-0.153190
-0.134372
-0.083998
-0.040205
0.003223
0.047375
0.089083
0.099247
0.096301
0.090843
0.076742
0.041038
0.002732
-0.042983
-0.090101
-0.129699
-0.181275
-0.199732
-0.198176
-0.196182
-0.166268
-0.135728
-0.104186
-0.044432
0.014113
0.043443
0.077510
0.096562
0.102545
0.098415
0.070680
0.036594
-0.006595
-0.053674
-0.101023
-0.146156
-0.182553
-0.204303
-0.214589
-0.211184
-0.184850
-0.143416
-0.094271
-0.040411
0.001610
0.041738
0.087209
0.108117
0.112943
0.096258
0.066118
0.041914
-0.013215
-0.056859
-0.114415
-0.156502
-0.195932
-0.210453
-0.210943
-0.206503
-0.196211
-0.160862
-0.103894
-0.064601
-0.027186
0.022866
0.070157
0.093245
0.103950
0.088326
0.060828
0.022244
-0.017371
-0.067180
-0.118906
-0.153995
-0.182286
-0.205832
-0.215412
-0.216822
-0.185856
-0.149865
-0.103887
-0.053920
-0.012798
0.035474
0.068882
0.091987
0.093276
0.087367
0.069027
0.028612
-0.009132
-0.057387
-0.114610
-0.162376
-0.200030
-0.213672
-0.215162
-0.205734
-0.186204
-0.156499
-0.102746
-0.051097
-0.012997
0.024638
0.067786
0.086560
0.098867
0.098399
0.082104
0.049579
-0.003150
-0.042196
-0.078709
-0.114685
-0.165901
-0.183496
-0.185444
-0.173966
-0.147601
-0.122060
-0.083231
-0.030282
0.020165
0.061800
0.090767
0.103297
0.110533
0.117880
0.094413
0.045702
0.005031
-0.042396
-0.096015
-0.124913
-0.172317
-0.188813
-0.185531
-0.181509
-0.146136
-0.111198
-0.059917
-0.012614
0.038413
0.079954
0.119625
0.149025
0.160628
0.148784
0.113824
0.068808
0.032351
-0.017604
-0.048835
-0.102034
-0.138997
-0.163255
-0.186100
-0.175354
-0.150159
-0.122198
-0.089778
-0.045313
0.011297
0.050027
0.077657
0.084251
0.099826
0.090382
0.063452
0.035073
-0.009145
-0.060769
-0.102474
-0.146868
-0.194964
-0.205139
-0.225180
-0.222539
-0.186517
-0.153358
-0.121963
-0.075582
-0.039856
0.007891
0.050064
0.068817
0.071107
0.055716
0.029035
0.002812
-0.033832
-0.093753
-0.142713
-0.190910
-0.234717
-0.257056
-0.259976
-0.262984
-0.223547
-0.200570
-0.148838
-0.086022
-0.035597
-0.002819
0.035962
0.043714
0.056338
0.053858
0.022158
-0.020759
-0.051965
-0.094507
-0.147208
-0.193836
-0.225910
-0.249351
-0.269203
-0.268108
-0.249306
-0.214971
-0.165934
-0.094239
-0.042145
0.001724
0.036008
0.046727
0.049721
0.052483
0.018292
-0.013716
-0.053337
-0.099981
-0.147478
-0.185930
-0.225418
-0.252015
-0.269554
-0.256695
-0.229363
-0.196381
-0.151570
-0.107133
-0.062839
-0.012671
0.014581
0.042849
0.062589
0.058638
0.019120
-0.025764
-0.068289
-0.098746
-0.156231
-0.204812
-0.235366
-0.250746
-0.266731
-0.258843
-0.229288
-0.203350
-0.147886
-0.080673
-0.010960
0.032772
0.092668
0.121836
0.162703
0.176056
0.153376
0.118218
0.094128
0.066583
0.043822
0.037510
0.028673
0.027793
0.045269
0.082786
0.154867
0.211012
0.285955
0.352672
0.422409
0.478688
0.559670
0.611661
0.663143
0.692245
0.699587
0.702806
0.696234
0.645274
0.587203
0.533037
0.511587
0.462886
0.444506
0.446981
0.440143
0.419831
0.397112
0.378308
0.356367
0.345026
0.350150
0.319699
0.288002
0.235296
0.192492
0.143547
0.078867
0.018769
-0.036446
-0.078173
-0.121240
-0.149807
-0.170306
-0.160124
-0.141412
-0.112709
-0.065147
-0.013490
0.032183
0.070545
0.109583
0.123767
0.127891
0.116660
0.086144
0.052739
-0.001441
-0.053591
-0.097692
-0.138362
-0.179885
-0.202547
-0.206585
-0.201297
-0.176253
-0.141676
-0.096913
-0.065867
-0.012849
0.020180
0.070122
0.089119
0.092118
0.089319
0.073623
0.024537
-0.027840
-0.067224
-0.115126
-0.160663
-0.202208
-0.230311
-0.236097
-0.215105
-0.175921
-0.154975
-0.123180
-0.078450
-0.024684
0.029190
0.076685
0.093216
0.102450
0.086293
0.052621
0.024385
-0.005853
-0.049128
-0.093374
-0.140600
-0.177648
-0.197611
-0.202198
-0.198760
-0.180811
-0.147377
-0.105954
-0.048993
-0.006228
0.045951
0.089321
0.099954
0.099956
0.104582
0.078764
0.052012
0.019336
-0.024829
-0.087648
-0.134421
-0.174705
-0.193082
-0.185157
-0.174269
-0.141590
-0.121893
-0.085319
-0.033477
0.018742
0.063409
0.092457
0.120715
0.126899
0.119385
0.102256
0.062859
0.020033
-0.021699
-0.054836
-0.090761
-0.125570
-0.147485
-0.140550
-0.146642
-0.125908
-0.095716
-0.054042
0.000249
0.036396
0.075428
0.111988
0.150935
0.175035
0.170791
0.146030
0.108310
0.071154
0.028820
-0.019874
-0.060417
-0.101551
-0.117770
-0.117591
-0.103510
-0.088911
-0.060696
-0.023039
0.029788
0.078946
0.126892
0.154297
0.171643
0.181547
0.172723
0.154463
0.130545
0.094759
0.044598
-0.014963
-0.051289
-0.070500
-0.099097
-0.110701
-0.122264
-0.095367
-0.064764
-0.026079
0.012613
0.065908
0.122317
0.159996
0.176442
0.189132
0.182347
0.146809
0.126217
0.081057
0.026629
-0.012789
-0.042423
-0.077411
-0.115682
-0.133680
-0.127622
-0.093035
-0.055843
-0.015907
0.014315
0.066734
0.111993
0.146460
0.165591
0.172354
0.164107
0.147455
0.119561
0.066224
0.022250
-0.021478
-0.073656
-0.108466
-0.137620
-0.146328
-0.147749
-0.129414
-0.095837
-0.054686
-0.014328
0.029793
0.088242
0.118370
0.140205
0.154939
0.141705
0.117582
0.078179
0.028488
-0.021689
-0.056119
-0.107493
-0.155294
-0.183609
-0.200226
-0.170701
-0.135932
-0.109639
-0.067712
-0.029241
0.021183
0.055191
0.088446
0.105745
0.104118
0.099796
0.081354
0.054073
0.009137
-0.037629
-0.086538
-0.134207
-0.167918
-0.186828
-0.195874
-0.201797
-0.189844
-0.156551
-0.110084
-0.060567
-0.016638
0.024886
0.054230
0.079923
0.091592
0.085860
0.055173
0.029284
-0.017561
-0.062735
-0.107371
-0.155389
-0.193472
-0.223155
-0.212399
-0.208620
-0.189412
-0.173283
-0.127962
-0.067267
-0.008654
0.035695
0.062221
0.073271
0.080560
0.078119
0.057510
0.024973
-0.049950
-0.069474
-0.099089
-0.146052
-0.188332
-0.213874
-0.215499
-0.213821
-0.191928
-0.162192
-0.121481
-0.072329
-0.026779
0.014525
0.047284
0.086212
0.080555
0.077446
0.058035
0.028013
0.000266
-0.054896
-0.099045
-0.161059
-0.202571
-0.212327
-0.203417
-0.207774
-0.196856
-0.171072
-0.117773
-0.061210
-0.009534
0.050896
0.074845
0.097826
0.100624
0.103431
0.078201
0.043008
-0.006104
-0.054653
-0.105236
-0.152156
-0.189965
-0.215313
-0.213400
-0.203832
-0.188152
-0.150614
-0.107967
-0.068013
-0.019933
0.041745
0.068394
0.088378
0.097935
0.093937
0.085324
0.038473
-0.011416
-0.052012
-0.099194
-0.141119
-0.168657
-0.203032
-0.198350
-0.200850
-0.195445
-0.155719
-0.110982
-0.067247
-0.016063
0.038851
0.067621
0.089219
0.088097
0.091985
0.070670
0.031381
-0.014516
-0.051431
-0.101483
-0.144558
-0.182150
-0.206381
-0.220950
-0.213206
-0.183718
-0.154266
-0.106087
-0.066940
-0.033922
0.013227
0.075507
0.096779
0.095448
0.085494
0.070331
0.031367
-0.004323
-0.056399
-0.109758
-0.142225
-0.180226
-0.216958
-0.211617
-0.215618
-0.192965
-0.167231
-0.113368
-0.071432
-0.022101
0.010153
0.041963
0.067144
0.080387
0.084066
0.066965
0.024402
-0.014698
-0.055294
-0.105364
-0.158087
-0.186370
-0.224245
-0.228667
-0.225565
-0.196883
-0.151427
-0.123853
-0.076074
-0.020999
0.030483
0.066818
0.084141
0.077797
0.070409
0.051498
0.007325
-0.037805
-0.077558
-0.122657
-0.154385
-0.184676
-0.196327
-0.208581
-0.219898
-0.197735
-0.143465
-0.089009
-0.035618
-0.010959
0.036203
0.061797
0.110145
0.113414
0.108428
0.088547
0.053446
0.002874
-0.045072
-0.098679
-0.139626
-0.169385
-0.187738
-0.196829
-0.185286
-0.172013
-0.135641
-0.086405
-0.038790
-0.003022
0.037789
0.073926
0.107924
0.110401
0.096592
0.096053
0.052031
0.018327
-0.026752
-0.068229
-0.110699
-0.127697
-0.161515
-0.175934
-0.164271
-0.139588
-0.104670
-0.067975
-0.025175
0.020090
0.051618
0.087810
0.118646
0.127826
0.111625
0.079393
0.053398
0.008069
-0.019967
-0.077452
-0.125427
-0.170273
-0.203768
-0.218270
-0.219933
-0.196671
-0.153804
-0.119814
-0.071216
-0.015985
0.020757
0.043877
0.082327
0.084162
0.073121
0.050095
0.010002
-0.041064
-0.087594
-0.130288
-0.173751
-0.208944
-0.239236
-0.247553
-0.243388
-0.228207
-0.195876
-0.144950
-0.095712
-0.058526
-0.005217
0.023470
0.039713
0.051017
0.047507
0.038551
-0.016027
-0.059983
-0.111636
-0.164478
-0.197288
-0.228754
-0.256492
-0.258770
-0.250290
-0.227772
-0.197494
-0.152360
-0.107228
-0.061484
-0.019720
0.013518
0.040900
0.039341
0.026951
0.019004
-0.031495
-0.074713
-0.102667
-0.145381
-0.197504
-0.218579
-0.239277
-0.246979
-0.249044
-0.243780
-0.198917
-0.139504
-0.093200
-0.054166
-0.012721
0.012238
0.031550
0.036927
0.032390
0.022373
-0.006176
-0.049254
-0.099440
-0.152031
-0.201752
-0.234295
-0.260862
-0.269086
-0.264549
-0.233593
-0.193693
-0.158770
-0.114165
-0.067638
-0.027786
0.001051
0.020644
0.034648
0.027709
-0.004686
-0.021387
-0.050828
-0.098191
-0.131144
-0.161284
-0.190177
-0.193535
-0.189752
-0.176501
-0.140138
-0.091690
-0.048698
0.021426
0.094569
0.149754
0.201486
0.265236
0.309031
0.329824
0.336817
0.315912
0.319062
0.315775
0.302111
0.292611
0.290437
0.310272
0.337326
0.385796
0.442341
0.506861
0.576050
0.653948
0.729647
0.787026
0.819204
0.842759
0.843181
0.818985
0.794434
0.735173
0.672853
0.585077
0.458998
0.327695
0.244379
0.162049
0.108547
0.065791
0.029681
0.022422
0.036856
0.089863
0.103207
0.139558
0.174612
0.203336
0.208746
0.192564
0.161226
0.117981
0.069431
0.013129
-0.048823
-0.092589
-0.138176
-0.164383
-0.171657
-0.166550
-0.146039
-0.113089
-0.072180
-0.021821
0.025846
0.076568
0.107949
0.127439
0.119972
0.100796
0.075535
0.024023
-0.018532
-0.063989
-0.093632
-0.139197
-0.197174
-0.218580
-0.203745
-0.188560
-0.182289
-0.153710
-0.112520
-0.058195
-0.009823
0.034051
0.069455
0.105737
0.104085
0.090967
0.055646
0.027538
-0.011439
-0.060565
-0.103783
-0.150219
-0.180728
-0.209388
-0.212451
-0.198037
-0.178715
-0.139658
-0.097583
-0.057257
0.006668
0.054602
0.079921
0.092139
0.097065
0.084213
0.062795
0.035711
0.000142
-0.047293
-0.090267
-0.142566
-0.176687
-0.191427
-0.194906
-0.173038
-0.156710
-0.131805
-0.098640
-0.031716
-0.000370
0.038822
0.079264
0.113489
0.118020
0.112535
0.102310
0.083923
0.044858
-0.013882
-0.065203
-0.114823
-0.164017
-0.179767
-0.175169
-0.170468
-0.155569
-0.117586
-0.072281
-0.018837
0.027561
0.051209
0.101528
0.143984
0.159263
0.150262
0.144772
0.103961
0.056177
0.013957
-0.036485
-0.091810
-0.119024
-0.136874
-0.148562
-0.139267
-0.119164
-0.079417
-0.037881
0.019822
0.053473
0.103136
0.137752
0.157678
0.171029
0.168628
0.154772
0.128966
0.104192
0.047236
-0.015684
-0.049437
-0.077228
-0.106519
-0.117237
-0.103446
-0.081355
-0.054277
-0.013361
0.034450
0.078878
0.125769
0.160771
0.191485
0.197236
0.196427
0.167416
0.129245
0.095367
0.039702
-0.002815
-0.036276
-0.074487
-0.107105
-0.113916
-0.085920
-0.065217
-0.041745
-0.012154
0.021276
0.067615
0.097339
0.130893
0.150084
0.180716
0.188274
0.161680
0.110897
0.071593
0.032813
-0.009801
-0.061935
-0.095532
-0.113649
-0.119029
-0.114086
-0.097090
-0.067645
-0.015867
0.022884
0.071302
0.107301
0.139897
0.162668
0.170818
0.163920
0.132776
0.102328
0.058628
0.001584
-0.047051
-0.088132
-0.122066
-0.136063
-0.152873
-0.144676
-0.122480
-0.091911
-0.058070
-0.004348
0.045539
0.076868
0.104220
0.126195
0.138807
0.136880
0.114527
0.087344
0.022063
-0.023851
-0.077426
-0.115128
-0.146015
-0.162748
-0.174890
-0.170564
-0.172977
-0.149387
-0.108899
-0.063775
-0.013903
0.015523
0.078290
0.110870
0.111379
0.097993
0.071539
0.034129
-0.004835
-0.052572
-0.097551
-0.144086
-0.174646
-0.199199
-0.209527
-0.210712
-0.190776
-0.151863
-0.113532
-0.063942
-0.018609
0.031524
0.065974
0.090585
0.105703
0.099088
0.080296
0.036378
-0.006806
-0.056764
-0.102477
-0.148292
-0.185511
-0.202912
-0.223736
-0.210498
-0.192045
-0.165027
-0.119001
-0.066955
-0.024021
0.018718
0.047175
0.073250
0.092893
0.082320
0.073519
0.047709
-0.005859
-0.052752
-0.103128
-0.140529
-0.172554
-0.187123
-0.198547
-0.193113
-0.186148
-0.155017
-0.110940
-0.057879
-0.005138
0.029308
0.063364
0.087431
0.100956
0.089870
0.072681
0.039959
0.004589
-0.031673
-0.089185
-0.130080
-0.152118
-0.186025
-0.207339
-0.219791
-0.196905
-0.139963
-0.097993
-0.047619
-0.010904
0.033126
0.072292
0.084646
0.096936
0.097570
0.083329
0.058655
0.004667
-0.064255
-0.097992
-0.125174
-0.161310
-0.179471
-0.192593
-0.176368
-0.158818
-0.142194
-0.091837
-0.038374
0.011818
0.045383
0.083350
0.102946
0.114681
0.102520
0.079080
0.048981
0.006162
-0.040016
-0.093979
-0.137659
-0.167673
-0.194710
-0.199852
-0.202374
-0.180040
-0.149112
-0.099458
-0.048632
-0.003947
0.032638
0.083545
0.108583
0.121939
0.093690
0.078372
0.038624
0.004465
-0.037401
-0.096693
-0.137020
-0.170662
-0.195025
-0.208493
-0.190414
-0.169820
-0.148142
-0.098721
-0.054792
0.006699
0.048094
0.071079
0.088477
0.111004
0.101714
0.070824
0.031018
0.000514
-0.052408
-0.092439
-0.140372
-0.166409
-0.189038
-0.209055
-0.197466
-0.171464
-0.154020
-0.106910
-0.068769
-0.024940
0.026379
0.058092
0.089430
0.105438
0.095459
0.067376
0.044047
-0.009736
-0.062235
-0.097363
-0.138322
-0.173389
-0.206171
-0.224925
-0.211663
-0.199975
-0.159984
-0.124204
-0.072252
-0.022796
0.021397
0.065325
0.095722
0.116908
0.102915
0.072815
0.046499
-0.007009
-0.050888
-0.100115
-0.143028
-0.176670
-0.188642
-0.215991
-0.206222
-0.176769
-0.140442
-0.088718
-0.039542
0.000583
0.035612
0.088256
0.120413
0.121085
0.106610
0.089087
0.053991
0.010338
-0.027902
-0.075888
-0.127391
-0.152675
-0.161718
-0.166242
-0.162449
-0.153260
-0.133325
-0.080610
-0.024142
0.028261
0.066230
0.079219
0.113413
0.129014
0.112041
0.079583
0.048289
0.017243
-0.026435
-0.062216
-0.102114
-0.138620
-0.156415
-0.169697
-0.155958
-0.130495
-0.091166
-0.049775
0.000239
0.037853
0.084696
0.111955
0.124513
0.136624
0.134659
0.110716
0.077660
0.021630
-0.019121
-0.069142
-0.116028
-0.148593
-0.173636
-0.183054
-0.174806
-0.161318
-0.145287
-0.102980
-0.069552
-0.021676
0.028890
0.056407
0.084295
0.089914
0.090194
0.066025
0.027409
-0.007419
-0.048283
-0.101317
-0.148652
-0.192068
-0.220671
-0.240371
-0.234730
-0.204508
-0.177655
-0.110928
-0.079530
-0.031080
0.012224
0.048047
0.077113
0.084369
0.049588
0.019840
-0.018110
-0.048356
-0.094774
-0.137015
-0.188794
-0.210199
-0.237775
-0.254170
-0.256662
-0.214497
-0.168948
-0.122163
-0.087601
-0.043793
-0.005519
0.011816
0.039926
0.063636
0.068660
0.044339
0.013388
-0.032244
-0.080363
-0.130748
-0.176886
-0.216225
-0.239895
-0.250565
-0.241271
-0.221877
-0.187287
-0.145024
-0.095822
-0.038212
0.000555
0.024686
0.049030
0.060461
0.039692
0.019340
-0.003531
-0.032673
-0.069905
-0.126874
-0.174634
-0.208067
-0.235273
-0.241161
-0.254085
-0.236619
-0.213158
-0.157834
-0.105232
-0.048992
-0.002305
0.010720
0.031683
0.035229
0.023333
0.015517
0.002469
-0.048107
-0.072854
-0.100782
-0.179604
-0.243578
-0.239458
-0.206037
-0.177864
-0.162300
-0.118826
-0.046996
0.012400
0.080254
0.118672
0.158237
0.195407
0.230850
0.233890
0.231374
0.234145
0.207852
0.197458
0.182384
0.166977
0.177232
0.192566
0.205292
0.252479
0.293965
0.357704
0.427715
0.515779
0.605121
0.699199
0.786055
0.828601
0.848404
0.852553
0.821069
0.778501
0.719820
0.650492
0.597421
0.530372
0.456516
0.391521
0.310086
0.254426
0.211087
0.190041
0.194452
0.190471
0.187548
0.207727
0.234772
0.257084
0.255923
0.237502
0.209711
0.174931
0.114709
0.056779
-0.009499
-0.064224
-0.093330
-0.119941
-0.136845
-0.140261
-0.121219
-0.095040
-0.049153
-0.012189
0.029263
0.075262
0.099287
0.114380
0.146588
0.149135
0.113236
0.077276
0.037567
-0.026581
-0.066416
-0.114318
-0.155303
-0.182864
-0.182630
-0.193177
-0.160251
-0.145197
-0.109084
-0.063397
-0.006329
0.040193
0.062904
0.100721
0.108758
0.103255
0.072505
0.044703
-0.001328
-0.028171
-0.079878
-0.113921
-0.156587
-0.180421
-0.205837
-0.213743
-0.180006
-0.136875
-0.092125
-0.045959
-0.012596
0.042214
0.075845
0.086622
0.106436
0.109436
0.094449
0.054155
0.005788
-0.049934
-0.070326
-0.122849
-0.160729
-0.192211
-0.195327
-0.176311
-0.151252
-0.114062
-0.061714
-0.019470
0.032432
0.076009
0.091718
0.109795
0.124553
0.125274
0.118890
0.076724
0.030354
-0.003886
-0.047148
-0.104795
-0.142259
-0.172529
-0.172304
-0.149482
-0.124360
-0.092466
-0.052539
-0.002909
0.050474
0.086441
0.111075
0.148558
0.167892
0.159592
0.136480
0.099562
0.051920
0.006537
-0.024619
-0.061695
-0.103875
-0.128964
-0.133596
-0.125539
-0.094615
-0.060375
-0.015312
0.032783
0.077702
0.124047
0.150587
0.175090
0.184867
0.187502
0.168917
0.138795
0.100157
0.055539
-0.009421
-0.048372
-0.074397
-0.100044
-0.095278
-0.085415
-0.067375
-0.034241
0.013412
0.059772
0.116187
0.152205
0.185064
0.199884
0.200674
0.187549
0.168484
0.158535
0.125029
0.067399
0.021875
-0.017098
-0.052198
-0.083824
-0.111270
-0.119048
-0.084200
-0.031950
0.031522
0.084719
0.140359
0.176382
0.195947
0.217286
0.228369
0.224652
0.204107
0.149681
0.124345
0.077049
0.026242
-0.019842
-0.043238
-0.076718
-0.098734
-0.095181
-0.066828
-0.038209
-0.003675
0.047245
0.102538
0.140061
0.174198
0.187172
0.199744
0.193234
0.171271
0.138752
0.092864
0.041711
-0.011496
-0.044007
-0.095850
-0.121607
-0.133175
-0.130563
-0.110541
-0.072895
-0.033024
0.010436
0.048091
0.098720
0.134140
0.158750
0.164344
0.153886
0.136052
0.108483
0.059143
-0.002967
-0.040758
-0.081366
-0.111030
-0.134388
-0.144600
-0.137445
-0.134396
-0.114041
-0.071873
-0.023729
0.023249
0.063887
0.099214
0.107898
0.130829
0.114530
0.081958
0.048782
0.008909
-0.040911
-0.059052
-0.115128
-0.161280
-0.167999
-0.176245
-0.172645
-0.142536
-0.112425
-0.084708
-0.039945
-0.000920
0.026314
0.074616
0.105854
0.113362
0.107644
0.080238
0.054128
0.004277
-0.036455
-0.090904
-0.128538
-0.173732
-0.189747
-0.199048
-0.193723
-0.176870
-0.148682
-0.108211
-0.064419
-0.004502
0.043996
0.065918
0.085153
0.100227
0.081846
0.062410
0.031705
-0.001419
-0.049333
-0.105684
-0.152506
-0.167688
-0.187336
-0.189690
-0.196228
-0.167828
-0.139359
-0.105958
-0.044847
0.010191
0.052095
0.078677
0.114437
0.129007
0.113387
0.075856
0.052168
0.007072
-0.052235
-0.105155
-0.121991
-0.155432
-0.179159
-0.197729
-0.187574
-0.161140
-0.119986
-0.079040
-0.036143
0.021119
0.048183
0.088744
0.107652
0.113737
0.108278
0.092074
0.069176
0.031780
-0.019761
-0.066786
-0.107721
-0.145424
-0.170660
-0.171684
-0.171885
-0.143867
-0.107021
-0.076724
-0.030281
0.003551
0.052986
0.090556
0.113899
0.121730
0.121202
0.093614
0.063830
0.024716
-0.026917
-0.074985
-0.118566
-0.150087
-0.170561
-0.199883
-0.186626
-0.169726
-0.134960
-0.093195
-0.041240
0.008022
0.044129
0.081319
0.107599
0.110843
0.101677
0.069596
0.044637
0.014633
-0.041028
-0.066456
-0.109042
-0.147408
-0.181595
-0.198340
-0.185613
-0.162891
-0.127083
-0.077300
-0.037606
0.013335
0.032439
0.069117
0.096070
0.113692
0.109690
0.094636
0.059105
0.029121
-0.031351
-0.076837
-0.129839
-0.160124
-0.175877
-0.189687
-0.191178
-0.175838
-0.134038
-0.108089
-0.073876
-0.005853
0.036720
0.067929
0.095047
0.114172
0.112955
0.091220
0.056310
0.001971
-0.047493
-0.099293
-0.150808
-0.180423
-0.178546
-0.187226
-0.181609
-0.166213
-0.147663
-0.111449
-0.063302
0.001659
0.049937
0.069530
0.099214
0.100372
0.088847
0.077148
0.041827
-0.010622
-0.055041
-0.113011
-0.169245
-0.194308
-0.213011
-0.218437
-0.208191
-0.167675
-0.144485
-0.107240
-0.055856
-0.017913
0.015762
0.066527
0.099198
0.111077
0.103241
0.070856
0.035121
0.005116
-0.044747
-0.091112
-0.144305
-0.172431
-0.198305
-0.223566
-0.212887
-0.173445
-0.145515
-0.098056
-0.035727
0.018508
0.064053
0.105494
0.134458
0.140719
0.135197
0.097128
0.061762
0.027215
-0.016889
-0.071095
-0.105943
-0.145834
-0.158185
-0.173732
-0.176198
-0.155256
-0.116242
-0.086903
-0.042055
0.004075
0.052717
0.074723
0.115766
0.127096
0.130797
0.106822
0.082938
0.039596
-0.007172
-0.048429
-0.096691
-0.134006
-0.152849
-0.168841
-0.156543
-0.137769
-0.114810
-0.075512
-0.022853
0.024439
0.066864
0.101098
0.123304
0.141510
0.140093
0.108300
0.077756
0.021665
-0.030517
-0.082887
-0.126540
-0.162570
-0.192035
-0.212250
-0.199616
-0.179549
-0.152623
-0.108369
-0.056262
-0.020840
0.031429
0.078497
0.102147
0.094868
0.096551
0.067905
0.037346
-0.002325
-0.059171
-0.108066
-0.146381
-0.190248
-0.207859
-0.224792
-0.223588
-0.201102
-0.168479
-0.132965
-0.092563
-0.033969
0.004071
0.037717
0.059649
0.056826
0.048451
0.030438
0.002260
-0.036039
-0.088124
-0.132915
-0.179417
-0.216239
-0.240124
-0.248416
-0.239872
-0.211969
-0.177901
-0.137009
-0.085263
-0.051603
-0.020278
0.009904
0.035268
0.053501
0.053900
0.031465
-0.006444
-0.053973
-0.109314
-0.144953
-0.184754
-0.220058
-0.244483
-0.252113
-0.251281
-0.223763
-0.196757
-0.158798
-0.103381
-0.049681
-0.005430
0.042011
0.053822
0.054622
0.042086
0.028988
-0.006633
-0.040567
-0.092650
-0.144807
-0.181503
-0.216081
-0.234549
-0.238495
-0.245832
-0.229323
-0.195132
-0.132626
-0.104443
-0.073051
-0.029706
0.003340
0.023368
0.053315
0.053896
0.026524
-0.018828
-0.047526
-0.075749
-0.096589
-0.136791
-0.173017
-0.177622
-0.180099
-0.153312
-0.112317
-0.043135
-0.007037
0.045740
0.105549
0.151775
0.204609
0.256904
0.290770
0.302860
0.307421
0.295674
0.268080
0.263582
0.242941
0.224974
0.219901
0.242764
0.244580
0.272663
0.336281
0.404150
0.478468
0.553722
0.646153
0.709598
0.772240
0.784754
0.785780
0.788346
0.755462
0.713321
0.668179
0.575556
0.490508
0.365242
0.268553
0.187134
0.114361
0.062115
0.045092
0.028186
0.040509
0.057871
0.088240
0.120436
0.141097
0.160265
0.147755
0.144087
0.129789
0.078828
0.035208
-0.017453
-0.060446
-0.103843
-0.142376
-0.158282
-0.167258
-0.167070
-0.159353
-0.142658
-0.089366
-0.024719
0.013980
0.048108
0.084583
0.110422
0.105817
0.103747
0.071663
0.038832
0.007415
-0.042396
-0.087910
-0.136064
-0.168900
-0.193693
-0.203364
-0.203577
-0.184060
-0.139759
-0.107886
-0.063666
-0.012472
0.022792
0.061090
0.075399
0.084303
0.082880
0.066433
0.036974
-0.020665
-0.073487
-0.109813
-0.152865
-0.179678
-0.214482
-0.227319
-0.219195
-0.194488
-0.151166
-0.113840
-0.064799
-0.017556
0.025173
0.050671
0.073590
0.099996
0.072806
0.057124
0.024999
-0.011952
-0.057522
-0.089171
-0.128032
-0.165709
-0.186104
-0.183331
-0.180816
-0.155382
-0.126147
-0.079409
-0.056868
0.001892
0.050148
0.078764
0.113155
0.126088
0.124426
0.097925
0.057396
0.019525
-0.033368
-0.085045
-0.130494
-0.160666
-0.185139
-0.176106
-0.177221
-0.139861
-0.094693
-0.066684
-0.013785
0.028245
0.069949
0.100026
0.138322
0.139658
0.128690
0.122354
0.096984
0.051227
0.002964
-0.034269
-0.083883
-0.132561
-0.140502
-0.148091
-0.141055
-0.122308
-0.088420
-0.045583
0.002744
0.048858
0.091436
0.141007
0.163153
0.178444
0.188398
0.164547
0.138017
0.087082
0.036105
-0.008600
-0.050960
-0.084806
-0.113242
-0.108274
-0.105568
-0.086516
-0.051508
-0.009693
0.021091
0.064708
0.105141
0.149249
0.182896
0.187100
0.177146
0.165098
0.137080
0.089348
0.053209
0.011948
-0.042119
-0.073204
-0.087704
-0.093241
-0.091298
-0.071631
-0.053573
-0.015687
0.032029
0.081903
0.120257
0.148647
0.174702
0.165469
0.160793
0.137710
0.112160
0.065177
0.029299
-0.018642
-0.057393
-0.087677
-0.115449
-0.132290
-0.114572
-0.098206
-0.070452
-0.027269
0.015851
0.055337
0.094990
0.128432
0.145481
0.155876
0.146352
0.137117
0.099182
0.049782
-0.002574
-0.052560
-0.100666
-0.124925
-0.155069
-0.159654
-0.152365
-0.141787
-0.110551
-0.073228
-0.036820
0.014902
0.055206
0.095820
0.118009
0.130244
0.119313
0.113403
0.059888
0.020935
-0.040635
-0.091088
-0.130363
-0.166850
-0.198970
-0.216715
-0.196614
-0.173917
-0.130691
-0.103538
-0.055797
-0.017269
0.027711
0.071719
0.084873
0.101115
0.088189
0.075516
0.036468
-0.011688
-0.057710
-0.115940
-0.163128
-0.193163
-0.213198
-0.226328
-0.223822
-0.200649
-0.167217
-0.124419
-0.079624
-0.038265
-0.005300
0.042477
0.058996
0.076627
0.063858
0.055070
0.003767
-0.029927
-0.085579
-0.126081
-0.168364
-0.189455
-0.218808
-0.242983
-0.236495
-0.212774
-0.166295
-0.125034
-0.083446
-0.026907
0.013922
0.041786
0.046956
0.064634
0.069347
0.048546
0.016124
-0.022331
-0.083196
-0.129510
-0.181820
-0.200847
-0.218248
-0.232705
-0.228326
-0.211865
-0.178969
-0.130541
-0.084071
-0.039322
0.012074
0.039006
0.067402
0.081135
0.065887
0.043382
0.018672
-0.014245
-0.061828
-0.111440
-0.170023
-0.189904
-0.209556
-0.225964
-0.209121
-0.201467
-0.164278
-0.129109
-0.088217
-0.025820
0.008541
0.039923
0.075803
0.083976
0.084902
0.053328
0.031248
-0.005085
-0.056948
-0.110754
-0.153424
-0.189961
-0.187958
-0.209325
-0.215375
-0.205563
-0.167469
-0.138540
-0.072498
-0.008076
0.031217
0.051332
0.078997
0.091576
0.083682
0.062485
0.027545
-0.014758
-0.063362
-0.117737
-0.165884
-0.197342
-0.222672
-0.217830
-0.204278
-0.190417
-0.165903
-0.126407
-0.076852
-0.021497
0.027432
0.052811
0.076784
0.093323
0.091272
0.073359
0.034251
-0.008193
-0.053811
-0.108119
-0.151570
-0.192352
-0.220578
-0.226151
-0.221281
-0.209451
-0.171872
-0.138721
-0.093581
-0.044855
0.011682
0.049975
0.078621
0.089442
0.075255
0.053624
0.024852
-0.018304
-0.062941
-0.115476
-0.159357
-0.193149
-0.215459
-0.240644
-0.223131
-0.201847
-0.166877
-0.124151
-0.084242
-0.030601
0.010309
0.033812
0.069468
0.082052
0.070835
0.035831
0.014912
-0.040908
-0.085493
-0.119908
-0.164154
-0.215989
-0.227731
-0.223952
-0.237071
-0.220717
-0.168620
-0.131313
-0.102404
-0.045247
0.003016
0.026466
0.057407
0.068118
0.061664
0.042646
0.007366
-0.020038
-0.063314
-0.123578
-0.163226
-0.195449
-0.226057
-0.224929
-0.225462
-0.220246
-0.199139
-0.141981
-0.093214
-0.043267
0.013724
0.053438
0.063447
0.078780
0.080013
0.073587
0.038337
-0.004945
-0.051032
-0.107135
-0.132410
-0.169337
-0.196641
-0.202858
-0.206820
-0.181879
-0.146762
-0.103325
-0.057852
-0.005177
0.035164
0.076293
0.102632
0.095049
0.079708
0.060770
0.025196
-0.013615
-0.065654
-0.110522
-0.163377
-0.176272
-0.195906
-0.201083
-0.189372
-0.183171
-0.148919
-0.098713
-0.055626
0.010674
0.050441
0.085115
0.105062
0.110854
0.085874
0.067615
0.042046
0.030854
-0.037637
-0.102246
-0.126915
-0.153473
-0.174589
-0.178818
-0.201343
-0.195119
-0.147776
-0.101363
-0.047659
-0.004733
0.021736
0.055314
0.063146
0.067311
0.065002
0.035026
0.018253
-0.033792
-0.079062
-0.135019
-0.181631
-0.205094
-0.231220
-0.231502
-0.212785
-0.203605
-0.167390
-0.133008
-0.107188
-0.069246
-0.024974
0.000059
0.029554
0.028100
0.027445
-0.002384
-0.020910
-0.061327
-0.100962
-0.152612
-0.217865
-0.246082
-0.263443
-0.268536
-0.280880
-0.255444
-0.205345
-0.166388
-0.121882
-0.069240
-0.036624
-0.007007
0.022622
0.023272
0.028874
0.018391
-0.025341
-0.069484
-0.111169
-0.172868
-0.212284
-0.239237
-0.267137
-0.277092
-0.267583
-0.261124
-0.211361
-0.156124
-0.118737
-0.071224
-0.039427
-0.005767
0.026636
0.045611
0.036728
0.022614
-0.011885
-0.054531
-0.102725
-0.153136
-0.204513
-0.250535
-0.266044
-0.272672
-0.272573
-0.270069
-0.247174
-0.185500
-0.125480
-0.070579
-0.018383
0.010516
0.022075
0.026147
0.030189
0.015799
-0.026428
-0.073491
-0.103788
-0.163864
-0.205960
-0.244402
-0.258986
-0.279808
-0.282933
-0.260306
-0.215690
-0.142949
-0.096744
-0.028773
0.039426
0.084904
0.124389
0.127011
0.130817
0.148767
0.126091
0.057783
0.056044
0.047392
0.032776
0.014534
0.002205
0.004045
0.043870
0.085296
0.149874
0.199819
0.274089
0.391120
0.452264
0.503110
0.571088
0.599967
0.629165
0.681285
0.684469
0.668428
0.659331
0.637155
0.600509
0.577688
0.535635
0.486974
0.444929
0.467405
0.490139
0.500702
0.494706
0.462739
0.432629
0.461479
0.426294
0.362451
0.309026
0.248874
0.183839
0.101371
0.038026
-0.026383
-0.088106
-0.124835
-0.148811
-0.151119
-0.172480
-0.152867
-0.134682
-0.045088
-0.020403
0.021658
0.063868
0.097956
0.110644
0.141387
0.142154
0.088604
0.029833
0.001911
-0.048792
-0.121974
-0.162852
-0.186373
-0.210014
-0.220441
-0.220930
-0.196171
-0.133495
-0.099482
-0.085607
-0.007787
0.029698
0.066948
0.087056
0.098801
0.080627
0.057749
0.021702
-0.006065
-0.060793
-0.129883
-0.157448
-0.139916
-0.166607
-0.234186
-0.246764
-0.208143
-0.157491
-0.115023
-0.068919
-0.013722
0.031687
0.047047
0.046327
0.093285
0.085641
0.056000
0.022215
-0.032000
-0.058612
-0.096946
-0.150502
-0.196168
-0.227634
-0.220797
-0.210326
-0.178201
-0.152629
-0.112299
-0.050932
-0.008399
0.047129
0.083401
0.098088
0.101483
0.098217
0.079558
0.043942
-0.004450
-0.052415
-0.092258
-0.123468
-0.166749
-0.176853
-0.179399
-0.180935
-0.165206
-0.136541
-0.091262
-0.040481
0.016498
0.046252
0.120585
0.135612
0.122695
0.111238
0.094725
0.065953
0.013630
-0.012260
-0.047748
-0.087349
-0.140026
-0.150014
-0.152312
-0.153645
-0.122254
-0.075124
-0.038491
-0.008519
0.016239
0.064400
0.115594
0.170663
0.142200
0.144062
0.130373
0.105725
0.067572
-0.003114
-0.061846
-0.111302
-0.105906
-0.108627
-0.150391
-0.152440
-0.117100
-0.085039
-0.039872
-0.004438
0.050682
0.107855
0.149629
0.178342
0.193170
0.200149
0.175962
0.139587
0.097537
0.060232
0.004306
-0.070296
-0.100741
-0.110192
-0.131962
-0.121529
-0.066179
-0.056349
-0.022858
0.009214
0.068471
0.134223
0.162014
0.186900
0.185970
0.162157
0.144849
0.107505
0.072346
0.026205
-0.046645
-0.068837
-0.092562
-0.114148
-0.126631
-0.119274
-0.104755
-0.078101
-0.041353
0.022215
0.066802
0.101775
0.112455
0.142174
0.156480
0.156690
0.119441
0.100789
0.042523
0.005423
-0.018899
-0.061802
-0.098657
-0.127326
-0.144818
-0.140498
-0.118231
-0.094652
-0.034058
0.010788
0.029157
0.059203
0.102725
0.140128
0.125202
0.110018
0.093033
0.073355
0.041407
-0.024775
-0.066488
-0.108391
-0.138782
-0.161100
-0.160309
-0.175713
-0.158731
-0.131411
-0.083310
-0.039970
0.010239
0.038931
0.057956
0.081227
0.097903
0.101992
0.069785
0.052883
0.008076
-0.054194
-0.090655
-0.156071
-0.203111
-0.224412
-0.208740
-0.210722
-0.203041
-0.154990
-0.094754
-0.056407
-0.017673
0.014240
0.043134
0.061090
0.066346
0.081546
0.071483
0.037844
-0.014745
-0.073820
-0.094943
-0.138919
-0.195996
-0.219177
-0.228236
-0.204748
-0.176931
-0.156978
-0.112820
-0.085520
-0.028742
0.051056
0.050581
0.027195
0.023346
0.036333
0.025243
-0.015398
-0.043343
-0.069833
-0.122083
-0.159341
-0.186500
-0.211074
-0.215339
-0.197061
-0.181689
-0.151424
-0.111847
-0.063483
-0.023625
0.026223
0.084269
0.088677
0.067950
0.066657
0.053553
0.036839
-0.011729
-0.058390
-0.094403
-0.159662
-0.196981
-0.203176
-0.203197
-0.182902
-0.162618
-0.145921
-0.098076
-0.051920
-0.028212
0.020518
0.056979
0.075087
0.084941
0.091781
0.065100
0.054409
0.009550
-0.029543
-0.091943
-0.138438
-0.132545
-0.139718
-0.221703
-0.235801
-0.179451
-0.140468
-0.100849
-0.059866
-0.006586
0.038125
0.066117
0.072619
0.108776
0.114418
0.095831
0.079394
0.034354
-0.064130
-0.132746
-0.149885
-0.177344
-0.213985
-0.200246
-0.177600
-0.136444
-0.120696
-0.097216
-0.042056
0.011088
0.028011
0.057450
0.100283
0.117656
0.088565
0.068445
0.052094
-0.009584
-0.052768
-0.080578
-0.144151
-0.174905
-0.179681
-0.186425
-0.194794
-0.177026
-0.142550
-0.111115
-0.075545
-0.008888
0.037459
0.069297
0.095325
0.109161
0.108131
0.079857
0.052915
0.022973
-0.011744
-0.075624
-0.131934
-0.164331
-0.196808
-0.212344
-0.206472
-0.201346
-0.152855
-0.104788
-0.048355
0.005327
0.034396
0.058479
0.086209
0.086270
0.066352
0.083631
0.046501
0.026082
-0.067000
-0.148231
-0.154558
-0.181935
-0.193266
-0.191993
-0.175905
-0.169663
-0.159280
-0.112474
-0.070636
-0.038453
0.021163
0.048184
0.066542
0.086806
0.089801
0.050301
0.018861
-0.028489
-0.044281
-0.097289
-0.142553
-0.177773
-0.211561
-0.224834
-0.188642
-0.178535
-0.170502
-0.121500
-0.074747
-0.029963
0.032636
0.066702
0.083633
0.114470
0.116386
0.091275
0.088133
0.076987
-0.001696
-0.057848
-0.140733
-0.179884
-0.162792
-0.198444
-0.198104
-0.208947
-0.163373
-0.087115
-0.054116
-0.032905
0.030555
0.064636
0.073002
0.084629
0.105326
0.096637
0.046446
-0.013827
-0.048635
-0.056809
-0.092477
-0.123135
-0.161420
-0.184833
-0.169235
-0.150737
-0.119502
-0.087074
-0.025526
0.030383
0.078642
0.081788
0.104213
0.083204
0.100593
0.099741
0.086878
0.051989
0.001134
-0.040752
-0.096756
-0.144026
-0.172893
-0.149399
-0.153512
-0.131346
-0.108237
-0.048358
-0.015675
0.036666
0.091700
0.131533
0.155410
0.152263
0.136009
0.073020
0.063403
0.042263
-0.019004
-0.084697
-0.123502
-0.159350
-0.194433
-0.195673
-0.186762
-0.170930
-0.148300
-0.104997
-0.044916
0.020825
0.059696
0.072288
0.093317
0.114424
0.108236
0.055552
-0.006290
-0.042362
-0.083058
-0.137372
-0.169257
-0.189802
-0.219973
-0.215542
-0.198519
-0.213221
-0.184540
-0.130731
-0.041412
0.049425
0.029620
0.022137
0.023356
0.019345
0.016861
-0.003514
-0.000997
0.000873
-0.037808
-0.087717
-0.122346
-0.178180
-0.263580
-0.247738
-0.235425
-0.206398
-0.164448
-0.143924
-0.108043
-0.045423
0.022965
0.045228
0.063006
0.075387
0.057304
0.028204
0.023018
-0.016632
-0.062031
-0.085594
-0.147589
-0.186062
-0.212708
-0.217074
-0.220050
-0.217618
-0.174545
-0.105479
-0.047701
-0.042614
-0.033662
0.010127
0.058747
0.059145
0.040674
0.012280
-0.000592
-0.038668
-0.097786
-0.114813
-0.159179
-0.210456
-0.238064
-0.259051
-0.238663
-0.217196
-0.176830
-0.138835
-0.072993
-0.033197
-0.001054
0.017783
0.034713
0.035683
0.028051
0.026058
0.026568
-0.000932
-0.063011
-0.112354
-0.143020
-0.155922
-0.154748
-0.139648
-0.119163
-0.064933
-0.027820
0.042921
0.089586
0.123049
0.192127
0.231764
0.319557
0.351711
0.350942
0.356944
0.353552
0.349836
0.366069
0.305139
0.291533
0.338555
0.325662
0.321379
0.303831
0.367717
0.483273
0.545771
0.636536
0.720769
0.779294
0.815150
0.870632
0.881562
0.850670
0.811458
0.762016
0.694977
0.598951
0.481630
0.365206
0.261428
0.167495
0.110791
0.076599
0.081506
0.060885
0.045425
0.064061
0.099274
0.154262
0.182582
0.206727
0.204022
0.192157
0.147173
0.100484
0.056449
0.014750
-0.022724
-0.063178
-0.079446
-0.132679
-0.120695
-0.111461
-0.086064
-0.090066
-0.092450
-0.024714
0.029372
0.071316
0.100275
0.103127
0.094143
0.104394
0.114604
0.085353
0.041556
-0.000129
-0.062480
-0.143700
-0.168738
-0.191748
-0.193037
-0.198009
-0.151605
-0.098288
-0.085520
-0.039995
0.027042
0.075661
0.107273
0.124497
0.109528
0.111412
0.096720
0.050290
-0.003691
-0.035711
-0.075015
-0.130309
-0.170656
-0.205507
-0.154508
-0.133264
-0.129824
-0.090693
-0.071059
-0.023357
0.028886
0.037954
0.095786
0.111163
0.170724
0.091202
0.073255
0.048588
-0.042028
-0.067952
-0.070301
-0.064429
-0.104297
-0.158078
-0.189104
-0.157743
-0.136219
-0.098470
-0.054764
0.009217
0.045535
0.082319
0.116482
0.133661
0.145003
0.137645
0.109756
0.065761
0.046468
-0.011434
-0.044092
-0.088863
-0.114475
-0.152757
-0.158022
-0.127076
-0.081905
-0.061487
-0.067405
-0.011520
0.043434
0.094877
0.120722
0.160579
0.195253
0.180321
0.136647
0.109308
0.080160
0.024689
-0.014071
-0.051568
-0.072391
-0.064054
-0.088234
-0.116233
-0.095052
-0.041423
-0.021306
0.030719
0.079250
0.130133
0.157504
0.199779
0.202877
0.204085
0.190013
0.153589
0.125604
0.075352
0.032307
-0.018497
-0.064210
-0.075192
-0.103828
-0.097177
-0.054277
-0.001481
0.032419
0.071224
0.134779
0.154584
0.181424
0.210323
0.216716
0.197862
0.178613
0.141519
0.069823
0.083562
0.068520
-0.001950
-0.040662
-0.020475
-0.038646
-0.055042
-0.075688
-0.028332
0.007869
0.045034
0.103144
0.148123
0.188210
0.206911
0.210535
0.207444
0.174910
0.127565
0.133967
0.101237
0.015401
-0.031493
-0.078343
-0.072440
-0.081654
-0.089105
-0.067443
-0.086105
-0.025699
0.026203
0.084154
0.115618
0.166225
0.178740
0.193091
0.215777
0.195303
0.130207
0.074877
0.033172
-0.003446
-0.039791
-0.075498
-0.091742
-0.110919
-0.110221
-0.093454
-0.054206
-0.014300
0.026441
0.048861
0.099835
0.108182
0.130150
0.125985
0.120584
0.108710
0.080713
0.046416
0.000863
-0.043338
-0.095835
-0.137790
-0.153702
-0.148823
-0.164790
-0.141152
-0.102604
-0.062426
-0.016559
0.044966
0.089243
0.075484
0.096732
0.131376
0.128381
0.094890
0.041536
0.049607
0.001443
-0.032501
-0.120942
-0.143978
-0.135453
-0.135371
-0.137851
-0.147422
-0.150792
-0.088717
-0.032970
0.007756
0.053423
0.095781
0.117867
0.121119
0.120716
0.076316
0.058448
0.019527
-0.029406
-0.083176
-0.103702
-0.149062
-0.178760
-0.196108
-0.183513
-0.144233
-0.107141
-0.067010
-0.034162
0.000870
0.055552
0.085249
0.081165
0.118666
0.130370
0.111137
0.068558
0.022457
-0.026605
-0.062139
-0.100422
-0.155047
-0.166751
-0.175692
-0.178289
-0.136644
-0.126840
-0.093134
-0.042835
0.012764
0.067415
0.096256
0.097666
0.116810
0.124389
0.105662
0.062139
0.014551
-0.013868
-0.039793
-0.074230
-0.111334
-0.138303
-0.146142
-0.139145
-0.122456
-0.091405
-0.016974
0.000460
0.045385
0.116385
0.132597
0.068744
0.081347
0.097864
0.091671
0.076946
0.028184
-0.029365
-0.064053
-0.115820
-0.146402
-0.147669
-0.140333
-0.177946
-0.156668
-0.089153
-0.034626
0.019747
0.047873
0.081940
0.125660
0.145039
0.158006
0.156220
0.119345
0.087920
0.043336
-0.003824
-0.063096
-0.130229
-0.173264
-0.155969
-0.147738
-0.132325
-0.136908
-0.083077
-0.029645
0.025644
0.079257
0.081555
0.113885
0.150379
0.142240
0.119634
0.097552
0.078195
0.056723
-0.011336
-0.023208
-0.065888
-0.140759
-0.171532
-0.167816
-0.168454
-0.113813
-0.086704
-0.057172
-0.039289
0.007459
0.059788
0.109395
0.130506
0.131417
0.122713
0.111739
0.089734
0.038833
-0.013064
-0.056703
-0.079319
-0.124787
-0.153513
-0.148555
-0.180794
-0.158603
-0.111602
-0.083249
-0.016293
0.021779
0.064320
0.106523
0.120755
0.115153
0.137015
0.108358
0.075593
0.011096
0.000797
-0.049059
-0.089213
-0.141097
-0.178130
-0.178801
-0.146811
-0.132154
-0.112534
-0.100400
-0.045752
0.009808
0.060523
0.087304
0.106760
0.124262
0.114296
0.074417
0.044677
0.027224
0.014699
-0.037563
-0.109599
-0.156977
-0.160394
-0.166598
-0.176349
-0.170193
-0.121384
-0.083495
-0.031389
0.022937
0.052075
0.094337
0.127971
0.136879
0.101770
0.123173
0.066746
0.010625
-0.045284
-0.071003
-0.113747
-0.174178
-0.180328
-0.176098
-0.162080
-0.144293
-0.106527
-0.075294
-0.037761
0.019014
0.061346
0.088192
0.118847
0.128949
0.112233
0.086912
0.075842
0.020095
-0.051356
-0.110511
-0.113689
-0.125338
-0.143031
-0.171190
-0.151273
-0.139292
-0.103901
-0.113675
-0.069997
0.001835
0.084478
0.103024
0.092714
0.077623
0.070317
0.056384
0.069465
0.064493
0.033671
-0.029920
-0.101944
-0.150990
-0.180557
-0.183840
-0.158514
-0.127305
-0.092968
-0.093105
-0.042580
0.013639
0.044963
0.091336
0.109572
0.131869
0.145984
0.116773
0.066011
0.029032
-0.017836
-0.058008
-0.090748
-0.113782
-0.102303
-0.124398
-0.166065
-0.129519
-0.083980
-0.039036
-0.010475
0.041198
0.089932
0.125773
0.152172
0.157332
0.145383
0.131318
0.101381
0.069396
0.016630
-0.030846
-0.061325
-0.101980
-0.097756
-0.137969
-0.147431
-0.107926
-0.073317
-0.049251
-0.003208
0.048060
0.108848
0.137835
0.161606
0.178691
0.182040
0.172142
0.137395
0.060234
-0.001575
-0.035624
-0.064972
-0.115802
-0.136176
-0.123270
-0.106284
-0.077890
-0.084017
-0.037818
0.033890
0.048979
0.075019
0.115772
0.158972
0.142358
0.131046
0.123060
0.082645
0.036862
-0.010227
-0.061090
-0.100365
-0.108078
-0.141152
-0.144974
-0.164871
-0.143330
-0.127678
-0.080697
-0.041589
-0.007086
0.051511
0.091875
0.114490
0.107354
0.077429
0.070994
0.042859
0.008726
-0.023893
-0.089399
-0.159420
-0.189068
-0.226073
-0.222263
-0.192465
-0.174899
-0.120860
-0.066465
-0.053286
-0.057098
0.006872
0.092863
0.131408
0.102835
0.061085
0.069134
0.034149
-0.010164
-0.063664
-0.095877
-0.126148
-0.147178
-0.174934
-0.251633
-0.201123
-0.132643
-0.142902
-0.099303
-0.057921
-0.001348
0.036692
0.083517
0.119796
0.126064
0.092847
0.052302
0.031700
-0.012666
-0.052449
-0.097045
-0.135597
-0.170628
-0.186251
-0.192938
-0.199750
-0.173422
-0.143689
-0.101074
-0.038466
0.005338
0.064550
0.071522
0.095896
0.070920
0.051111
0.056715
0.038718
-0.015907
-0.057763
-0.098007
-0.154419
-0.192437
-0.181025
-0.183838
-0.195884
-0.200818
-0.167768
-0.097018
-0.025159
0.022063
0.021978
0.073680
0.104861
0.118967
0.131134
0.117353
0.089836
0.081188
0.064596
0.045615
0.003312
0.001629
-0.007129
0.000907
0.044891
0.065157
0.113115
0.176864
0.303587
0.365152
0.495488
0.554377
0.612090
0.612884
0.644412
0.675179
0.694279
0.695935
0.723882
0.683615
0.703200
0.711193
0.713249
0.721294
0.722800
0.717281
0.756389
0.768819
0.792881
0.825922
0.841022
0.843444
0.824075
0.754794
0.647629
0.545067
0.420044
0.322174
0.244728
0.176230
0.093980
0.055867
0.029180
0.017259
0.001195
0.020180
0.029986
0.058222
0.112652
0.146225
0.159103
0.124360
0.190757
0.273032
0.281487
0.204617
0.126441
0.094319
0.049010
-0.022810
-0.073490
-0.082089
-0.116329
-0.120200
-0.134388
-0.113710
-0.077793
-0.051515
-0.006163
0.039327
0.079866
0.125924
0.150965
0.156788
0.137882
0.133338
0.107932
0.031807
-0.020279
-0.029505
-0.092869
-0.100759
-0.130676
-0.156042
-0.121858
-0.106551
-0.073790
-0.054929
-0.028457
0.033256
0.063953
0.090151
0.119600
0.124582
0.136086
0.150191
0.109214
0.055321
0.022402
-0.040060
-0.082576
-0.097629
-0.115013
-0.141102
-0.161181
-0.158207
-0.097143
-0.041003
-0.003853
0.041932
0.075429
0.080276
0.109012
0.138930
0.145812
0.141213
0.131709
0.068596
0.022037
-0.027379
-0.057994
-0.052979
-0.081431
-0.132120
-0.120181
-0.101910
-0.081330
-0.027243
0.016031
0.072262
0.106210
0.123398
0.152038
0.155997
0.143984
0.122263
0.127639
0.107693
0.042433
-0.005749
-0.038681
-0.061286
-0.105202
-0.128032
-0.094959
-0.060532
-0.016832
0.015270
0.050636
0.110095
0.139085
0.181628
0.193153
0.198211
0.177918
0.165499
0.143789
0.097154
0.057811
0.014979
-0.013264
-0.057696
-0.080765
-0.062767
-0.066648
-0.044851
-0.021881
0.042476
0.092508
0.125639
0.161425
0.181774
0.217975
0.225408
0.228630
0.210429
0.181824
0.155013
0.108063
0.070891
0.013313
-0.004349
-0.042227
-0.048313
-0.038333
-0.021730
0.014970
0.054652
0.073476
0.127588
0.219132
0.228203
0.244061
0.241995
0.222031
0.204794
0.193559
0.144917
0.117497
0.043884
-0.018225
-0.032971
-0.051963
-0.095118
-0.082206
-0.000458
0.036697
0.098401
0.093556
0.136033
0.167914
0.186948
0.224504
0.217290
0.210639
0.204643
0.176292
0.130192
0.089951
0.017469
-0.013041
-0.035310
-0.064017
-0.090145
-0.078318
-0.050367
-0.019851
0.022495
0.044673
0.109410
0.127233
0.173991
0.220859
0.244598
0.208993
0.180431
0.149609
0.077188
0.023145
0.013830
-0.022684
-0.106694
-0.119793
-0.111773
-0.118586
-0.093556
-0.046907
-0.027275
-0.003243
0.059251
0.117802
0.132509
0.155240
0.148052
0.156442
0.141311
0.113796
0.042305
0.017047
-0.016555
-0.045627
-0.092843
-0.132540
-0.133485
-0.131149
-0.112254
-0.093967
-0.048690
-0.025162
0.015195
0.057724
0.088983
0.107064
0.124926
0.098722
0.065657
0.087443
0.076074
0.026411
-0.038895
-0.091824
-0.120768
-0.139977
-0.154253
-0.149604
-0.140579
-0.105406
-0.057770
-0.015901
0.025054
0.063230
0.103759
0.160391
0.171789
0.144400
0.102747
0.071027
0.043672
-0.001196
-0.081930
-0.134165
-0.152091
-0.164476
-0.182004
-0.183634
-0.170157
-0.112711
-0.077032
-0.037597
0.002685
0.052164
0.112100
0.160074
0.147267
0.109938
0.093470
0.069134
0.006318
-0.038143
-0.085074
-0.118033
-0.123631
-0.138867
-0.130483
-0.143932
-0.139785
-0.095534
-0.046776
0.002497
0.065172
0.091329
0.107869
0.141128
0.137555
0.131012
0.093203
0.075755
0.025840
0.005842
-0.040657
-0.079828
-0.101197
-0.149496
-0.171161
-0.175479
-0.144203
-0.097778
-0.072929
-0.013688
0.051591
0.101248
0.111859
0.137570
0.150806
0.135759
0.105353
0.057922
0.054016
0.028876
-0.013666
-0.052369
-0.098269
-0.146132
-0.170053
-0.148883
-0.117972
-0.096536
-0.048374
-0.014912
0.032173
0.084297
0.105902
0.137917
0.162588
0.160522
0.140623
0.101636
0.067963
0.018107
-0.037419
-0.082090
-0.142537
-0.201896
-0.192845
-0.152795
-0.111549
-0.074971
0.007479
0.023363
0.033640
0.059527
0.094641
0.130085
0.143501
0.149517
0.133246
0.095025
0.036871
0.003850
-0.025484
-0.089875
-0.143564
-0.158535
-0.145266
-0.136248
-0.122457
-0.077329
-0.056266
-0.014055
0.035736
0.061654
0.098878
0.125386
0.127658
0.134365
0.098491
0.058844
0.039058
0.019272
-0.032284
-0.094601
-0.136584
-0.161218
-0.151906
-0.130853
-0.131610
-0.102858
-0.067190
-0.032983
0.026486
0.094279
0.122794
0.141298
0.133237
0.122767
0.102927
0.083988
0.038344
-0.037269
-0.061097
-0.087103
-0.115040
-0.156996
-0.199621
-0.131989
-0.114895
-0.092831
-0.044028
-0.005364
0.049076
0.075329
0.088661
0.113445
0.113982
0.109665
0.092329
0.056384
0.025667
-0.006126
-0.046058
-0.127148
-0.156099
-0.171514
-0.143235
-0.137672
-0.146242
-0.104606
-0.064659
-0.030404
0.014503
0.046372
0.093753
0.120879
0.129747
0.124743
0.101850
0.055760
0.004488
-0.038118
-0.093978
-0.120513
-0.152185
-0.187597
-0.181062
-0.188709
-0.162801
-0.118479
-0.081333
-0.027408
0.004753
0.058154
0.119903
0.134709
0.134902
0.117330
0.094786
0.088140
0.004254
-0.039969
-0.062500
-0.101947
-0.137207
-0.162618
-0.170293
-0.167331
-0.154350
-0.139976
-0.092461
-0.030315
0.023950
0.052248
0.084571
0.101590
0.120228
0.135346
0.118707
0.072887
0.016939
-0.044918
-0.073679
-0.104004
-0.136573
-0.169789
-0.191936
-0.148602
-0.125217
-0.099171
-0.019039
0.016726
0.040356
0.061776
0.139640
0.185193
0.129676
0.123909
0.102473
0.060657
0.036729
0.012423
-0.015718
-0.070899
-0.111874
-0.114695
-0.121732
-0.122735
-0.118250
-0.087479
-0.052699
0.012435
0.041500
0.083800
0.138757
0.139986
0.119599
0.135302
0.132726
0.111494
0.065051
0.019456
-0.026473
-0.078833
-0.086243
-0.109779
-0.112058
-0.123649
-0.081369
-0.050607
-0.024639
0.029695
0.074896
0.123756
0.157487
0.186643
0.209074
0.184438
0.145003
0.116382
0.072818
0.005506
-0.022360
-0.070750
-0.120954
-0.123275
-0.132484
-0.146601
-0.124499
-0.095162
-0.054479
0.008199
0.045222
0.079883
0.106431
0.107915
0.119829
0.114368
0.098966
0.063411
0.036411
-0.008742
-0.063559
-0.098668
-0.133451
-0.171830
-0.148633
-0.160173
-0.152922
-0.105697
-0.044467
-0.036360
0.031575
0.071582
0.066736
0.094404
0.093587
0.101290
0.060001
0.029616
0.000216
-0.046307
-0.073974
-0.107358
-0.154814
-0.172577
-0.194593
-0.213050
-0.200908
-0.174704
-0.110020
-0.081803
-0.026810
0.063640
0.092956
0.084504
0.115809
0.130448
0.095041
0.052216
0.011245
-0.030532
-0.070042
-0.130960
-0.170274
-0.169637
-0.184111
-0.172187
-0.153030
-0.130017
-0.090497
-0.045124
0.000861
0.044288
0.062192
0.077436
0.102952
0.128738
0.100597
0.074616
0.033205
-0.040577
-0.063742
-0.111147
-0.174827
-0.201109
-0.199487
-0.181103
-0.143385
-0.107587
-0.092451
-0.057175
-0.006961
0.011591
0.047934
0.081095
0.106965
0.117838
0.100372
0.079668
0.031044
-0.050437
-0.082749
-0.121349
-0.163844
-0.177080
-0.185280
-0.172135
-0.135959
-0.103156
-0.057268
-0.004091
0.060414
0.118596
0.155107
0.178382
0.215940
0.237212
0.225985
0.236500
0.218623
0.180685
0.146288
0.142399
0.128367
0.135221
0.164201
0.218456
0.275655
0.352154
0.409964
0.489497
0.539940
0.607464
0.676954
0.733683
0.799240
0.834744
0.827039
0.837739
0.824597
0.768613
0.708201
0.684660
0.683783
0.647238
0.618616
0.584428
0.566264
0.509617
0.458973
0.471371
0.435414
0.416845
0.398337
0.366239
0.323560
0.270949
0.246283
0.200164
0.150197
0.120101
0.073981
0.024467
-0.023032
-0.053106
-0.082330
-0.082766
-0.061723
-0.034333
0.031035
0.094312
0.129219
0.152661
0.160669
0.176012
0.206498
0.207922
0.181658
0.143487
0.088416
0.024808
-0.023319
-0.045142
-0.069724
-0.109136
-0.144762
-0.136608
-0.095798
-0.054965
-0.029783
0.009194
0.058185
0.090121
0.130900
0.148698
0.160805
0.175790
0.144449
0.106386
0.068196
0.029830
-0.020887
-0.059920
-0.101977
-0.110250
-0.124729
-0.122518
-0.111343
-0.075074
-0.041939
-0.005611
0.050713
0.076448
0.105652
0.133455
0.157589
0.150992
0.126680
0.104111
0.062581
0.015543
-0.042695
-0.051870
-0.077849
-0.118428
-0.114085
-0.088138
-0.073073
-0.077876
-0.039533
0.016684
0.066127
0.113415
0.136523
0.170684
0.189714
0.175512
0.154210
0.130591
0.083258
0.028900
-0.022316
-0.046738
-0.088922
-0.084967
-0.077076
-0.082732
-0.071471
-0.016356
0.012907
0.050508
0.103412
0.134537
0.163431
0.204303
0.199920
0.196625
0.183844
0.161961
0.117556
0.067975
0.022383
-0.018599
-0.061381
-0.085117
-0.041221
-0.029734
-0.007548
0.024806
0.044800
0.092351
0.139608
0.172860
0.224015
0.239275
0.257033
0.248970
0.214210
0.182169
0.138150
0.114382
0.072057
0.028749
0.012179
-0.015605
-0.037014
-0.045858
-0.019092
0.051642
0.096308
0.134706
0.156160
0.208172
0.257223
0.266924
0.281412
0.276147
0.254843
0.228459
0.192304
0.138966
0.104796
0.063681
0.010231
-0.022565
-0.018974
0.011983
-0.000615
0.027018
0.071693
0.127339
0.171753
0.217570
0.246009
0.271945
0.279250
0.277639
0.256448
0.229442
0.180299
0.145100
0.095135
0.040692
0.008517
0.000135
-0.001478
0.004956
0.012864
0.054060
0.081791
0.119725
0.155900
0.209530
0.237604
0.250513
0.246840
0.249367
0.232027
0.201474
0.156881
0.121653
0.073543
0.025482
-0.019422
-0.025126
-0.048181
-0.038274
-0.015070
-0.010813
0.039013
0.091398
0.126290
0.177419
0.207700
0.211040
0.216289
0.216418
0.211229
0.167425
0.103167
0.060037
0.024281
-0.016549
-0.055340
-0.070279
-0.080485
-0.085828
-0.074511
-0.038457
0.011382
0.051718
0.087832
0.117369
0.144243
0.156408
0.186889
0.160576
0.131065
0.098723
0.060179
0.017279
-0.021046
-0.064326
-0.064929
-0.120536
-0.147882
-0.118609
-0.094476
-0.058770
-0.014372
0.006281
0.075246
0.103883
0.107162
0.124575
0.175609
0.146107
0.121419
0.084516
0.023222
-0.025208
-0.041658
-0.048330
-0.075809
-0.107526
-0.129719
-0.115099
-0.104232
-0.072610
-0.044163
0.008743
0.051666
0.083576
0.117473
0.144666
0.158730
0.159068
0.154376
0.098606
0.046828
-0.006074
-0.053986
-0.069305
-0.115329
-0.129938
-0.139963
-0.125467
-0.108194
-0.118968
-0.062332
0.014524
0.072514
0.110071
0.127939
0.147322
0.169037
0.157161
0.138824
0.108329
0.058062
0.012014
-0.031219
-0.063234
-0.093052
-0.132461
-0.146497
-0.124338
-0.114555
-0.082181
-0.058675
-0.002746
0.049158
0.099586
0.122037
0.120442
0.135335
0.137328
0.122437
0.098204
0.064754
0.033111
-0.021995
-0.054779
-0.100120
-0.140063
-0.115429
-0.105064
-0.091629
-0.051321
-0.028889
0.014663
0.084578
0.132723
0.143755
0.156265
0.172299
0.161996
0.131208
0.078372
0.056978
0.028872
-0.038434
-0.085594
-0.089641
-0.092950
-0.136392
-0.146782
-0.127006
-0.069704
-0.030477
0.030194
0.084651
0.120087
0.147963
0.175206
0.180610
0.155182
0.132766
0.110006
0.061103
-0.015846
-0.012749
-0.042717
-0.082633
-0.116827
-0.143232
-0.133535
-0.128692
-0.098109
-0.017671
0.015044
0.048283
0.092776
0.107094
0.137227
0.159748
0.144872
0.127084
0.113663
0.068840
0.015039
-0.028236
-0.063804
-0.090889
-0.096669
-0.125695
-0.125468
-0.116823
-0.097175
-0.029272
0.025125
0.077772
0.133946
0.149112
0.146959
0.159471
0.150315
0.128233
0.091444
0.047768
-0.000765
-0.043690
-0.068881
-0.119864
-0.138862
-0.146797
-0.126792
-0.091544
-0.073404
-0.059059
-0.025832
0.030846
0.063682
0.142052
0.169237
0.180864
0.142964
0.112223
0.082025
0.055892
0.002088
-0.050179
-0.094873
-0.126600
-0.160072
-0.141247
-0.114632
-0.108922
-0.089247
-0.050171
-0.017135
0.037181
0.053989
0.124816
0.158996
0.141711
0.132965
0.110469
0.068696
0.022278
-0.012347
-0.049401
-0.081215
-0.152312
-0.171108
-0.181994
-0.190362
-0.117685
-0.057093
-0.017382
0.013895
0.039795
0.091373
0.122539
0.140443
0.146976
0.147495
0.121208
0.075990
0.054135
-0.018342
-0.058012
-0.085908
-0.148940
-0.169719
-0.170200
-0.155082
-0.147233
-0.112713
-0.064735
-0.017112
0.022750
0.060146
0.098479
0.132994
0.137632
0.128916
0.138494
0.093291
0.032013
-0.002565
-0.036953
-0.079633
-0.134057
-0.156573
-0.163196
-0.163377
-0.153836
-0.125549
-0.093376
-0.051486
0.022743
0.077976
0.113771
0.122127
0.126930
0.121776
0.107364
0.074548
0.039792
-0.002995
-0.042038
-0.091275
-0.150624
-0.180239
-0.188746
-0.177866
-0.143811
-0.117884
-0.046823
-0.000252
0.026659
0.064671
0.099641
0.098491
0.081314
0.107834
0.108990
0.063642
0.026824
-0.019594
-0.056114
-0.077707
-0.112178
-0.148456
-0.155414
-0.166727
-0.150117
-0.110204
-0.051221
-0.004239
0.030950
0.065377
0.096782
0.130109
0.136271
0.116697
0.109363
0.070235
0.019735
-0.030957
-0.076057
-0.111426
-0.158576
-0.176668
-0.140068
-0.146152
-0.142970
-0.117845
-0.072086
-0.000636
0.055142
0.077397
0.124014
0.158500
0.155247
0.141037
0.132923
0.114941
0.056731
-0.001092
-0.052681
-0.089677
-0.115534
-0.140687
-0.150377
-0.158734
-0.121698
-0.050235
-0.017904
0.019439
0.048376
0.077624
0.078734
0.108946
0.119564
0.133686
0.120034
0.107741
0.077235
-0.001199
-0.050898
-0.074131
-0.091097
-0.104845
-0.113176
-0.105988
-0.108792
-0.045497
0.006828
0.056684
0.069309
0.090350
0.125639
0.156271
0.182357
0.157062
0.109682
0.074509
0.060228
0.017858
-0.058123
-0.089372
-0.107131
-0.124206
-0.136560
-0.144760
-0.129062
-0.106730
-0.080420
-0.016108
0.044384
0.060393
0.056458
0.094845
0.111738
0.095576
0.071238
0.065650
0.011288
-0.019555
-0.070746
-0.111577
-0.142002
-0.171762
-0.186690
-0.175984
-0.159735
-0.142573
-0.099107
-0.065851
-0.016636
0.025896
0.050441
0.069320
0.063598
0.065322
0.056580
0.025847
-0.017943
-0.062757
-0.095426
-0.136037
-0.168490
-0.199568
-0.212067
-0.214654
-0.196169
-0.155851
-0.128183
-0.061436
-0.005971
0.002765
0.022769
0.040591
0.082580
0.081469
0.047725
0.007922
-0.026350
-0.064660
-0.114756
-0.134967
-0.161268
-0.185646
-0.209645
-0.195745
-0.173911
-0.144816
-0.118422
-0.076072
-0.037226
0.013007
0.030102
0.047695
0.097442
0.063359
0.042129
0.012091
-0.022767
-0.073279
-0.097717
-0.115670
-0.172528
-0.201782
-0.206442
-0.219847
-0.188630
-0.152676
-0.108328
-0.052391
-0.019856
0.016623
0.034955
0.047142
0.053974
0.042207
0.036038
-0.002616
-0.048161
-0.083518
-0.130530
-0.157347
-0.173167
-0.194797
-0.183339
-0.171203
-0.126459
-0.076154
-0.030835
0.024234
0.066612
0.136416
0.181174
0.218836
0.243691
0.286890
0.269050
0.249531
0.259356
0.291157
0.275806
0.264107
0.245530
0.244957
0.272121
0.313101
0.363295
0.427400
0.517869
0.609492
0.724624
0.814304
0.859536
0.898507
0.909480
0.868517
0.850853
0.872030
0.824806
0.726719
0.669382
0.601387
0.503393
0.391549
0.297573
0.243617
0.222697
0.203788
0.180498
0.164533
0.183937
0.201738
0.232235
0.244448
0.234656
0.226011
0.196081
0.149468
0.084382
0.041732
-0.001453
-0.058956
-0.096618
-0.120895
-0.126570
-0.133825
-0.125357
-0.097854
-0.045966
-0.014391
0.038887
0.076415
0.109053
0.124485
0.123004
0.113892
0.092727
0.067978
0.014604
-0.019232
-0.082401
-0.111822
-0.158120
-0.187992
-0.184243
-0.182200
-0.158843
-0.111893
-0.091207
-0.064453
-0.034443
0.033439
0.060628
0.085746
0.082389
0.079925
0.068080
0.033351
-0.010759
-0.056014
-0.097352
-0.124950
-0.156901
-0.174088
-0.194095
-0.193719
-0.183312
-0.141934
-0.090682
-0.045876
-0.005687
0.029939
0.045992
0.082828
0.084360
0.079859
0.070978
0.049985
0.000730
-0.036864
-0.093308
-0.145294
-0.179088
-0.190977
-0.174690
-0.196887
-0.192451
-0.155737
-0.104137
-0.066564
0.012001
0.059479
0.089064
0.107617
0.128358
0.109087
0.075654
0.047199
0.013743
-0.024638
-0.077828
-0.125702
-0.146206
-0.174551
-0.172299
-0.179957
-0.165403
-0.137057
-0.097525
-0.031248
0.008333
0.051575
0.084948
0.132724
0.127132
0.102363
0.077299
0.076877
0.061684
0.011192
-0.037634
-0.090827
-0.141492
-0.188464
-0.182291
-0.151358
-0.125464
-0.087031
-0.039492
0.012530
0.077011
0.106832
0.142918
0.140878
0.147842
0.142124
0.133373
0.103213
0.059300
0.023328
-0.028253
-0.079782
-0.087569
-0.114840
-0.131993
-0.121937
-0.097443
-0.052011
-0.008387
0.031842
0.072377
0.110818
0.146991
0.173529
0.166674
0.141864
0.151454
0.123089
0.088265
0.039872
-0.014326
-0.057551
-0.088924
-0.119052
-0.126945
-0.090486
-0.088719
-0.059534
-0.021375
0.040064
0.075422
0.117796
0.170122
0.183215
0.164013
0.151639
0.131525
0.114656
0.067203
0.025357
-0.028389
-0.070164
-0.099693
-0.111626
-0.116323
-0.116088
-0.096586
-0.053002
-0.026216
0.025972
0.035949
0.070174
0.142437
0.143809
0.137816
0.145954
0.115396
0.089914
0.056943
0.018452
-0.059316
-0.108305
-0.140702
-0.165974
-0.146347
-0.133233
-0.120748
-0.100056
-0.054197
-0.010339
0.025857
0.066051
0.090836
0.112607
0.103980
0.099378
0.077648
0.046472
-0.010507
-0.066691
-0.110248
-0.152106
-0.194481
-0.204160
-0.213568
-0.223592
-0.195253
-0.153217
-0.047962
-0.039634
-0.020830
0.010787
0.029104
0.029706
0.046251
0.043483
0.023921
0.020389
-0.012763
-0.079317
-0.137847
-0.194613
-0.220951
-0.249040
-0.264593
-0.232669
-0.215197
-0.170408
-0.135876
-0.099028
-0.042222
-0.008256
-0.017689
0.017096
0.029777
0.013663
-0.007062
-0.026833
-0.070210
-0.135832
-0.174806
-0.199693
-0.214211
-0.242860
-0.253282
-0.257240
-0.249381
-0.210706
-0.166176
-0.113112
-0.062466
-0.025484
0.010122
0.018080
0.025041
0.014949
-0.000036
-0.045081
-0.092191
-0.132509
-0.163607
-0.209655
-0.243206
-0.267963
-0.249710
-0.247509
-0.232127
-0.194129
-0.162061
-0.111623
-0.060180
-0.059464
-0.042707
-0.000001
0.052083
0.035480
-0.004210
-0.041615
-0.084263
-0.136375
-0.170778
-0.171553
-0.211363
-0.254865
-0.244284
-0.243973
-0.245865
-0.198235
-0.145664
-0.104840
-0.078205
-0.019293
0.005017
0.002240
0.009462
0.006427
-0.016348
-0.046742
-0.097798
-0.121442
-0.148067
-0.171372
-0.217213
-0.244444
-0.269277
-0.265030
-0.245596
-0.195268
-0.151442
-0.101741
-0.071158
-0.028880
0.000782
0.027008
0.040360
0.015728
0.003188
-0.028142
-0.066835
-0.123526
-0.155585
-0.198505
-0.222512
-0.275290
-0.282570
-0.256866
-0.230497
-0.193592
-0.153575
-0.149648
-0.091901
-0.074829
-0.001882
0.019941
0.041343
0.037590
0.011701
-0.052735
-0.087688
-0.120700
-0.160275
-0.197753
-0.213111
-0.228620
-0.264234
-0.280648
-0.237894
-0.188932
-0.160724
-0.135002
-0.113260
-0.062320
-0.027578
-0.023659
-0.003375
0.058918
0.005587
-0.019930
-0.074387
-0.131393
-0.174856
-0.222691
-0.263758
-0.277809
-0.283142
-0.282735
-0.268254
-0.222056
-0.189082
-0.137996
-0.090294
-0.061536
-0.029126
-0.013999
0.000819
-0.009037
-0.034739
-0.059609
-0.114590
-0.147935
-0.190919
-0.218213
-0.257176
-0.298158
-0.297446
-0.281402
-0.255502
-0.228798
-0.190724
-0.148258
-0.105765
-0.052788
-0.032898
-0.019628
-0.003512
-0.011178
-0.020617
-0.052557
-0.107187
-0.162335
-0.203904
-0.242532
-0.261836
-0.286671
-0.306615
-0.299992
-0.284205
-0.285341
-0.187655
-0.131380
-0.127211
-0.092214
-0.047678
-0.033083
-0.008031
-0.011294
-0.026331
-0.072485
-0.101957
-0.157581
-0.190367
-0.224843
-0.266232
-0.311829
-0.329265
-0.313741
-0.296064
-0.255990
-0.204223
-0.147991
-0.115748
-0.082293
-0.047606
-0.026821
-0.022522
-0.037934
-0.056834
-0.075268
-0.116411
-0.170123
-0.214660
-0.233296
-0.262353
-0.290651
-0.318842
-0.339942
-0.286171
-0.265226
-0.230061
-0.191688
-0.135451
-0.086766
-0.046591
-0.029261
-0.024309
-0.053751
-0.066874
-0.084631
-0.122719
-0.173966
-0.217427
-0.256755
-0.298664
-0.312102
-0.312150
-0.295047
-0.296471
-0.268425
-0.209948
-0.171699
-0.122586
-0.081467
-0.046326
-0.043495
-0.040911
-0.044163
-0.043271
-0.079708
-0.139618
-0.184234
-0.209829
-0.255160
-0.285079
-0.309929
-0.328303
-0.322709
-0.324625
-0.255389
-0.225753
-0.165752
-0.129564
-0.078996
-0.054138
-0.044130
-0.048748
-0.061590
-0.079001
-0.102878
-0.117915
-0.152560
-0.214010
-0.285935
-0.320697
-0.336196
-0.337758
-0.283020
-0.271209
-0.249579
-0.196952
-0.155905
-0.110550
-0.073611
-0.046965
-0.019341
-0.018100
-0.037132
-0.066878
-0.067145
-0.094647
-0.128158
-0.172400
-0.216117
-0.239055
-0.273948
-0.278654
-0.292473
-0.241591
-0.227492
-0.200335
-0.137360
-0.106273
-0.063091
-0.019294
-0.015935
0.006648
-0.004198
0.005521
-0.051937
-0.104819
-0.146111
-0.185171
-0.230953
-0.250284
-0.265536
-0.274159
-0.267545
-0.253033
-0.220974
-0.151526
-0.085516
-0.072455
-0.048809
-0.004848
0.016621
0.014191
0.004300
-0.010299
-0.041630
-0.089641
-0.148325
-0.187211
-0.218812
-0.248332
-0.274608
-0.290914
-0.288764
-0.269020
-0.254270
-0.217661
-0.160670
-0.114998
-0.075108
-0.044227
-0.037225
-0.041965
-0.048242
-0.059380
-0.090585
-0.118760
-0.161321
-0.216054
-0.256318
-0.295929
-0.317062
-0.328001
-0.313652
-0.297036
-0.268951
-0.222269
-0.168545
-0.141892
-0.119551
-0.061871
-0.050426
-0.053807
-0.064214
-0.066852
-0.097777
-0.138975
-0.206757
-0.276165
-0.316906
-0.339784
-0.363059
-0.337143
-0.330982
-0.337065
-0.328614
-0.289064
-0.198833
-0.134745
-0.116817
-0.061775
-0.058390
-0.057244
-0.039000
-0.068587
-0.124609
-0.172123
-0.201197
-0.229176
-0.263288
-0.304735
-0.328386
-0.343903
-0.351995
-0.325931
-0.270509
-0.223826
-0.189163
-0.142894
-0.113664
-0.093501
-0.081384
-0.051127
-0.059517
-0.073279
-0.108380
-0.143468
-0.200607
-0.261106
-0.292489
-0.322200
-0.327737
-0.346619
-0.343444
-0.321758
-0.296806
-0.265757
-0.217681
-0.157849
-0.122426
-0.091732
-0.079074
-0.068723
-0.054883
-0.076182
-0.119444
-0.150725
-0.202196
-0.247567
-0.298317
-0.311448
-0.341427
-0.356977
-0.333875
-0.318258
-0.294709
-0.246176
-0.169269
-0.109758
-0.093125
-0.032996
0.004726
0.031109
0.053867
0.039071
-0.005383
0.021595
0.030864
-0.008683
-0.082081
-0.086200
-0.057156
-0.029504
-0.009834
0.073739
0.162800
0.239479
0.314892
0.409618
0.488039
0.532375
0.609001
0.662893
0.701001
0.701406
0.704398
0.690268
0.683391
0.640641
0.613311
0.571166
0.540487
0.520647
0.512214
0.510704
0.511017
0.495829
0.466969
0.448504
0.439290
0.390841
0.332644
0.276588
0.217354
0.157013
0.103694
0.076808
0.032298
-0.021960
-0.086338
-0.128737
-0.134884
-0.167202
-0.172722
-0.157448
-0.153501
-0.134502
-0.082475
-0.008564
0.030033
0.045256
0.036798
0.064458
0.047953
0.017476
-0.031403
-0.067914
-0.123341
-0.172882
-0.211180
-0.227196
-0.247338
-0.256116
-0.245373
-0.215054
-0.193801
-0.158223
-0.130997
-0.090215
-0.051620
-0.010783
-0.022971
-0.022145
0.002852
-0.014312
-0.048056
-0.088131
-0.130023
-0.175893
-0.220870
-0.254253
-0.265871
-0.281760
-0.284437
-0.266909
-0.215418
-0.169980
-0.122559
-0.093281
-0.055495
-0.010157
-0.003189
-0.002367
-0.011346
-0.031323
-0.052041
-0.105044
-0.164993
-0.202474
-0.202402
-0.248877
-0.285915
-0.277092
-0.265106
-0.242964
-0.216604
-0.177396
-0.132629
-0.102582
-0.057429
-0.015043
0.019307
0.033873
0.032976
0.009941
-0.022778
-0.048713
-0.087403
-0.131343
-0.192165
-0.225336
-0.221788
-0.236583
-0.229886
-0.208186
-0.186140
-0.149925
-0.107901
-0.048032
-0.022702
0.001568
0.017650
0.034864
0.040512
0.022426
-0.016145
-0.044759
-0.081502
-0.133145
-0.168950
-0.184459
-0.191164
-0.206773
-0.204247
-0.176642
-0.145379
-0.102757
-0.043197
0.006445
0.035298
0.072251
0.086882
0.116290
0.114590
0.102359
0.067396
0.001139
-0.066566
-0.080701
-0.101361
-0.132838
-0.153434
-0.172573
-0.172104
-0.147014
-0.111010
-0.071277
-0.024595
0.033122
0.057246
0.096256
0.115252
0.119593
0.124512
0.089343
0.085476
0.074633
0.011465
-0.043210
-0.075898
-0.114052
-0.133472
-0.148789
-0.145628
-0.129699
-0.088482
-0.028759
0.009435
0.059260
0.092839
0.129104
0.140072
0.142484
0.133440
0.108250
0.073961
0.051971
0.020789
-0.041629
-0.087942
-0.118295
-0.147640
-0.155702
-0.148751
-0.117823
-0.083244
-0.037388
-0.023723
0.023686
0.082208
0.121561
0.145599
0.136412
0.137531
0.140108
0.105568
0.050345
-0.013854
-0.055501
-0.074400
-0.138624
-0.144548
-0.144579
-0.128803
-0.123420
-0.105339
-0.078618
-0.037866
-0.002957
0.026159
0.067762
0.107349
0.119984
0.107802
0.086614
0.044339
-0.016505
-0.016792
-0.068691
-0.121214
-0.173224
-0.195525
-0.212714
-0.209028
-0.179635
-0.147255
-0.107111
-0.086711
0.000998
0.038574
0.071561
0.059376
0.052736
0.063115
0.044391
0.016903
-0.032914
-0.073235
-0.122560
-0.161623
-0.190873
-0.216052
-0.220208
-0.227609
-0.200126
-0.186537
-0.144525
-0.118794
-0.068350
-0.019243
0.027190
0.030826
0.049612
0.055709
0.017914
-0.020057
-0.042425
-0.098465
-0.160952
-0.203481
-0.228925
-0.238092
-0.257636
-0.241947
-0.201122
-0.162334
-0.112934
-0.089592
-0.059116
-0.013038
0.027767
0.037035
0.050036
0.060589
0.029806
-0.010103
-0.063161
-0.112956
-0.141980
-0.173632
-0.209706
-0.229983
-0.253682
-0.244153
-0.199908
-0.188866
-0.110815
-0.061285
-0.043925
-0.009344
0.031968
0.048486
0.045797
0.030129
0.011460
-0.012648
-0.048805
-0.088329
-0.145920
-0.178144
-0.200514
-0.217835
-0.253179
-0.231196
-0.215090
-0.176017
-0.120982
-0.087018
-0.053209
-0.013419
0.013170
0.038353
0.081203
0.087665
0.071826
0.030716
-0.010318
-0.072710
-0.120346
-0.167591
-0.205479
-0.195265
-0.177855
-0.195452
-0.199766
-0.174472
-0.140093
-0.050365
0.011915
0.039806
0.060782
0.065543
0.075262
0.069526
0.041405
0.007499
-0.024500
-0.056339
-0.087109
-0.135357
-0.183474
-0.193187
-0.198138
-0.192714
-0.172014
-0.142344
-0.129674
-0.064222
-0.003288
0.024651
0.060055
0.083762
0.101949
0.090529
0.059117
0.025127
-0.018308
-0.055078
-0.091273
-0.140823
-0.205192
-0.220093
-0.218554
-0.209057
-0.180556
-0.158393
-0.133168
-0.086882
-0.036374
0.007897
0.052548
0.107298
0.133668
0.090787
0.059995
0.024423
-0.020171
-0.053048
-0.089038
-0.142646
-0.176564
-0.192974
-0.200921
-0.194832
-0.185433
-0.150313
-0.105528
-0.056396
-0.014855
0.017898
0.050678
0.089695
0.099921
0.096659
0.059958
0.033473
-0.000383
-0.069868
-0.086105
-0.158140
-0.173339
-0.191635
-0.207263
-0.174454
-0.173009
-0.146618
-0.083435
-0.023541
0.008106
0.046072
0.069386
0.086542
0.087861
0.086169
0.075250
0.037091
-0.030803
-0.066059
-0.102415
-0.149722
-0.187010
-0.205292
-0.218173
-0.216497
-0.171967
-0.110805
-0.067329
-0.048642
-0.012140
0.028430
0.064988
0.092078
0.102726
0.111310
0.073133
0.029940
-0.015108
-0.061257
-0.109906
-0.159983
-0.191573
-0.210941
-0.213957
-0.217453
-0.196880
-0.138234
-0.095456
-0.045198
0.005430
0.050725
0.068886
0.080320
0.093730
0.081984
0.080476
0.043578
-0.008656
-0.056991
-0.079477
-0.125774
-0.170921
-0.197974
-0.187215
-0.193054
-0.167504
-0.125480
-0.081496
-0.049120
-0.016136
0.014581
0.045634
0.070526
0.084840
0.097410
0.086120
0.032003
-0.012273
-0.048119
-0.095416
-0.147562
-0.169646
-0.174076
-0.194315
-0.192490
-0.164263
-0.131613
-0.103095
-0.061346
0.008587
0.046532
0.044695
0.092953
0.089009
0.087201
0.072087
0.030735
-0.015109
-0.065295
-0.105013
-0.134276
-0.151045
-0.163963
-0.183807
-0.175452
-0.150902
-0.112699
-0.075942
-0.017992
0.027167
0.051244
0.085790
0.117981
0.121707
0.121171
0.098245
0.068099
0.030961
-0.005022
-0.044438
-0.095085
-0.121891
-0.146442
-0.146565
-0.142382
-0.122022
-0.093724
-0.027105
0.026594
0.064387
0.088605
0.123168
0.151157
0.157768
0.140775
0.110173
0.070169
0.031168
-0.010862
-0.036183
-0.088192
-0.142618
-0.147859
-0.118429
-0.124208
-0.082197
-0.046446
-0.010507
0.024287
0.071591
0.133208
0.159981
0.170905
0.154758
0.139031
0.132808
0.150900
0.112208
0.039723
-0.035870
-0.083909
-0.110589
-0.132694
-0.153976
-0.146021
-0.112325
-0.083079
-0.052408
-0.003094
0.044413
0.087004
0.123330
0.142000
0.145060
0.141138
0.113228
0.071118
0.013004
-0.027166
-0.076925
-0.121436
-0.158686
-0.163685
-0.163661
-0.165881
-0.147710
-0.110946
-0.060239
-0.015003
0.036763
0.063509
0.076235
0.100466
0.108662
0.095831
0.073618
0.053540
0.015819
-0.025278
-0.073564
-0.120798
-0.146059
-0.166676
-0.178914
-0.187537
-0.173385
-0.143200
-0.108649
-0.048034
0.004854
0.065577
0.088681
0.089876
0.088051
0.098835
0.069670
0.036950
-0.009489
-0.028741
-0.108243
-0.135380
-0.152960
-0.188774
-0.185668
-0.170694
-0.129611
-0.098506
-0.073386
-0.026880
0.010721
0.039649
0.072253
0.092046
0.097706
0.084637
0.061124
0.023835
-0.013700
-0.040954
-0.094681
-0.141299
-0.170876
-0.192184
-0.208718
-0.137962
-0.119974
-0.089545
-0.037633
-0.002239
0.021231
0.050457
0.086094
0.107858
0.099076
0.087883
0.074145
0.046143
0.004570
-0.050237
-0.104282
-0.146525
-0.175251
-0.181915
-0.183471
-0.182889
-0.162880
-0.128053
-0.078249
-0.026278
0.016127
0.060922
0.092868
0.137384
0.150501
0.155505
0.147211
0.126897
0.105883
0.069856
0.026235
0.000258
-0.013111
-0.008978
-0.006719
0.023490
0.079740
0.135840
0.219094
0.332499
0.426495
0.483654
0.536376
0.577980
0.600180
0.644564
0.679693
0.693509
0.710188
0.699181
0.678981
0.667701
0.674768
0.675958
0.678838
0.660387
0.684182
0.704773
0.699964
0.719190
0.770097
0.822951
0.823043
0.774768
0.698229
0.591601
0.506525
0.425931
0.354517
0.245092
0.184997
0.137078
0.063913
0.045496
0.030330
0.028306
0.051237
0.080933
0.102498
0.123859
0.131989
0.150561
0.187642
0.216175
0.216859
0.212766
0.206697
0.159336
0.122175
0.068499
0.020712
-0.026592
-0.058371
-0.085854
-0.081461
-0.083058
-0.067372
-0.026541
0.005294
0.042585
0.081092
0.126661
0.145070
0.156006
0.159858
0.158292
0.141140
0.105577
0.067423
0.033392
-0.018057
-0.065298
-0.103863
-0.113065
-0.126813
-0.120299
-0.090824
-0.032697
0.000368
0.027271
0.071808
0.109362
0.144129
0.162936
0.172530
0.181326
0.160305
0.108907
0.078400
0.047890
-0.006805
-0.050098
-0.092948
-0.087329
-0.099662
-0.090676
-0.047599
-0.015197
0.018364
0.056941
0.110204
0.142334
0.166081
0.177368
0.176653
0.172401
0.147502
0.141139
0.097720
0.062325
0.009060
-0.029065
-0.060830
-0.085965
-0.086966
-0.082953
-0.054544
-0.023213
0.012780
0.058655
0.122000
0.150094
0.169807
0.204976
0.228742
0.227329
0.204307
0.160422
0.126909
0.087829
0.045530
0.013575
-0.025749
-0.055774
-0.051042
-0.045481
-0.021743
0.012205
0.029428
0.072759
0.133451
0.178707
0.219443
0.251924
0.268382
0.265170
0.243606
0.194017
0.142058
0.107036
0.071441
0.047506
0.006519
-0.011886
-0.031118
-0.018023
0.021061
0.059945
0.094022
0.133913
0.183021
0.241135
0.276771
0.313151
0.297695
0.293782
0.274649
0.246491
0.196963
0.157501
0.120597
0.066561
0.040377
0.014295
0.004703
0.024200
0.048674
0.094654
0.156276
0.189183
0.205650
0.237998
0.272923
0.312207
0.323897
0.313579
0.285286
0.260999
0.238072
0.176203
0.127292
0.084968
0.055310
0.033999
0.022263
0.024253
0.048589
0.088165
0.110561
0.154105
0.192647
0.261531
0.289249
0.281903
0.307470
0.297859
0.307999
0.278826
0.219415
0.159030
0.098865
0.077577
0.041370
0.007284
-0.002327
0.001856
0.029603
0.064645
0.105966
0.138997
0.173052
0.195484
0.265480
0.293109
0.285734
0.269459
0.241016
0.198036
0.147562
0.099852
0.081819
0.058020
0.009172
-0.031658
-0.034804
-0.034053
-0.016534
0.023599
0.064734
0.111238
0.158181
0.200518
0.230687
0.248524
0.232052
0.221996
0.205658
0.155008
0.124613
0.080835
0.029730
-0.020306
-0.062085
-0.079028
-0.081525
-0.080107
-0.062442
-0.029069
0.003342
0.051867
0.103619
0.146766
0.193744
0.212304
0.206612
0.189658
0.156772
0.130616
0.101447
0.045323
0.005149
-0.038777
-0.077607
-0.089434
-0.097721
-0.075907
-0.061545
-0.036364
-0.001624
0.031746
0.071322
0.121166
0.165847
0.201620
0.203907
0.217652
0.187055
0.133010
0.092181
0.071967
0.014738
-0.031873
-0.094280
-0.112193
-0.112631
-0.098541
-0.075118
-0.036323
-0.000697
0.038206
0.079494
0.101583
0.133305
0.142492
0.139190
0.127805
0.126474
0.149667
0.136240
0.049140
0.010086
-0.012359
-0.030814
-0.055783
-0.079182
-0.070665
-0.053231
-0.025473
0.012693
0.062042
0.107614
0.142906
0.171667
0.202613
0.208744
0.198537
0.173425
0.139461
0.103188
0.066923
0.024751
-0.025637
-0.069175
-0.089111
-0.090943
-0.077823
-0.067383
-0.026073
0.030686
0.067794
0.118471
0.151412
0.170195
0.193392
0.196721
0.192949
0.166027
0.120708
0.078653
0.035012
0.010984
-0.026100
-0.070919
-0.073318
-0.080674
-0.072878
-0.023872
0.000355
0.028149
0.071699
0.125703
0.158813
0.180821
0.200760
0.206589
0.197581
0.179123
0.145051
0.105796
0.058154
0.007005
-0.032680
-0.061533
-0.080678
-0.088362
-0.080086
-0.063729
-0.033626
0.018640
0.060494
0.101819
0.143244
0.180785
0.198146
0.234760
0.206273
0.167656
0.135541
0.092768
0.060544
0.023368
-0.001600
-0.035838
-0.055590
-0.082782
-0.069567
-0.057903
-0.024742
0.014518
0.055237
0.093734
0.138539
0.176526
0.198654
0.187646
0.195213
0.167523
0.123074
0.075295
0.035756
0.000500
-0.031409
-0.073945
-0.104215
-0.112322
-0.097328
-0.066644
-0.026146
-0.003477
0.035265
0.070114
0.112710
0.169224
0.193977
0.195758
0.188495
0.155747
0.126591
0.091841
0.042522
-0.004086
-0.034005
-0.066064
-0.101727
-0.106576
-0.095670
-0.075696
-0.038459
0.001884
0.040066
0.088825
0.126643
0.169151
0.183577
0.180922
0.158027
0.147473
0.135539
0.090182
0.054717
-0.012887
-0.064116
-0.102535
-0.111949
-0.128096
-0.101980
-0.071931
-0.033171
0.003741
0.056122
0.105143
0.154893
0.182243
0.200013
0.184296
0.158167
0.133262
0.093723
0.051207
0.022923
-0.016108
-0.047297
-0.072896
-0.087934
-0.108953
-0.094483
-0.067812
-0.040636
-0.006139
0.035687
0.086088
0.135662
0.152119
0.159126
0.178153
0.155847
0.137584
0.110699
0.073237
0.036234
-0.016244
-0.060509
-0.090784
-0.112567
-0.122524
-0.112138
-0.089429
-0.053943
-0.004057
0.021186
0.065421
0.111682
0.143964
0.160443
0.168246
0.151983
0.136845
0.101847
0.055125
0.006943
-0.014965
-0.065576
-0.078249
-0.121965
-0.134134
-0.132006
-0.097161
-0.042277
0.000189
0.024833
0.069845
0.119683
0.153854
0.179924
0.185013
0.183051
0.147724
0.123308
0.083100
0.034774
-0.005089
-0.040382
-0.076359
-0.106437
-0.100849
-0.091346
-0.041223
-0.009168
0.020606
0.066095
0.121061
0.170437
0.188865
0.180279
0.221679
0.206268
0.189439
0.145105
0.093594
0.048214
0.000665
-0.023226
-0.053111
-0.062497
-0.084494
-0.096486
-0.064808
-0.027247
0.019232
0.064259
0.117830
0.167312
0.223611
0.242591
0.223208
0.210806
0.207573
0.181696
0.125353
0.067236
0.035667
-0.009592
-0.031360
-0.068801
-0.090594
-0.072432
-0.055516
-0.035020
0.012910
0.033759
0.064903
0.107684
0.146822
0.174534
0.172604
0.168139
0.151809
0.118502
0.045343
-0.006335
-0.041255
-0.075182
-0.112937
-0.113665
-0.131330
-0.121300
-0.094042
-0.051404
-0.012266
0.027906
0.071029
0.114970
0.130784
0.136179
0.136236
0.141665
0.117391
0.074668
0.028949
-0.013921
-0.050115
-0.087810
-0.119159
-0.152149
-0.186187
-0.149750
-0.115796
-0.089453
-0.058218
0.014273
0.072405
0.101461
0.110045
0.138854
0.145739
0.132655
0.109655
0.062286
0.026621
-0.027665
-0.076274
-0.117449
-0.148741
-0.168499
-0.173686
-0.159571
-0.129951
-0.098607
-0.054253
-0.015236
0.031641
0.067410
0.099628
0.132386
0.148841
0.123433
0.083127
0.053058
0.004125
-0.032382
-0.092276
-0.114505
-0.155842
-0.170401
-0.165161
-0.155019
-0.131540
-0.110501
-0.064023
-0.023060
0.021170
0.081789
0.122237
0.115209
0.125763
0.113586
0.097842
0.041528
-0.007830
-0.044315
-0.095968
-0.128707
-0.145020
-0.161154
-0.160997
-0.158526
-0.136993
-0.106445
-0.066918
-0.018369
0.020420
0.068867
0.102614
0.120955
0.141862
0.163682
0.163100
0.159545
0.113439
0.071050
0.050478
0.018318
-0.003489
-0.007553
-0.011947
0.015272
0.060131
0.130020
0.202896
0.278240
0.383650
0.435079
0.480958
0.532453
0.565829
0.584089
0.582950
0.584279
0.586649
0.576930
0.553582
0.549087
0.549365
0.565070
0.568532
0.580530
0.601445
0.635235
0.662940
0.678452
0.719106
0.732602
0.736594
0.672866
0.609347
0.528342
0.457040
0.381091
0.317426
0.237932
0.129721
0.046584
-0.002321
-0.039288
-0.059899
-0.060395
-0.054380
-0.019607
0.026745
0.061698
0.096406
0.138289
0.180990
0.202800
0.202002
0.190485
0.169767
0.139696
0.090574
0.043711
-0.009462
-0.058753
-0.108444
-0.129828
-0.135626
-0.124488
-0.092764
-0.045330
-0.011934
0.018967
0.070036
0.090420
0.173706
0.174868
0.172593
0.177542
0.159240
0.112255
0.057785
0.020901
-0.017313
-0.070472
-0.114953
-0.139693
-0.145220
-0.134458
-0.111847
-0.076629
-0.025281
0.021194
0.064504
0.097308
0.125957
0.142186
0.156854
0.153767
0.114833
0.088349
0.066659
0.023119
-0.037886
-0.090977
-0.106016
-0.124707
-0.132156
-0.128805
-0.108173
-0.081768
-0.039942
0.015510
0.071793
0.110085
0.150162
0.170701
0.166386
0.158936
0.128341
0.107153
0.052286
0.015015
-0.015913
-0.052442
-0.072372
-0.102777
-0.100580
-0.084992
-0.066910
-0.064264
-0.030910
0.042703
0.089795
0.126854
0.143896
0.183553
0.201032
0.174424
0.145821
0.115077
0.057776
0.006595
-0.010583
-0.025252
-0.055887
-0.085584
-0.080027
-0.065937
-0.029941
-0.002004
0.038915
0.074692
0.113789
0.159045
0.188880
0.221353
0.220017
0.199766
0.179582
0.161773
0.133541
0.091689
0.042433
-0.003136
-0.033167
-0.050070
-0.055685
-0.045584
-0.012212
0.018684
0.059734
0.103493
0.135980
0.184526
0.225806
0.245598
0.250360
0.249966
0.226774
0.201017
0.151942
0.105785
0.058870
0.007975
0.003200
-0.024735
-0.033690
-0.021893
0.013812
0.056317
0.094422
0.119773
0.168777
0.217024
0.253024
0.273784
0.279385
0.263536
0.235911
0.198001
0.163662
0.117555
0.065124
0.040921
0.008498
-0.011688
-0.034567
-0.030079
-0.018777
0.029465
0.075647
0.120116
0.166757
0.214250
0.242308
0.256885
0.263250
0.251243
0.215036
0.191642
0.151216
0.100042
0.070773
0.046551
-0.001368
-0.067083
-0.066664
-0.037311
-0.016516
0.020233
0.053327
0.095646
0.138863
0.176006
0.218540
0.228777
0.234572
0.233803
0.206206
0.174078
0.128692
0.073413
0.024805
-0.026165
-0.065806
-0.084313
-0.094946
-0.085887
-0.056672
-0.029799
0.006061
0.044845
0.085552
0.107472
0.144156
0.159043
0.151845
0.153805
0.122096
0.121936
0.090054
0.038766
-0.029610
-0.072778
-0.101322
-0.127090
-0.144853
-0.140540
-0.108626
-0.072439
-0.038572
0.002238
0.042043
0.082837
0.115826
0.141200
0.142053
0.134628
0.106339
0.070711
0.022224
-0.028352
-0.066016
-0.103894
-0.141741
-0.154936
-0.167228
-0.158899
-0.138340
-0.110592
-0.064655
-0.017580
0.023196
0.060972
0.084260
0.097093
0.104874
0.113442
0.084262
0.054860
0.005717
-0.035084
-0.086941
-0.120583
-0.149682
-0.166179
-0.191324
-0.168364
-0.153248
-0.152861
-0.096565
-0.033998
0.009345
0.065165
0.112062
0.116820
0.116455
0.111306
0.095829
0.062362
0.022906
-0.030489
-0.075312
-0.125804
-0.153482
-0.164965
-0.171990
-0.163437
-0.128441
-0.096161
-0.081093
-0.027380
0.037339
0.078906
0.084732
0.106891
0.122789
0.115464
0.088317
0.063511
0.025307
-0.029446
-0.083315
-0.118795
-0.155107
-0.188896
-0.194767
-0.168227
-0.134613
-0.101879
-0.068935
-0.030283
0.015637
0.061124
0.116400
0.126002
0.130096
0.123700
0.088942
0.052016
0.021542
-0.020551
-0.064175
-0.098826
-0.135839
-0.167481
-0.189554
-0.179894
-0.133701
-0.100833
-0.069154
-0.021556
0.023470
0.069088
0.102624
0.125612
0.126686
0.125147
0.086325
0.049279
0.006114
-0.012182
-0.067340
-0.123352
-0.153476
-0.169729
-0.175251
-0.176926
-0.146689
-0.118794
-0.085463
-0.036502
0.021486
0.058198
0.091091
0.112688
0.120806
0.091594
0.082281
0.060231
0.018148
-0.028543
-0.083521
-0.123074
-0.165913
-0.193095
-0.179947
-0.167176
-0.141014
-0.106830
-0.060197
-0.016463
0.022714
0.054693
0.075481
0.093332
0.093159
0.092721
0.077466
0.044338
0.003950
-0.039164
-0.075441
-0.122943
-0.157649
-0.195387
-0.215511
-0.193919
-0.165336
-0.124665
-0.089402
-0.046156
0.009400
0.054087
0.095207
0.112777
0.120429
0.099191
0.061994
0.025321
-0.016324
-0.048750
-0.080418
-0.125424
-0.156251
-0.182906
-0.192214
-0.191595
-0.139651
-0.107342
-0.083003
-0.032474
-0.007233
0.024551
0.066422
0.101105
0.099980
0.086904
0.057572
0.030722
-0.018255
-0.057610
-0.095502
-0.135569
-0.166358
-0.181341
-0.200675
-0.209144
-0.184167
-0.147726
-0.108527
-0.051444
0.009966
0.053981
0.088618
0.094943
0.101812
0.097581
0.063748
0.021856
-0.024191
-0.064643
-0.098310
-0.135352
-0.169593
-0.190449
-0.195268
-0.175321
-0.143904
-0.102607
-0.056572
-0.011422
0.027175
0.069325
0.102498
0.116565
0.124763
0.120379
0.092384
0.051775
0.009246
-0.035727
-0.056700
-0.103806
-0.134738
-0.158316
-0.162166
-0.157378
-0.138391
-0.100819
-0.064475
-0.019162
0.024895
0.063444
0.096499
0.115190
0.123258
0.121484
0.086746
0.055880
0.018758
-0.027764
-0.061579
-0.098487
-0.130520
-0.153935
-0.151898
-0.142744
-0.121096
-0.078329
-0.037742
0.010025
0.051525
0.086183
0.117943
0.138620
0.140936
0.119821
0.092652
0.068879
0.019790
-0.027342
-0.078834
-0.106124
-0.140163
-0.155952
-0.173773
-0.181692
-0.140754
-0.120453
-0.078675
-0.051133
-0.012209
0.040629
0.074724
0.113511
0.120875
0.098447
0.069102
0.039156
-0.009211
-0.063120
-0.103116
-0.154496
-0.190689
-0.212574
-0.226067
-0.219522
-0.194804
-0.135597
-0.099627
-0.056026
-0.029500
-0.001451
0.036242
0.067093
0.082791
0.072260
0.053331
0.014934
-0.035512
-0.084766
-0.127455
-0.163678
-0.210338
-0.231119
-0.243283
-0.230721
-0.202149
-0.171603
-0.140146
-0.083763
-0.036128
-0.004547
0.023274
0.045407
0.034127
0.040704
0.016382
-0.017201
-0.053021
-0.091516
-0.125952
-0.168189
-0.204541
-0.228127
-0.240987
-0.223601
-0.191697
-0.160939
-0.126632
-0.070628
-0.035224
0.003094
0.031046
0.048363
0.056561
0.042557
0.026368
-0.012228
-0.063655
-0.111074
-0.144984
-0.191700
-0.215021
-0.242535
-0.244606
-0.233999
-0.214619
-0.176043
-0.140539
-0.095000
-0.041615
-0.001317
0.026068
0.038871
0.046914
0.037050
0.005983
-0.017317
-0.061150
-0.112277
-0.149586
-0.183908
-0.212530
-0.221385
-0.220265
-0.202157
-0.146750
-0.092635
-0.046018
0.023575
0.087272
0.128278
0.164706
0.191299
0.243892
0.243234
0.212283
0.189554
0.201720
0.208907
0.166324
0.150206
0.150005
0.147119
0.161167
0.215840
0.265019
0.349949
0.416125
0.476728
0.558401
0.642869
0.709933
0.767444
0.805766
0.804280
0.768071
0.746522
0.703116
0.629559
0.574831
0.509924
0.453401
0.380772
0.301278
0.248169
0.213781
0.197989
0.186148
0.194944
0.198004
0.208340
0.208013
0.222261
0.211759
0.178787
0.141788
0.088460
0.042103
0.003248
-0.048704
-0.098774
-0.128699
-0.148952
-0.159458
-0.148340
-0.136895
-0.103245
-0.055297
-0.007122
0.037138
0.067339
0.089937
0.108710
0.126085
0.118920
0.086532
0.053839
0.016076
-0.039916
-0.086242
-0.133625
-0.167631
-0.190845
-0.196156
-0.186286
-0.164690
-0.131753
-0.096056
-0.050792
0.003816
0.044303
0.073408
0.096483
0.102172
0.097394
0.078181
0.024927
-0.031412
-0.060162
-0.107795
-0.130969
-0.156676
-0.185555
-0.197148
-0.188136
-0.165275
-0.130447
-0.086711
-0.039331
-0.006411
0.041503
0.065312
0.094235
0.110948
0.076589
0.050399
0.027884
-0.011619
-0.048016
-0.086972
-0.141282
-0.187713
-0.200533
-0.187460
-0.158959
-0.120751
-0.097141
-0.072819
-0.027850
0.028146
0.067578
0.114543
0.132908
0.127911
0.130423
0.099360
0.050317
0.011562
-0.023756
-0.063313
-0.093032
-0.125157
-0.161259
-0.162240
-0.151590
-0.134935
-0.095499
-0.059064
-0.009804
0.044073
0.096740
0.133170
0.159730
0.160753
0.141228
0.125507
0.085260
0.046134
-0.007582
-0.051523
-0.096879
-0.100734
-0.126392
-0.137672
-0.126849
-0.097212
-0.058300
-0.023559
0.022813
0.084133
0.130254
0.164854
0.193233
0.192569
0.181805
0.160272
0.118158
0.089112
0.045906
0.009677
-0.039049
-0.074635
-0.099546
-0.105526
-0.100218
-0.076409
-0.034592
0.006641
0.044018
0.086199
0.138830
0.177192
0.211451
0.226655
0.217323
0.204857
0.161953
0.119972
0.071545
0.024663
-0.022918
-0.053610
-0.079199
-0.082011
-0.073627
-0.050439
-0.017835
0.019332
0.074094
0.124000
0.163126
0.198755
0.212083
0.211332
0.193238
0.186135
0.148730
0.107954
0.063739
0.009388
-0.036630
-0.069553
-0.092877
-0.090547
-0.076492
-0.055458
-0.015583
0.010606
0.039523
0.124151
0.150728
0.170448
0.189062
0.204741
0.191457
0.164587
0.117691
0.072826
0.024914
-0.014792
-0.056762
-0.081950
-0.122094
-0.135850
-0.128156
-0.095042
-0.067548
-0.024915
0.018377
0.060857
0.091854
0.105344
0.152262
0.164700
0.150857
0.119159
0.065068
0.029842
-0.012123
-0.066765
-0.111818
-0.141247
-0.169935
-0.179120
-0.167089
-0.143400
-0.102080
-0.073806
-0.036874
0.022155
0.065180
0.099411
0.111562
0.114475
0.092271
0.064891
0.030685
-0.006129
-0.051801
-0.106809
-0.152163
-0.187216
-0.214722
-0.215226
-0.208904
-0.195083
-0.157058
-0.114944
-0.051138
0.000209
0.038393
0.065806
0.088092
0.091007
0.082109
0.048464
0.015993
-0.035225
-0.081411
-0.129045
-0.169856
-0.198585
-0.220915
-0.230754
-0.214643
-0.201664
-0.160178
-0.116446
-0.071110
-0.022603
0.015191
0.044689
0.072506
0.087522
0.078384
0.054942
0.011982
-0.036090
-0.095543
-0.150116
-0.168044
-0.203698
-0.223225
-0.228729
-0.217203
-0.199744
-0.149598
-0.113476
-0.056324
-0.014541
0.017805
0.053887
0.078816
0.089628
0.073246
0.053577
0.008673
-0.040636
-0.081398
-0.136397
-0.176061
-0.205242
-0.224058
-0.235199
-0.220701
-0.198148
-0.138319
-0.098369
-0.047507
-0.008521
0.019262
0.038688
0.066762
0.082856
0.067525
0.044844
0.006554
-0.044108
-0.081782
-0.132810
-0.172762
-0.199671
-0.212376
-0.214455
-0.193620
-0.174715
-0.131389
-0.096429
-0.045716
-0.004253
0.031107
0.068417
0.080836
0.081674
0.084914
0.059644
0.018653
-0.027740
-0.063588
-0.116146
-0.167209
-0.185163
-0.202554
-0.199754
-0.191259
-0.178134
-0.151405
-0.103608
-0.053638
-0.005932
0.033475
0.061056
0.075916
0.082449
0.064322
0.040785
-0.000201
-0.050170
-0.080700
-0.122813
-0.167311
-0.195149
-0.210989
-0.221491
-0.211878
-0.176562
-0.121651
-0.086673
-0.043224
-0.005755
0.019371
0.046049
0.064671
0.077454
0.083542
0.053473
0.010529
-0.031698
-0.086784
-0.140704
-0.167250
-0.197766
-0.232044
-0.236252
-0.224653
-0.207428
-0.171942
-0.125988
-0.061010
-0.014546
0.017122
0.055183
0.078361
0.084272
0.070429
