-0.024563
0.043433
0.098976
0.154489
0.205405
0.246294
0.266303
0.279063
0.274852
0.271427
0.261695
0.250150
0.249595
0.253363
0.260926
0.297006
0.357011
0.419091
0.499327
0.558737
0.636630
0.694373
0.719353
0.746013
0.772740
0.748544
0.718340
0.667250
0.616386
0.540983
0.426276
0.299161
0.190472
0.084926
0.015932
-0.055524
-0.088973
-0.099756
-0.054848
-0.029313
0.015152
0.053234
0.076546
0.086438
0.099730
0.089451
0.081017
0.037755
-0.020088
-0.063242
-0.102355
-0.141134
-0.186888
-0.228555
-0.257866
-0.259516
-0.259896
-0.247206
-0.215808
-0.182772
-0.126870
-0.084788
-0.045539
-0.019653
0.005230
0.014478
0.021563
-0.020161
-0.069668
-0.105252
-0.155234
-0.213698
-0.239238
-0.269697
-0.302445
-0.314841
-0.299409
-0.282987
-0.247703
-0.201346
-0.166302
-0.108320
-0.057539
-0.043785
-0.015150
-0.008142
0.005341
-0.039658
-0.089240
-0.116806
-0.163409
-0.219558
-0.260374
-0.279136
-0.297458
-0.309774
-0.302289
-0.272922
-0.230656
-0.185869
-0.147773
-0.110549
-0.061243
-0.032350
-0.014442
-0.008639
-0.016525
-0.033165
-0.058191
-0.101758
-0.139416
-0.178122
-0.218365
-0.255471
-0.284134
-0.290123
-0.273492
-0.267078
-0.219748
-0.166396
-0.126712
-0.082205
-0.028920
-0.005918
0.019263
0.027712
0.018020
-0.016400
-0.054128
-0.087373
-0.127247
-0.166223
-0.201388
-0.235706
-0.256268
-0.260828
-0.269497
-0.233521
-0.192921
-0.142709
-0.091430
-0.037875
0.001587
0.010642
0.036292
0.053139
0.042041
0.010958
-0.022770
-0.047715
-0.091184
-0.155788
-0.170276
-0.215940
-0.234802
-0.229768
-0.229830
-0.211249
-0.160351
-0.126000
-0.067927
-0.014052
0.029939
0.058319
0.062912
0.067403
0.073433
0.054377
0.025025
-0.014516
-0.050875
-0.089861
-0.152651
-0.181059
-0.193767
-0.176509
-0.158317
-0.142159
-0.113779
-0.073434
-0.027950
0.009032
0.041613
0.088196
0.100561
0.106675
0.101173
0.072713
0.046289
0.006980
-0.038845
-0.078560
-0.117670
-0.157335
-0.180259
-0.178715
-0.161752
-0.144026
-0.114666
-0.076560
-0.012902
0.029835
0.069232
0.093052
0.117020
0.118726
0.117166
0.098850
0.048602
-0.007602
-0.042976
-0.086504
-0.116504
-0.147460
-0.177852
-0.185948
-0.178404
-0.152863
-0.125928
-0.093448
-0.032539
0.038330
0.061194
0.088679
0.111601
0.111921
0.106186
0.067991
0.022077
-0.016398
-0.061355
-0.110392
-0.143337
-0.187793
-0.202876
-0.206481
-0.216171
-0.178728
-0.135407
-0.105285
-0.074536
-0.023536
0.006286
0.037258
0.050713
0.045852
0.056804
0.034532
-0.013669
-0.061298
-0.111095
-0.145491
-0.177403
-0.222276
-0.247003
-0.253655
-0.238722
-0.225140
-0.194421
-0.146164
-0.103521
-0.057846
-0.014018
0.008886
0.022957
0.022997
0.013415
0.004724
-0.025470
-0.074034
-0.130494
-0.176062
-0.216885
-0.257376
-0.287370
-0.276612
-0.262328
-0.244653
-0.216372
-0.182327
-0.129053
-0.078986
-0.046611
-0.013957
-0.000934
0.007081
0.001907
-0.016164
-0.053793
-0.087370
-0.133269
-0.179524
-0.232139
-0.248803
-0.265738
-0.270707
-0.267646
-0.253626
-0.220984
-0.172355
-0.130513
-0.081040
-0.047288
-0.011511
0.008762
0.020291
0.016727
-0.004898
-0.043572
-0.075000
-0.124865
-0.177783
-0.228222
-0.246875
-0.256795
-0.265896
-0.264548
-0.246852
-0.218057
-0.168093
-0.119789
-0.082040
-0.025701
0.007170
0.036037
0.024200
0.019002
-0.006542
-0.026188
-0.062360
-0.116653
-0.163643
-0.198558
-0.237022
-0.259253
-0.264406
-0.251754
-0.227442
-0.197849
-0.157986
-0.111978
-0.068258
-0.015258
-0.003348
0.032796
0.029866
0.012919
-0.004199
-0.032855
-0.065734
-0.110730
-0.141264
-0.188157
-0.232941
-0.236782
-0.243301
-0.248160
-0.228951
-0.203884
-0.166222
-0.121222
-0.057551
-0.015797
0.008934
0.034509
0.041960
0.045181
0.018126
-0.013195
-0.063186
-0.110515
-0.148804
-0.206552
-0.238608
-0.256277
-0.263613
-0.249956
-0.222787
-0.197351
-0.153727
-0.105590
-0.048686
-0.014565
0.017197
0.036576
0.031281
0.017392
-0.003052
-0.028020
-0.057669
-0.109970
-0.162883
-0.214582
-0.238901
-0.242280
-0.244121
-0.247123
-0.237425
-0.197757
-0.145796
-0.122602
-0.072909
-0.053496
-0.001191
0.021212
0.040239
0.032658
0.000978
-0.035212
-0.053994
-0.092568
-0.134705
-0.187104
-0.232712
-0.259139
-0.257554
-0.257076
-0.237626
-0.211967
-0.167323
-0.119024
-0.074486
-0.035006
-0.009269
0.019842
0.002238
0.003793
-0.008036
-0.045487
-0.087291
-0.120781
-0.161290
-0.204409
-0.230833
-0.249758
-0.253181
-0.238729
-0.223004
-0.192614
-0.140049
-0.102336
-0.067512
-0.029984
-0.010427
0.023238
0.055147
0.033275
-0.005002
-0.031970
-0.070791
-0.124500
-0.162524
-0.200617
-0.233184
-0.262045
-0.262780
-0.262205
-0.239016
-0.213110
-0.159105
-0.110459
-0.080021
-0.031591
0.000994
0.023203
0.015893
0.004776
-0.013404
-0.062096
-0.090105
-0.125886
-0.158852
-0.199626
-0.234416
-0.265199
-0.270014
-0.251790
-0.227985
-0.206011
-0.159589
-0.099113
-0.044499
-0.018385
0.010028
0.037763
0.035281
0.009349
0.008564
-0.007090
-0.058789
-0.106179
-0.174821
-0.208446
-0.236796
-0.261651
-0.268250
-0.263930
-0.236763
-0.189709
-0.150688
-0.107190
-0.061763
-0.018950
0.007566
0.034679
0.025470
0.024227
0.004459
-0.025915
-0.057197
-0.101544
-0.161830
-0.199665
-0.235512
-0.256219
-0.268590
-0.266161
-0.223545
-0.208043
-0.157069
-0.095665
-0.046637
-0.020592
-0.005782
0.045192
0.034990
0.036331
0.007132
-0.018030
-0.056908
-0.108137
-0.161645
-0.194077
-0.215653
-0.236422
-0.251282
-0.235416
-0.211497
-0.170476
-0.106361
-0.060510
-0.015828
0.014706
0.038153
0.062409
0.082844
0.067425
0.034861
-0.013677
-0.037136
-0.065312
-0.127942
-0.127887
-0.154604
-0.185033
-0.184245
-0.178858
-0.185875
-0.161955
-0.103083
-0.048831
-0.019071
0.017440
0.061525
0.070692
0.077171
0.073902
0.065517
0.029553
0.000435
-0.038480
-0.093302
-0.138320
-0.165726
-0.191189
-0.185846
-0.179400
-0.163572
-0.125444
-0.080031
-0.019977
0.013845
0.042523
0.065584
0.079548
0.078704
0.064914
0.040074
0.004794
-0.028374
-0.076495
-0.107838
-0.152690
-0.185347
-0.215387
-0.208384
-0.208288
-0.193096
-0.180117
-0.139841
-0.074138
-0.025805
0.001366
0.030284
0.049864
0.050610
0.040998
0.031379
-0.003594
-0.059451
-0.107337
-0.137122
-0.189940
-0.232764
-0.259003
-0.260716
-0.249394
-0.235233
-0.193582
-0.155829
-0.105655
-0.064592
-0.020038
0.013151
0.031745
0.036519
0.020772
-0.007000
-0.025945
-0.070593
-0.126830
-0.171629
-0.203002
-0.239935
-0.256438
-0.251110
-0.242413
-0.240405
-0.198987
-0.154092
-0.105112
-0.053861
-0.010140
0.007630
0.020831
0.025099
0.009312
-0.004004
-0.031950
-0.083147
-0.118765
-0.161766
-0.198258
-0.241783
-0.261745
-0.265109
-0.257474
-0.235127
-0.203546
-0.152917
-0.109828
-0.068392
-0.032631
-0.005995
0.014771
0.014317
0.024908
0.005585
-0.027474
-0.081761
-0.117974
-0.150701
-0.188975
-0.226904
-0.251482
-0.256220
-0.244633
-0.217300
-0.190650
-0.158940
-0.125671
-0.080568
-0.039290
0.004658
0.025882
0.025792
0.024669
-0.004602
-0.029967
-0.063140
-0.101084
-0.133506
-0.156612
-0.176737
-0.187336
-0.174867
-0.158021
-0.118085
-0.070568
-0.027688
0.031647
0.103114
0.160090
0.214289
0.258289
0.287965
0.311207
0.323716
0.326303
0.320865
0.319923
0.307780
0.296967
0.302188
0.333983
0.346565
0.410874
0.464036
0.511231
0.595974
0.685346
0.752556
0.801130
0.817271
0.831861
0.845208
0.804862
0.768423
0.722134
0.649805
0.578299
0.454578
0.354592
0.266386
0.178610
0.125773
0.074639
0.048562
0.036534
0.056012
0.079928
0.126775
0.164319
0.198189
0.202523
0.189741
0.178116
0.147329
0.100394
0.040820
-0.019763
-0.067780
-0.103677
-0.132755
-0.159273
-0.164494
-0.157964
-0.142299
-0.125395
-0.084200
-0.036043
0.004738
0.035952
0.067843
0.093848
0.099520
0.097721
0.062937
0.017497
-0.017968
-0.059954
-0.101268
-0.139323
-0.186646
-0.205244
-0.215498
-0.202857
-0.172773
-0.140916
-0.108615
-0.059439
-0.016482
0.014878
0.045803
0.070470
0.087197
0.075741
0.041177
0.015396
-0.021541
-0.074439
-0.123587
-0.158365
-0.183074
-0.204940
-0.213868
-0.201069
-0.176430
-0.154388
-0.123972
-0.074953
-0.028965
0.008020
0.046112
0.069658
0.080124
0.069959
0.061531
0.034518
0.007074
-0.036556
-0.085292
-0.138533
-0.174352
-0.195089
-0.189633
-0.191538
-0.167991
-0.130518
-0.086383
-0.035018
0.011851
0.044836
0.071326
0.094909
0.100629
0.081137
0.070866
0.050207
0.013312
-0.020307
-0.086550
-0.126502
-0.147878
-0.172341
-0.177134
-0.162944
-0.132560
-0.102533
-0.062717
-0.015535
0.026446
0.066932
0.104414
0.125317
0.129366
0.126115
0.111478
0.075909
0.028217
-0.020831
-0.066463
-0.115181
-0.149679
-0.160983
-0.134057
-0.121943
-0.096267
-0.072105
-0.021706
0.016611
0.059163
0.096845
0.140968
0.171858
0.190666
0.191701
0.161115
0.124453
0.079729
0.038733
-0.000016
-0.035905
-0.074322
-0.080964
-0.083261
-0.078196
-0.058067
-0.024716
0.013391
0.062704
0.109744
0.141322
0.166123
0.179669
0.181262
0.179842
0.159220
0.137575
0.102846
0.068279
0.028072
-0.014508
-0.063378
-0.094395
-0.093657
-0.069604
-0.038960
-0.002064
0.041712
0.077613
0.117230
0.159539
0.189004
0.219726
0.223724
0.201407
0.179169
0.152195
0.101519
0.059372
0.009569
-0.024680
-0.062444
-0.082997
-0.088974
-0.077798
-0.061191
-0.034367
0.001727
0.043496
0.058038
0.096200
0.145208
0.146744
0.162201
0.182454
0.176821
0.134034
0.086344
0.027909
-0.042842
-0.075050
-0.093900
-0.116874
-0.102115
-0.099179
-0.091466
-0.060843
-0.020742
0.024823
0.066464
0.114359
0.140252
0.156082
0.145589
0.130077
0.110842
0.069150
0.021099
-0.023647
-0.070290
-0.114847
-0.137819
-0.145454
-0.152641
-0.152403
-0.140502
-0.100628
-0.057585
-0.014390
0.025199
0.068479
0.097663
0.117189
0.117081
0.112395
0.089408
0.055465
0.020064
-0.020117
-0.063155
-0.102175
-0.141079
-0.171080
-0.191064
-0.172941
-0.152174
-0.131317
-0.098639
-0.044976
-0.002996
0.032001
0.072355
0.104817
0.113558
0.103123
0.067286
0.039159
-0.009569
-0.058306
-0.101564
-0.160382
-0.188095
-0.212116
-0.213901
-0.189728
-0.177285
-0.155426
-0.107090
-0.060468
-0.004761
0.048735
0.085420
0.097413
0.092675
0.082866
0.064894
0.030806
0.003948
-0.044949
-0.109200
-0.147327
-0.168353
-0.176403
-0.183663
-0.178943
-0.161384
-0.127553
-0.100584
-0.046437
0.007522
0.045626
0.077340
0.110944
0.103809
0.086717
0.063407
0.041500
0.010588
-0.029418
-0.080693
-0.129371
-0.175116
-0.196271
-0.198821
-0.173966
-0.146573
-0.107309
-0.058468
-0.021604
0.016818
0.032469
0.044459
0.065265
0.089671
0.102172
0.107469
0.076929
0.004361
-0.035823
-0.074566
-0.115764
-0.151477
-0.166805
-0.182109
-0.170864
-0.150708
-0.119475
-0.075824
-0.024394
0.022248
0.057951
0.082043
0.113296
0.111324
0.117566
0.097658
0.062223
0.012058
-0.049172
-0.088563
-0.139066
-0.165881
-0.175548
-0.183739
-0.177128
-0.137519
-0.111092
-0.098511
-0.050175
0.005707
0.023704
0.071783
0.086711
0.083156
0.094077
0.097368
0.073116
0.006546
-0.039029
-0.094791
-0.126473
-0.150272
-0.174213
-0.172530
-0.164897
-0.136655
-0.112081
-0.088236
-0.063675
-0.053026
-0.007871
0.077270
0.108100
0.135977
0.119660
0.078228
0.053589
0.007730
-0.030895
-0.087864
-0.133318
-0.168750
-0.189199
-0.184457
-0.177470
-0.148198
-0.112060
-0.074785
-0.031746
0.011858
0.052193
0.089601
0.101498
0.107565
0.087337
0.054073
0.039200
-0.002480
-0.041879
-0.093099
-0.137189
-0.162609
-0.181008
-0.200222
-0.185899
-0.171059
-0.136393
-0.099286
-0.037047
0.008077
0.023712
0.059805
0.094080
0.105732
0.095023
0.065290
0.044289
0.000374
-0.042488
-0.090958
-0.136406
-0.170978
-0.181002
-0.183170
-0.179078
-0.159956
-0.130921
-0.105524
-0.059740
-0.003267
0.050789
0.072095
0.088798
0.102234
0.095263
0.066919
0.011874
-0.043110
-0.090658
-0.112847
-0.125743
-0.179320
-0.200822
-0.200583
-0.149477
-0.130104
-0.141793
-0.101565
-0.057681
-0.014648
0.025021
0.081416
0.096623
0.100946
0.095837
0.070057
0.029906
-0.023193
-0.055060
-0.101724
-0.133680
-0.170970
-0.198928
-0.213775
-0.217353
-0.182987
-0.149574
-0.096959
-0.059578
-0.012496
0.037666
0.074174
0.108218
0.110025
0.098587
0.074094
0.028547
-0.024170
-0.052649
-0.111778
-0.149476
-0.165342
-0.192513
-0.194836
-0.187793
-0.173204
-0.165600
-0.106933
-0.043832
0.008328
0.033563
0.049895
0.075025
0.089494
0.090838
0.083934
0.057631
0.014090
-0.035575
-0.071718
-0.104149
-0.133236
-0.167174
-0.161280
-0.159693
-0.134449
-0.100882
-0.057235
-0.005789
0.038548
0.076694
0.113657
0.132894
0.143819
0.135520
0.113854
0.084617
0.044338
-0.012245
-0.055240
-0.097950
-0.131646
-0.144125
-0.159869
-0.156531
-0.136381
-0.097504
-0.055637
-0.014686
0.035684
0.066649
0.093110
0.112990
0.131205
0.122035
0.107351
0.099651
0.076453
0.008991
-0.031710
-0.077836
-0.113382
-0.121157
-0.124818
-0.120917
-0.103141
-0.066847
-0.027289
-0.007152
0.039668
0.079426
0.121537
0.118147
0.117970
0.110385
0.092173
0.069722
0.035868
-0.017097
-0.053185
-0.100544
-0.141768
-0.162969
-0.172575
-0.151329
-0.144053
-0.123092
-0.090499
-0.058026
-0.001089
0.039224
0.066133
0.085054
0.103248
0.096196
0.062535
0.036992
0.009025
-0.038303
-0.103889
-0.146289
-0.176886
-0.193769
-0.199809
-0.191782
-0.170003
-0.130342
-0.088127
-0.044579
-0.004832
0.032236
0.051760
0.072861
0.078745
0.073342
0.057208
0.003416
-0.050395
-0.082548
-0.121365
-0.157675
-0.190953
-0.206350
-0.210272
-0.198260
-0.177101
-0.140550
-0.113695
-0.067968
-0.011654
0.033382
0.058097
0.056098
0.072077
0.071139
0.058222
0.024319
-0.025646
-0.071429
-0.109848
-0.152230
-0.188913
-0.219139
-0.223194
-0.195336
-0.156742
-0.137326
-0.099115
-0.050932
-0.027070
0.004594
0.046722
0.076757
0.084243
0.071525
0.027892
0.014294
0.004934
-0.027792
-0.091548
-0.153432
-0.197958
-0.230236
-0.229799
-0.210955
-0.183328
-0.166572
-0.112631
-0.061835
-0.009937
0.009240
0.043183
0.065409
0.077181
0.071771
0.052845
0.022086
-0.010030
-0.027005
-0.070040
-0.106280
-0.132109
-0.131982
-0.107724
-0.092989
-0.056933
-0.019995
0.030766
0.066444
0.132510
0.202086
0.263888
0.297228
0.329259
0.340364
0.342278
0.362309
0.369862
0.358249
0.354010
0.352144
0.347190
0.354458
0.381123
0.429414
0.496920
0.545858
0.622565
0.716000
0.782447
0.825996
0.864098
0.872023
0.870440
0.858047
0.803077
0.747935
0.690590
0.605909
0.502209
0.372508
0.246803
0.167616
0.130703
0.117628
0.100491
0.106493
0.111261
0.137029
0.171058
0.197586
0.218453
0.223190
0.236294
0.221013
0.188582
0.145296
0.093255
0.039176
-0.011186
-0.062949
-0.113837
-0.152661
-0.166609
-0.128419
-0.069530
-0.040145
-0.027080
-0.002448
0.041459
0.094220
0.125499
0.126593
0.113448
0.107739
0.110364
0.104230
0.052227
-0.014017
-0.055411
-0.077611
-0.124513
-0.153438
-0.162690
-0.161619
-0.148440
-0.105091
-0.046021
0.008708
0.022637
0.060183
0.094742
0.127499
0.142114
0.133487
0.108011
0.073995
0.038683
-0.016708
-0.072775
-0.110418
-0.152431
-0.171200
-0.171075
-0.165057
-0.145769
-0.132028
-0.075318
-0.017118
0.042286
0.097199
0.123460
0.137648
0.144666
0.132532
0.097475
0.082525
0.041699
-0.003912
-0.040987
-0.081080
-0.115687
-0.136583
-0.143290
-0.142479
-0.131212
-0.098772
-0.078840
-0.056663
0.038073
0.127372
0.153639
0.155980
0.158124
0.138494
0.112216
0.077562
0.039718
-0.010741
-0.051362
-0.075889
-0.108964
-0.133497
-0.128256
-0.126956
-0.092826
-0.053967
-0.002242
0.037599
0.072252
0.121204
0.161220
0.174286
0.173217
0.172090
0.157078
0.129473
0.078398
0.023480
-0.014683
-0.044920
-0.067343
-0.081864
-0.087219
-0.075976
-0.051519
-0.020667
0.017191
0.070070
0.114626
0.146260
0.196758
0.209413
0.206688
0.204604
0.203876
0.179360
0.135751
0.089482
0.047945
0.007004
-0.030288
-0.042427
-0.055999
-0.076376
-0.068405
0.007923
0.072707
0.117959
0.150305
0.191880
0.213250
0.238320
0.249781
0.259141
0.229084
0.184163
0.162872
0.131936
0.058527
-0.000321
-0.013954
-0.017725
-0.036996
-0.038617
-0.018014
0.015268
0.062993
0.109791
0.146848
0.175267
0.210455
0.235130
0.244567
0.231271
0.205299
0.188372
0.150902
0.105438
0.063055
0.013224
-0.014570
-0.032238
-0.044557
-0.035299
0.008894
0.032701
0.049911
0.090805
0.133714
0.166718
0.191400
0.210517
0.214355
0.209996
0.183691
0.142738
0.112659
0.075331
0.019704
-0.025185
-0.036532
-0.059688
-0.075896
-0.080455
-0.051786
-0.028058
0.013935
0.074464
0.107341
0.113116
0.147812
0.170627
0.185933
0.188629
0.161050
0.119204
0.076407
0.042152
-0.013811
-0.052805
-0.079674
-0.086236
-0.087788
-0.092809
-0.104116
-0.095489
-0.044917
0.017069
0.066659
0.098451
0.161266
0.159871
0.161453
0.128178
0.102049
0.082157
0.044962
-0.019038
-0.065192
-0.118278
-0.136950
-0.136727
-0.136963
-0.133780
-0.124721
-0.087910
-0.025338
0.010051
0.043529
0.075392
0.119661
0.130050
0.142022
0.129958
0.108691
0.072769
0.034321
-0.015303
-0.051570
-0.098707
-0.144204
-0.152870
-0.145177
-0.139748
-0.128973
-0.099850
-0.056491
-0.004732
0.026151
0.074739
0.106711
0.114601
0.122094
0.116923
0.108452
0.089035
0.037393
-0.027532
-0.082079
-0.114558
-0.142314
-0.143008
-0.123051
-0.120909
-0.126384
-0.088672
-0.051104
0.007464
0.049973
0.087176
0.121500
0.124945
0.127211
0.104407
0.098674
0.076972
0.029451
-0.004588
-0.044332
-0.090002
-0.117763
-0.123988
-0.145723
-0.115780
-0.107713
-0.067752
-0.037956
0.001063
0.039160
0.077274
0.114179
0.129939
0.133847
0.136482
0.122521
0.090245
0.045445
0.008292
-0.036179
-0.078836
-0.116638
-0.130736
-0.138244
-0.137521
-0.108577
-0.092952
-0.051066
0.017913
0.050025
0.084861
0.107991
0.129474
0.139467
0.137152
0.121767
0.083068
0.031156
-0.017962
-0.060996
-0.093038
-0.109193
-0.100885
-0.126228
-0.129392
-0.105517
-0.072197
-0.034147
-0.000354
0.046679
0.076682
0.110777
0.126682
0.136461
0.125052
0.109374
0.078322
0.036943
-0.024152
-0.073514
-0.110293
-0.125715
-0.127960
-0.146922
-0.138435
-0.118589
-0.082009
-0.036246
0.000547
0.032399
0.071725
0.103728
0.119507
0.128981
0.132226
0.114912
0.082445
0.041363
-0.007456
-0.050838
-0.091818
-0.120151
-0.141280
-0.155173
-0.150493
-0.111384
-0.082888
-0.043307
-0.003754
0.028175
0.065209
0.094051
0.101645
0.136616
0.140033
0.096078
0.060329
0.026039
-0.018328
-0.065630
-0.096559
-0.124250
-0.139090
-0.153878
-0.161228
-0.140661
-0.080643
-0.048151
-0.021087
0.026344
0.074818
0.110619
0.128052
0.122002
0.122949
0.106059
0.064899
0.009666
-0.039350
-0.082244
-0.106443
-0.135211
-0.164011
-0.164842
-0.155842
-0.128603
-0.087351
-0.048355
-0.006712
0.026484
0.064491
0.096126
0.116746
0.118371
0.092053
0.063165
0.062760
0.023884
-0.012044
-0.066210
-0.099926
-0.129823
-0.154617
-0.159693
-0.147914
-0.123049
-0.096616
-0.071641
-0.016626
0.020125
0.059371
0.086056
0.122338
0.134598
0.118883
0.079376
0.047231
0.020221
-0.022932
-0.072726
-0.113826
-0.138277
-0.157901
-0.158553
-0.153906
-0.130033
-0.108550
-0.067523
-0.011461
0.030634
0.074156
0.107010
0.111419
0.120460
0.121472
0.098988
0.067796
0.019688
-0.023822
-0.070660
-0.120672
-0.152504
-0.150152
-0.161990
-0.178005
-0.149083
-0.089216
-0.043030
0.007998
0.044560
0.100249
0.127722
0.146878
0.169750
0.162639
0.150289
0.094011
0.040438
0.007201
-0.040208
-0.080652
-0.111861
-0.125462
-0.129975
-0.117738
-0.098054
-0.061528
-0.007162
0.031971
0.062818
0.094507
0.126962
0.152392
0.153459
0.145892
0.117357
0.090930
0.057838
0.014517
-0.031415
-0.070447
-0.104389
-0.114353
-0.117160
-0.100880
-0.052985
-0.028594
0.004695
0.050679
0.084726
0.137608
0.165247
0.177630
0.180768
0.182431
0.152888
0.119950
0.078011
0.021977
-0.030354
-0.071866
-0.103237
-0.126691
-0.135520
-0.129573
-0.108692
-0.080587
-0.044693
-0.000312
0.047118
0.078556
0.107271
0.113958
0.123608
0.130074
0.116760
0.077753
0.030691
-0.027267
-0.066533
-0.100748
-0.142773
-0.173366
-0.177578
-0.157715
-0.120648
-0.087078
-0.047031
-0.015273
0.014655
0.046972
0.073132
0.101400
0.115762
0.100618
0.071513
0.053436
0.007750
-0.027553
-0.072654
-0.131044
-0.167575
-0.192019
-0.209372
-0.198670
-0.178614
-0.147135
-0.103318
-0.043328
-0.005769
0.045581
0.092746
0.102450
0.103068
0.084571
0.064101
0.035321
0.001676
-0.034651
-0.078441
-0.097507
-0.120794
-0.151025
-0.187524
-0.185044
-0.163399
-0.127898
-0.075779
-0.038230
0.002931
0.047918
0.073402
0.098159
0.114718
0.105615
0.085462
0.050867
0.007421
-0.049948
-0.089173
-0.140823
-0.177030
-0.187180
-0.198157
-0.186463
-0.172136
-0.124828
-0.090813
-0.037100
0.007766
0.048311
0.069412
0.084293
0.091187
0.091109
0.085430
0.059014
0.004850
-0.045733
-0.092009
-0.133108
-0.169206
-0.177175
-0.173562
-0.171467
-0.144576
-0.102633
-0.063178
-0.008134
0.043410
0.099494
0.152098
0.180853
0.213204
0.210015
0.196872
0.168073
0.143915
0.134215
0.118809
0.092617
0.078354
0.078568
0.104843
0.144829
0.206989
0.279946
0.340649
0.430962
0.503392
0.579719
0.631895
0.681679
0.754058
0.786606
0.791980
0.785470
0.789969
0.764811
0.702102
0.655666
0.631133
0.593145
0.558691
0.542031
0.540851
0.523481
0.484350
0.463819
0.468044
0.463282
0.454727
0.402290
0.352114
0.295974
0.253164
0.203759
0.169383
0.128523
0.067124
0.022276
-0.014387
-0.044465
-0.069359
-0.071409
-0.072103
-0.054915
-0.015114
0.047309
0.096744
0.135103
0.156257
0.155856
0.168556
0.158008
0.136875
0.110691
0.057116
0.011286
-0.032453
-0.069707
-0.107620
-0.120137
-0.132126
-0.142210
-0.113270
-0.078066
-0.033461
0.011472
0.058604
0.084292
0.102155
0.106999
0.127438
0.140436
0.104316
0.080984
0.046181
-0.010285
-0.060372
-0.106686
-0.129959
-0.151224
-0.155299
-0.156274
-0.127637
-0.093407
-0.056343
-0.014666
0.038461
0.082525
0.117262
0.137336
0.133318
0.124442
0.120821
0.102756
0.056369
0.005378
-0.043400
-0.081195
-0.114795
-0.137115
-0.131986
-0.124336
-0.115071
-0.074925
-0.038950
-0.001534
0.048192
0.088012
0.120049
0.139775
0.150069
0.134397
0.115567
0.074592
0.045282
0.002529
-0.040039
-0.060251
-0.087597
-0.127333
-0.128290
-0.118149
-0.096619
-0.064543
-0.004206
0.026495
0.066153
0.115631
0.151613
0.169589
0.171759
0.169124
0.147462
0.106518
0.083497
0.031319
-0.014544
-0.055272
-0.085842
-0.089027
-0.085968
-0.077356
-0.059136
-0.040329
-0.007321
0.039309
0.098196
0.144147
0.174095
0.187369
0.207257
0.210076
0.199539
0.175848
0.122854
0.069632
0.030209
-0.011331
-0.045054
-0.060235
-0.058177
-0.043499
-0.031939
0.001269
0.043742
0.088566
0.132390
0.178087
0.216587
0.240403
0.242225
0.239933
0.223585
0.187557
0.143887
0.090522
0.058786
0.010966
-0.033073
-0.033994
-0.036669
-0.021065
-0.014448
0.021671
0.098291
0.135116
0.163308
0.183611
0.223514
0.254411
0.260853
0.249280
0.225709
0.205672
0.180477
0.125648
0.070887
0.027012
-0.018486
-0.047486
-0.054990
-0.038449
-0.008158
0.026673
0.057532
0.103358
0.148430
0.185019
0.225781
0.250046
0.257096
0.257438
0.233249
0.192120
0.143790
0.095937
0.049725
0.012625
-0.022029
-0.049320
-0.070396
-0.058453
-0.041348
-0.006305
0.028150
0.086936
0.123356
0.158267
0.181287
0.203112
0.208257
0.197116
0.187809
0.153183
0.103422
0.043421
-0.011380
-0.048350
-0.086162
-0.092164
-0.090382
-0.091333
-0.078652
-0.057498
0.006128
0.054276
0.075770
0.117647
0.162733
0.164776
0.164845
0.172831
0.147880
0.089697
0.058011
0.016711
-0.023597
-0.079564
-0.096088
-0.126501
-0.139982
-0.151978
-0.163251
-0.117435
-0.063466
0.012924
0.097934
0.115208
0.144917
0.145328
0.139852
0.125282
0.097580
0.078338
0.038891
-0.018888
-0.052104
-0.073505
-0.110405
-0.136554
-0.149565
-0.149446
-0.132458
-0.104169
-0.064309
-0.015596
0.024021
0.054117
0.089696
0.135209
0.143579
0.129545
0.100114
0.082932
0.042170
0.010907
-0.031080
-0.073667
-0.125728
-0.145374
-0.147881
-0.139018
-0.109844
-0.092331
-0.063001
-0.006304
0.057043
0.093850
0.113690
0.136673
0.140613
0.132376
0.111444
0.073526
0.028057
-0.010166
-0.062003
-0.110084
-0.117418
-0.124912
-0.128739
-0.120111
-0.112140
-0.088370
-0.050338
0.009868
0.059165
0.095525
0.126808
0.141497
0.150166
0.137646
0.124666
0.097796
0.049064
-0.005942
-0.045296
-0.083280
-0.126657
-0.122359
-0.111764
-0.122281
-0.117437
-0.083040
-0.049471
-0.004513
0.057680
0.106241
0.128653
0.138966
0.130434
0.120788
0.111291
0.081877
0.051231
-0.001851
-0.040298
-0.077958
-0.100967
-0.134716
-0.135385
-0.132754
-0.117220
-0.078088
-0.035639
0.010599
0.053869
0.098126
0.117187
0.135150
0.144222
0.145454
0.126882
0.086623
0.039706
0.004513
-0.049302
-0.093639
-0.112607
-0.123841
-0.151257
-0.147222
-0.128906
-0.094385
-0.044111
-0.007956
0.034764
0.063634
0.095157
0.132276
0.151103
0.141889
0.113602
0.085618
0.052842
-0.012070
-0.053891
-0.091978
-0.113772
-0.122743
-0.139336
-0.142588
-0.126285
-0.086128
-0.043109
0.011699
0.039740
0.078979
0.114535
0.137909
0.130650
0.123539
0.113165
0.076451
0.042110
-0.011799
-0.063069
-0.084059
-0.127685
-0.149644
-0.151136
-0.155379
-0.137317
-0.101843
-0.065543
-0.007393
0.047328
0.072013
0.105239
0.134880
0.130895
0.129855
0.108442
0.079929
0.036331
-0.028000
-0.069295
-0.108804
-0.149626
-0.160788
-0.152864
-0.140690
-0.123005
-0.092998
-0.059732
-0.016345
0.028398
0.057484
0.105973
0.128596
0.127316
0.128059
0.095417
0.061241
0.020343
-0.026582
-0.084132
-0.112989
-0.144885
-0.163713
-0.164952
-0.161996
-0.131116
-0.103198
-0.074080
-0.029745
0.013685
0.060902
0.099210
0.113642
0.110433
0.101215
0.083101
0.066430
0.026644
-0.022977
-0.061216
-0.108615
-0.160866
-0.165357
-0.168465
-0.163467
-0.147871
-0.133194
-0.091887
-0.038172
0.009123
0.054315
0.102994
0.119488
0.125128
0.129570
0.102360
0.055582
0.012226
-0.026228
-0.066367
-0.100230
-0.124738
-0.154028
-0.166989
-0.161493
-0.149979
-0.124448
-0.065435
-0.015531
0.037969
0.078280
0.104137
0.132473
0.152146
0.138583
0.098047
0.071105
0.028059
-0.009166
-0.029416
-0.080025
-0.104770
-0.121262
-0.119320
-0.110596
-0.096861
-0.067637
-0.014334
0.049572
0.078014
0.105188
0.122631
0.156996
0.177041
0.171431
0.144193
0.086020
0.035915
-0.006765
-0.051640
-0.085621
-0.122426
-0.144735
-0.128932
-0.106345
-0.081347
-0.048209
-0.004795
0.049264
0.086945
0.114039
0.151805
0.163791
0.171040
0.163274
0.159710
0.135573
0.082605
0.026978
-0.020993
-0.071626
-0.104567
-0.113351
-0.117716
-0.107224
-0.095137
-0.074452
-0.040734
0.000738
0.044536
0.086173
0.119900
0.149716
0.155385
0.134282
0.110965
0.076718
0.037647
-0.007609
-0.055315
-0.098306
-0.136055
-0.164918
-0.173523
-0.161920
-0.151429
-0.113958
-0.080703
-0.055078
-0.004936
0.050066
0.095777
0.125633
0.121017
0.107474
0.091314
0.060626
0.020665
-0.033025
-0.079405
-0.125465
-0.153123
-0.183220
-0.186423
-0.181752
-0.171603
-0.134802
-0.091748
-0.047009
-0.015656
0.023202
0.059973
0.091840
0.107978
0.098306
0.065911
0.045565
-0.008109
-0.043464
-0.092238
-0.130682
-0.161751
-0.190733
-0.184439
-0.178121
-0.164324
-0.127712
-0.090273
-0.047428
0.005624
0.060936
0.080105
0.086164
0.087629
0.077880
0.057587
0.031174
-0.019276
-0.058700
-0.091947
-0.125941
-0.166732
-0.194817
-0.211328
-0.189495
-0.166325
-0.133730
-0.092193
-0.042881
0.003694
0.035518
0.055329
0.093875
0.103762
0.097977
0.071396
0.030017
-0.011395
-0.053140
-0.108858
-0.141183
-0.179389
-0.207266
-0.208594
-0.195581
-0.166384
-0.135651
-0.092878
-0.027003
0.020922
0.072874
0.104006
0.135069
0.162292
0.156798
0.157888
0.152209
0.132529
0.107232
0.059608
0.044236
0.034548
0.027954
0.052653
0.093149
0.137267
0.201413
0.275672
0.352841
0.428436
0.502058
0.566785
0.610488
0.654362
0.680143
0.720359
0.701331
0.660743
0.671589
0.684521
0.652229
0.620470
0.592441
0.581258
0.573522
0.587933
0.582668
0.587104
0.598179
0.569941
0.555609
0.528362
0.493075
0.456102
0.404854
0.337393
0.265818
0.198508
0.140530
0.081764
0.025439
-0.012635
-0.045223
-0.051138
-0.062602
-0.062316
-0.050807
-0.012549
0.038325
0.075969
0.140047
0.180009
0.192787
0.195799
0.183469
0.153742
0.107824
0.051350
0.007142
-0.036974
-0.070255
-0.100485
-0.121213
-0.140551
-0.135055
-0.118565
-0.083920
-0.055624
-0.009389
0.037676
0.080704
0.106245
0.134055
0.125790
0.110295
0.092871
0.072823
0.038015
-0.005893
-0.058770
-0.083957
-0.113556
-0.152037
-0.150328
-0.134116
-0.115725
-0.096409
-0.068157
-0.015251
0.018675
0.066047
0.088972
0.116752
0.128064
0.111814
0.096448
0.069693
0.035940
-0.015819
-0.059744
-0.088758
-0.118663
-0.137917
-0.156029
-0.131877
-0.117694
-0.086765
-0.026074
0.006256
0.038514
0.081330
0.114497
0.139441
0.146933
0.140753
0.112582
0.082211
0.053738
0.008539
-0.024076
-0.064274
-0.097592
-0.122953
-0.137980
-0.132342
-0.113939
-0.086826
-0.053746
0.005740
0.058666
0.094724
0.123895
0.155930
0.165247
0.155806
0.147377
0.119702
0.076699
0.030645
-0.007362
-0.040600
-0.063709
-0.088130
-0.096890
-0.094184
-0.072447
-0.038017
0.001769
0.054139
0.091960
0.131235
0.156520
0.191293
0.198762
0.200029
0.185107
0.157721
0.106653
0.064726
0.026481
-0.015091
-0.044591
-0.067117
-0.075922
-0.068354
-0.043615
-0.010122
0.039049
0.075154
0.123472
0.169288
0.209061
0.227758
0.236458
0.228347
0.204721
0.178786
0.135705
0.089900
0.053578
0.015625
-0.020117
-0.039326
-0.050090
-0.040152
-0.012880
0.031977
0.079319
0.106813
0.146815
0.186064
0.230497
0.240986
0.242805
0.242273
0.224738
0.198195
0.160631
0.116785
0.067232
0.012296
-0.031835
-0.031247
-0.027272
-0.023293
-0.011894
0.021832
0.063112
0.093849
0.131293
0.170231
0.207522
0.222482
0.231826
0.227778
0.200962
0.173678
0.123174
0.070109
0.025745
-0.004365
-0.022409
-0.044394
-0.057373
-0.044392
-0.047281
-0.018222
0.032615
0.086145
0.121667
0.151815
0.179808
0.212694
0.216661
0.208204
0.181012
0.153865
0.107351
0.061482
0.011016
-0.033155
-0.058913
-0.081637
-0.082239
-0.076438
-0.075675
-0.038613
-0.000253
0.030302
0.079066
0.118772
0.159312
0.172641
0.165706
0.153173
0.141044
0.104112
0.067976
0.008104
-0.041893
-0.069781
-0.097185
-0.126866
-0.136459
-0.128657
-0.115496
-0.095657
-0.042402
0.000310
0.046509
0.094301
0.118124
0.145323
0.162322
0.144710
0.124646
0.085914
0.037308
-0.003755
-0.049894
-0.097297
-0.124181
-0.141729
-0.147333
-0.145244
-0.128033
-0.098940
-0.064415
-0.026045
0.024574
0.071796
0.108502
0.132223
0.131192
0.115604
0.091628
0.061620
0.024474
0.006164
-0.016937
-0.078566
-0.123191
-0.151968
-0.158257
-0.162514
-0.140232
-0.104666
-0.053096
-0.008289
0.036383
0.060887
0.097421
0.118331
0.124200
0.129490
0.104708
0.077054
0.038249
-0.007046
-0.059947
-0.096969
-0.127335
-0.151077
-0.157290
-0.144763
-0.116426
-0.090631
-0.045955
0.005995
0.049770
0.091934
0.116527
0.121155
0.132709
0.128855
0.125340
0.095818
0.046083
0.006517
-0.033980
-0.075647
-0.106581
-0.137721
-0.129308
-0.118779
-0.096211
-0.072520
-0.034943
0.004212
0.057224
0.085036
0.115674
0.146042
0.146757
0.136861
0.110759
0.087146
0.046099
-0.001536
-0.049669
-0.092165
-0.107504
-0.134649
-0.142222
-0.138489
-0.107107
-0.068644
-0.031220
0.012155
0.057590
0.094952
0.118081
0.145950
0.136598
0.131586
0.113088
0.090081
0.046676
0.006674
-0.035083
-0.081334
-0.107294
-0.132279
-0.138458
-0.139185
-0.121381
-0.086447
-0.046008
-0.013234
0.031240
0.082324
0.098363
0.130161
0.134942
0.127392
0.102222
0.085601
0.020569
-0.020054
-0.046904
-0.097962
-0.128690
-0.146905
-0.135667
-0.132638
-0.119374
-0.090174
-0.061192
-0.016787
0.035629
0.079190
0.098440
0.118753
0.127882
0.128259
0.120821
0.082809
0.045732
-0.000718
-0.057688
-0.111909
-0.126954
-0.152108
-0.161003
-0.161449
-0.134586
-0.095713
-0.048424
-0.015829
0.020367
0.059278
0.097673
0.116587
0.123189
0.117618
0.096060
0.066158
0.023258
-0.032010
-0.087365
-0.098244
-0.108094
-0.146172
-0.156348
-0.155789
-0.138547
-0.100456
-0.067812
-0.031339
0.006973
0.051551
0.106059
0.127447
0.137449
0.125407
0.102917
0.077111
0.030929
-0.025421
-0.073628
-0.112569
-0.152946
-0.152562
-0.148296
-0.145293
-0.136891
-0.107161
-0.062570
-0.017908
0.029222
0.075503
0.091108
0.118909
0.118653
0.121817
0.099990
0.068621
0.020492
-0.025918
-0.062520
-0.111590
-0.134946
-0.157804
-0.167769
-0.162080
-0.153839
-0.114058
-0.065106
-0.022458
0.015190
0.063590
0.096396
0.115571
0.124679
0.112029
0.094040
0.059098
0.019247
-0.025276
-0.074561
-0.118343
-0.137952
-0.154213
-0.163206
-0.162905
-0.144013
-0.105607
-0.063925
-0.022067
0.023635
0.070958
0.097976
0.124260
0.118320
0.114981
0.088815
0.061324
0.025702
-0.006860
-0.065816
-0.105765
-0.124477
-0.128727
-0.141801
-0.151432
-0.135249
-0.105365
-0.057032
0.013815
0.056101
0.097972
0.124256
0.149114
0.154800
0.133998
0.138287
0.109182
0.067120
0.025850
-0.011985
-0.053432
-0.090496
-0.108058
-0.124309
-0.118751
-0.095404
-0.072408
-0.031440
0.008421
0.047635
0.092376
0.126223
0.137528
0.156813
0.155820
0.135306
0.099963
0.069400
0.041279
-0.009651
-0.055177
-0.096466
-0.119806
-0.113495
-0.084291
-0.073093
-0.047154
-0.013449
0.027683
0.068154
0.105953
0.142688
0.157578
0.156638
0.132316
0.111228
0.069413
0.021384
-0.022893
-0.057099
-0.080914
-0.118325
-0.142036
-0.142586
-0.143552
-0.135430
-0.096796
-0.060076
-0.021089
0.024468
0.059561
0.095688
0.100930
0.119744
0.126818
0.112618
0.068196
0.015062
-0.030107
-0.079580
-0.123004
-0.151157
-0.182855
-0.175630
-0.159389
-0.142381
-0.124441
-0.087987
-0.043974
0.004384
0.046843
0.073288
0.102592
0.103403
0.092947
0.064372
0.034128
-0.017776
-0.058866
-0.089228
-0.129538
-0.170287
-0.192216
-0.190981
-0.168279
-0.160910
-0.145968
-0.101092
-0.050920
0.003361
0.034234
0.069718
0.097454
0.107736
0.095126
0.072632
0.053730
0.010719
-0.048437
-0.091406
-0.134275
-0.163086
-0.185508
-0.195171
-0.181015
-0.153101
-0.126104
-0.087329
-0.049596
-0.005307
0.032078
0.067190
0.082891
0.090219
0.089608
0.085406
0.036787
-0.010180
-0.049064
-0.091480
-0.129297
-0.166813
-0.196899
-0.197588
-0.183576
-0.163962
-0.141562
-0.100391
-0.064508
-0.016759
0.032635
0.077907
0.080937
0.092906
0.082757
0.064475
0.040427
0.013195
-0.019541
-0.064477
-0.105809
-0.122514
-0.137764
-0.129082
-0.109355
-0.063643
-0.002735
0.051096
0.096439
0.165814
0.222763
0.263292
0.298424
0.343241
0.364791
0.372290
0.361499
0.370406
0.356687
0.339513
0.338713
0.338304
0.352620
0.370642
0.412848
0.491114
0.554243
0.640878
0.709014
0.768430
0.813684
0.843651
0.862731
0.860137
0.831700
0.803873
0.747113
0.670459
0.579348
0.473554
0.378163
0.294258
0.219146
0.166976
0.117938
0.075851
0.074369
0.093572
0.132764
0.161826
0.203578
0.213870
0.219610
0.212317
0.203550
0.186440
0.145861
0.086918
0.033474
-0.019627
-0.060318
-0.086297
-0.121552
-0.120641
-0.104216
-0.085564
-0.060947
-0.027657
0.002348
0.061956
0.104300
0.132123
0.146526
0.158316
0.149199
0.129405
0.088802
0.037242
0.004607
-0.036232
-0.082244
-0.129609
-0.142894
-0.155488
-0.157036
-0.136805
-0.113753
-0.057420
0.000660
0.034006
0.063784
0.095559
0.129566
0.135835
0.122438
0.105328
0.074760
0.037410
-0.014854
-0.056184
-0.103202
-0.147026
-0.176122
-0.178198
-0.174080
-0.150316
-0.095648
-0.047353
0.004586
0.044378
0.100630
0.108277
0.118240
0.137282
0.124723
0.100630
0.077753
0.036992
0.000748
-0.042071
-0.080384
-0.105457
-0.144053
-0.152809
-0.125278
-0.104000
-0.079454
-0.030510
0.012242
0.053251
0.090629
0.125574
0.144514
0.157415
0.174120
0.146044
0.096750
0.044995
-0.006737
-0.043370
-0.069329
-0.095843
-0.114765
-0.122986
-0.113616
-0.090239
-0.057057
-0.020936
0.025647
0.070321
0.114863
0.144021
0.168605
0.175625
0.177127
0.153179
0.114076
0.078853
0.035202
-0.017823
-0.057155
-0.060696
-0.075511
-0.096356
-0.086449
-0.067905
-0.024376
0.021908
0.065788
0.114877
0.148462
0.183289
0.209339
0.213407
0.208255
0.193409
0.162408
0.132423
0.074321
0.022599
0.000949
-0.026478
-0.038013
-0.054171
-0.057976
-0.015005
0.015963
0.002401
0.079572
0.154586
0.197173
0.222378
0.233998
0.233088
0.225539
0.206787
0.180053
0.153143
0.107950
0.032051
0.017669
-0.002674
-0.021814
-0.042795
-0.030226
-0.017528
0.019998
0.064264
0.112102
0.153439
0.195731
0.227341
0.239288
0.244296
0.246853
0.219420
0.183954
0.134797
0.082784
0.040083
0.003019
-0.024435
-0.051028
-0.060641
-0.051752
-0.016226
0.030591
0.052485
0.087140
0.122595
0.163465
0.198680
0.213695
0.220867
0.216051
0.194729
0.153543
0.116188
0.077340
0.030635
-0.020442
-0.047536
-0.072656
-0.085029
-0.078566
-0.057493
-0.024838
0.013067
0.055095
0.099250
0.138944
0.169382
0.183599
0.183824
0.170073
0.159452
0.124209
0.082084
0.046177
-0.014467
-0.064041
-0.089557
-0.103568
-0.125916
-0.117989
-0.100792
-0.066451
-0.031231
0.020077
0.064317
0.101193
0.120439
0.132515
0.145064
0.140225
0.116855
0.088951
0.036964
-0.014163
-0.056801
-0.097901
-0.134327
-0.139716
-0.139092
-0.135637
-0.120423
-0.092280
-0.053260
-0.007721
0.041778
0.063738
0.088643
0.115627
0.135936
0.124274
0.104384
0.072647
0.034154
-0.004529
-0.053075
-0.097835
-0.136653
-0.156183
-0.163664
-0.166485
-0.145723
-0.097937
-0.054347
-0.025739
0.030517
0.069099
0.093935
0.098620
0.114881
0.111113
0.097928
0.068823
0.034892
-0.005949
-0.058457
-0.093778
-0.126606
-0.159750
-0.172123
-0.164989
-0.135921
-0.088400
-0.048745
-0.008106
0.029763
0.075585
0.104336
0.134789
0.130934
0.126592
0.111473
0.079599
0.037036
-0.003073
-0.046078
-0.089713
-0.120179
-0.154434
-0.157590
-0.147129
-0.124846
-0.103592
-0.061636
-0.011342
0.040581
0.070452
0.101921
0.114089
0.125267
0.131914
0.115821
0.087487
0.043238
0.001708
-0.048098
-0.089034
-0.119908
-0.140824
-0.139938
-0.138905
-0.114936
-0.081820
-0.052174
-0.013480
0.032846
0.080233
0.119958
0.133148
0.132224
0.131980
0.111101
0.082409
0.038421
-0.013021
-0.060829
-0.095895
-0.117519
-0.129844
-0.144725
-0.138010
-0.118937
-0.086776
-0.044772
-0.005759
0.032509
0.066878
0.102611
0.119212
0.130145
0.119633
0.086811
0.056965
0.036771
-0.004709
-0.044921
-0.092440
-0.136566
-0.154132
-0.159665
-0.152636
-0.128537
-0.088352
-0.037277
0.002777
0.037270
0.070661
0.105938
0.120748
0.124502
0.111423
0.091636
0.066917
0.024503
-0.020089
-0.066699
-0.101703
-0.134906
-0.152099
-0.149026
-0.149673
-0.137727
-0.104009
-0.062970
-0.024634
0.027390
0.059349
0.081328
0.107367
0.113090
0.103331
0.083940
0.062448
0.014760
-0.031918
-0.080610
-0.114098
-0.127841
-0.160460
-0.177442
-0.169898
-0.146079
-0.116267
-0.073455
-0.027708
0.020249
0.056727
0.088408
0.103581
0.118704
0.101781
0.078541
0.044423
0.011814
-0.041751
-0.090381
-0.122796
-0.157783
-0.169851
-0.177641
-0.170933
-0.164190
-0.110121
-0.076016
-0.046414
-0.004211
0.033267
0.062805
0.082903
0.101358
0.109146
0.094429
0.051519
0.027316
-0.003807
-0.063836
-0.111460
-0.153169
-0.168428
-0.169538
-0.161276
-0.145005
-0.118428
-0.079339
-0.040773
0.006299
0.043503
0.077666
0.106882
0.113692
0.110209
0.085546
0.046067
0.004277
-0.040277
-0.085168
-0.109020
-0.145637
-0.172067
-0.174891
-0.172555
-0.159879
-0.121434
-0.077145
-0.031982
0.005423
0.041665
0.077917
0.096076
0.107212
0.116810
0.095209
0.070845
0.033013
-0.012436
-0.057984
-0.100262
-0.141411
-0.175288
-0.158398
-0.144879
-0.112087
-0.082769
-0.064629
-0.012213
0.028826
0.073645
0.116715
0.140594
0.145089
0.135866
0.112946
0.088697
0.041291
0.003067
-0.033158
-0.065508
-0.106519
-0.125150
-0.145002
-0.146688
-0.120361
-0.092925
-0.045123
-0.005203
0.039699
0.086410
0.124608
0.154891
0.161775
0.158746
0.141952
0.112098
0.062869
0.016466
-0.029121
-0.066981
-0.091881
-0.105798
-0.112331
-0.110691
-0.100345
-0.072925
-0.034194
-0.002460
0.039010
0.068742
0.102577
0.123464
0.129012
0.115186
0.092988
0.069070
0.030969
-0.026761
-0.074789
-0.114564
-0.155207
-0.166214
-0.161286
-0.133344
-0.136010
-0.121373
-0.057433
-0.014375
0.019929
0.053436
0.080488
0.099709
0.097158
0.095548
0.074978
0.050848
0.015256
-0.038212
-0.088696
-0.125181
-0.158784
-0.180287
-0.189383
-0.182234
-0.161851
-0.132548
-0.103283
-0.061845
-0.016097
0.021459
0.046024
0.072148
0.076818
0.090199
0.062658
0.027834
-0.016452
-0.054582
-0.101106
-0.140087
-0.166692
-0.192946
-0.196838
-0.193941
-0.183554
-0.155823
-0.112870
-0.067014
-0.025207
0.017189
0.048566
0.061698
0.074467
0.072982
0.056174
0.023563
-0.022894
-0.051429
-0.098473
-0.133203
-0.164678
-0.193547
-0.207957
-0.199572
-0.171544
-0.145908
-0.115965
-0.079222
-0.020259
0.040424
0.063174
0.079000
0.079791
0.073886
0.055892
0.020026
-0.036973
-0.073557
-0.118399
-0.147184
-0.183471
-0.186652
-0.195417
-0.186131
-0.171889
-0.137736
-0.101462
-0.071946
-0.059033
-0.001027
0.043427
0.066292
0.084581
0.097058
0.071206
0.034335
0.013871
-0.017906
-0.055480
-0.079255
-0.100638
-0.120002
-0.096587
-0.082055
-0.042986
0.005809
0.057867
0.124446
0.175399
0.234252
0.285463
0.342713
0.386591
0.396120
0.415738
0.414545
0.412510
0.397653
0.374385
0.365136
0.381265
0.400232
0.434140
0.463626
0.513605
0.587964
0.664754
0.708763
0.738420
0.775993
0.801795
0.806789
0.793650
0.769618
0.716532
0.648890
0.538323
0.431521
0.328504
0.235390
0.152454
0.098252
0.045754
0.014166
0.001891
0.034511
0.060979
0.089150
0.119869
0.165070
0.181334
0.177890
0.178973
0.177179
0.155066
0.112214
0.057875
0.007080
-0.031274
-0.076686
-0.105573
-0.117764
-0.156418
-0.143538
-0.133144
-0.099736
-0.037718
0.015106
0.048950
0.081953
0.114230
0.118979
0.118657
0.117101
0.096339
0.055291
0.005874
-0.024526
-0.068990
-0.118574
-0.156059
-0.146200
-0.149839
-0.157582
-0.130359
-0.096989
-0.056847
-0.018760
0.017118
0.039885
0.084068
0.105320
0.111007
0.113511
0.099907
0.076488
0.032959
-0.023267
-0.061405
-0.100758
-0.149407
-0.165886
-0.174110
-0.158030
-0.142017
-0.102484
-0.058721
-0.013884
0.028031
0.064427
0.099682
0.119595
0.119859
0.133550
0.112240
0.071351
0.037889
-0.005700
-0.051639
-0.094039
-0.132697
-0.149329
-0.162981
-0.166958
-0.135655
-0.090987
-0.038538
-0.004485
0.041568
0.076020
0.117104
0.124617
0.137961
0.140274
0.119428
0.103032
0.050690
0.005981
-0.027595
-0.072214
-0.104860
-0.116007
-0.117374
-0.118976
-0.094226
-0.060024
-0.027508
0.017188
0.054558
0.088886
0.125839
0.162842
0.176761
0.165243
0.152306
0.133138
0.085997
0.041537
-0.007871
-0.042550
-0.080740
-0.080303
-0.091553
-0.086690
-0.070228
-0.035520
0.008888
0.048601
0.101028
0.128539
0.168037
0.190382
0.219647
0.218733
0.190168
0.159414
0.129669
0.086484
0.034467
0.003957
-0.039681
-0.071376
-0.062621
-0.048277
-0.020146
-0.027518
0.035760
0.111383
0.162716
0.192227
0.222209
0.237914
0.240861
0.238910
0.214712
0.183154
0.145212
0.096897
0.048523
0.016282
-0.014366
-0.034243
-0.039726
-0.042665
-0.022469
0.006745
0.052135
0.091487
0.143093
0.178423
0.204911
0.236385
0.241437
0.228334
0.210880
0.180796
0.144245
0.095720
0.055861
0.018998
-0.023591
-0.049744
-0.061580
-0.054294
-0.035210
-0.008570
0.025993
0.063812
0.112569
0.151143
0.166246
0.187569
0.222990
0.212041
0.192378
0.154132
0.107908
0.054275
0.011803
-0.029060
-0.051013
-0.076703
-0.081077
-0.093078
-0.079925
-0.023266
0.007896
0.041062
0.072686
0.095904
0.129212
0.149271
0.163647
0.158282
0.149554
0.110084
0.071254
0.023757
-0.028008
-0.065151
-0.098802
-0.124464
-0.146021
-0.139754
-0.102279
-0.079136
-0.042954
0.002726
0.044090
0.078819
0.117169
0.136985
0.136338
0.132738
0.123461
0.075141
0.022825
-0.012889
-0.057757
-0.095026
-0.133803
-0.158814
-0.168664
-0.162992
-0.141130
-0.116548
-0.065071
-0.007863
0.030952
0.060770
0.085543
0.115448
0.133150
0.115169
0.096250
0.055230
0.013019
-0.029050
-0.070140
-0.104692
-0.148328
-0.180275
-0.175809
-0.182544
-0.164589
-0.124498
-0.072703
-0.028702
0.007145
0.050100
0.095029
0.119600
0.122681
0.114523
0.092381
0.055541
0.016434
-0.028761
-0.071585
-0.110877
-0.148717
-0.165283
-0.165034
-0.159532
-0.145191
-0.112859
-0.066210
-0.024671
0.017223
0.067476
0.102343
0.116512
0.119719
0.110379
0.097966
0.060655
0.021799
-0.020619
-0.062937
-0.099842
-0.129225
-0.149264
-0.177833
-0.180533
-0.149342
-0.102688
-0.063381
-0.027302
0.019345
0.059454
0.076298
0.102304
0.112611
0.102650
0.092571
0.052627
0.022564
-0.009351
-0.038721
-0.085403
-0.137886
-0.139501
-0.151884
-0.144903
-0.126732
-0.099313
-0.055488
-0.009977
0.035090
0.067977
0.105181
0.121983
0.137369
0.123019
0.095358
0.059625
0.025271
-0.017532
-0.058759
-0.114847
-0.140633
-0.147350
-0.158313
-0.155013
-0.130204
-0.109348
-0.066499
-0.025748
0.023906
0.062385
0.099693
0.121375
0.126383
0.117444
0.098245
0.054995
0.010040
-0.026418
-0.073882
-0.112677
-0.145990
-0.168621
-0.179660
-0.169827
-0.150570
-0.110191
-0.065968
-0.020672
0.019934
0.063501
0.092167
0.114149
0.113485
0.089158
0.062136
0.039117
0.016342
-0.036794
-0.084807
-0.115259
-0.146693
-0.160181
-0.163945
-0.159629
-0.161435
-0.140918
-0.112723
-0.062337
-0.004060
0.047236
0.090072
0.101943
0.100494
0.096933
0.085308
0.042160
-0.004759
-0.030033
-0.081903
-0.108958
-0.138411
-0.158227
-0.161534
-0.169843
-0.156459
-0.133007
-0.094632
-0.036174
-0.000539
0.028934
0.067277
0.088968
0.099293
0.082838
0.070946
0.041341
0.015642
-0.031169
-0.079082
-0.124771
-0.164962
-0.184455
-0.170829
-0.174777
-0.159728
-0.131242
-0.092291
-0.049690
0.020212
0.048323
0.080070
0.097382
0.101243
0.100082
0.078843
0.049284
0.008282
-0.044727
-0.096084
-0.132923
-0.162698
-0.188942
-0.179307
-0.170250
-0.158054
-0.127489
-0.087679
-0.042703
-0.007864
0.031746
0.062419
0.084716
0.090297
0.089852
0.077715
0.040930
0.004538
-0.045576
-0.090207
-0.131180
-0.155949
-0.188054
-0.198556
-0.181048
-0.145909
-0.118250
-0.082440
-0.041940
0.007279
0.048885
0.089673
0.119769
0.123253
0.118163
0.094531
0.063219
0.032966
-0.011343
-0.063855
-0.105602
-0.152874
-0.172678
-0.170140
-0.147957
-0.124885
-0.099324
-0.051452
-0.003197
0.025569
0.054535
0.085221
0.118460
0.131934
0.126430
0.091378
0.070990
0.038101
-0.001806
-0.049912
-0.085039
-0.117288
-0.138782
-0.145899
-0.146924
-0.127868
-0.081726
-0.019813
0.015046
0.059349
0.098288
0.124944
0.144972
0.159696
0.151696
0.137064
0.097129
0.047919
0.002842
-0.048917
-0.096963
-0.123114
-0.148532
-0.162510
-0.156538
-0.148667
-0.109937
-0.072231
-0.038537
0.008281
0.043966
0.070552
0.085813
0.093956
0.082125
0.053806
0.024644
-0.006582
-0.059096
-0.103424
-0.124748
-0.163698
-0.184392
-0.191998
-0.190154
-0.169672
-0.139183
-0.097592
-0.055969
-0.023144
0.015328
0.046285
0.063952
0.072315
0.073849
0.045473
0.012955
-0.015661
-0.063988
-0.109866
-0.144123
-0.184983
-0.223546
-0.237598
-0.215753
-0.193344
-0.157309
-0.115957
-0.070517
-0.025156
0.005978
0.039649
0.059711
0.056009
0.048248
0.037412
0.011861
-0.024271
-0.064403
-0.120116
-0.166048
-0.188674
-0.223446
-0.238874
-0.204590
-0.183613
-0.142557
-0.110629
-0.077710
-0.030112
0.006602
0.030798
0.071729
0.085315
0.075968
0.043822
-0.000752
-0.041130
-0.084546
-0.123601
-0.146615
-0.175826
-0.208655
-0.215271
-0.225727
-0.202128
-0.169196
-0.113798
-0.072255
-0.031516
0.004874
0.036779
0.058541
0.069429
0.054802
0.016258
-0.012966
-0.036883
-0.086047
-0.124523
-0.165740
-0.199073
-0.221563
-0.223419
-0.193152
-0.166794
-0.129709
-0.052778
0.007476
0.062884
0.101189
0.153038
0.208347
0.225989
0.208607
0.203265
0.183410
0.162567
0.142979
0.121143
0.104486
0.094295
0.109158
0.131825
0.177095
0.220749
0.273212
0.342622
0.400927
0.474091
0.561484
0.631770
0.690484
0.740771
0.776847
0.776338
0.755051
0.706377
0.654248
0.627867
0.592853
0.550152
0.504732
0.464306
0.421491
0.366345
0.340428
0.307800
0.300733
0.291457
0.289894
0.271938
0.256272
0.235185
0.203642
0.170972
0.113734
0.060971
0.015919
-0.027151
-0.075359
-0.115389
-0.143602
-0.143879
-0.150340
-0.130852
-0.106600
-0.052984
-0.016625
0.032905
0.079940
0.093491
0.111825
0.111612
0.122644
0.105283
0.090149
0.025051
-0.035471
-0.088223
-0.117494
-0.164025
-0.185630
-0.181570
-0.176430
-0.158429
-0.124731
-0.088457
-0.039343
-0.003590
0.034934
0.076564
0.090129
0.098361
0.091409
0.063658
0.042172
-0.001810
-0.050271
-0.068859
-0.125071
-0.162311
-0.186081
-0.195873
-0.198140
-0.177821
-0.142320
-0.106742
-0.053798
-0.005489
0.049461
0.082612
0.113939
0.117960
0.091974
0.076547
0.049449
0.015046
-0.030569
-0.090034
-0.134342
-0.159021
-0.166913
-0.187155
-0.175962
-0.160630
-0.130439
-0.083503
-0.031469
0.001921
0.049054
0.071159
0.091666
0.112125
0.103913
0.073232
0.047795
0.006765
-0.034545
-0.066662
-0.111059
-0.134509
-0.150842
-0.141417
-0.137085
-0.118716
-0.097057
-0.053064
-0.020614
0.033027
0.084879
0.112219
0.147130
0.151283
0.139723
0.110517
0.090157
0.047868
0.021067
-0.020745
-0.068140
-0.113106
-0.128693
-0.148663
-0.142178
-0.117600
-0.073424
-0.033931
0.028350
0.066057
0.113803
0.153400
0.159605
0.167086
0.166304
0.154396
0.113951
0.082029
0.033419
-0.002767
-0.048681
-0.075717
-0.100266
-0.105157
-0.090929
-0.067816
-0.045272
0.003079
0.054643
0.111414
0.139570
0.162457
0.196405
0.207754
0.206652
0.194483
0.152795
0.101630
0.053142
0.023939
-0.011588
-0.033812
-0.058696
-0.078969
-0.067800
-0.048225
-0.011294
0.028578
0.077780
0.117085
0.154724
0.193117
0.211875
0.222932
0.212713
0.170182
0.138443
0.116212
0.084820
0.028688
-0.020801
-0.054767
-0.068712
-0.084196
-0.075106
-0.053308
-0.026978
0.001275
0.045312
0.105335
0.154161
0.177800
0.192074
0.200385
0.184812
0.159655
0.125132
0.080596
0.043480
0.008012
-0.019789
-0.068758
-0.092334
-0.095069
-0.097997
-0.071431
-0.046453
-0.013265
0.030136
0.072388
0.110909
0.137284
0.159892
0.174699
0.165550
0.132051
0.103770
0.065129
0.014552
-0.033764
-0.079854
-0.111261
-0.127862
-0.147339
-0.137775
-0.125448
-0.095994
-0.058653
-0.018683
0.031583
0.068663
0.107210
0.115095
0.129924
0.132567
0.111333
0.065376
0.016259
-0.040738
-0.090807
-0.127723
-0.156069
-0.181217
-0.189601
-0.191181
-0.159028
-0.105061
-0.080011
-0.028785
0.009389
0.030760
0.069255
0.100221
0.112104
0.100625
0.079815
0.042769
0.000792
-0.044045
-0.084636
-0.127361
-0.168207
-0.207170
-0.208787
-0.194184
-0.175666
-0.143082
-0.105650
-0.071130
-0.024494
0.023342
0.054771
0.084418
0.094543
0.082682
0.056647
0.033922
-0.007414
-0.079428
-0.118332
-0.141875
-0.158745
-0.195704
-0.208488
-0.191690
-0.163634
-0.126252
-0.092584
-0.047255
0.012388
0.045815
0.079647
0.099890
0.103652
0.101870
0.080103
0.023922
-0.018472
-0.056109
-0.100341
-0.135092
-0.164254
-0.207736
-0.227787
-0.205653
-0.170895
-0.134088
-0.095098
-0.049472
-0.000584
0.037492
0.066519
0.091639
0.101031
0.108092
0.083110
0.019920
-0.008248
-0.038645
-0.082157
-0.129026
-0.158133
-0.169665
-0.181323
-0.175275
-0.159545
-0.134200
-0.091533
-0.042210
0.001299
0.045353
0.070513
0.093309
0.104349
0.094184
0.068617
0.051784
0.012221
-0.043705
-0.097676
-0.135703
-0.151888
-0.161758
-0.183644
-0.170139
-0.146866
-0.126225
-0.081700
-0.048379
-0.017929
0.030618
0.078935
0.105941
0.100102
0.103677
0.081155
0.039886
0.010687
-0.032328
-0.073077
-0.128324
-0.160951
-0.181704
-0.200774
-0.192784
-0.180464
-0.134094
-0.087308
-0.041983
-0.013622
0.021889
0.059794
0.085457
0.098215
0.089923
0.068387
0.028231
-0.011661
-0.050832
-0.102423
-0.141154
-0.162922
-0.174320
-0.177722
-0.186662
-0.166982
-0.137220
-0.108459
-0.074143
-0.018527
0.023491
0.060607
0.081012
0.092960
0.098098
0.071557
0.038011
-0.018678
-0.059078
-0.093892
-0.143440
-0.162939
-0.201086
-0.221279
-0.212195
-0.198699
-0.166199
-0.104546
-0.029762
0.009747
0.027425
0.055399
0.061837
0.071148
0.066693
0.053863
0.032042
-0.005372
-0.059707
-0.109917
-0.147293
-0.175637
-0.195480
-0.203513
-0.190449
-0.190269
-0.168273
-0.125898
-0.074187
-0.037110
0.016445
0.051416
0.077377
0.083268
0.073439
0.054457
0.012958
-0.022949
-0.064060
-0.104770
-0.141580
-0.176222
-0.206974
-0.210682
-0.196397
-0.177988
-0.150978
-0.110762
-0.068656
-0.032384
0.002253
0.032163
0.063424
0.078458
0.082918
0.078699
0.035108
0.001045
-0.040054
-0.079776
-0.122711
-0.154431
-0.179197
-0.187809
-0.176148
-0.142811
-0.107774
-0.072368
-0.042643
-0.004918
0.041066
0.077842
0.101040
0.111878
0.117104
0.099009
0.064131
0.018899
-0.034857
-0.078035
-0.122463
-0.147723
-0.148624
-0.153321
-0.166231
-0.154869
-0.129556
-0.097078
-0.036887
0.018083
0.043998
0.083529
0.115786
0.126425
0.119283
0.100302
0.074949
0.032204
-0.003579
-0.049069
-0.097379
-0.133127
-0.151744
-0.158863
-0.150957
-0.138613
-0.114482
-0.064098
-0.035165
-0.003696
0.038356
0.076235
0.114614
0.122593
0.110285
0.079225
0.032661
-0.013782
-0.055317
-0.087908
-0.127596
-0.168520
-0.207108
-0.218772
-0.217237
-0.197822
-0.163618
-0.102479
-0.063093
-0.018438
0.020290
0.040031
0.056419
0.049217
0.044970
0.012458
-0.020663
-0.050713
-0.075575
-0.116062
-0.158595
-0.194132
-0.222550
-0.227535
-0.229742
-0.201409
-0.154700
-0.130937
-0.087888
-0.056032
-0.012682
0.018237
0.037958
0.052575
0.054208
0.026566
-0.014196
-0.049289
-0.087613
-0.119930
-0.170644
-0.210701
-0.236183
-0.248341
-0.237193
-0.212029
-0.187265
-0.147597
-0.107123
-0.063840
-0.019597
0.014389
0.031472
0.043769
0.048505
0.017579
-0.024448
-0.060372
-0.081919
-0.125347
-0.188909
-0.230768
-0.247653
-0.259571
-0.251815
-0.238299
-0.191144
-0.140924
-0.105747
-0.061908
-0.008851
0.019361
0.040666
0.052059
0.034202
0.019000
-0.014378
-0.048294
-0.093951
-0.139556
-0.185416
-0.216127
-0.239718
-0.241991
-0.241278
-0.232047
-0.187958
-0.136377
-0.080655
-0.044063
-0.008872
0.020629
0.042615
0.063348
0.081252
0.074144
0.058361
0.049537
0.020271
-0.009032
-0.038895
-0.074315
-0.085037
-0.082739
-0.050412
-0.011745
0.052298
0.106430
0.165788
0.227584
0.301381
0.378613
0.430852
0.465796
0.492341
0.497893
0.490326
0.478247
0.463524
0.455887
0.453494
0.464995
0.512692
0.547806
0.549611
0.564205
0.581274
0.611780
0.662051
0.684112
0.709123
0.706087
0.697542
0.660343
0.575492
0.473007
0.378570
0.286311
0.202884
0.110951
0.019043
-0.052746
-0.098948
-0.128472
-0.127548
-0.107129
-0.083953
-0.051015
-0.013102
0.020602
0.054827
0.095781
0.108451
0.111858
0.107224
0.082015
0.048860
0.013530
-0.022970
-0.074925
-0.121142
-0.157464
-0.187671
-0.210950
-0.189910
-0.167797
-0.145497
-0.107316
-0.056197
-0.019973
0.025922
0.065491
0.080038
0.081432
0.066747
0.043741
0.019622
-0.020483
-0.064447
-0.108380
-0.154394
-0.192128
-0.213924
-0.218216
-0.219838
-0.189314
-0.151418
-0.099555
-0.056779
-0.025563
0.008692
0.040831
0.063673
0.082058
0.064940
0.037454
0.023082
-0.013897
-0.057197
-0.107782
-0.151411
-0.195243
-0.216574
-0.213446
-0.197694
-0.167533
-0.151035
-0.116917
-0.059938
-0.019647
0.027839
0.060246
0.077255
0.093951
0.099432
0.061021
0.030082
-0.005361
-0.049794
-0.096654
-0.143402
-0.172057
-0.201314
-0.202904
-0.192298
-0.181124
-0.155204
-0.101256
-0.046620
0.011092
0.048187
0.076707
0.097648
0.110635
0.102523
0.079790
0.052948
0.014042
-0.022624
-0.074198
-0.113827
-0.138553
-0.156324
-0.162970
-0.162990
-0.138853
-0.101139
-0.059866
-0.024636
0.030779
0.086738
0.105961
0.118018
0.134910
0.130282
0.128076
0.093664
0.053282
0.002949
-0.031744
-0.076691
-0.102476
-0.129459
-0.138411
-0.121725
-0.096269
-0.058019
-0.009966
0.028069
0.063878
0.103336
0.130182
0.162764
0.163563
0.166766
0.150611
0.113673
0.081032
0.028600
-0.009162
-0.048927
-0.073513
-0.089316
-0.103776
-0.085494
-0.067510
-0.035693
-0.002847
0.036877
0.096770
0.138089
0.171589
0.200597
0.197998
0.198107
0.179901
0.128379
0.074336
0.045732
-0.000337
-0.050373
-0.101140
-0.110176
-0.102450
-0.070972
-0.036146
-0.018935
0.007549
0.045763
0.077320
0.131610
0.174011
0.194146
0.195669
0.182187
0.150961
0.118168
0.074359
0.036727
-0.007580
-0.052763
-0.088694
-0.116605
-0.127522
-0.112185
-0.082800
-0.064018
-0.029638
0.026816
0.063699
0.110409
0.135585
0.150053
0.160139
0.145383
0.113658
0.092943
0.057389
0.002860
-0.033414
-0.067568
-0.103530
-0.123546
-0.132884
-0.129069
-0.133030
-0.119800
-0.070029
-0.047635
-0.022033
-0.000114
0.060307
0.096294
0.137673
0.131515
0.101592
0.052712
0.018929
-0.028122
-0.084854
-0.122215
-0.154856
-0.177106
-0.186364
-0.192313
-0.177879
-0.148078
-0.098094
-0.042964
-0.015520
0.026404
0.064612
0.096953
0.102761
0.098478
0.060913
0.037186
-0.005512
-0.061508
-0.101514
-0.157819
-0.182815
-0.204547
-0.215997
-0.198846
-0.179585
-0.155577
-0.110071
-0.074371
-0.031717
0.013474
0.049309
0.062872
0.063411
0.060200
0.028397
0.006238
-0.021472
-0.069910
-0.116262
-0.147296
-0.186386
-0.207650
-0.224319
-0.219359
-0.183339
-0.148385
-0.117758
-0.058959
-0.023100
0.045692
0.065149
0.052348
0.067370
0.075092
0.045640
0.008957
-0.021481
-0.068839
-0.110297
-0.139025
-0.168221
-0.187893
-0.212531
-0.200496
-0.182390
-0.164786
-0.114092
-0.062959
-0.022693
0.021837
0.055214
0.101660
0.100400
0.065601
0.036849
0.015853
-0.008108
-0.048266
-0.105989
-0.154000
-0.172098
-0.188000
-0.191377
-0.186924
-0.170814
-0.141519
-0.094733
-0.053271
-0.013059
0.038544
0.066593
0.077821
0.089540
0.084514
0.062781
0.037152
-0.003071
-0.053621
-0.105490
-0.133022
-0.161215
-0.193232
-0.196883
-0.184188
-0.158510
-0.134604
-0.097673
-0.056973
-0.014240
0.034116
0.060773
0.067899
0.088826
0.092879
0.065223
0.026365
-0.006909
-0.050965
-0.099840
-0.136519
-0.164989
-0.199100
-0.202092
-0.205589
-0.170208
-0.132642
-0.086169
-0.044462
-0.003512
0.039188
0.069083
0.091991
0.096171
0.092110
0.061712
0.021243
-0.012810
-0.053460
-0.089608
-0.143284
-0.168952
-0.205069
-0.214142
-0.217773
-0.194150
-0.154029
-0.105412
-0.066927
-0.030076
0.011760
0.046961
0.084457
0.094259
0.062322
0.043347
0.026623
-0.025344
-0.058215
-0.090453
-0.146489
-0.183257
-0.191748
-0.204268
-0.200713
-0.178639
-0.135388
-0.103499
-0.061054
-0.026477
0.007680
0.035846
0.056587
0.078732
0.077522
0.043911
0.030193
-0.015803
-0.068435
-0.116268
-0.134000
-0.176990
-0.201912
-0.224033
-0.225286
-0.200549
-0.163795
-0.120505
-0.083998
-0.047811
-0.004926
0.036895
0.072959
0.070372
0.061745
0.046416
0.022336
-0.014080
-0.051460
-0.088737
-0.132389
-0.176372
-0.224796
-0.225589
-0.211892
-0.194828
-0.153161
-0.102362
-0.072219
-0.030149
0.027116
0.057527
0.083680
0.095773
0.085719
0.062837
0.030810
-0.009081
-0.062142
-0.097968
-0.140682
-0.165101
-0.177336
-0.170316
-0.169120
-0.150285
-0.112684
-0.076992
-0.027416
0.015542
0.051888
0.083155
0.102560
0.122584
0.114645
0.079671
0.048968
0.015035
-0.043151
-0.082322
-0.133415
-0.157186
-0.180322
-0.187911
-0.171836
-0.151813
-0.129112
-0.073741
-0.041943
0.017957
0.075720
0.114086
0.125884
0.131166
0.116736
0.088956
0.065107
0.031549
-0.005581
-0.059045
-0.104202
-0.140269
-0.174114
-0.188957
-0.167270
-0.142078
-0.105312
-0.075205
-0.030890
0.000833
0.044147
0.076465
0.086947
0.094984
0.082925
0.053337
0.030680
-0.010069
-0.048921
-0.089977
-0.157765
-0.195369
-0.214939
-0.227590
-0.212081
-0.188942
-0.165818
-0.133639
-0.094227
-0.060430
-0.018493
0.031988
0.057296
0.062242
0.059378
0.037980
-0.001366
-0.027759
-0.067017
-0.120252
-0.176223
-0.194148
-0.218241
-0.213568
-0.204678
-0.197592
-0.184626
-0.140594
-0.094252
-0.052539
-0.007529
0.025822
0.046477
0.043327
0.042843
0.021502
0.006126
-0.039977
-0.093341
-0.139455
-0.169249
-0.205594
-0.228452
-0.240456
-0.228748
-0.205549
-0.190760
-0.149293
-0.101560
-0.054213
-0.006495
0.017363
0.037670
0.054152
0.048542
0.020893
-0.012358
-0.052118
-0.111151
-0.163552
-0.186545
-0.217217
-0.225761
-0.241221
-0.239080
-0.207854
-0.182814
-0.147051
-0.098858
-0.052528
-0.013120
0.001157
0.035340
0.043540
0.041980
0.024824
-0.010061
-0.056146
-0.095313
-0.148066
-0.198840
-0.222496
-0.231986
-0.244990
-0.231717
-0.203808
-0.175044
-0.122760
-0.066775
-0.016820
0.031843
0.077597
0.113652
0.139872
0.148375
0.165152
0.143969
0.110015
0.077661
0.039790
0.012058
0.001569
0.003307
0.025885
0.043305
0.085920
0.136450
0.227876
0.324972
0.382481
0.457669
0.512931
0.566503
0.602854
0.636347
0.662351
0.675462
0.674149
0.670077
0.655853
0.639650
0.602152
0.559081
0.538442
0.524919
0.529870
0.541813
0.555129
0.563690
0.542836
0.509371
0.464102
0.426248
0.393123
0.340960
0.265791
0.200324
0.124664
0.070853
0.025236
-0.024753
-0.058159
-0.094163
-0.111233
-0.100809
-0.094591
-0.084936
-0.044037
0.007465
0.043972
0.077342
0.111190
0.127422
0.122445
0.113188
0.091158
0.060625
0.011076
-0.031254
-0.070603
-0.117187
-0.156266
-0.167903
-0.178595
-0.171476
-0.159418
-0.123858
-0.088440
-0.045188
-0.001417
0.029923
0.062571
0.078094
0.080958
0.087261
0.059291
0.021375
-0.011725
-0.039853
-0.087882
-0.133742
-0.159329
-0.189979
-0.202320
-0.206275
-0.188276
-0.160204
-0.117671
-0.059740
-0.014502
0.032224
0.068627
0.083820
0.102586
0.099040
0.075015
0.043449
0.007599
-0.035150
-0.085420
-0.125534
-0.161547
-0.184884
-0.188363
-0.182867
-0.158509
-0.135421
-0.082287
-0.035141
-0.000368
0.042194
0.074056
0.094954
0.097857
0.109252
0.092569
0.048241
0.022440
-0.029219
-0.070364
-0.104550
-0.143531
-0.167192
-0.167362
-0.167532
-0.144780
-0.117459
-0.067745
-0.022761
0.022602
0.065272
0.108449
0.120080
0.123906
0.119076
0.101564
0.074943
0.044991
0.001030
-0.048365
-0.081370
-0.110218
-0.119119
-0.133072
-0.132396
-0.113493
-0.090443
-0.043871
0.008604
0.054124
0.107558
0.142862
0.161666
0.176273
0.165526
0.137782
0.102972
0.079006
0.040158
-0.005918
-0.049457
-0.077075
-0.096718
-0.097546
-0.087451
-0.063989
-0.046532
-0.006679
0.037836
0.080784
0.134054
0.186054
0.192686
0.194824
0.201065
0.181310
0.152639
0.107656
0.054768
0.020254
-0.019093
-0.041133
-0.070437
-0.080077
-0.075004
-0.046434
-0.004015
0.029094
0.066441
0.111425
0.156770
0.189183
0.211822
0.210466
0.207839
0.187027
0.156144
0.122258
0.067107
0.016515
-0.023249
-0.033044
-0.063099
-0.069517
-0.050713
-0.033740
-0.016381
0.022340
0.064938
0.094071
0.142099
0.175689
0.185620
0.207786
0.219621
0.186753
0.144057
0.093725
0.048783
0.011222
-0.038558
-0.071483
-0.089385
-0.104671
-0.093491
-0.062849
-0.027828
-0.000880
0.032034
0.073460
0.110923
0.128116
0.141036
0.150427
0.163822
0.144141
0.110482
0.070179
0.019167
-0.029367
-0.070995
-0.106844
-0.131062
-0.142025
-0.137256
-0.125991
-0.096104
-0.057244
-0.012064
0.032709
0.078141
0.106809
0.122117
0.138712
0.132050
0.104320
0.072074
0.031620
-0.010955
-0.067757
-0.102845
-0.156298
-0.188440
-0.185575
-0.166782
-0.156622
-0.115167
-0.076699
-0.030622
0.004884
0.040140
0.070133
0.083791
0.079306
0.088074
0.080761
0.038533
-0.007938
-0.031900
-0.096215
-0.133586
-0.167515
-0.170852
-0.173480
-0.173783
-0.148054
-0.119495
-0.081842
-0.036229
0.007852
0.047370
0.071227
0.085843
0.092144
0.089749
0.078134
0.045346
0.001240
-0.039613
-0.098677
-0.123416
-0.141139
-0.171425
-0.189676
-0.190441
-0.174540
-0.135882
-0.094745
-0.037326
-0.003762
0.035494
0.086948
0.101889
0.114073
0.103915
0.081386
0.041542
0.002286
-0.034860
-0.073762
-0.116400
-0.146572
-0.162369
-0.170620
-0.162304
-0.140037
-0.113371
-0.069520
-0.032435
0.014698
0.054727
0.078996
0.108341
0.099783
0.108231
0.076044
0.046191
0.014751
-0.023568
-0.060990
-0.106764
-0.138985
-0.157458
-0.164151
-0.162332
-0.143860
-0.101837
-0.064911
-0.024298
0.017964
0.054606
0.084852
0.105136
0.114207
0.107289
0.093555
0.060670
0.019260
-0.026791
-0.068548
-0.107535
-0.149511
-0.168241
-0.179744
-0.161773
-0.144902
-0.126206
-0.085732
-0.036972
0.004679
0.049778
0.087051
0.109488
0.121858
0.098371
0.081534
0.047821
0.012106
-0.035726
-0.085892
-0.109205
-0.129814
-0.153904
-0.159174
-0.156396
-0.134540
-0.107813
-0.069684
-0.040839
0.010855
0.063748
0.091643
0.121709
0.116610
0.108651
0.091141
0.064829
0.027095
-0.019039
-0.080538
-0.120363
-0.147548
-0.161701
-0.175572
-0.157070
-0.139008
-0.118398
-0.084836
-0.041699
0.007881
0.032257
0.061631
0.085614
0.109956
0.104920
0.083275
0.053223
0.002423
-0.046821
-0.082644
-0.121158
-0.158661
-0.188016
-0.185687
-0.160027
-0.156115
-0.129609
-0.089867
-0.053350
-0.015325
0.029372
0.070064
0.107874
0.115573
0.106076
0.093047
0.052351
0.011241
-0.037686
-0.089479
-0.140865
-0.174080
-0.184077
-0.174001
-0.177147
-0.162419
-0.146740
-0.104402
-0.068911
-0.020755
0.018985
0.056212
0.083749
0.105275
0.091333
0.068720
0.043302
0.008984
-0.040534
-0.077987
-0.118096
-0.164294
-0.187589
-0.202356
-0.188750
-0.166741
-0.130546
-0.096849
-0.047754
-0.008202
0.019657
0.063289
0.085554
0.093139
0.089969
0.078030
0.046917
0.012499
-0.042539
-0.101393
-0.132588
-0.159314
-0.181422
-0.191490
-0.187413
-0.162400
-0.138998
-0.098018
-0.052689
-0.008873
0.021624
0.056848
0.087843
0.108289
0.109723
0.088482
0.037024
-0.009883
-0.043176
-0.083462
-0.127705
-0.159930
-0.174025
-0.168140
-0.175774
-0.157124
-0.124773
-0.076716
-0.020277
0.025852
0.062924
0.093299
0.117103
0.133496
0.127751
0.101738
0.075471
0.039626
-0.012009
-0.057843
-0.103627
-0.130158
-0.144386
-0.166219
-0.149724
-0.117813
-0.092706
-0.067965
-0.022032
0.028813
0.067594
0.094656
0.114835
0.123464
0.124259
0.115738
0.088708
0.054435
0.000067
-0.068057
-0.100065
-0.110946
-0.136521
-0.134466
-0.135140
-0.121721
-0.080077
-0.036544
0.000560
0.050542
0.087106
0.124731
0.149470
0.149784
0.123654
0.093822
0.072068
0.034068
-0.010010
-0.055538
-0.106448
-0.143996
-0.166655
-0.173771
-0.162830
-0.133995
-0.105669
-0.099139
-0.051856
0.014051
0.045493
0.071605
0.095581
0.106965
0.083649
0.071422
0.039326
-0.001473
-0.044183
-0.083637
-0.134394
-0.172347
-0.202270
-0.206072
-0.202998
-0.180399
-0.155026
-0.105843
-0.066802
-0.023395
0.010167
0.036507
0.063088
0.070395
0.076133
0.043991
0.000970
-0.033959
-0.072059
-0.105951
-0.138393
-0.177884
-0.211915
-0.213817
-0.213526
-0.190137
-0.157172
-0.121189
-0.085714
-0.035378
0.008419
0.044550
0.059630
0.062050
0.064818
0.043166
0.012419
-0.037223
-0.076279
-0.131819
-0.176872
-0.204926
-0.220132
-0.233063
-0.211849
-0.195286
-0.163345
-0.119341
-0.071227
-0.028349
0.002052
0.038240
0.063369
0.069440
0.062918
0.047048
0.023708
-0.022870
-0.067022
-0.110063
-0.151039
-0.182527
-0.202995
-0.220703
-0.229350
-0.209855
-0.165717
-0.115506
-0.078629
-0.035980
0.002635
0.031590
0.056210
0.070965
0.061240
0.020773
-0.004047
-0.034859
-0.080232
-0.118851
-0.152367
-0.169900
-0.195731
-0.188224
-0.164890
-0.133309
-0.086747
-0.034913
0.025010
0.088186
0.141021
0.168183
0.210674
0.238317
0.260626
0.263396
0.277121
0.263376
0.262599
0.248425
0.225835
0.229440
0.238312
0.255463
0.287480
0.331355
0.402608
0.510177
0.615865
0.688614
0.770423
0.821445
0.861074
0.875369
0.875171
0.849568
0.854036
0.785571
0.705678
0.647333
0.570438
0.482858
0.383021
0.313906
0.264106
0.225259
0.211610
0.189282
0.177115
0.172384
0.197093
0.215211
0.225403
0.244517
0.242976
0.227213
0.179010
0.104041
0.051821
-0.010045
-0.068076
-0.102474
-0.124875
-0.138435
-0.136707
-0.102095
-0.080652
-0.043929
-0.013650
0.017623
0.087671
0.118132
0.132381
0.123592
0.110212
0.085989
0.046623
0.012987
-0.021892
-0.057927
-0.106212
-0.151856
-0.171022
-0.192912
-0.198347
-0.169238
-0.127004
-0.071600
-0.039173
-0.010792
0.037464
0.090424
0.114537
0.106278
0.109829
0.086081
0.047809
0.009041
-0.049724
-0.103261
-0.138871
-0.169761
-0.180704
-0.180440
-0.174530
-0.148220
-0.110395
-0.073454
-0.032391
0.006904
0.043567
0.083673
0.103333
0.110255
0.099466
0.084076
0.048820
0.020298
-0.010195
-0.069496
-0.109986
-0.140881
-0.168519
-0.165116
-0.167159
-0.140585
-0.107296
-0.067391
-0.033206
0.016518
0.062437
0.096525
0.116134
0.130249
0.118968
0.102766
0.078156
0.036457
-0.011735
-0.066050
-0.104296
-0.136441
-0.164152
-0.158496
-0.155574
-0.135253
-0.107271
-0.040912
0.011888
0.049420
0.082735
0.110171
0.132941
0.139595
0.136660
0.125433
0.091483
0.056843
0.032084
-0.014792
-0.050415
-0.077863
-0.117568
-0.127052
-0.127481
-0.099533
-0.070839
-0.032253
0.006961
0.049892
0.102161
0.149771
0.188090
0.209751
0.205625
0.175108
0.141489
0.107230
0.078315
0.031547
-0.019262
-0.063254
-0.068505
-0.084201
-0.074701
-0.064856
-0.028367
0.021669
0.064723
0.106686
0.160402
0.189482
0.206622
0.223457
0.219567
0.203829
0.163618
0.120777
0.086636
0.028332
-0.001778
-0.024035
-0.067280
-0.077953
-0.071507
-0.038623
0.000219
0.027151
0.065915
0.116760
0.181154
0.214364
0.227787
0.217201
0.184933
0.180150
0.161815
0.131896
0.097592
0.054480
0.001882
-0.042609
-0.064480
-0.067130
-0.057364
-0.044542
-0.025351
0.004621
0.047673
0.090806
0.140098
0.190277
0.220988
0.212323
0.194468
0.177145
0.159261
0.103773
0.049697
0.011326
-0.045623
-0.075734
-0.093971
-0.105204
-0.097890
-0.083701
-0.049719
-0.009611
0.024242
0.072814
0.108852
0.139043
0.160570
0.172184
0.162512
0.136514
0.104413
0.054021
0.004196
-0.039641
-0.069658
-0.105270
-0.131587
-0.134910
-0.130962
-0.099596
-0.081390
-0.049460
-0.014596
0.030698
0.071128
0.095775
0.116893
0.127617
0.117033
0.095229
0.062953
0.022494
-0.025266
-0.081885
-0.123698
-0.142661
-0.169464
-0.162244
-0.164992
-0.143082
-0.098589
-0.058170
-0.034510
0.005419
0.028597
0.072104
0.110632
0.108644
0.118009
0.082763
0.027365
-0.000055
-0.042780
-0.086942
-0.131330
-0.153605
-0.167457
-0.185725
-0.184750
-0.167263
-0.123046
-0.089396
-0.042935
0.011039
0.051012
0.074327
0.095523
0.112990
0.107795
0.076454
0.038215
-0.007007
-0.039371
-0.083571
-0.125290
-0.159783
-0.181468
-0.190514
-0.180813
-0.158781
-0.130200
-0.097244
-0.061204
-0.003041
0.055949
0.066696
0.092381
0.116815
0.109168
0.086362
0.057434
0.019451
-0.034113
-0.079561
-0.123695
-0.153172
-0.163587
-0.173865
-0.171609
-0.157092
-0.127264
-0.081599
-0.036090
0.005371
0.043169
0.074265
0.093194
0.101049
0.112575
0.093378
0.055141
0.022739
-0.017377
-0.064354
-0.107897
-0.142898
-0.161546
-0.180627
-0.168821
-0.151514
-0.127573
-0.079259
-0.031842
0.024000
0.057549
0.085941
0.111866
0.122102
0.107594
0.078358
0.049217
0.031162
-0.009654
-0.054954
-0.094903
-0.147292
-0.177694
-0.184773
-0.184306
-0.159887
-0.113391
-0.069387
-0.047150
0.009413
0.065524
0.102553
0.115108
0.116447
0.098812
0.086220
0.054648
0.017170
-0.015887
-0.065951
-0.112013
-0.162217
-0.172816
-0.176674
-0.173576
-0.152948
-0.122667
-0.089122
-0.054053
0.002568
0.038508
0.064537
0.088701
0.096820
0.096582
0.081907
0.045263
0.019577
-0.009398
-0.062812
-0.109606
-0.151258
-0.175759
-0.198104
-0.193151
-0.162288
-0.123573
-0.082798
-0.037274
0.009037
0.054812
0.082988
0.104743
0.105521
0.094145
0.084804
0.053291
0.006632
-0.028949
-0.082270
-0.140244
-0.171603
-0.178615
-0.190831
-0.184251
-0.152273
-0.123191
-0.078171
-0.039523
0.003261
0.031769
0.060548
0.082241
0.097352
0.091112
0.078938
0.044350
-0.002766
-0.049982
-0.083398
-0.125932
-0.164012
-0.186452
-0.197625
-0.190757
-0.172051
-0.155532
-0.113880
-0.063784
-0.015912
0.032424
0.052539
0.074980
0.089748
0.079199
0.063412
0.027863
-0.025375
-0.059071
-0.095422
-0.139412
-0.160498
-0.192725
-0.198667
-0.190447
-0.168740
-0.134822
-0.102702
-0.064796
-0.023352
0.032859
0.059830
0.088127
0.111111
0.096730
0.050585
0.023804
-0.015792
-0.053351
-0.117798
-0.153950
-0.172991
-0.193943
-0.204435
-0.181513
-0.170206
-0.137683
-0.095371
-0.057235
-0.013895
0.032034
0.061433
0.094176
0.096216
0.076597
0.066756
0.045368
0.003450
-0.030007
-0.083523
-0.123851
-0.156094
-0.164012
-0.170738
-0.167385
-0.148508
-0.111528
-0.059463
-0.019969
0.027197
0.059560
0.099777
0.115804
0.121660
0.122001
0.108532
0.074645
0.029348
-0.012490
-0.079611
-0.120265
-0.141317
-0.163301
-0.174767
-0.166155
-0.145983
-0.117273
-0.081175
-0.036455
0.010846
0.051458
0.109040
0.137184
0.151748
0.153418
0.123828
0.090224
0.052600
0.020868
-0.048166
-0.096076
-0.131029
-0.145522
-0.147824
-0.143455
-0.128706
-0.110219
-0.058952
-0.026664
0.018013
0.052443
0.084090
0.118542
0.130182
0.111861
0.084313
0.053150
0.016493
-0.042040
-0.074307
-0.120589
-0.160239
-0.186833
-0.200030
-0.192274
-0.172183
-0.137478
-0.082852
-0.051021
-0.010278
0.031441
0.066269
0.097594
0.099840
0.081547
0.048150
0.026893
-0.013866
-0.064030
-0.120383
-0.163233
-0.202833
-0.225279
-0.228818
-0.221320
-0.201831
-0.160474
-0.118168
-0.078316
-0.029274
0.010705
0.037706
0.071184
0.073047
0.060821
0.038564
-0.001663
-0.038797
-0.075698
-0.127076
-0.168040
-0.204035
-0.228495
-0.237075
-0.230979
-0.211581
-0.186884
-0.148041
-0.112696
-0.042315
0.010327
0.032480
0.051049
0.060783
0.062748
0.045436
0.013209
-0.032139
-0.083753
-0.120523
-0.170175
-0.206182
-0.224979
-0.227047
-0.219716
-0.196015
-0.183817
-0.135980
-0.094207
-0.045572
-0.014273
0.022940
0.043420
0.061391
0.052093
0.032990
-0.003558
-0.045852
-0.085946
-0.134839
-0.174316
-0.204656
-0.212773
-0.217970
-0.221830
-0.211927
-0.185094
-0.147346
-0.104443
-0.057485
-0.014857
0.025954
0.057429
0.072479
0.068413
0.049836
0.026631
-0.001896
-0.034585
-0.066746
-0.093796
-0.122275
-0.126660
-0.117403
-0.083496
-0.056289
-0.001820
0.059579
0.115011
0.178590
0.240995
0.306345
0.349484
0.407669
0.438165
0.450274
0.456848
0.452840
0.440143
0.419003
0.403581
0.408939
0.441325
0.470841
0.521721
0.579748
0.643639
0.680565
0.728946
0.760468
0.789264
0.792733
0.803446
0.806456
0.766413
0.703927
0.595293
0.483784
0.391720
0.280046
0.198972
0.106545
0.030572
-0.017124
-0.027784
-0.013559
0.021741
0.053117
0.077539
0.115056
0.141972
0.172796
0.193388
0.185777
0.146591
0.115587
0.093630
0.065811
0.003496
-0.055409
-0.097444
-0.132760
-0.150462
-0.154723
-0.151765
-0.139964
-0.120520
-0.082906
-0.029615
0.011867
0.057149
0.101528
0.111914
0.111724
0.103954
0.083933
0.043759
0.002234
-0.040512
-0.080281
-0.129488
-0.160178
-0.177847
-0.200945
-0.201282
-0.185041
-0.146785
-0.098682
-0.049920
-0.004199
0.035091
0.085868
0.103656
0.098357
0.085474
0.082311
0.056514
0.018708
-0.028365
-0.078259
-0.127079
-0.166609
-0.194681
-0.198111
-0.180890
-0.165763
-0.133180
-0.089215
-0.052823
0.000595
0.041293
0.076231
0.101652
0.098993
0.093801
0.090921
0.067030
0.016594
-0.023250
-0.077514
-0.109900
-0.140583
-0.182231
-0.183099
-0.176361
-0.157857
-0.115643
-0.077580
-0.029969
0.014226
0.051832
0.100104
0.114589
0.115676
0.108055
0.096809
0.072669
0.038347
0.002545
-0.039141
-0.090427
-0.121066
-0.145124
-0.159414
-0.145078
-0.121611
-0.082453
-0.047048
-0.005421
0.038971
0.095815
0.123159
0.139944
0.158158
0.155503
0.131043
0.087961
0.053218
0.030957
-0.012119
-0.051092
-0.083869
-0.102296
-0.113095
-0.101058
-0.079815
-0.049924
-0.013595
0.030816
0.082108
0.132042
0.172174
0.193380
0.189055
0.188261
0.166808
0.137617
0.102543
0.057864
-0.010016
-0.024575
-0.046155
-0.080774
-0.093766
-0.097757
-0.072486
-0.051561
-0.000150
0.057438
0.108706
0.157300
0.198446
0.222459
0.231060
0.226151
0.215530
0.169261
0.116037
0.075771
0.038493
0.010265
-0.025989
-0.065168
-0.068069
-0.040395
-0.024127
-0.005970
0.030159
0.070716
0.121676
0.164561
0.193561
0.213802
0.215489
0.212098
0.195597
0.168916
0.123017
0.068919
0.020032
-0.031911
-0.063212
-0.089492
-0.090725
-0.084950
-0.073291
-0.043277
-0.005190
0.040360
0.086882
0.130948
0.178696
0.193491
0.201362
0.187161
0.173537
0.140233
0.078550
0.027391
-0.000806
-0.026868
-0.079585
-0.117798
-0.139898
-0.140380
-0.095582
-0.064338
-0.025774
0.014537
0.056091
0.098354
0.132430
0.158685
0.153248
0.125117
0.109383
0.071019
0.043507
0.006206
-0.047440
-0.086111
-0.138304
-0.157465
-0.155777
-0.149205
-0.134384
-0.099925
-0.065097
-0.017131
0.007920
0.055694
0.094653
0.113707
0.111056
0.100330
0.102685
0.074001
0.025331
-0.040005
-0.075915
-0.116525
-0.147121
-0.169195
-0.174583
-0.172968
-0.154960
-0.126610
-0.092639
-0.060053
-0.024714
0.017398
0.053420
0.076441
0.080287
0.089492
0.109289
0.081211
0.026095
-0.043675
-0.083541
-0.117403
-0.167072
-0.178211
-0.198235
-0.193091
-0.156486
-0.130668
-0.095196
-0.045549
-0.000446
0.043892
0.062241
0.086583
0.107678
0.088191
0.072692
0.059806
0.022878
-0.049932
-0.086468
-0.122147
-0.154169
-0.174654
-0.181534
-0.168240
-0.157973
-0.142295
-0.104957
-0.059224
-0.002217
0.043172
0.082673
0.101814
0.105134
0.109892
0.084700
0.048792
0.003063
-0.025189
-0.068059
-0.121759
-0.146070
-0.152330
-0.171037
-0.161326
-0.137352
-0.111691
-0.069302
-0.038512
-0.003108
0.049539
0.092315
0.105441
0.118259
0.105539
0.088728
0.069814
0.014326
-0.013990
-0.043574
-0.094572
-0.149809
-0.166106
-0.179317
-0.156041
-0.142497
-0.101542
-0.078717
-0.044202
0.003901
0.056572
0.097942
0.119195
0.129775
0.128764
0.097731
0.068865
0.024160
-0.025742
-0.066835
-0.097579
-0.133759
-0.159304
-0.171477
-0.163086
-0.140009
-0.104298
-0.090287
-0.035959
0.018531
0.067851
0.090707
0.101158
0.141668
0.123703
0.095276
0.069936
0.030545
-0.016594
-0.073535
-0.117433
-0.147108
-0.167264
-0.175730
-0.168040
-0.144820
-0.114238
-0.067065
-0.030623
0.006508
0.044688
0.075252
0.097071
0.104454
0.111022
0.106732
0.067718
0.027387
-0.015543
-0.071248
-0.122436
-0.156055
-0.178748
-0.183434
-0.183042
-0.180693
-0.133330
-0.078145
-0.053382
-0.005927
0.045263
0.081280
0.094408
0.108154
0.113343
0.086849
0.048566
0.019969
-0.040893
-0.081495
-0.123180
-0.157304
-0.185219
-0.191812
-0.201590
-0.177013
-0.123602
-0.082164
-0.043991
-0.007706
0.052417
0.080769
0.107121
0.126089
0.122205
0.097528
0.054977
0.017733
-0.019961
-0.074036
-0.115868
-0.143848
-0.179900
-0.185346
-0.178387
-0.160163
-0.134320
-0.094307
-0.049228
0.011492
0.047799
0.089706
0.095591
0.097219
0.104906
0.082611
0.043460
0.000080
-0.026569
-0.069320
-0.118459
-0.166965
-0.190104
-0.200965
-0.185163
-0.172698
-0.138819
-0.107532
-0.054055
-0.010907
0.041533
0.082300
0.107350
0.108600
0.094099
0.071745
0.035224
0.004893
-0.039740
-0.088038
-0.123341
-0.150977
-0.183158
-0.192545
-0.172942
-0.170409
-0.151424
-0.102754
-0.037108
0.018071
0.050834
0.081891
0.093787
0.095693
0.098429
0.077838
0.058194
0.023822
-0.015865
-0.067699
-0.104798
-0.136367
-0.168397
-0.184776
-0.168381
-0.148645
-0.106437
-0.076379
-0.028552
0.011992
0.068432
0.109999
0.121197
0.132997
0.133672
0.125825
0.090907
0.056137
0.013987
-0.038621
-0.079445
-0.126336
-0.140613
-0.159266
-0.157430
-0.146967
-0.106353
-0.067043
-0.026892
0.031863
0.074283
0.125699
0.142296
0.138232
0.136318
0.117266
0.089622
0.046379
0.025761
0.002342
-0.037453
-0.086027
-0.120095
-0.129074
-0.126130
-0.107833
-0.078750
-0.040707
0.015623
0.054529
0.096280
0.142955
0.152505
0.143500
0.133765
0.111983
0.063414
0.021831
-0.015579
-0.060191
-0.111308
-0.151614
-0.175832
-0.181186
-0.177762
-0.159668
-0.116618
-0.053239
-0.005520
0.028923
0.061777
0.086194
0.105645
0.106525
0.100778
0.082896
0.039093
-0.010772
-0.039207
-0.080314
-0.117674
-0.152937
-0.182083
-0.194570
-0.191676
-0.160547
-0.132793
-0.100211
-0.050885
-0.008831
0.022402
0.061291
0.089544
0.092435
0.086081
0.072550
0.027024
-0.020822
-0.072726
-0.118179
-0.153466
-0.176143
-0.196803
-0.200257
-0.191919
-0.163189
-0.135799
-0.109495
-0.064491
-0.030348
0.016724
0.063835
0.080581
0.076095
0.071484
0.055701
0.026610
-0.010801
-0.069281
-0.105250
-0.130027
-0.173480
-0.194662
-0.208286
-0.205840
-0.173869
-0.144669
-0.115576
-0.085342
-0.042829
0.009022
0.055828
0.082490
0.086815
0.075997
0.074860
0.040299
0.004231
-0.059093
-0.105308
-0.133686
-0.166847
-0.201454
-0.205784
-0.198670
-0.175553
-0.162524
-0.126924
-0.066714
-0.024513
0.017679
0.048545
0.066707
0.065479
0.062272
0.045942
0.024826
-0.015817
-0.055327
-0.097210
-0.124666
-0.141030
-0.153011
-0.151084
-0.128230
-0.085456
-0.022837
0.026999
0.078950
0.116508
0.175870
0.245763
0.280743
0.304419
0.327482
0.339962
0.333967
0.315088
0.316105
0.321355
0.311839
0.321691
0.319410
0.330439
0.365123
0.428477
0.516897
0.575603
0.647849
0.723906
0.799550
0.836633
0.861625
0.861414
0.861574
0.822963
0.757027
0.700239
0.624712
0.536896
0.417506
0.319335
0.236947
0.182161
0.142283
0.112449
0.103135
0.102304
0.129718
0.156321
0.182278
0.225419
0.237546
0.232403
0.219409
0.199299
0.152677
0.102995
0.041009
0.001935
-0.054219
-0.096718
-0.127350
-0.120970
-0.124904
-0.109645
-0.074348
-0.037945
0.013434
0.050043
0.088321
0.115395
0.135383
0.148424
0.139541
0.112709
0.079301
0.033870
-0.015629
-0.065847
-0.113596
-0.147619
-0.172074
-0.169076
-0.174697
-0.153420
-0.106284
-0.070497
-0.017752
0.026601
0.072058
0.093610
0.107755
0.115249
0.127047
0.107917
0.068740
0.029558
-0.023361
-0.068228
-0.096179
-0.125649
-0.175584
-0.183464
-0.159842
-0.146186
-0.108982
-0.075164
-0.026591
0.016680
0.057619
0.104298
0.136282
0.131088
0.127523
0.101936
0.066807
0.022033
-0.016155
-0.057003
-0.100834
-0.143814
-0.166131
-0.159706
-0.157579
-0.146773
-0.101690
-0.053204
-0.005100
0.041569
0.084677
0.129996
0.146311
0.153500
0.145008
0.122027
0.087832
0.056585
0.022236
-0.025178
-0.066057
-0.101207
-0.124969
-0.132771
-0.128468
-0.117890
-0.081042
-0.037994
0.006256
0.053354
0.089803
0.144067
0.162215
0.165664
0.150961
0.136900
0.107347
0.082083
0.040374
0.001978
-0.059151
-0.079167
-0.097502
-0.100993
-0.097209
-0.087213
-0.052845
0.002744
0.035439
0.088920
0.160280
0.192091
0.217059
0.206937
0.210092
0.200727
0.164844
0.125481
0.076860
0.022000
-0.007881
-0.033979
-0.059227
-0.063107
-0.057868
-0.041059
-0.011811
0.039791
0.075209
0.137867
0.179103
0.209956
0.230041
0.238863
0.230897
0.218445
0.179449
0.144836
0.097134
0.060591
0.018639
-0.016408
-0.043375
-0.054207
-0.041594
-0.019405
0.010488
0.043893
0.095184
0.132078
0.185589
0.222699
0.239846
0.241901
0.243368
0.220464
0.183377
0.138998
0.086290
0.051252
0.012913
-0.021349
-0.048614
-0.067450
-0.062248
-0.039674
0.000757
0.032752
0.078284
0.127145
0.169569
0.210635
0.209264
0.202636
0.207615
0.194992
0.168380
0.117027
0.072902
0.045318
0.002530
-0.048240
-0.080279
-0.094665
-0.089609
-0.069849
-0.018729
0.005539
0.037685
0.078019
0.133004
0.169831
0.191960
0.193183
0.179496
0.150999
0.130034
0.087660
0.033656
-0.012707
-0.060768
-0.106735
-0.130743
-0.137217
-0.142878
-0.128312
-0.106340
-0.060931
-0.013677
0.043692
0.094912
0.141623
0.159222
0.153733
0.156563
0.132586
0.086372
0.052300
-0.008553
-0.058335
-0.099842
-0.124862
-0.153980
-0.155285
-0.144774
-0.115674
-0.093454
-0.077432
-0.030821
0.032187
0.065475
0.110193
0.118319
0.116571
0.101093
0.082974
0.063642
0.042414
-0.018274
-0.062129
-0.105090
-0.135630
-0.178644
-0.190534
-0.174391
-0.139980
-0.121052
-0.089040
-0.033080
0.006120
0.055506
0.092282
0.114416
0.129477
0.143130
0.123493
0.071389
0.035563
0.003582
-0.045968
-0.096016
-0.132102
-0.159518
-0.176225
-0.169848
-0.145345
-0.109905
-0.067038
-0.025713
0.026083
0.053631
0.090098
0.133788
0.140829
0.126294
0.108505
0.063994
0.047085
0.005964
-0.034688
-0.095843
-0.124866
-0.154665
-0.161321
-0.147957
-0.118054
-0.088030
-0.065615
-0.028449
0.018718
0.072652
0.118729
0.140322
0.143962
0.139544
0.124282
0.084471
0.034085
0.000688
-0.023725
-0.078777
-0.116353
-0.144509
-0.156829
-0.145345
-0.130196
-0.087010
-0.050219
-0.011512
0.046162
0.077766
0.107385
0.129220
0.142799
0.134362
0.113911
0.077565
0.036530
-0.013301
-0.063019
-0.097695
-0.122847
-0.136788
-0.148811
-0.145658
-0.133941
-0.085714
-0.045950
-0.008111
0.044095
0.081270
0.108248
0.130163
0.140616
0.136932
0.110819
0.075617
0.047583
0.004290
-0.044450
-0.088566
-0.121804
-0.153231
-0.153061
-0.152668
-0.145266
-0.097301
-0.068437
-0.025677
0.027759
0.066394
0.100330
0.126855
0.133168
0.121065
0.083972
0.057370
0.044514
0.004216
-0.047556
-0.088379
-0.125545
-0.144780
-0.142439
-0.142564
-0.140833
-0.108466
-0.072004
-0.013046
0.032688
0.065940
0.097246
0.122256
0.130412
0.112732
0.093168
0.062341
0.036555
-0.013051
-0.058802
-0.094087
-0.131282
-0.160495
-0.163891
-0.159429
-0.143313
-0.108113
-0.073046
-0.030778
0.021043
0.059635
0.091223
0.122045
0.123223
0.124610
0.102105
0.054538
0.018332
-0.017627
-0.036323
-0.085568
-0.130008
-0.154162
-0.176821
-0.171229
-0.148060
-0.135750
-0.100354
-0.048522
0.005217
0.042718
0.081017
0.102935
0.109275
0.128752
0.123223
0.088810
0.041111
-0.009519
-0.067614
-0.119411
-0.149890
-0.170687
-0.177754
-0.178467
-0.151115
-0.112256
-0.070153
-0.027460
-0.006931
0.048735
0.084296
0.110657
0.118290
0.099577
0.078845
0.052317
0.022816
-0.016735
-0.062000
-0.098907
-0.143629
-0.184529
-0.179604
-0.171090
-0.154232
-0.126672
-0.091581
-0.049337
0.002925
0.042688
0.080890
0.107370
0.113817
0.115500
0.088756
0.058229
0.019268
-0.014932
-0.057968
-0.101241
-0.142929
-0.171569
-0.164160
-0.154650
-0.137185
-0.116353
-0.077885
-0.011543
0.038075
0.064165
0.096580
0.122450
0.133558
0.154706
0.130458
0.093058
0.061988
0.014132
-0.046046
-0.086936
-0.112970
-0.128569
-0.135621
-0.136134
-0.120975
-0.086083
-0.045746
-0.004740
0.056392
0.094464
0.130848
0.145480
0.124742
0.119765
0.119982
0.093299
0.073545
0.012519
-0.041624
-0.076705
-0.106430
-0.112766
-0.121139
-0.118121
-0.089481
-0.049541
-0.025058
0.011999
0.050214
0.099561
0.142261
0.176851
0.182562
0.167674
0.146513
0.105236
0.060500
0.001086
-0.042979
-0.087179
-0.121767
-0.144097
-0.155357
-0.157038
-0.138864
-0.121051
-0.074397
-0.010373
0.037549
0.074571
0.107840
0.136386
0.143438
0.131143
0.105944
0.065629
0.023936
-0.034141
-0.077756
-0.111384
-0.145064
-0.177461
-0.178127
-0.176128
-0.160997
-0.142286
-0.102084
-0.046598
0.005343
0.043856
0.078486
0.097211
0.100833
0.105198
0.084350
0.051184
0.000339
-0.071736
-0.103154
-0.148226
-0.190461
-0.197506
-0.194126
-0.185507
-0.164690
-0.145506
-0.110175
-0.063540
-0.015977
0.030377
0.067148
0.081185
0.087675
0.086499
0.065602
0.017858
-0.006785
-0.036204
-0.110003
-0.143306
-0.171409
-0.198276
-0.209056
-0.203920
-0.190773
-0.155031
-0.120187
-0.068128
-0.006043
0.023713
0.055876
0.076360
0.083486
0.083384
0.065566
0.032700
0.006759
-0.026393
-0.080755
-0.130915
-0.162955
-0.195691
-0.200135
-0.205389
-0.180402
-0.135885
-0.104649
-0.069982
-0.014010
0.031979
0.076820
0.088403
0.089313
0.079602
0.058004
0.021951
-0.008385
-0.050547
-0.101479
-0.141358
-0.171146
-0.195521
-0.201307
-0.196328
-0.162956
-0.117691
-0.070010
-0.008899
0.058126
0.117065
0.165803
0.172690
0.199080
0.222558
0.226588
0.222131
0.202525
0.160940
0.139295
0.119911
0.112791
0.122515
0.158602
0.188760
0.242854
0.311109
0.380109
0.450775
0.523870
0.610504
0.690482
0.751380
0.795869
0.817513
0.822864
0.803335
0.761345
0.709619
0.680230
0.630091
0.576204
0.528385
0.492274
0.459919
0.424845
0.374066
0.362692
0.362225
0.346732
0.343152
0.322362
0.303175
0.286321
0.272809
0.249440
0.206783
0.165822
0.107072
0.049250
-0.005338
-0.039998
-0.076985
-0.098797
-0.076340
-0.068243
-0.055046
-0.012901
0.025286
0.068334
0.106311
0.126073
0.152579
0.161613
0.152728
0.121792
0.084996
0.048291
-0.005586
-0.053500
-0.099474
-0.126331
-0.149603
-0.152535
-0.143847
-0.134389
-0.101868
-0.055913
-0.009249
0.035993
0.076810
0.099586
0.113702
0.125496
0.125875
0.099279
0.063764
0.037918
-0.000636
-0.056389
-0.111151
-0.149291
-0.164431
-0.174579
-0.157818
-0.132047
-0.093545
-0.059517
-0.022348
0.026213
0.075735
0.102459
0.116994
0.121333
0.117218
0.091552
0.067154
0.039506
0.004846
-0.059341
-0.102668
-0.119032
-0.134046
-0.125031
-0.131688
-0.106270
-0.081030
-0.054123
-0.004678
0.045777
0.083120
0.110496
0.150469
0.149195
0.148772
0.135120
0.095865
0.055787
0.008576
-0.037744
-0.079035
-0.109630
-0.133745
-0.131820
-0.115507
-0.103781
-0.081629
-0.039936
0.009728
0.061980
0.119087
0.146222
0.168077
0.186917
0.184945
0.149896
0.112023
0.074799
0.030607
-0.003893
-0.050243
-0.084584
-0.109425
-0.100501
-0.097863
-0.079935
-0.052830
-0.006167
0.048690
0.102249
0.130064
0.171382
0.208108
0.217788
0.201152
0.185273
0.153072
0.125273
0.079603
0.030801
-0.014875
-0.046806
-0.073293
-0.063910
-0.045816
-0.035436
-0.001954
0.044829
0.090489
0.133730
0.172145
0.208849
0.241815
0.234329
0.226008
0.214152
0.183687
0.147449
0.105224
0.052735
0.013327
-0.014178
-0.031371
-0.036249
-0.017311
-0.018231
0.010426
0.052616
0.101685
0.144672
0.184641
0.216183
0.248669
0.257885
0.253904
0.224681
0.205795
0.156938
0.112836
0.068619
0.026753
-0.011874
-0.040508
-0.048570
-0.044452
-0.021405
0.005845
0.040419
0.091802
0.124217
0.172330
0.204058
0.227690
0.237260
0.232941
0.216410
0.167127
0.135514
0.085554
0.035325
-0.002948
-0.040662
-0.054288
-0.067977
-0.053138
-0.046707
-0.030186
0.010927
0.052961
0.101134
0.145336
0.195488
0.222123
0.219582
0.205417
0.179312
0.154154
0.112095
0.054965
0.002433
-0.053465
-0.090384
-0.122538
-0.115935
-0.107727
-0.088770
-0.063348
-0.025106
0.015816
0.052304
0.104153
0.133576
0.154176
0.159853
0.151209
0.134563
0.105248
0.066933
0.017776
-0.029155
-0.071186
-0.108554
-0.124385
-0.139991
-0.146270
-0.126706
-0.094803
-0.055217
-0.003912
0.047467
0.081632
0.105475
0.125638
0.116644
0.122509
0.110365
0.089857
0.038065
-0.006318
-0.050209
-0.090018
-0.133550
-0.150211
-0.164959
-0.159188
-0.150280
-0.122409
-0.078865
-0.033897
0.025859
0.074151
0.107442
0.127380
0.142847
0.152984
0.124646
0.092558
0.040313
-0.012613
-0.055242
-0.096725
-0.133302
-0.151330
-0.156064
-0.151727
-0.136659
-0.108860
-0.063586
-0.029886
0.022562
0.080410
0.114410
0.142037
0.148335
0.136824
0.120682
0.095732
0.062845
0.008746
-0.048916
-0.081408
-0.110171
-0.135994
-0.147815
-0.143239
-0.116529
-0.087153
-0.045177
-0.007638
0.030987
0.080188
0.102222
0.128187
0.138281
0.134824
0.112345
0.096462
0.045137
-0.005813
-0.049395
-0.079053
-0.111367
-0.136815
-0.150194
-0.134416
-0.114894
-0.088981
-0.049800
-0.002595
0.043900
0.088038
0.122886
0.143213
0.159369
0.143208
0.113498
0.090491
0.045469
-0.005124
-0.035043
-0.061329
-0.084265
-0.121572
-0.140926
-0.142933
-0.112254
-0.083333
-0.049724
-0.000403
0.045398
0.090305
0.129875
0.152778
0.161994
0.150510
0.125330
0.102298
0.058723
0.014337
-0.042556
-0.091224
-0.119341
-0.142211
-0.155932
-0.152096
-0.136928
-0.107337
-0.054188
-0.003614
0.044566
0.086314
0.116363
0.124799
0.138317
0.139573
0.114492
0.075287
0.037980
0.000112
-0.037266
-0.084054
-0.122317
-0.146127
-0.157828
-0.148301
-0.124993
-0.098070
-0.064148
-0.018779
0.033085
0.079075
0.111249
0.137792
0.141239
0.137634
0.107195
0.071155
0.031746
0.006988
-0.041831
-0.090177
-0.125716
-0.157224
-0.167288
-0.159112
-0.147289
-0.119056
-0.074778
-0.033680
0.016903
0.082112
0.124568
0.139688
0.146520
0.129517
0.109036
0.084324
0.031787
-0.013534
-0.057372
-0.103278
-0.145612
-0.165018
-0.174424
-0.163487
-0.147082
-0.119184
-0.079006
-0.033872
0.020209
0.067074
0.085569
0.106008
0.133149
0.130103
0.106234
0.066276
0.034058
0.000364
-0.055219
-0.096041
-0.134623
-0.162037
-0.186436
-0.174953
-0.147724
-0.101785
-0.061975
-0.024301
0.022917
0.068093
0.102617
0.121581
0.128647
0.127258
0.110238
0.078636
0.038494
-0.009934
-0.063301
-0.113801
-0.147476
-0.168290
-0.168766
-0.163265
-0.152440
-0.123815
-0.078542
-0.019639
0.035387
0.075361
0.105031
0.115376
0.129250
0.131646
0.089791
0.057759
0.016106
-0.018705
-0.061550
-0.106306
-0.143929
-0.181000
-0.193329
-0.185843
-0.164447
-0.136510
-0.083262
-0.030410
0.021560
0.072924
0.096523
0.124615
0.130144
0.136578
0.123592
0.083764
0.043437
0.012672
-0.039044
-0.091239
-0.131997
-0.152636
-0.146462
-0.142267
-0.133074
-0.103159
-0.053963
-0.004136
0.039175
0.088961
0.142225
0.166982
0.165340
0.146284
0.126386
0.101844
0.064359
0.023425
-0.023260
-0.062172
-0.084760
-0.114895
-0.125634
-0.118144
-0.099961
-0.070499
-0.024312
0.015669
0.059958
0.117235
0.148177
0.171313
0.171091
0.169138
0.141461
0.106742
0.065698
0.015824
-0.024931
-0.071037
-0.096017
-0.106929
-0.120475
-0.111087
-0.088069
-0.067164
-0.030269
0.016244
0.070588
0.117863
0.144234
0.163240
0.163728
0.154490
0.120029
0.093139
0.056670
0.021577
-0.028992
-0.070057
-0.121221
-0.144197
-0.155122
-0.148139
-0.118796
-0.094951
-0.057812
-0.023018
0.013086
0.052716
0.084941
0.108152
0.120181
0.110657
0.081521
0.057384
0.022725
-0.018439
-0.052093
-0.099025
-0.141473
-0.171883
-0.180753
-0.178289
-0.163544
-0.136991
-0.097163
-0.053068
-0.010094
0.037023
0.066991
0.081997
0.103722
0.105417
0.071206
0.037600
-0.010866
-0.067906
-0.104299
-0.130272
-0.146569
-0.158952
-0.186563
-0.182779
-0.154422
-0.130319
-0.081331
-0.031363
-0.001031
0.023631
0.057826
0.094835
0.105182
0.085667
0.058913
0.042025
0.006001
-0.040414
-0.099766
-0.140887
-0.173963
-0.187739
-0.200900
-0.202875
-0.167167
-0.122977
-0.082823
-0.030931
0.003783
0.027115
0.064894
0.092552
0.101653
0.116015
0.095701
0.062030
0.015091
-0.033889
-0.098672
-0.140074
-0.167029
-0.188892
-0.215642
-0.214627
-0.174213
-0.133194
-0.087583
-0.060144
-0.018673
0.016676
0.044336
0.071994
0.092572
0.094866
0.077768
0.051580
-0.007616
-0.054300
-0.084073
-0.119634
-0.137151
-0.149597
-0.146926
-0.141229
-0.101881
-0.059920
-0.001261
0.049115
0.108340
0.167252
0.229305
0.270928
0.304383
0.325339
0.335130
0.331443
0.316336
0.305310
0.293118
0.284243
0.271135
0.281056
0.291978
0.328618
0.390704
0.467800
0.555897
0.616075
0.713485
0.787192
0.845223
0.867994
0.861552
0.849979
0.819845
0.771079
0.713074
0.639463
0.557767
0.474741
0.372471
0.279005
0.204704
0.178252
0.165642
0.146432
0.131507
0.138182
0.188961
0.219524
0.234846
0.240439
0.238338
0.239646
0.209701
0.163117
0.120364
0.079893
0.003731
-0.039378
-0.068513
-0.089154
-0.110489
-0.109722
-0.093417
-0.078385
-0.029519
0.023730
0.069498
0.113566
0.138174
0.162535
0.168835
0.158064
0.132026
0.105054
0.063032
0.008527
-0.053493
-0.102434
-0.142520
-0.160442
-0.164997
-0.164570
-0.143044
-0.110986
-0.063117
-0.016671
0.023331
0.076356
0.120693
0.135904
0.139904
0.125883
0.108045
0.095140
0.058394
0.017482
-0.028771
-0.063703
-0.110243
-0.144525
-0.162063
-0.149495
-0.148377
-0.127808
-0.086649
-0.036977
0.011929
0.065203
0.102005
0.117577
0.133245
0.148116
0.112902
0.084503
0.041721
0.006974
-0.028230
-0.063469
-0.082153
-0.111374
-0.123054
-0.106895
-0.110911
-0.102914
-0.065118
-0.025092
0.030332
0.071351
0.106782
0.132333
0.146162
0.138766
0.118724
0.092062
0.062566
0.019949
-0.030514
-0.082420
-0.109578
-0.123339
-0.126136
-0.123300
-0.096333
-0.068285
-0.023194
0.018570
0.065757
0.113748
0.154761
0.160749
0.161713
0.171377
0.148266
0.123041
0.086967
0.044093
-0.004059
-0.048329
-0.058262
-0.085533
-0.090084
-0.100343
-0.078399
-0.033739
0.011651
0.050428
0.091572
0.142114
0.184075
0.206546
0.214966
0.216983
0.205816
0.176809
0.138982
0.086500
0.033096
-0.014145
-0.030156
-0.039210
-0.061312
-0.058206
-0.032348
-0.006881
0.032989
0.078842
0.121947
0.174815
0.215325
0.237952
0.250564
0.245302
0.236681
0.216117
0.167975
0.124452
0.062476
0.027425
-0.014648
-0.053113
-0.055993
-0.048748
-0.036018
-0.007994
0.033858
0.070841
0.126986
0.178095
0.214934
0.239229
0.262543
0.257684
0.247693
0.216820
0.164982
0.122823
0.076840
0.025399
0.000977
-0.025500
-0.060535
-0.055186
-0.033668
0.002776
0.042613
0.072646
0.128977
0.188640
0.223086
0.237901
0.236288
0.222749
0.193247
0.183745
0.141448
0.081969
0.023921
-0.018477
-0.047552
-0.069963
-0.075853
-0.079810
-0.061733
-0.028622
0.015357
0.070220
0.108339
0.149799
0.173252
0.196096
0.196677
0.181690
0.160249
0.134592
0.097273
0.047142
-0.001380
-0.046812
-0.095178
-0.119606
-0.138282
-0.125401
-0.102598
-0.077418
-0.032719
0.013789
0.060132
0.101676
0.132725
0.153834
0.163352
0.152581
0.129650
0.101590
0.044991
0.002906
-0.032892
-0.085134
-0.118019
-0.131978
-0.142531
-0.139430
-0.132408
-0.097018
-0.042699
-0.003906
0.048241
0.088533
0.118547
0.139076
0.138296
0.126286
0.119738
0.097489
0.056871
0.015491
-0.047154
-0.108467
-0.144295
-0.157868
-0.179309
-0.165074
-0.135989
-0.108048
-0.065640
-0.032963
0.015581
0.051999
0.071369
0.098840
0.116779
0.121503
0.100052
0.080562
0.049208
-0.004535
-0.051450
-0.098446
-0.134594
-0.144762
-0.139129
-0.133196
-0.116682
-0.082835
-0.040968
0.004721
0.044958
0.086840
0.119568
0.138300
0.145089
0.141504
0.117240
0.085074
0.042640
-0.008450
-0.058457
-0.091246
-0.123570
-0.152604
-0.163993
-0.150076
-0.126717
-0.094214
-0.053432
-0.005207
0.051457
0.087758
0.121553
0.150877
0.163633
0.147897
0.112494
0.096112
0.048089
0.001326
-0.052510
-0.094199
-0.121536
-0.129794
-0.148179
-0.138656
-0.117807
-0.088980
-0.051861
0.000719
0.046286
0.094831
0.121626
0.140394
0.153798
0.147618
0.128618
0.107329
0.069196
0.012151
-0.037714
-0.074460
-0.122497
-0.142894
-0.151733
-0.135086
-0.110105
-0.081031
-0.036118
0.011053
0.044218
0.088885
0.118401
0.142681
0.157776
0.144786
0.122114
0.093743
0.044959
0.006019
-0.032953
-0.081076
-0.111907
-0.139061
-0.155362
-0.151055
-0.109755
-0.083912
-0.056736
-0.009785
0.043871
0.096062
0.124212
0.142056
0.149132
0.137722
0.115302
0.097265
0.047319
0.002937
-0.040970
-0.087486
-0.131288
-0.138334
-0.143022
-0.141580
-0.135821
-0.105923
-0.061139
-0.012713
0.037037
0.073669
0.104974
0.120910
0.125549
0.129360
0.118389
0.086038
0.040925
-0.011083
-0.051581
-0.103394
-0.127239
-0.142969
-0.148211
-0.152901
-0.130113
-0.099759
-0.062944
-0.025024
0.029521
0.064834
0.106294
0.126910
0.143536
0.128951
0.113756
0.079933
0.029111
-0.026497
-0.069981
-0.116485
-0.144542
-0.157614
-0.170733
-0.149987
-0.122176
-0.089930
-0.054554
-0.030282
0.010971
0.044220
0.090827
0.124592
0.128051
0.117469
0.096338
0.084037
0.040198
-0.016716
-0.058224
-0.106324
-0.146323
-0.165588
-0.147041
-0.147241
-0.145936
-0.110023
-0.071817
-0.021755
0.027074
0.067786
0.100431
0.116119
0.126863
0.113913
0.092262
0.061481
0.021199
-0.014266
-0.050736
-0.096840
-0.150894
-0.179240
-0.174901
-0.166722
-0.139351
-0.120835
-0.078933
-0.022163
0.020409
0.054208
0.100879
0.120350
0.113216
0.114052
0.104002
0.073615
0.019449
-0.026756
-0.065157
-0.110600
-0.143440
-0.166615
-0.180129
-0.175576
-0.151711
-0.120424
-0.081856
-0.027667
0.014282
0.061857
0.098301
0.133247
0.145534
0.124696
0.102406
0.077086
0.024295
-0.030833
-0.065438
-0.098138
-0.150635
-0.147321
-0.137949
-0.127956
-0.113227
-0.081534
-0.039753
0.013357
0.054201
0.095509
0.130793
0.155166
0.167150
0.163252
0.127469
0.100721
0.063742
0.025363
-0.028324
-0.073411
-0.107120
-0.131943
-0.140942
-0.137371
-0.122938
-0.099926
-0.047833
0.003552
0.048347
0.085019
0.111876
0.138658
0.167073
0.166975
0.141154
0.115809
0.065054
0.019267
-0.022863
-0.063185
-0.083734
-0.116393
-0.126285
-0.116487
-0.096991
-0.063601
-0.022005
0.021240
0.061838
0.102061
0.136434
0.156807
0.159583
0.149392
0.132542
0.090042
0.039566
-0.003866
-0.060751
-0.113886
-0.157878
-0.163449
-0.153424
-0.160025
-0.141592
-0.106051
-0.062153
-0.011408
0.026389
0.060259
0.081478
0.104657
0.107774
0.113685
0.087137
0.060483
0.001253
-0.063715
-0.091169
-0.139449
-0.179881
-0.185128
-0.190601
-0.190468
-0.168770
-0.134366
-0.100014
-0.064888
-0.021910
0.025874
0.061676
0.080867
0.090831
0.083963
0.061332
0.034543
0.005242
-0.056308
-0.111357
-0.145148
-0.171333
-0.187951
-0.194596
-0.185642
-0.170369
-0.144475
-0.105500
-0.056352
-0.008050
0.030810
0.066061
0.082623
0.098475
0.091089
0.054941
0.020784
-0.022514
-0.064517
-0.094553
-0.132598
-0.171976
-0.192951
-0.201269
-0.200799
-0.184597
-0.157453
-0.115910
-0.073571
-0.013964
0.037283
0.068448
0.088347
0.101619
0.086072
0.070386
0.044434
-0.015412
-0.058884
-0.113063
-0.146007
-0.182058
-0.212789
-0.233000
-0.234777
-0.214352
-0.176751
-0.113443
-0.059746
-0.016188
0.020196
0.054819
0.089963
0.090094
0.090013
0.077562
0.059871
0.026616
-0.020021
-0.029537
-0.043708
-0.075483
-0.071973
-0.064651
-0.054028
-0.022161
0.027892
0.090006
0.153485
0.219747
0.292560
0.347371
0.396383
0.447995
0.478313
0.490376
0.501024
0.482341
0.461759
0.445873
0.440649
0.448338
0.471386
0.495682
0.534738
0.574200
0.612073
0.648996
0.684991
0.735572
0.750533
0.764621
0.783119
0.757965
0.723516
0.636395
0.537237
0.434872
0.335869
0.241269
0.157316
0.069190
0.008145
-0.040532
-0.043123
-0.036001
0.000349
0.039032
0.091843
0.125894
0.157670
0.182058
0.175234
0.170768
0.175978
0.168027
0.130684
0.091239
0.019489
-0.023733
-0.088735
-0.130107
-0.137137
-0.141196
-0.140007
-0.129494
-0.110724
-0.089608
-0.020736
0.028639
0.077408
0.115632
0.128243
0.122448
0.104554
0.087076
0.065521
0.037385
-0.007208
-0.059588
-0.062845
-0.084842
-0.121143
-0.152060
-0.161616
-0.155466
-0.141359
-0.085699
-0.042613
-0.000327
0.066557
0.097528
0.113922
0.111249
0.104905
0.100624
0.065307
0.014611
-0.036111
-0.086833
-0.135752
-0.149893
-0.171465
-0.209140
-0.193461
-0.152258
-0.098994
-0.050993
-0.021523
0.000731
0.024459
0.068094
0.101592
0.141383
0.151372
0.138558
0.094271
0.036202
-0.013546
-0.039146
-0.107405
-0.144785
-0.174499
-0.184456
-0.163517
-0.145238
-0.116416
-0.062789
-0.014291
0.029466
0.078145
0.130464
0.152101
0.162303
0.146369
0.121887
0.101928
0.029908
-0.007381
-0.033308
-0.071789
-0.121876
-0.140913
-0.138311
-0.126373
-0.089323
-0.075954
-0.054569
-0.000626
0.043738
0.093956
0.130585
0.154680
0.161232
0.182241
0.173563
0.131710
0.082269
0.027839
-0.029880
-0.054622
-0.072270
-0.100265
-0.102321
-0.077550
-0.063060
-0.037657
0.012828
0.066787
0.109582
0.158664
0.196505
0.218293
0.219920
0.209679
0.195220
0.173297
0.150013
0.080037
0.022739
-0.013858
-0.036459
-0.054476
-0.080112
-0.069472
-0.038650
0.009953
0.057671
0.098340
0.153894
0.203930
0.215011
0.224941
0.224730
0.227734
0.192046
0.152750
0.116987
0.084194
0.034306
-0.006708
-0.031188
-0.037824
-0.051415
-0.045556
-0.031258
0.005933
0.030542
0.087620
0.148417
0.182140
0.220759
0.241975
0.247101
0.226621
0.185138
0.163187
0.123942
0.065818
0.028069
-0.000667
-0.040306
-0.074054
-0.067763
-0.065907
-0.044796
-0.011168
0.032566
0.077126
0.128677
0.163488
0.183831
0.171702
0.186812
0.186324
0.156080
0.134577
0.105417
0.048060
0.004027
-0.048045
-0.091800
-0.128989
-0.135433
-0.132816
-0.105953
-0.072485
-0.026293
0.048511
0.102265
0.110324
0.142157
0.154443
0.163049
0.172213
0.158180
0.136001
0.066585
0.007624
-0.031779
-0.084855
-0.118162
-0.156500
-0.168635
-0.156767
-0.134689
-0.117191
-0.087003
-0.016978
0.039904
0.082276
0.109368
0.105688
0.100027
0.097327
0.096142
0.063509
0.018789
-0.022792
-0.062559
-0.105078
-0.135911
-0.155756
-0.180031
-0.165940
-0.132736
-0.101731
-0.070249
-0.046655
0.013630
0.052526
0.090226
0.111514
0.118003
0.112703
0.083377
0.054251
0.007492
-0.053201
-0.099771
-0.144511
-0.168917
-0.169723
-0.182106
-0.191634
-0.180062
-0.124352
-0.077227
-0.036247
-0.003016
0.044272
0.080080
0.099314
0.119780
0.103448
0.091734
0.058140
0.035098
-0.012433
-0.080056
-0.117647
-0.152117
-0.184397
-0.196202
-0.181268
-0.157504
-0.130073
-0.096863
-0.063387
-0.008357
0.027774
0.054152
0.086717
0.106426
0.089041
0.070260
0.066564
0.050224
-0.008025
-0.064181
-0.117787
-0.162253
-0.181450
-0.178291
-0.166761
-0.132094
-0.124906
-0.066245
-0.022671
0.021442
0.080275
0.117961
0.105626
0.126426
0.118452
0.101946
0.075009
0.034914
-0.021382
-0.066338
-0.084800
-0.114649
-0.150359
-0.185320
-0.195513
-0.143773
-0.119582
-0.102966
-0.035816
0.013184
0.044383
0.092411
0.128135
0.167114
0.144371
0.130558
0.085479
0.032880
-0.036621
-0.086823
-0.124811
-0.146818
-0.175934
-0.187311
-0.177474
-0.166899
-0.124943
-0.072483
-0.032137
0.010775
0.064144
0.102993
0.090460
0.107281
0.130342
0.121835
0.075209
0.037958
-0.024097
-0.068698
-0.085926
-0.124884
-0.154121
-0.160184
-0.165732
-0.137401
-0.117550
-0.086285
-0.032240
0.005995
0.053281
0.091746
0.117761
0.126915
0.122043
0.093091
0.040014
0.004011
-0.032988
-0.069371
-0.115544
-0.137234
-0.156455
-0.174649
-0.164310
-0.125092
-0.126641
-0.106516
-0.047488
0.002803
0.027695
0.065719
0.093613
0.110595
0.108055
0.092084
0.078934
0.029838
-0.023718
-0.081268
-0.158127
-0.190752
-0.210859
-0.190722
-0.190492
-0.144792
-0.125525
-0.089126
-0.046197
-0.006914
0.023138
0.056667
0.111059
0.121656
0.127557
0.098537
0.062089
0.018323
-0.036978
-0.070856
-0.101170
-0.159113
-0.168522
-0.182447
-0.195246
-0.187499
-0.130678
-0.091488
-0.068870
-0.027326
0.035892
0.062208
0.066579
0.073669
0.103338
0.098133
0.062051
0.009230
-0.069806
-0.110428
-0.134357
-0.158523
-0.185730
-0.202829
-0.195588
-0.169388
-0.135944
-0.086633
-0.018976
0.012447
0.045718
0.074879
0.088606
0.120396
0.116770
0.100192
0.063435
-0.015760
-0.060262
-0.094217
-0.125167
-0.160841
-0.193751
-0.204841
-0.191869
-0.151611
-0.115035
-0.082007
-0.055540
-0.014445
0.034099
0.075334
0.098860
0.119064
0.124317
0.092987
0.071654
0.035539
0.000775
-0.041709
-0.092826
-0.127279
-0.141882
-0.143948
-0.154236
-0.141088
-0.116141
-0.073912
-0.020525
0.035467
0.070258
0.109741
0.140959
0.152492
0.141690
0.124073
0.081273
0.014832
-0.043755
-0.072805
-0.097006
-0.129645
-0.155861
-0.154831
-0.152836
-0.129856
-0.097453
-0.057047
-0.020726
0.055374
0.106225
0.132518
0.158334
0.160679
0.137940
0.109819
0.084196
0.064668
0.003684
-0.066428
-0.108506
-0.143135
-0.161266
-0.130790
-0.121875
-0.120691
-0.108122
-0.094329
-0.034905
0.053754
0.069826
0.107113
0.144404
0.140442
0.100286
0.069662
0.039728
-0.002538
-0.043667
-0.091351
-0.118209
-0.172072
-0.196882
-0.196703
-0.180820
-0.162927
-0.136563
-0.102089
-0.060888
-0.023901
0.024683
0.062313
0.088030
0.063813
0.048596
0.048893
0.020718
-0.008755
-0.040876
-0.076143
-0.149683
-0.183721
-0.202560
-0.213365
-0.214690
-0.196730
-0.168618
-0.135787
-0.089951
-0.024918
0.019789
0.044112
0.051720
0.075956
0.061760
0.044338
0.019759
-0.031238
-0.071267
-0.121956
-0.160851
-0.197347
-0.215619
-0.217176
-0.200491
-0.191887
-0.158436
-0.124469
-0.095435
-0.047767
0.005914
0.063659
0.086210
0.090819
0.075442
0.058492
0.005040
-0.024587
-0.068320
-0.112541
-0.166679
-0.193044
-0.211025
-0.230734
-0.231261
-0.203299
-0.177315
-0.145264
-0.082905
-0.046068
-0.020262
0.047845
0.084968
0.074085
0.072105
0.056590
0.019339
-0.059098
-0.104166
-0.108678
-0.138724
-0.175097
-0.218194
-0.214438
-0.213152
-0.199248
-0.177764
-0.117834
-0.045354
0.039555
0.104604
0.138098
0.150153
0.175900
0.196371
0.185165
0.165079
0.121460
0.097493
0.072860
0.039383
0.047649
0.053593
0.088732
0.109752
0.140197
0.198650
0.273738
0.346378
0.428481
0.481394
0.548732
0.610491
0.650416
0.679931
0.699087
0.680908
0.673925
0.670430
0.645970
0.584370
0.543904
0.519718
0.499848
0.468759
0.438210
0.446351
0.419789
0.401545
0.396927
0.364314
0.363552
0.383877
0.373061
0.309567
0.228442
0.169137
0.121510
0.042438
-0.024125
-0.063661
-0.099598
-0.119553
-0.138850
-0.138056
-0.129800
-0.094866
-0.030323
-0.007740
0.037858
0.079442
0.108524
0.117588
0.109138
0.115703
0.114418
0.075266
0.044344
-0.006610
-0.057657
-0.099340
-0.137517
-0.171395
-0.180701
-0.185403
-0.163202
-0.161377
-0.115086
-0.042633
-0.018806
0.024768
0.107200
0.118333
0.106385
0.107183
0.093460
0.056158
-0.041909
-0.104213
-0.100944
-0.083404
-0.129389
-0.167627
-0.190313
-0.179383
-0.168634
-0.115977
-0.083724
-0.044636
-0.018364
0.032404
0.073851
0.107963
0.133960
0.130942
0.102183
0.042289
-0.015455
-0.046626
-0.093849
-0.128355
-0.131553
-0.158648
-0.195874
-0.192034
-0.176931
-0.147181
-0.089513
-0.018860
0.030576
0.048639
0.082733
0.124612
0.140405
0.127071
0.102970
0.067244
0.035548
-0.004183
-0.063597
-0.100375
-0.125960
-0.148547
-0.166147
-0.163753
-0.162317
-0.114807
-0.071817
-0.023942
0.011831
0.050788
0.118264
0.146078
0.144509
0.123564
0.114363
0.083151
0.038090
-0.015225
-0.040246
-0.067620
-0.116263
-0.131079
-0.117571
-0.097523
-0.101091
-0.089714
-0.041017
0.002493
0.055015
0.091888
0.130647
0.125569
0.127268
0.186587
0.198947
0.123720
0.050994
0.056425
0.042661
-0.019294
-0.048929
-0.085049
-0.094508
-0.073174
-0.091259
-0.058254
0.014679
0.051841
0.071269
0.144832
0.189166
0.214353
0.234002
0.213930
0.185480
0.149101
0.113447
0.049271
0.038767
-0.019083
-0.037164
-0.063584
-0.074736
-0.075505
-0.045715
-0.018534
0.028470
0.076271
0.104062
0.147338
0.187714
0.238474
0.245474
0.236110
0.211114
0.192701
0.141214
0.071795
0.024513
0.004335
-0.036385
-0.081511
-0.116083
-0.107392
-0.077357
-0.042510
-0.001259
0.041394
0.087987
0.147642
0.164434
0.188106
0.248112
0.238102
0.198255
0.149570
0.094173
0.048691
0.004307
-0.024144
-0.059566
-0.098784
-0.145815
-0.136491
-0.110985
-0.039256
0.002962
0.040573
0.071157
0.110338
0.147419
0.152531
0.169596
0.167139
0.157453
0.114506
0.082631
0.023315
-0.020694
-0.055798
-0.101761
-0.139547
-0.150418
-0.123399
-0.104250
-0.074624
-0.037735
-0.003744
0.031889
0.069916
0.080488
0.121289
0.118015
0.109253
0.102592
0.078528
0.035054
-0.030305
-0.089438
-0.131437
-0.167236
-0.188874
-0.193118
-0.183914
-0.167935
-0.120531
-0.071359
-0.027588
0.027460
0.075096
0.087503
0.106160
0.115230
0.117489
0.080000
0.016310
-0.030471
-0.069220
-0.088233
-0.158716
-0.216356
-0.221996
-0.228286
-0.181427
-0.181544
-0.161819
-0.118592
-0.074432
-0.017446
0.032025
0.083492
0.105265
0.103621
0.105235
0.107706
0.058846
0.016220
-0.046005
-0.110256
-0.139886
-0.172818
-0.179910
-0.192014
-0.183721
-0.175724
-0.164742
-0.102727
-0.048088
0.001703
0.028267
0.045748
0.072530
0.088439
0.084964
0.064859
0.034785
0.000192
-0.037514
-0.079105
-0.120697
-0.157278
-0.171884
-0.200441
-0.216440
-0.213492
-0.170384
-0.109433
-0.054925
-0.008097
0.032871
0.060793
0.118605
0.111592
0.107393
0.083270
0.060919
0.013574
-0.023089
-0.065469
-0.120282
-0.171319
-0.199116
-0.203694
-0.163201
-0.141587
-0.112077
-0.068770
-0.033574
0.010841
0.039044
0.066576
0.096790
0.097803
0.093140
0.088681
0.057538
-0.000293
-0.054335
-0.107544
-0.150740
-0.174200
-0.182034
-0.196158
-0.179040
-0.175615
-0.146258
-0.066320
0.022027
0.058401
0.082149
0.099069
0.112082
0.126972
0.116833
0.090146
0.049338
-0.005352
-0.030204
-0.107857
-0.149847
-0.183140
-0.211946
-0.210193
-0.180858
-0.177972
-0.148521
-0.097409
-0.050235
0.006635
0.056042
0.098978
0.127577
0.133081
0.097670
0.090711
0.046251
0.009815
-0.057831
-0.093160
-0.131931
-0.163424
-0.173159
-0.176941
-0.182199
-0.171045
-0.164664
-0.121723
-0.065957
-0.018536
0.043989
0.083504
0.104920
0.101723
0.066094
0.056515
0.045583
0.027066
-0.018336
-0.091840
-0.124897
-0.150688
-0.215059
-0.236216
-0.213059
-0.195167
-0.158246
-0.100577
-0.064646
0.003037
0.042626
0.084089
0.105867
0.115757
0.135771
0.104447
0.060136
-0.016390
-0.056998
-0.069689
-0.135203
-0.186267
-0.227383
-0.251853
-0.234876
-0.226993
-0.172916
-0.090113
-0.068894
-0.013859
0.041105
0.082442
0.105913
0.146310
0.139579
0.102991
0.064650
0.004169
-0.037277
-0.113502
-0.175026
-0.184974
-0.218636
-0.214648
-0.205713
-0.196357
-0.131522
-0.102819
-0.106609
-0.056486
0.008761
0.083897
0.096637
0.104563
0.111083
0.108992
0.072740
0.011451
-0.027407
-0.052988
-0.103896
-0.143746
-0.185293
-0.202848
-0.179625
-0.166907
-0.137509
-0.103248
-0.051665
0.010204
0.047344
0.103184
0.164031
0.170507
0.128420
0.097858
0.064463
0.022036
-0.047196
-0.052238
-0.076910
-0.132148
-0.163535
-0.175747
-0.170928
-0.131915
-0.128439
-0.115196
-0.059439
-0.004794
0.060473
0.113109
0.153219
0.166997
0.167252
0.135210
0.101414
0.079238
0.021861
-0.040465
-0.101090
-0.091649
-0.149148
-0.171924
-0.169511
-0.160740
-0.106658
-0.055018
-0.023929
0.021633
0.072688
0.105704
0.150749
0.139939
0.133027
0.117841
0.068222
0.027809
-0.040702
-0.102715
-0.125304
-0.140656
-0.170115
-0.184975
-0.190575
-0.212817
-0.160954
-0.121264
-0.091491
-0.047977
0.018351
0.054325
0.092092
0.113381
0.159682
0.079826
0.006721
-0.048435
-0.070842
-0.125528
-0.156172
-0.167159
-0.214965
-0.210162
-0.207545
-0.198585
-0.183418
-0.171178
-0.129115
-0.062820
0.003455
0.051078
0.083738
0.085899
0.082456
0.062990
0.017772
-0.003889
-0.038411
-0.087375
-0.154488
-0.195273
-0.222249
-0.232886
-0.219406
-0.183620
-0.159449
-0.136300
-0.098408
-0.023851
-0.001259
0.024768
0.021386
0.011416
0.009126
0.012171
0.020545
-0.011939
-0.050509
-0.100247
-0.146414
-0.192744
-0.206243
-0.223753
-0.227007
-0.192492
-0.163449
-0.119323
-0.079498
-0.028895
-0.013833
0.001815
0.031439
0.070260
0.061837
0.037325
-0.026321
-0.067459
-0.126939
-0.194800
-0.237272
-0.245083
-0.223522
-0.225445
-0.212400
-0.176833
-0.129620
-0.083436
-0.072679
-0.043374
0.022462
0.068637
0.113931
0.133678
0.128828
0.102658
0.050395
0.041628
0.011390
-0.020561
-0.052118
-0.042735
-0.067458
-0.096544
-0.062836
-0.025675
0.019956
0.084268
0.157175
0.235852
0.327670
0.371602
0.418031
0.451387
0.487095
0.513008
0.479096
0.511010
0.524000
0.501279
0.489599
0.488898
0.506256
0.504375
0.535381
0.566876
0.597005
0.643564
0.670199
0.686211
0.722461
0.734990
0.698636
0.651054
0.578511
0.514175
0.407644
0.320442
0.253542
0.146330
0.054370
-0.030823
-0.045492
-0.033560
-0.039776
-0.061013
-0.067867
-0.026571
0.044538
0.077734
0.104357
0.119814
0.127280
0.148173
0.156247
0.128810
0.064469
0.016667
-0.034283
-0.079559
-0.101638
-0.148944
-0.170677
-0.171128
-0.158869
-0.161341
-0.135443
-0.094144
-0.051778
0.002548
0.057567
0.074355
0.102088
0.129936
0.117017
0.089368
0.050351
0.001970
-0.041429
-0.101526
-0.143828
-0.165426
-0.198584
-0.199295
-0.196310
-0.198624
-0.164276
-0.131990
-0.087206
-0.034316
0.004703
0.043218
0.080456
0.093739
0.088702
0.063849
0.044844
0.025422
-0.018393
-0.064101
-0.081481
-0.127964
-0.182406
-0.188688
-0.201543
-0.181137
-0.146083
-0.108138
-0.026651
0.018449
0.052689
0.048900
0.034567
0.061876
0.083287
0.080906
0.084459
0.023825
-0.032538
-0.045968
-0.087948
-0.121709
-0.169494
-0.170213
-0.162401
-0.136805
-0.102989
-0.068046
-0.032372
0.019233
0.059245
0.097580
0.114318
0.102939
0.068591
0.020230
-0.012612
-0.002975
-0.003340
-0.038663
-0.088334
-0.106540
-0.111067
-0.133941
-0.125827
-0.121920
-0.101468
-0.060464
0.008935
0.045322
0.071095
0.122419
0.131138
0.153965
0.143594
0.116434
0.090085
0.051425
0.010470
-0.042077
-0.105091
-0.124973
-0.142998
-0.145703
-0.107467
-0.069394
-0.029221
0.004755
0.055625
0.094180
0.135268
0.182664
0.187205
0.202797
0.193372
0.188075
0.160662
0.109149
0.071773
0.023938
-0.037191
-0.055202
-0.078014
-0.083364
-0.072182
-0.049411
-0.026576
0.005053
0.071647
0.125160
0.134417
0.145864
0.168563
0.201393
0.197553
0.176828
0.152860
0.128347
0.068283
0.020697
-0.019223
-0.044235
-0.055460
-0.072490
-0.082029
-0.064763
-0.013182
0.020877
0.062528
0.114525
0.155814
0.141035
0.172828
0.183699
0.167776
0.140928
0.134944
0.116048
0.067932
0.035550
-0.013163
-0.053914
-0.088148
-0.064456
-0.065038
-0.091958
-0.071070
-0.020105
0.020044
0.067701
0.114049
0.142631
0.176769
0.177570
0.161325
0.140935
0.094503
0.048885
0.003223
-0.030091
-0.091546
-0.126191
-0.155764
-0.168055
-0.140903
-0.132452
-0.088770
-0.053756
0.000329
0.039335
0.083890
0.095542
0.134330
0.131035
0.140587
0.141955
0.071036
0.030693
-0.013611
-0.090315
-0.134322
-0.181316
-0.204503
-0.217421
-0.218215
-0.175312
-0.129494
-0.080551
-0.039443
0.003689
0.051298
0.073839
0.096534
0.111115
0.090415
0.073236
0.040889
0.004090
-0.017538
-0.083080
-0.132833
-0.167582
-0.165736
-0.194643
-0.176785
-0.148136
-0.121628
-0.093392
-0.081472
-0.061369
-0.020042
0.036190
0.071922
0.090776
0.096642
0.079792
0.039097
-0.014613
-0.050181
-0.096875
-0.152444
-0.181357
-0.203884
-0.199064
-0.184644
-0.195407
-0.155048
-0.102489
-0.065176
-0.017222
0.021570
0.056244
0.078669
0.078035
0.070739
0.048701
0.025115
0.002036
-0.047366
-0.099453
-0.147090
-0.182416
-0.203215
-0.210534
-0.187235
-0.156559
-0.147670
-0.133191
-0.074889
-0.038626
0.016205
0.052707
0.085570
0.087951
0.067540
0.042664
0.036273
0.009859
-0.030529
-0.081623
-0.121325
-0.158722
-0.178329
-0.199982
-0.188040
-0.193417
-0.148456
-0.118309
-0.093982
-0.020085
0.069031
0.101041
0.110684
0.123266
0.103589
0.098440
0.040996
-0.002158
-0.048220
-0.089378
-0.123211
-0.171386
-0.197025
-0.218385
-0.194876
-0.181788
-0.134703
-0.080792
-0.041989
0.006306
0.045982
0.076200
0.106430
0.125688
0.106406
0.080106
0.041249
0.003946
-0.047350
-0.109047
-0.159475
-0.226458
-0.230580
-0.206069
-0.183025
-0.141683
-0.120671
-0.067107
-0.017853
0.008738
0.043857
0.067322
0.081866
0.111036
0.098418
0.102139
0.050496
0.002760
-0.042001
-0.089641
-0.157524
-0.183701
-0.213494
-0.240486
-0.239361
-0.204512
-0.158686
-0.115062
-0.053747
-0.006950
0.041195
0.083188
0.094758
0.087454
0.107633
0.069718
0.048540
0.013061
-0.075684
-0.103496
-0.157895
-0.183637
-0.212999
-0.228398
-0.204638
-0.176614
-0.146127
-0.111427
-0.072205
-0.020103
0.047447
0.057791
0.068767
0.090834
0.074783
0.063212
0.066715
0.012958
-0.018369
-0.090934
-0.153397
-0.206172
-0.229241
-0.218460
-0.188307
-0.151579
-0.149337
-0.100170
-0.039659
0.016528
0.055342
0.077953
0.117252
0.121494
0.118449
0.098906
0.061572
0.026985
-0.013578
-0.075093
-0.115264
-0.139641
-0.182890
-0.194190
-0.188240
-0.180209
-0.145893
-0.111805
-0.079016
-0.017647
0.043678
0.089622
0.114069
0.107863
0.086572
0.077738
0.052606
0.041118
-0.014426
-0.072325
-0.097623
-0.127387
-0.147892
-0.156625
-0.156385
-0.130000
-0.093188
-0.053741
0.006233
0.044472
0.059026
0.085828
0.119638
0.112093
0.122134
0.117182
0.093567
0.066636
0.007372
-0.064584
-0.121649
-0.140433
-0.167418
-0.185424
-0.182041
-0.153246
-0.131540
-0.096159
-0.061568
-0.010968
0.033638
0.056856
0.067474
0.078095
0.077213
0.047834
0.005343
-0.031950
-0.078567
-0.107095
-0.159649
-0.190410
-0.194790
-0.215630
-0.216963
-0.210697
-0.203000
-0.149023
-0.086294
-0.011587
0.030717
0.047132
0.058485
0.072959
0.066524
0.038777
0.002532
-0.049733
-0.142360
-0.172824
-0.208443
-0.231467
-0.267586
-0.283403
-0.269034
-0.259646
-0.228993
-0.175838
-0.124022
-0.085184
-0.021047
0.029688
0.041472
0.058336
0.074537
0.063538
0.023528
-0.017452
-0.077412
-0.121939
-0.192906
-0.219494
-0.261927
-0.248600
-0.235656
-0.224093
-0.216618
-0.177525
-0.105388
-0.049544
-0.000358
0.028943
0.049337
0.042331
0.045689
0.004418
-0.022964
-0.064340
-0.115868
-0.164768
-0.209313
-0.236263
-0.267824
-0.266584
-0.279684
-0.265595
-0.213794
-0.163328
-0.114535
-0.063694
-0.021508
0.011919
0.012497
0.034536
0.032180
0.008635
-0.033765
-0.073702
-0.130592
-0.183240
-0.210686
-0.202815
-0.209249
-0.229012
-0.220584
-0.196838
-0.159651
-0.086096
-0.020969
0.030528
0.086882
0.128102
0.167242
0.215364
0.225731
0.219113
0.228149
0.194982
0.161253
0.146331
0.127516
0.121585
0.150005
0.162443
0.206249
0.252290
0.308766
0.371855
0.449385
0.540631
0.630414
0.721873
0.778591
0.795144
0.826048
0.826248
0.804164
0.765399
0.706149
0.640445
0.560431
0.478713
0.429847
0.411744
0.361455
0.299734
0.263277
0.230932
0.231261
0.245433
0.243589
0.233702
0.207910
0.212722
0.199158
0.161466
0.119414
0.075290
0.007173
-0.058190
-0.108654
-0.128294
-0.145547
-0.166918
-0.152587
-0.144885
-0.117474
-0.061850
-0.000633
0.043632
0.073546
0.085596
0.095562
0.099765
0.082367
0.059504
0.011640
-0.036720
-0.101362
-0.152159
-0.196080
-0.203392
-0.220949
-0.231633
-0.255456
-0.244821
-0.204167
-0.142489
-0.086602
-0.047604
-0.003805
0.032959
0.048939
0.058104
0.033869
0.006159
-0.024341
-0.074056
-0.135301
-0.145075
-0.163402
-0.206037
-0.221619
-0.241537
-0.248554
-0.226512
-0.196717
-0.161617
-0.127379
-0.073466
-0.051126
-0.001964
0.037924
0.073642
0.091039
0.074966
0.011130
-0.050493
-0.115595
-0.158724
-0.202607
-0.215141
-0.230529
-0.257091
-0.283998
-0.238234
-0.191571
-0.152663
-0.093412
-0.042371
0.003453
0.047485
0.071521
0.083532
0.075607
0.066425
0.037116
-0.037626
-0.063514
-0.115060
-0.155181
-0.165421
-0.195796
-0.217590
-0.194183
-0.183501
-0.184885
-0.145768
-0.086155
-0.047208
-0.000507
0.053688
0.075149
0.048286
0.053638
0.038613
0.024836
-0.013650
-0.057951
-0.097749
-0.165404
-0.203333
-0.213343
-0.228502
-0.228011
-0.216299
-0.166355
-0.123659
-0.077642
-0.049991
-0.010894
0.039910
0.101462
0.125839
0.120498
0.111264
0.089480
0.032313
-0.024153
-0.092212
-0.146505
-0.166706
-0.164905
-0.169719
-0.170027
-0.182701
-0.154634
-0.104086
-0.043910
-0.003763
0.053879
0.103907
0.116688
0.151618
0.158513
0.131744
0.082893
0.048490
-0.022261
-0.077731
-0.096107
-0.093303
-0.107485
-0.123782
-0.117717
-0.086735
-0.055254
-0.012046
0.035277
0.072248
0.107178
0.139480
0.163441
0.162148
0.156758
0.122032
0.096713
0.040751
-0.013484
-0.068778
-0.107642
-0.155205
-0.177640
-0.187916
-0.182801
-0.162723
-0.134437
-0.083953
-0.035096
0.028785
0.069452
0.089543
0.111727
0.118918
0.106020
0.068151
0.048171
0.025938
-0.021058
-0.076548
-0.105202
-0.143914
-0.146776
-0.163304
-0.195268
-0.211517
-0.202401
-0.188276
-0.124009
-0.038655
0.021690
0.060746
0.066908
0.084265
0.072217
0.064632
0.014210
-0.013409
-0.078206
-0.126190
-0.155293
-0.189379
-0.211649
-0.251612
-0.237501
-0.213612
-0.178816
-0.119876
-0.085998
-0.050643
-0.017577
0.023240
0.028016
0.049069
0.065088
0.046019
0.010042
-0.027043
-0.104434
-0.142684
-0.186947
-0.225173
-0.227944
-0.234374
-0.248771
-0.219315
-0.200027
-0.143922
-0.109052
-0.078443
-0.037005
-0.014134
0.051656
0.050164
0.026067
-0.002847
-0.043096
-0.083504
-0.113324
-0.157892
-0.204500
-0.237436
-0.258842
-0.278974
-0.266683
-0.243753
-0.201026
-0.159507
-0.108859
-0.074467
-0.016130
0.026066
0.037659
0.037304
0.031996
0.022147
-0.016986
-0.071543
-0.125322
-0.170708
-0.202987
-0.239361
-0.253021
-0.269524
-0.265376
-0.247495
-0.226101
-0.169882
-0.126153
-0.066875
-0.007626
0.027721
0.056525
0.066826
0.070431
0.047721
-0.012124
-0.059423
-0.097085
-0.146558
-0.188775
-0.231545
-0.253430
-0.245195
-0.243138
-0.238488
-0.196415
-0.151531
-0.111805
-0.050585
-0.029518
0.025042
0.065220
0.054101
0.024703
0.003962
-0.017145
-0.058095
-0.088186
-0.141781
-0.197399
-0.236286
-0.263411
-0.241477
-0.234552
-0.215832
-0.185187
-0.156682
-0.105170
-0.069892
-0.022633
0.026482
0.072093
0.066620
0.063024
0.041621
0.020529
-0.030101
-0.083035
-0.144360
-0.173754
-0.201929
-0.235626
-0.258878
-0.247363
-0.201079
-0.163137
-0.152047
-0.105054
-0.070867
-0.027707
0.032783
0.045072
0.051720
0.042866
0.007051
-0.020133
-0.053857
-0.093170
-0.147052
-0.168341
-0.215805
-0.244168
-0.237122
-0.240803
-0.225939
-0.188687
-0.130842
-0.096047
-0.052974
-0.008207
0.021151
0.054838
0.084281
0.079293
0.045509
0.001240
-0.044832
-0.090149
-0.127579
-0.178393
-0.223089
-0.238037
-0.257762
-0.259944
-0.235545
-0.185783
-0.147233
-0.080617
-0.038767
0.009667
0.039185
0.056318
0.059329
0.052664
0.055635
0.027402
-0.028577
-0.090641
-0.148281
-0.194995
-0.214113
-0.254010
-0.253022
-0.230405
-0.224945
-0.193836
-0.144900
-0.087492
-0.035476
0.015102
0.060517
0.074203
0.080453
0.071471
0.054450
0.025952
-0.027537
-0.060926
-0.113386
-0.170793
-0.195807
-0.213323
-0.238638
-0.219921
-0.212690
-0.174314
-0.122963
-0.081327
-0.037507
0.002756
0.051077
0.081287
0.091685
0.074237
0.072462
0.043233
0.005349
-0.046734
-0.105632
-0.159259
-0.190049
-0.189097
-0.198886
-0.193045
-0.182573
-0.135153
-0.098799
-0.059919
0.005825
0.043557
0.077219
0.103606
0.098617
0.123992
0.088444
0.032562
-0.017367
-0.065418
