-0.072498
-0.012610
0.046150
0.085715
0.113864
0.142016
0.145141
0.111720
0.080726
0.032680
-0.021957
-0.071569
-0.121884
-0.165177
-0.182817
-0.195978
-0.196326
-0.170769
-0.129059
-0.092474
-0.052432
0.005337
0.045429
0.073766
0.099011
0.115069
0.117964
0.088652
0.067424
0.022585
-0.029646
-0.087658
-0.115258
-0.162544
-0.189561
-0.201657
-0.202463
-0.179241
-0.137779
-0.105024
-0.060845
-0.011380
0.034709
0.068278
0.100167
0.111900
0.111680
0.089633
0.054078
0.017622
-0.029730
-0.075032
-0.120368
-0.163516
-0.203441
-0.225725
-0.207564
-0.187815
-0.142692
-0.107122
-0.065377
-0.015275
0.031226
0.085245
0.111599
0.122806
0.107725
0.089062
0.059233
0.011580
-0.044546
-0.098720
-0.133554
-0.165252
-0.198767
-0.208509
-0.208747
-0.194673
-0.155664
-0.119963
-0.070491
-0.027434
0.023825
0.055657
0.096292
0.113505
0.104303
0.085770
0.055785
0.007486
-0.044458
-0.100409
-0.144383
-0.183616
-0.233068
-0.223013
-0.180991
-0.189130
-0.153898
-0.119168
-0.064019
-0.019237
0.016290
0.062097
0.086306
0.087899
0.089603
0.073603
0.047600
-0.000782
-0.045501
-0.085771
-0.134020
-0.187291
-0.192968
-0.200265
-0.189393
-0.175671
-0.138384
-0.104546
-0.059760
-0.016160
0.031009
0.081656
0.113843
0.124270
0.126860
0.109194
0.085242
0.049493
-0.002321
-0.056379
-0.098965
-0.144143
-0.167939
-0.167646
-0.166462
-0.153856
-0.127280
-0.086287
-0.037184
0.002422
0.035725
0.060624
0.097571
0.128709
0.124786
0.106554
0.063145
0.026496
-0.018924
-0.062260
-0.081223
-0.130228
-0.156966
-0.157316
-0.148798
-0.138721
-0.112245
-0.067403
-0.021173
0.027254
0.058855
0.101839
0.130200
0.132244
0.137574
0.127194
0.101354
0.057368
0.019610
-0.039705
-0.078346
-0.119612
-0.155103
-0.167291
-0.176284
-0.155529
-0.132077
-0.101834
-0.052590
-0.008718
0.030743
0.070343
0.081202
0.093772
0.099488
0.080330
0.051976
0.018773
-0.027532
-0.077804
-0.121360
-0.166069
-0.188470
-0.204048
-0.205550
-0.193359
-0.168846
-0.140554
-0.100526
-0.047031
0.005729
0.041809
0.066530
0.072325
0.081499
0.062615
0.021643
-0.026056
-0.065976
-0.111628
-0.134687
-0.179793
-0.216403
-0.237957
-0.225240
-0.202545
-0.185901
-0.142067
-0.096887
-0.049484
-0.011613
0.019628
0.046748
0.056981
0.063559
0.040853
0.010947
-0.025192
-0.068566
-0.116206
-0.152913
-0.192106
-0.222405
-0.235571
-0.219850
-0.210056
-0.171705
-0.144188
-0.094367
-0.043044
-0.020716
0.012883
0.046694
0.054617
0.046947
0.044328
0.014166
-0.027488
-0.068252
-0.137435
-0.192884
-0.200405
-0.215361
-0.211433
-0.204706
-0.193437
-0.179628
-0.150065
-0.104262
-0.056674
-0.016042
0.022316
0.047743
0.055134
0.047429
0.036827
0.002332
-0.035414
-0.081336
-0.131395
-0.160184
-0.197528
-0.224478
-0.231978
-0.228097
-0.212109
-0.178670
-0.135276
-0.092349
-0.033470
0.030892
0.066532
0.105677
0.128734
0.147058
0.136628
0.123779
0.093117
0.069321
0.031274
-0.000036
-0.016669
-0.016994
-0.020769
0.013981
0.067653
0.127286
0.185949
0.251918
0.330308
0.405773
0.460369
0.507219
0.547697
0.576543
0.593463
0.581525
0.597978
0.605876
0.578510
0.586273
0.582833
0.569890
0.559665
0.554578
0.572933
0.580644
0.604357
0.623986
0.643957
0.635268
0.582025
0.538793
0.484024
0.423144
0.361986
0.294526
0.212095
0.132308
0.055430
-0.002197
-0.067163
-0.099819
-0.117626
-0.119395
-0.102881
-0.069441
-0.033211
-0.008139
0.033686
0.073094
0.110002
0.131909
0.139043
0.140297
0.115681
0.076066
0.041982
-0.004261
-0.045838
-0.106737
-0.116271
-0.127995
-0.159559
-0.160760
-0.140017
-0.098705
-0.065029
-0.039354
-0.000626
0.034455
0.064060
0.098376
0.114074
0.110114
0.067841
0.041986
0.006070
-0.028327
-0.080532
-0.114148
-0.146510
-0.168764
-0.196095
-0.200229
-0.158873
-0.110752
-0.063771
-0.038350
0.000137
0.040592
0.073563
0.093973
0.102416
0.092690
0.071645
0.034290
0.014150
-0.028914
-0.079464
-0.104389
-0.140124
-0.156051
-0.174183
-0.165520
-0.144214
-0.115848
-0.071714
-0.018248
0.015735
0.049917
0.083448
0.101682
0.110681
0.105618
0.080748
0.065550
0.028307
-0.022924
-0.063218
-0.101962
-0.131395
-0.142355
-0.162263
-0.172164
-0.133068
-0.099428
-0.059088
-0.018726
0.028857
0.081075
0.104453
0.126043
0.136460
0.135834
0.111156
0.077607
0.041818
0.005457
-0.031086
-0.066439
-0.109964
-0.119620
-0.126420
-0.111752
-0.093683
-0.063136
-0.029847
0.009543
0.061599
0.108617
0.143815
0.164176
0.162048
0.160440
0.162336
0.112624
0.076438
0.030080
-0.011089
-0.054732
-0.074962
-0.086194
-0.095158
-0.084773
-0.052160
-0.013879
0.019875
0.063087
0.100003
0.138983
0.176091
0.190670
0.205025
0.196394
0.174376
0.128660
0.090350
0.049877
-0.002209
-0.046149
-0.045930
-0.054739
-0.070391
-0.060169
-0.033186
0.003549
0.041655
0.075508
0.122157
0.170092
0.192246
0.208207
0.218990
0.206916
0.179933
0.144243
0.109213
0.070715
0.029875
-0.007749
-0.043083
-0.058277
-0.068770
-0.059748
-0.037347
0.002551
0.026960
0.065857
0.120400
0.159919
0.199059
0.203185
0.198108
0.195273
0.175979
0.135320
0.098536
0.049636
0.010539
-0.033422
-0.064200
-0.082813
-0.092828
-0.079749
-0.055290
-0.024833
0.023407
0.052401
0.091888
0.131607
0.161712
0.178405
0.183090
0.165677
0.143612
0.102144
0.063551
0.021978
-0.022330
-0.072534
-0.108351
-0.125642
-0.129743
-0.125230
-0.107263
-0.059361
-0.011685
0.016922
0.057675
0.087168
0.117186
0.139647
0.147888
0.129934
0.107578
0.069515
0.017091
-0.027168
-0.079403
-0.122494
-0.152989
-0.178519
-0.180906
-0.164330
-0.120009
-0.100917
-0.064697
-0.028891
0.026664
0.068117
0.105051
0.106063
0.121804
0.109187
0.081408
0.046554
-0.007212
-0.073611
-0.115505
-0.146067
-0.173581
-0.194260
-0.188387
-0.179555
-0.155099
-0.133769
-0.091596
-0.038985
0.012715
0.054131
0.091704
0.104835
0.093192
0.086794
0.070544
0.036632
-0.008823
-0.048152
-0.096210
-0.142041
-0.186673
-0.207705
-0.216803
-0.200096
-0.180127
-0.132145
-0.090392
-0.056475
-0.006326
0.039469
0.075224
0.109473
0.107134
0.098633
0.066918
0.037862
-0.009094
-0.062054
-0.092963
-0.144185
-0.170638
-0.202080
-0.213183
-0.203002
-0.172252
-0.145748
-0.088677
-0.049176
0.003648
0.055177
0.082576
0.100715
0.107275
0.095511
0.076070
0.053617
0.015161
-0.026364
-0.088392
-0.129953
-0.170200
-0.195016
-0.193601
-0.186621
-0.165159
-0.134334
-0.085075
-0.030513
0.015190
0.062458
0.089213
0.110087
0.123334
0.116403
0.095571
0.055475
0.020331
-0.024600
-0.084970
-0.126071
-0.160048
-0.197170
-0.199479
-0.200862
-0.173141
-0.150490
-0.101445
-0.051476
-0.004159
0.048452
0.080333
0.107799
0.118871
0.107512
0.080779
0.055537
0.007850
-0.022023
-0.079320
-0.131846
-0.155439
-0.174269
-0.188701
-0.183052
-0.160236
-0.128330
-0.090805
-0.052755
-0.012074
0.033343
0.063460
0.087621
0.093164
0.104972
0.096607
0.061358
0.031784
-0.021058
-0.084269
-0.124692
-0.169646
-0.198441
-0.194855
-0.194971
-0.171070
-0.144796
-0.110717
-0.060362
-0.003495
0.037799
0.080959
0.119894
0.119836
0.109158
0.091580
0.058758
0.023155
-0.020143
-0.083217
-0.129167
-0.161710
-0.171982
-0.197964
-0.190034
-0.186139
-0.157749
-0.115850
-0.067050
-0.024881
0.012086
0.056581
0.080044
0.107896
0.100294
0.085277
0.051049
0.016228
-0.033631
-0.083155
-0.132953
-0.173171
-0.193387
-0.209236
-0.209319
-0.196411
-0.161572
-0.115078
-0.070678
-0.024795
0.021143
0.055212
0.084633
0.083937
0.078130
0.058642
0.033663
-0.002008
-0.045046
-0.091939
-0.143859
-0.171729
-0.204596
-0.202744
-0.200965
-0.176001
-0.147577
-0.119374
-0.065722
-0.023256
0.009588
0.056986
0.079819
0.090763
0.092847
0.080523
0.072103
0.033006
-0.008949
-0.068213
-0.110389
-0.147315
-0.183407
-0.198439
-0.176122
-0.154694
-0.129061
-0.090573
-0.045024
0.001097
0.043532
0.084948
0.108552
0.120204
0.129597
0.105379
0.078847
0.037760
-0.005416
-0.061927
-0.103877
-0.141313
-0.182508
-0.192988
-0.190323
-0.199665
-0.150128
-0.085288
-0.034695
0.008862
0.057964
0.103053
0.132486
0.133070
0.125607
0.110987
0.081575
0.033361
0.007745
-0.026750
-0.079340
-0.116009
-0.144110
-0.163809
-0.155176
-0.135555
-0.108684
-0.062089
-0.031409
0.011753
0.059226
0.074301
0.110147
0.118555
0.114076
0.087077
0.053094
0.000357
-0.036937
-0.088440
-0.146380
-0.173678
-0.194340
-0.189033
-0.187766
-0.171513
-0.153413
-0.104052
-0.063933
-0.034989
0.007157
0.036824
0.053096
0.066035
0.064695
0.040448
0.009390
-0.015180
-0.049774
-0.104583
-0.163801
-0.190659
-0.221616
-0.230268
-0.224295
-0.210832
-0.176126
-0.154120
-0.121356
-0.057145
-0.020212
0.020207
0.038043
0.052233
0.042855
0.025158
-0.004821
-0.041686
-0.071007
-0.120138
-0.164793
-0.196105
-0.228926
-0.242255
-0.234642
-0.223372
-0.184720
-0.143028
-0.114936
-0.055791
-0.012396
0.010298
0.015725
0.029617
0.032844
0.008629
-0.011040
-0.040865
-0.080779
-0.125304
-0.163191
-0.194026
-0.219263
-0.225800
-0.229203
-0.210716
-0.178088
-0.139465
-0.100251
-0.057273
-0.018793
0.006669
0.035438
0.039595
0.038287
0.016017
-0.014959
-0.063609
-0.094285
-0.116002
-0.162148
-0.230448
-0.216239
-0.212148
-0.211165
-0.203730
-0.179601
-0.148393
-0.108399
-0.067623
-0.027627
0.017892
0.033490
0.043213
0.044757
0.048400
0.033803
0.006800
-0.023856
-0.051229
-0.066487
-0.092078
-0.096340
-0.091754
-0.076747
-0.042980
0.003724
0.061613
0.129500
0.194363
0.247957
0.307865
0.352315
0.404296
0.433746
0.448316
0.434444
0.428027
0.415208
0.409102
0.407383
0.403098
0.409755
0.437649
0.478700
0.543490
0.608762
0.666222
0.704199
0.734159
0.786558
0.793184
0.800094
0.779468
0.740002
0.683627
0.592275
0.498092
0.388052
0.273151
0.202042
0.112789
0.051933
0.004795
-0.026673
-0.048013
-0.032918
0.009394
0.045780
0.075809
0.105042
0.133088
0.141529
0.140026
0.137520
0.132045
0.085521
0.042479
-0.005809
-0.036731
-0.079244
-0.120405
-0.148396
-0.148564
-0.149247
-0.126379
-0.095637
-0.070236
-0.026721
0.004698
0.043777
0.075275
0.091981
0.108527
0.104905
0.076930
0.045359
-0.009316
-0.053484
-0.081843
-0.135558
-0.163216
-0.184633
-0.191399
-0.191159
-0.170045
-0.133143
-0.088974
-0.035815
-0.004354
0.034525
0.060661
0.071073
0.086769
0.077855
0.060844
0.025555
-0.018403
-0.054286
-0.091323
-0.116146
-0.154355
-0.170578
-0.177390
-0.173972
-0.155551
-0.133765
-0.085705
-0.050483
-0.009647
0.026504
0.056505
0.078191
0.099336
0.091798
0.086245
0.046355
0.012083
-0.040777
-0.075233
-0.109287
-0.155518
-0.186094
-0.169896
-0.158383
-0.126216
-0.110217
-0.074842
-0.027991
0.007326
0.046034
0.084369
0.106295
0.118375
0.113446
0.099606
0.076911
0.030892
-0.021010
-0.066270
-0.098722
-0.124454
-0.142722
-0.160303
-0.148941
-0.118101
-0.062880
-0.031357
-0.002445
0.045869
0.090494
0.132647
0.125094
0.139629
0.119767
0.112755
0.088894
0.060751
-0.001269
-0.034606
-0.073586
-0.094725
-0.128040
-0.120728
-0.102637
-0.075585
-0.038692
0.005565
0.041197
0.082880
0.116816
0.154328
0.165860
0.179202
0.162498
0.140810
0.108459
0.078153
0.028320
-0.007262
-0.039182
-0.071128
-0.086489
-0.087626
-0.081891
-0.067827
-0.019455
0.023496
0.062885
0.095919
0.140195
0.179606
0.193742
0.193044
0.176153
0.158383
0.128503
0.086162
0.050458
0.013754
-0.035624
-0.072256
-0.093090
-0.087224
-0.080522
-0.047581
-0.024522
0.019557
0.054867
0.098786
0.139622
0.169230
0.187105
0.188239
0.178094
0.154763
0.125601
0.067281
0.021729
-0.014996
-0.068793
-0.092222
-0.108384
-0.113016
-0.099639
-0.068866
-0.032863
-0.004598
0.040011
0.085250
0.115661
0.151375
0.171839
0.172545
0.158078
0.129640
0.097257
0.044281
0.000364
-0.029234
-0.069765
-0.101589
-0.126112
-0.140589
-0.145140
-0.114598
-0.086350
-0.044720
0.012052
0.047089
0.089022
0.113430
0.123635
0.124947
0.127434
0.112002
0.066504
0.015210
-0.035372
-0.094761
-0.124192
-0.156866
-0.175174
-0.182018
-0.178997
-0.161400
-0.118126
-0.065630
-0.021657
0.010845
0.053230
0.088074
0.100193
0.110999
0.103590
0.064643
0.027620
-0.011762
-0.063369
-0.103523
-0.151764
-0.186030
-0.208889
-0.208233
-0.193325
-0.173507
-0.137776
-0.093237
-0.041350
-0.005681
0.036420
0.072754
0.075171
0.078224
0.067301
0.045550
0.006824
-0.015649
-0.048029
-0.109530
-0.159879
-0.195598
-0.210791
-0.217051
-0.210997
-0.181997
-0.142710
-0.107593
-0.052184
-0.003889
0.040533
0.074363
0.092994
0.094337
0.083037
0.058350
0.030308
-0.019233
-0.065047
-0.111050
-0.162082
-0.201050
-0.222984
-0.225814
-0.212399
-0.186522
-0.152955
-0.098790
-0.045876
0.000340
0.036296
0.074232
0.097228
0.099603
0.087443
0.060729
0.032036
-0.005653
-0.056654
-0.097030
-0.149023
-0.181123
-0.209457
-0.215198
-0.217613
-0.187936
-0.157633
-0.110684
-0.071566
-0.029282
0.035244
0.075643
0.095499
0.106567
0.113167
0.079595
0.049025
0.003897
-0.047072
-0.087740
-0.136231
-0.171165
-0.192939
-0.200774
-0.200699
-0.173022
-0.143571
-0.106627
-0.060524
-0.032408
0.017078
0.080663
0.105622
0.131498
0.124030
0.091461
0.065810
0.018364
-0.035996
-0.077287
-0.126964
-0.164076
-0.185152
-0.202545
-0.211851
-0.181801
-0.150484
-0.104885
-0.050310
-0.001264
0.042316
0.072364
0.088958
0.110539
0.111620
0.086433
0.054597
0.009747
-0.041058
-0.089986
-0.126286
-0.172891
-0.190539
-0.202447
-0.201727
-0.185407
-0.159036
-0.103136
-0.058924
-0.017435
0.029684
0.072287
0.094190
0.096804
0.096982
0.082815
0.053049
0.003911
-0.037526
-0.082951
-0.128713
-0.169996
-0.201797
-0.214824
-0.219332
-0.194070
-0.164448
-0.126228
-0.072932
-0.026079
0.008318
0.048673
0.073697
0.094250
0.091290
0.068850
0.031751
0.006639
-0.038774
-0.077201
-0.133861
-0.160979
-0.181667
-0.202700
-0.209983
-0.200275
-0.170545
-0.124855
-0.078986
-0.026883
0.018902
0.052629
0.071909
0.083896
0.087446
0.066988
0.033583
-0.004785
-0.040262
-0.086733
-0.131622
-0.186547
-0.219850
-0.212916
-0.201229
-0.195557
-0.166311
-0.120353
-0.078395
-0.031162
0.009910
0.050012
0.080787
0.088325
0.092036
0.066776
0.030999
-0.002459
-0.048876
-0.090241
-0.125344
-0.166073
-0.182243
-0.198376
-0.197437
-0.179312
-0.140386
-0.090562
-0.047053
-0.012772
0.041187
0.081646
0.090332
0.112851
0.116966
0.100238
0.063401
0.028090
-0.014651
-0.061490
-0.104556
-0.133878
-0.167060
-0.187674
-0.181961
-0.175914
-0.136652
-0.085302
-0.051724
-0.007473
0.040005
0.081724
0.102423
0.098581
0.098401
0.090396
0.063289
0.033151
-0.009643
-0.044007
-0.073972
-0.123310
-0.140598
-0.153275
-0.152645
-0.140609
-0.109597
-0.068182
-0.023815
0.002167
0.046974
0.084074
0.107244
0.125841
0.120205
0.101795
0.071396
0.037347
-0.019707
-0.077903
-0.116849
-0.154169
-0.180457
-0.204050
-0.223337
-0.182342
-0.150894
-0.111965
-0.074705
-0.014561
0.020354
0.054810
0.078277
0.089135
0.075088
0.053195
0.029255
-0.012963
-0.056313
-0.094838
-0.138599
-0.183257
-0.203569
-0.224683
-0.215028
-0.198504
-0.180455
-0.139141
-0.085873
-0.045366
-0.006437
0.015192
0.039857
0.044376
0.037159
0.015068
-0.009391
-0.043368
-0.083328
-0.122580
-0.178078
-0.218755
-0.231959
-0.227529
-0.237094
-0.211571
-0.184090
-0.144424
-0.106404
-0.057508
-0.022703
0.011090
0.033213
0.043870
0.034555
0.007466
-0.017954
-0.052824
-0.084351
-0.135073
-0.172455
-0.202063
-0.218005
-0.236429
-0.209980
-0.204127
-0.178084
-0.148261
-0.106583
-0.063556
-0.023533
0.008302
0.034942
0.049905
0.040294
0.015166
-0.025805
-0.046073
-0.086501
-0.125789
-0.160123
-0.196990
-0.221070
-0.240900
-0.224640
-0.208031
-0.177105
-0.147245
-0.104161
-0.060884
-0.023334
0.000494
0.025817
0.039830
0.026343
0.005297
-0.029737
-0.061170
-0.095228
-0.132490
-0.191518
-0.190420
-0.186744
-0.186286
-0.164100
-0.133207
-0.099983
-0.041315
0.023757
0.070798
0.127443
0.168056
0.175850
0.202884
0.217742
0.212607
0.196751
0.177435
0.173168
0.150056
0.151482
0.169571
0.168353
0.187355
0.224148
0.285681
0.345594
0.406766
0.492905
0.575827
0.640527
0.707210
0.756952
0.792443
0.815323
0.827343
0.792263
0.745525
0.692602
0.632509
0.577447
0.511576
0.483694
0.442116
0.395350
0.339166
0.308574
0.281541
0.277791
0.275253
0.256207
0.249105
0.220661
0.217748
0.195669
0.156570
0.117335
0.070545
0.033643
-0.029562
-0.062348
-0.099867
-0.127813
-0.122794
-0.112436
-0.093112
-0.068947
-0.027590
0.016867
0.054684
0.086628
0.108985
0.124716
0.127329
0.114368
0.092707
0.048473
0.002728
-0.036277
-0.083834
-0.144624
-0.178258
-0.175076
-0.174780
-0.159233
-0.144252
-0.115984
-0.071753
-0.035611
0.003770
0.053511
0.089066
0.100630
0.100169
0.089062
0.064353
0.029713
-0.012774
-0.053181
-0.099856
-0.139598
-0.164940
-0.176290
-0.188295
-0.181602
-0.157769
-0.129533
-0.079080
-0.034078
0.020564
0.044077
0.082234
0.101082
0.102680
0.098144
0.074535
0.046522
0.002480
-0.046056
-0.100657
-0.141419
-0.161973
-0.187870
-0.186905
-0.178016
-0.149119
-0.112875
-0.072702
-0.030946
0.023568
0.065383
0.104209
0.133685
0.129955
0.116267
0.092471
0.061315
0.016009
-0.044824
-0.092303
-0.125828
-0.161087
-0.165529
-0.169149
-0.160764
-0.156159
-0.099405
-0.046366
0.003240
0.039053
0.087347
0.119851
0.148298
0.151104
0.151126
0.120062
0.087157
0.051733
0.000359
-0.052033
-0.088233
-0.121867
-0.145013
-0.149083
-0.142258
-0.125014
-0.090548
-0.030322
0.020850
0.062315
0.109623
0.151430
0.138228
0.173938
0.177429
0.158949
0.117114
0.079475
0.034753
-0.016038
-0.050224
-0.087551
-0.117433
-0.124568
-0.109473
-0.080031
-0.044197
0.003269
0.056322
0.098023
0.138095
0.173010
0.201608
0.207412
0.197731
0.170853
0.144033
0.098458
0.057708
0.012960
-0.033350
-0.073639
-0.095887
-0.113231
-0.097635
-0.083456
-0.046395
-0.003062
0.039585
0.095946
0.150945
0.177242
0.193329
0.208851
0.206991
0.181168
0.145829
0.105959
0.039063
-0.004888
-0.040068
-0.081170
-0.085746
-0.096743
-0.105099
-0.087788
-0.052742
-0.015769
0.024634
0.072081
0.111178
0.143493
0.180330
0.196831
0.187360
0.165196
0.120489
0.087761
0.028284
-0.025613
-0.058798
-0.089472
-0.114483
-0.131142
-0.124360
-0.110909
-0.078736
-0.035757
0.015998
0.057678
0.090682
0.131880
0.143585
0.149321
0.125957
0.128910
0.110508
0.066088
0.025939
-0.043646
-0.103271
-0.134106
-0.154472
-0.172362
-0.175076
-0.154377
-0.115051
-0.061317
-0.027996
0.020692
0.052063
0.081981
0.114033
0.128368
0.123637
0.106714
0.062780
0.017908
-0.016971
-0.066306
-0.114601
-0.152183
-0.174787
-0.188548
-0.184324
-0.170296
-0.135989
-0.096215
-0.054820
-0.012354
0.031318
0.047515
0.081540
0.098705
0.098800
0.084854
0.052937
0.013660
-0.037275
-0.085675
-0.125244
-0.156000
-0.183578
-0.198394
-0.201121
-0.189266
-0.131561
-0.116132
-0.091452
-0.026866
0.027930
0.058365
0.076336
0.081175
0.078456
0.067163
0.034053
0.008137
-0.026848
-0.078571
-0.119364
-0.164177
-0.191830
-0.195851
-0.191167
-0.169379
-0.151493
-0.109205
-0.065922
-0.048918
0.016725
0.060307
0.100666
0.096106
0.099663
0.082610
0.040554
0.007610
-0.029462
-0.079218
-0.107865
-0.150332
-0.170636
-0.175324
-0.173343
-0.148010
-0.125807
-0.092232
-0.052923
-0.005639
0.033797
0.069389
0.085080
0.095245
0.087096
0.066180
0.042660
0.009766
-0.036574
-0.078417
-0.106185
-0.157859
-0.167112
-0.159988
-0.163049
-0.156329
-0.122922
-0.065072
-0.027153
0.000682
0.040326
0.069695
0.088013
0.096232
0.092241
0.075910
0.035714
0.001130
-0.030200
-0.083180
-0.102682
-0.129773
-0.165661
-0.159807
-0.164096
-0.159019
-0.109400
-0.069047
-0.037973
0.014456
0.050961
0.076202
0.099471
0.106438
0.095967
0.058357
0.014609
-0.006169
-0.037355
-0.075083
-0.116345
-0.145368
-0.168996
-0.177365
-0.169325
-0.137270
-0.099842
-0.067424
-0.010835
0.016175
0.048939
0.078923
0.097488
0.102663
0.104151
0.067339
0.042307
-0.001540
-0.047648
-0.096770
-0.133295
-0.167892
-0.183021
-0.192212
-0.194226
-0.162966
-0.123653
-0.082169
-0.044933
0.017215
0.063717
0.086329
0.104236
0.110384
0.102891
0.071833
0.030238
-0.018759
-0.063695
-0.100518
-0.142581
-0.176619
-0.192501
-0.198664
-0.189637
-0.161837
-0.131096
-0.087141
-0.041511
0.014467
0.058616
0.074311
0.099969
0.105838
0.101262
0.071082
0.035802
-0.001529
-0.057082
-0.114741
-0.147055
-0.180447
-0.206234
-0.208531
-0.208318
-0.192545
-0.139262
-0.095865
-0.049300
0.000557
0.041097
0.065517
0.088472
0.109295
0.098321
0.070361
0.035904
-0.014649
-0.066560
-0.116115
-0.149847
-0.183501
-0.213326
-0.208676
-0.200446
-0.178492
-0.149580
-0.103265
-0.053054
-0.006733
0.041492
0.070686
0.105358
0.116321
0.094260
0.067216
0.043382
-0.001236
-0.055879
-0.099443
-0.134914
-0.181238
-0.214029
-0.213040
-0.213363
-0.191677
-0.147784
-0.105821
-0.051544
-0.005331
0.038264
0.068528
0.093855
0.103706
0.103934
0.096019
0.061160
0.019329
-0.044594
-0.081626
-0.129574
-0.159889
-0.175743
-0.175128
-0.180171
-0.162938
-0.127909
-0.091027
-0.032543
0.024391
0.066420
0.105500
0.129237
0.137517
0.128427
0.113699
0.087094
0.038029
-0.004295
-0.061376
-0.107097
-0.141102
-0.175026
-0.185489
-0.181534
-0.154031
-0.114701
-0.076579
-0.024968
0.020809
0.070224
0.107406
0.138520
0.141973
0.140721
0.114052
0.074596
0.032371
0.005183
-0.032517
-0.059263
-0.107846
-0.133958
-0.154757
-0.160057
-0.141959
-0.114740
-0.064233
-0.023615
0.023639
0.067346
0.095626
0.120038
0.121174
0.117588
0.095958
0.069087
0.025161
-0.026596
-0.079057
-0.126407
-0.160211
-0.177930
-0.209525
-0.184716
-0.179153
-0.153801
-0.116502
-0.070793
-0.031818
0.014459
0.053571
0.079757
0.091599
0.089984
0.072788
0.034162
-0.010576
-0.060833
-0.099570
-0.147763
-0.177207
-0.197294
-0.206490
-0.217026
-0.197116
-0.179034
-0.138302
-0.093457
-0.053162
-0.018673
0.031030
0.066822
0.066544
0.063830
0.052376
0.027436
-0.017919
-0.061363
-0.112120
-0.147477
-0.185916
-0.206533
-0.224812
-0.232518
-0.208757
-0.178087
-0.139235
-0.113035
-0.061454
-0.024770
0.024301
0.047524
0.054113
0.066947
0.048420
0.007006
-0.019666
-0.061056
-0.103196
-0.134641
-0.182454
-0.204881
-0.210644
-0.214679
-0.197327
-0.166649
-0.133150
-0.090326
-0.042028
-0.014343
0.030721
0.050165
0.055020
0.060451
0.042935
0.014188
-0.023023
-0.062915
-0.108493
-0.151173
-0.190100
-0.213783
-0.218781
-0.209987
-0.189772
-0.161506
-0.135206
-0.103609
-0.057379
-0.025762
0.019505
0.041631
0.043764
0.045115
0.037113
0.015741
-0.013959
-0.040773
-0.080555
-0.103652
-0.129109
-0.138747
-0.121001
-0.109289
-0.087880
-0.039924
0.006907
0.064061
0.122396
0.179256
0.225930
0.271362
0.299640
0.319325
0.331471
0.329174
0.344028
0.332378
0.311461
0.315870
0.338364
0.325536
0.342827
0.381142
0.450561
0.520726
0.576191
0.672984
0.758064
0.810996
0.841171
0.860456
0.867733
0.855416
0.811704
0.751206
0.687375
0.630773
0.543080
0.424981
0.332983
0.243662
0.186593
0.134172
0.110855
0.096951
0.090891
0.124008
0.145211
0.169705
0.198253
0.202430
0.205612
0.196226
0.175106
0.142278
0.091913
0.041109
-0.007684
-0.049291
-0.075011
-0.093463
-0.111895
-0.100329
-0.087942
-0.055483
-0.021118
0.013618
0.060629
0.096605
0.117109
0.130739
0.132964
0.114188
0.087780
0.061173
0.006690
-0.025222
-0.063046
-0.113338
-0.133089
-0.155917
-0.167418
-0.155811
-0.135543
-0.102103
-0.064726
-0.023248
0.021002
0.058638
0.093451
0.111174
0.112704
0.113822
0.088749
0.050017
0.010080
-0.037559
-0.081149
-0.123811
-0.150162
-0.162916
-0.166296
-0.165656
-0.155818
-0.125649
-0.052469
0.003861
0.046576
0.081339
0.105555
0.123225
0.120761
0.112095
0.085706
0.057639
0.011329
-0.027883
-0.077695
-0.118224
-0.143470
-0.162341
-0.156735
-0.144770
-0.117093
-0.082623
-0.032141
0.006445
0.050952
0.090323
0.122193
0.147385
0.146019
0.129416
0.110805
0.086796
0.039983
-0.013822
-0.063795
-0.095783
-0.099229
-0.126256
-0.141553
-0.124699
-0.103027
-0.063494
-0.008801
0.045603
0.078455
0.114402
0.142707
0.168374
0.175501
0.164776
0.136188
0.106004
0.074793
0.037781
-0.020956
-0.059859
-0.097198
-0.116975
-0.124800
-0.118340
-0.102717
-0.051961
0.006091
0.060750
0.110413
0.158693
0.183356
0.207910
0.205879
0.202977
0.185048
0.150557
0.100307
0.050126
0.008818
-0.031559
-0.071770
-0.090387
-0.112786
-0.083271
-0.051402
-0.018555
0.020888
0.076000
0.125110
0.163529
0.200326
0.234262
0.237898
0.225256
0.209568
0.170489
0.125881
0.086807
0.035833
-0.016299
-0.043928
-0.073444
-0.085626
-0.078077
-0.057545
-0.025438
0.021533
0.072383
0.118914
0.169593
0.194957
0.227077
0.245421
0.238660
0.205155
0.174157
0.131051
0.075950
0.027389
-0.016414
-0.058807
-0.095734
-0.108000
-0.085658
-0.046412
-0.030215
0.004144
0.054127
0.093453
0.139044
0.177516
0.209108
0.215211
0.202936
0.185323
0.155159
0.110720
0.060714
0.013679
-0.033545
-0.069738
-0.101308
-0.112507
-0.109068
-0.090246
-0.064576
-0.023516
0.014191
0.063928
0.112242
0.148302
0.175603
0.184662
0.170858
0.155777
0.121220
0.076069
0.036433
-0.009699
-0.068506
-0.100239
-0.124104
-0.140379
-0.139251
-0.134458
-0.101819
-0.053558
-0.003453
0.016726
0.051866
0.080502
0.114042
0.137228
0.138971
0.128585
0.097100
0.049666
-0.001770
-0.047860
-0.090220
-0.115913
-0.151669
-0.160354
-0.153072
-0.144303
-0.107612
-0.073800
-0.035293
0.004433
0.044205
0.086081
0.112889
0.117379
0.109894
0.101623
0.065804
0.016091
-0.027013
-0.068482
-0.106580
-0.117069
-0.147235
-0.161013
-0.153457
-0.136073
-0.120373
-0.078195
-0.036160
-0.006147
0.042873
0.077952
0.092182
0.092291
0.088901
0.090341
0.063740
0.017185
-0.019368
-0.060541
-0.102907
-0.135079
-0.152274
-0.164188
-0.154095
-0.138201
-0.114021
-0.073994
-0.024731
0.011102
0.057800
0.075351
0.095284
0.112797
0.112868
0.091200
0.062063
0.025253
-0.015050
-0.058205
-0.097373
-0.122589
-0.145395
-0.158185
-0.145795
-0.125327
-0.103393
-0.085118
-0.044119
0.008331
0.044727
0.080244
0.097611
0.105276
0.105280
0.110282
0.063460
0.025898
-0.004248
-0.037487
-0.085985
-0.106461
-0.134656
-0.146955
-0.152345
-0.128501
-0.090474
-0.048860
-0.009734
0.035360
0.071119
0.087016
0.108155
0.112396
0.099454
0.093215
0.058561
0.011022
-0.029619
-0.046690
-0.099701
-0.114822
-0.137733
-0.157270
-0.139835
-0.122631
-0.088814
-0.056242
-0.012694
0.029402
0.065179
0.094685
0.110627
0.117471
0.107110
0.084908
0.058207
0.017140
-0.022745
-0.063858
-0.106700
-0.129898
-0.146491
-0.151578
-0.147679
-0.120145
-0.087180
-0.049993
-0.016052
0.030536
0.065345
0.101361
0.106449
0.107774
0.096108
0.085201
0.048788
0.011800
-0.039538
-0.088305
-0.119722
-0.135297
-0.169849
-0.160650
-0.157394
-0.145578
-0.118049
-0.064027
-0.012182
0.036533
0.061550
0.086244
0.106648
0.105300
0.098245
0.070942
0.039984
-0.012319
-0.057593
-0.097642
-0.127035
-0.156177
-0.167909
-0.174804
-0.159398
-0.150701
-0.117761
-0.063426
-0.018581
0.003610
0.042479
0.085077
0.106184
0.110945
0.108087
0.065841
0.037449
-0.001339
-0.053192
-0.096538
-0.143541
-0.163681
-0.176033
-0.191816
-0.178063
-0.149675
-0.116614
-0.066643
-0.027941
0.012576
0.053416
0.084034
0.093947
0.112094
0.093528
0.066582
0.028760
-0.017590
-0.055295
-0.102343
-0.153150
-0.179239
-0.191362
-0.208099
-0.176150
-0.156372
-0.115223
-0.068925
-0.020962
0.017077
0.054815
0.090654
0.105911
0.107972
0.104568
0.070786
0.035343
-0.018815
-0.052203
-0.097374
-0.156764
-0.188630
-0.205695
-0.211436
-0.201600
-0.160940
-0.124306
-0.082435
-0.029900
0.024198
0.064591
0.088089
0.103738
0.105748
0.099382
0.075035
0.043111
-0.001196
-0.050860
-0.095024
-0.144072
-0.177711
-0.194140
-0.199405
-0.193282
-0.172614
-0.167245
-0.094534
-0.046486
0.002453
0.057255
0.085584
0.109407
0.130322
0.127636
0.103165
0.062682
0.019218
-0.030939
-0.080016
-0.111930
-0.146056
-0.170039
-0.178142
-0.166768
-0.147585
-0.109502
-0.057184
-0.012046
0.043361
0.089703
0.125647
0.141200
0.144281
0.132483
0.114078
0.085673
0.043173
-0.004366
-0.057511
-0.103619
-0.144827
-0.174771
-0.167028
-0.166370
-0.156076
-0.120018
-0.076464
-0.014743
0.042854
0.089322
0.127775
0.151414
0.163576
0.161176
0.146177
0.110046
0.066783
0.016110
-0.021023
-0.064959
-0.104169
-0.138615
-0.155828
-0.158147
-0.143010
-0.124739
-0.093267
-0.035416
0.023226
0.066290
0.089290
0.108029
0.114660
0.114055
0.102668
0.069436
0.031841
-0.014480
-0.079391
-0.122045
-0.161160
-0.186910
-0.203028
-0.206768
-0.192429
-0.170162
-0.113182
-0.059822
-0.003790
0.040092
0.070610
0.092621
0.098368
0.085087
0.074612
0.027051
-0.006036
-0.053461
-0.088717
-0.133206
-0.169220
-0.203020
-0.212395
-0.218738
-0.195008
-0.170141
-0.132576
-0.087878
-0.047909
-0.002694
0.045971
0.066318
0.070934
0.061792
0.047321
0.014720
-0.019977
-0.069325
-0.112780
-0.146635
-0.173961
-0.196954
-0.209389
-0.208871
-0.197635
-0.165432
-0.128814
-0.083038
-0.040960
-0.009997
0.021159
0.058206
0.075825
0.069475
0.045745
0.024518
-0.008663
-0.050964
-0.101700
-0.140169
-0.179464
-0.214204
-0.228337
-0.234029
-0.205571
-0.162515
-0.133426
-0.088550
-0.040717
-0.006714
0.025823
0.044378
0.061818
0.055406
0.042276
0.010090
-0.039579
-0.066852
-0.095677
-0.128339
-0.167108
-0.188415
-0.212671
-0.217907
-0.207236
-0.177334
-0.139372
-0.094828
-0.050277
-0.013892
0.019523
0.042444
0.060869
0.055334
0.038873
0.013976
-0.007177
-0.040146
-0.088279
-0.110761
-0.122402
-0.110649
-0.120023
-0.099503
-0.068787
-0.025011
0.025980
0.098571
0.143651
0.211194
0.274433
0.328488
0.355783
0.378471
0.406843
0.415218
0.419624
0.410042
0.395457
0.398379
0.388406
0.412857
0.451742
0.508542
0.557620
0.611156
0.685375
0.760052
0.814399
0.837562
0.862181
0.872254
0.851405
0.833803
0.794255
0.746110
0.665899
0.555249
0.440550
0.336375
0.250215
0.177744
0.106300
0.076071
0.062297
0.063712
0.091145
0.123318
0.161046
0.180461
0.205156
0.215050
0.214495
0.188806
0.160532
0.121147
0.065597
0.033195
-0.012114
-0.046650
-0.094624
-0.110463
-0.121370
-0.118235
-0.095159
-0.069095
-0.017999
0.009775
0.042072
0.080459
0.110259
0.123623
0.127139
0.109679
0.080586
0.047538
0.007433
-0.038571
-0.078234
-0.113193
-0.136330
-0.142783
-0.164045
-0.148802
-0.135319
-0.104769
-0.057928
-0.022772
0.022698
0.068693
0.087377
0.098656
0.109076
0.092263
0.070626
0.033692
-0.007271
-0.052335
-0.084671
-0.139065
-0.166051
-0.163432
-0.172177
-0.157133
-0.130246
-0.100857
-0.064469
-0.027800
0.027752
0.068226
0.095866
0.104433
0.118305
0.105955
0.078061
0.045241
0.008125
-0.041887
-0.085993
-0.110934
-0.145083
-0.153908
-0.159107
-0.143801
-0.122413
-0.099120
-0.053765
0.000152
0.048711
0.080649
0.110638
0.127930
0.147304
0.137024
0.100249
0.057934
0.023231
-0.016251
-0.065970
-0.081927
-0.109410
-0.142611
-0.153288
-0.141692
-0.098701
-0.070155
-0.033280
0.017509
0.064026
0.099584
0.138647
0.147300
0.159100
0.153273
0.137682
0.111452
0.065239
0.018063
-0.030112
-0.070083
-0.095384
-0.113080
-0.119136
-0.116383
-0.080596
-0.045313
-0.003817
0.053924
0.100441
0.145119
0.183110
0.184624
0.203911
0.198648
0.169532
0.125253
0.095322
0.042998
-0.002737
-0.043798
-0.068072
-0.093180
-0.096160
-0.080605
-0.056099
-0.023454
0.016424
0.066495
0.124596
0.169430
0.207124
0.218317
0.223309
0.218206
0.184825
0.149003
0.110884
0.059232
0.012247
-0.031535
-0.063426
-0.080968
-0.083204
-0.073394
-0.050474
-0.033293
0.009159
0.040260
0.094978
0.167205
0.198002
0.214271
0.213953
0.213301
0.204855
0.154864
0.099149
0.057368
0.027788
-0.022852
-0.057657
-0.079254
-0.100674
-0.096042
-0.072266
-0.040144
-0.000862
0.054021
0.111043
0.152605
0.186528
0.201624
0.201529
0.189518
0.161691
0.138883
0.094841
0.035775
-0.012985
-0.066986
-0.095064
-0.118788
-0.129528
-0.127009
-0.103233
-0.075902
-0.027964
0.015472
0.072298
0.107619
0.143567
0.152479
0.165854
0.150894
0.132323
0.096840
0.059378
0.004552
-0.044817
-0.082606
-0.125458
-0.148801
-0.160020
-0.165105
-0.143236
-0.112962
-0.063995
-0.015310
0.028073
0.068229
0.103683
0.123910
0.130649
0.131962
0.107445
0.075159
0.022428
-0.030219
-0.077605
-0.117663
-0.157556
-0.181144
-0.209297
-0.195767
-0.165254
-0.142974
-0.095982
-0.067939
-0.015192
0.041860
0.082573
0.093330
0.113426
0.109601
0.080214
0.056310
0.010600
-0.040741
-0.088644
-0.130658
-0.167633
-0.198123
-0.213787
-0.209499
-0.181424
-0.157176
-0.129426
-0.065478
-0.012129
0.038522
0.074988
0.094764
0.102898
0.095107
0.084822
0.053941
0.011840
-0.031530
-0.083409
-0.128710
-0.167134
-0.185734
-0.204105
-0.192528
-0.174625
-0.150428
-0.103766
-0.062789
-0.013329
0.038536
0.073719
0.096577
0.109937
0.107614
0.093623
0.063216
0.011411
-0.028802
-0.077549
-0.125482
-0.156406
-0.175791
-0.195312
-0.188766
-0.167228
-0.144808
-0.094818
-0.046704
0.001948
0.039709
0.075097
0.095780
0.117650
0.108066
0.094908
0.053599
0.013763
-0.039437
-0.074132
-0.112748
-0.152380
-0.184884
-0.190161
-0.185040
-0.173152
-0.159700
-0.099729
-0.044992
0.007344
0.050995
0.081485
0.105791
0.106300
0.109376
0.107657
0.076332
0.021604
-0.017974
-0.070615
-0.117652
-0.153292
-0.170629
-0.188094
-0.182988
-0.174167
-0.144203
-0.115752
-0.075305
-0.002078
0.051434
0.085165
0.113198
0.107730
0.100221
0.085122
0.048992
0.008422
-0.042657
-0.065857
-0.114443
-0.151148
-0.161829
-0.181649
-0.174056
-0.161270
-0.149796
-0.111549
-0.059443
-0.012485
0.025264
0.057883
0.086199
0.092233
0.087135
0.075125
0.044309
0.002024
-0.040654
-0.089993
-0.130159
-0.167409
-0.179530
-0.181718
-0.176476
-0.170788
-0.142783
-0.107142
-0.069360
-0.029011
0.018381
0.056242
0.082279
0.083262
0.084592
0.055786
0.026923
-0.013038
-0.057535
-0.099896
-0.137392
-0.167544
-0.192481
-0.207939
-0.190665
-0.157065
-0.137488
-0.110965
-0.062856
-0.023068
0.010705
0.052417
0.071156
0.079105
0.064372
0.037502
0.015950
-0.021666
-0.062310
-0.103746
-0.141993
-0.169830
-0.182641
-0.189690
-0.186050
-0.171983
-0.144743
-0.111206
-0.069371
-0.032009
0.002057
0.039157
0.057036
0.064013
0.061543
0.041013
0.003968
-0.037925
-0.072966
-0.107346
-0.170688
-0.185427
-0.185714
-0.193157
-0.199119
-0.167762
-0.143482
-0.095599
-0.060714
-0.020826
0.013238
0.043796
0.057465
0.064103
0.061169
0.037670
0.008815
-0.020644
-0.061348
-0.112794
-0.149206
-0.191387
-0.201461
-0.212869
-0.211079
-0.177095
-0.141173
-0.102751
-0.073184
-0.025463
0.015202
0.050593
0.060876
0.072703
0.054886
0.037018
-0.001995
-0.044622
-0.084617
-0.119476
-0.150345
-0.172088
-0.197873
-0.194695
-0.190691
-0.170691
-0.140965
-0.098269
-0.063866
-0.029647
0.014112
0.049611
0.068656
0.064724
0.069273
0.047512
0.024905
-0.012429
-0.050797
-0.094916
-0.130433
-0.172282
-0.178207
-0.170586
-0.164104
-0.154635
-0.112977
-0.070533
-0.024679
0.025174
0.058286
0.077508
0.095729
0.097409
0.086842
0.059266
0.026798
-0.017348
-0.068481
-0.130029
-0.124233
-0.136472
-0.173945
-0.166679
-0.152919
-0.146136
-0.116562
-0.073668
-0.024350
0.026004
0.065386
0.093857
0.113211
0.120629
0.125555
0.095832
0.054286
0.016912
-0.024333
-0.073096
-0.099858
-0.122476
-0.142765
-0.158031
-0.146187
-0.123308
-0.094086
-0.068796
-0.026430
0.005667
0.033608
0.064597
0.084143
0.083861
0.081567
0.056039
0.016152
-0.027524
-0.064973
-0.115407
-0.161429
-0.193327
-0.200135
-0.206866
-0.198872
-0.167049
-0.132738
-0.099499
-0.057150
-0.025820
0.012040
0.032203
0.060173
0.070806
0.063646
0.046488
-0.005507
-0.055189
-0.109918
-0.152186
-0.185997
-0.226945
-0.236511
-0.232764
-0.228156
-0.217563
-0.182550
-0.119584
-0.063947
-0.052338
0.002255
0.037363
0.059893
0.051841
0.044264
0.021127
-0.024691
-0.060934
-0.110467
-0.160277
-0.200967
-0.225708
-0.235221
-0.241543
-0.224889
-0.204146
-0.174312
-0.124289
-0.092531
-0.043683
0.011067
0.036314
0.049093
0.053520
0.043889
0.019503
-0.020694
-0.070288
-0.109918
-0.151917
-0.194393
-0.238991
-0.257884
-0.246585
-0.242276
-0.214228
-0.182504
-0.125128
-0.090311
-0.043807
-0.007673
0.039784
0.060685
0.063052
0.040405
0.013405
-0.023702
-0.065126
-0.110339
-0.155878
-0.193322
-0.224839
-0.248610
-0.250429
-0.241872
-0.222183
-0.183794
-0.124578
-0.089023
-0.054627
-0.007613
0.021953
0.046524
0.041734
0.031933
0.019943
-0.014001
-0.051919
-0.097325
-0.129442
-0.167599
-0.188712
-0.195546
-0.175796
-0.154264
-0.115373
-0.063466
-0.008682
0.043921
0.112608
0.195060
0.237456
0.280312
0.307755
0.327338
0.327707
0.324226
0.315232
0.301132
0.287901
0.278687
0.276951
0.255488
0.310370
0.384832
0.468967
0.545207
0.613120
0.681269
0.759516
0.822304
0.852948
0.851281
0.858791
0.847922
0.809874
0.769457
0.691086
0.596153
0.491109
0.384512
0.289001
0.201163
0.151497
0.088838
0.065863
0.050274
0.064223
0.105370
0.143058
0.181910
0.215674
0.226449
0.216714
0.204138
0.173942
0.123928
0.068274
0.015314
-0.028781
-0.083292
-0.116082
-0.145691
-0.159662
-0.156599
-0.132555
-0.111064
-0.065144
-0.020113
0.025146
0.076798
0.101648
0.128840
0.126907
0.117220
0.095546
0.068108
0.023414
-0.040709
-0.088292
-0.132408
-0.173015
-0.192931
-0.199908
-0.196795
-0.165043
-0.139678
-0.107245
-0.064514
-0.007095
0.037072
0.065851
0.083946
0.100480
0.107292
0.085040
0.038663
-0.031102
-0.056926
-0.094574
-0.131569
-0.166979
-0.198398
-0.204245
-0.200302
-0.180437
-0.147126
-0.096714
-0.045694
0.000925
0.047065
0.079235
0.105439
0.109978
0.100536
0.086687
0.055607
0.021228
-0.031670
-0.079571
-0.120590
-0.158604
-0.182277
-0.195166
-0.191099
-0.169205
-0.127066
-0.088670
-0.030497
0.014527
0.055161
0.089464
0.124604
0.127920
0.125287
0.103019
0.070881
0.023872
-0.013858
-0.064795
-0.112492
-0.150736
-0.170914
-0.163423
-0.149751
-0.137974
-0.104357
-0.068694
-0.021549
0.034199
0.084436
0.122812
0.142382
0.145638
0.143738
0.122827
0.079267
0.063631
0.023882
-0.022549
-0.072951
-0.096444
-0.112546
-0.127032
-0.136700
-0.117265
-0.080934
-0.036792
0.009521
0.063278
0.095113
0.133700
0.162814
0.183033
0.186484
0.156138
0.133011
0.095205
0.056102
-0.005747
-0.049614
-0.060757
-0.081374
-0.073673
-0.084986
-0.075202
-0.028919
-0.005340
0.032943
0.083743
0.130982
0.162203
0.176471
0.182443
0.213628
0.201886
0.159561
0.122734
0.070387
0.028750
-0.010340
-0.042691
-0.059476
-0.075943
-0.073291
-0.053971
-0.034216
-0.002321
0.054294
0.089622
0.133930
0.174916
0.197740
0.190439
0.188479
0.171333
0.149365
0.107032
0.064439
0.021634
-0.017209
-0.043265
-0.070936
-0.087632
-0.083735
-0.063750
-0.041955
-0.008962
0.040880
0.078015
0.117141
0.141571
0.162260
0.173789
0.161935
0.150209
0.115205
0.085516
0.041031
0.000933
-0.042705
-0.080834
-0.119629
-0.132318
-0.126511
-0.081990
-0.051238
-0.026911
0.011811
0.054172
0.083375
0.114434
0.136342
0.131207
0.129353
0.118444
0.083627
0.042276
-0.011680
-0.053441
-0.093010
-0.145858
-0.162433
-0.163713
-0.135362
-0.118133
-0.075790
-0.052714
-0.016171
0.021240
0.054249
0.080532
0.099358
0.099118
0.095323
0.078710
0.039771
0.002697
-0.036958
-0.082625
-0.115886
-0.145288
-0.170122
-0.171184
-0.164152
-0.148117
-0.124354
-0.091182
-0.050788
-0.015900
0.023080
0.056208
0.073560
0.085768
0.075100
0.050799
0.031026
-0.005563
-0.058433
-0.101927
-0.145038
-0.164983
-0.186586
-0.203744
-0.194969
-0.167761
-0.128145
-0.092892
-0.056064
-0.014479
0.014327
0.044995
0.058803
0.063399
0.062300
0.048006
0.012233
-0.017220
-0.058751
-0.104424
-0.142308
-0.172545
-0.193558
-0.196406
-0.183776
-0.172793
-0.130667
-0.098284
-0.054378
-0.019805
0.008204
0.033107
0.068723
0.073895
0.070163
0.045673
-0.011201
-0.023803
-0.045722
-0.082105
-0.125085
-0.161919
-0.175860
-0.178699
-0.185386
-0.152056
-0.112120
-0.078657
-0.032677
0.011591
0.046004
0.074790
0.085049
0.086624
0.074920
0.048226
0.018338
-0.014924
-0.063141
-0.102254
-0.147857
-0.176174
-0.189004
-0.189082
-0.172434
-0.148157
-0.112069
-0.079718
-0.033892
0.006425
0.051692
0.081565
0.099584
0.098341
0.091890
0.063349
0.027423
-0.018819
-0.064518
-0.104386
-0.141186
-0.172616
-0.191581
-0.196147
-0.175099
-0.160000
-0.126750
-0.083930
-0.031193
0.010286
0.035987
0.070254
0.097962
0.102444
0.086154
0.064141
0.031112
-0.020441
-0.053414
-0.101954
-0.146047
-0.176829
-0.201496
-0.210254
-0.200294
-0.165692
-0.110466
-0.072285
-0.030781
0.014788
0.052181
0.076917
0.097472
0.102391
0.097587
0.066126
0.028263
-0.017021
-0.062921
-0.115577
-0.170204
-0.208656
-0.213997
-0.210169
-0.201250
-0.165632
-0.137809
-0.094131
-0.043785
-0.005921
0.030489
0.052056
0.098549
0.119448
0.106139
0.065618
0.029502
-0.021844
-0.068335
-0.118879
-0.168202
-0.199435
-0.214203
-0.214048
-0.202069
-0.181233
-0.151264
-0.108651
-0.050787
-0.004696
0.038355
0.072218
0.096069
0.103269
0.094247
0.058931
0.017630
-0.027128
-0.081359
-0.119527
-0.170570
-0.209473
-0.227862
-0.222180
-0.214713
-0.184331
-0.150234
-0.110346
-0.068295
-0.012827
0.029674
0.069168
0.093620
0.085500
0.077769
0.050662
0.022596
-0.016855
-0.068640
-0.117586
-0.161995
-0.204105
-0.223711
-0.229230
-0.217852
-0.206145
-0.161216
-0.114751
-0.064277
-0.017855
0.025200
0.064701
0.086711
0.083607
0.089139
0.065887
0.028132
-0.022097
-0.073374
-0.122197
-0.162869
-0.206885
-0.226557
-0.236938
-0.236396
-0.206903
-0.185484
-0.141581
-0.073278
-0.011653
0.041494
0.069897
0.095710
0.093372
0.078070
0.059379
0.029955
-0.016911
-0.070030
-0.116317
-0.163481
-0.204068
-0.220139
-0.224332
-0.212360
-0.189081
-0.149605
-0.118528
-0.066341
-0.017230
0.032418
0.065564
0.094782
0.098472
0.087329
0.080899
0.060528
0.012598
-0.032564
-0.085924
-0.125604
-0.166211
-0.186656
-0.194427
-0.180552
-0.170710
-0.127190
-0.090207
-0.037331
0.009254
0.060044
0.099504
0.124889
0.128223
0.119628
0.099085
0.066649
0.021910
-0.027726
-0.080027
-0.121650
-0.169055
-0.190456
-0.191866
-0.185928
-0.158188
-0.125766
-0.074936
-0.033970
0.015157
0.067850
0.098569
0.129464
0.147808
0.137199
0.106986
0.077978
0.042353
-0.002988
-0.040434
-0.083074
-0.114176
-0.148987
-0.165237
-0.168916
-0.153915
-0.129241
-0.097702
-0.050891
-0.012723
0.033044
0.068516
0.096882
0.097973
0.099591
0.076765
0.052677
0.007939
-0.046235
-0.100518
-0.144549
-0.184023
-0.207704
-0.218149
-0.205670
-0.197044
-0.168089
-0.107799
-0.082865
-0.041523
0.008393
0.050266
0.078147
0.082512
0.074269
0.057887
0.018594
-0.029107
-0.069859
-0.115242
-0.157430
-0.197830
-0.217476
-0.226240
-0.233274
-0.217462
-0.196956
-0.134532
-0.089732
-0.040162
-0.000205
0.032257
0.040735
0.043502
0.034778
0.022788
0.002209
-0.033726
-0.074785
-0.125922
-0.164777
-0.206108
-0.220771
-0.231806
-0.224132
-0.216203
-0.187385
-0.154971
-0.101586
-0.058668
-0.015852
0.016472
0.042535
0.050783
0.049792
0.039248
0.005200
-0.032685
-0.079587
-0.123850
-0.165174
-0.200029
-0.213828
-0.218263
-0.218046
-0.208348
-0.184574
-0.142283
-0.110794
-0.058200
-0.014466
0.010608
0.039485
0.053099
0.041311
0.032225
-0.006186
-0.051320
-0.096117
-0.129290
-0.143924
-0.194025
-0.221241
-0.232690
-0.219040
-0.219697
-0.181983
-0.156413
-0.140952
-0.087810
-0.028638
0.016452
0.041900
0.049818
0.046255
0.040953
0.025737
-0.013919
-0.038257
-0.073984
-0.100330
-0.118674
-0.123433
-0.118988
-0.094752
-0.074116
-0.032427
0.030661
0.097078
0.161576
0.222926
0.273899
0.319944
0.351809
0.377378
0.416558
0.416125
0.394408
0.396665
0.392499
0.385548
0.390909
0.423370
0.456316
0.493082
0.537666
0.597182
0.664474
0.723671
0.763331
0.794865
0.821325
0.820894
0.808236
0.776002
0.740244
0.680834
0.576478
0.459591
0.358874
0.255009
0.171685
0.094510
0.052670
0.034986
0.035353
0.044529
0.069875
0.105192
0.138894
0.171274
0.180490
0.190507
0.190265
0.166046
0.135460
0.093670
0.056079
0.016335
-0.028553
-0.063621
-0.094579
-0.116735
-0.126328
-0.114868
-0.103346
-0.074694
-0.038297
-0.005256
0.029288
0.068670
0.104368
0.106212
0.112347
0.100973
0.078435
0.039866
0.007363
-0.032074
-0.083251
-0.122378
-0.150825
-0.165876
-0.168373
-0.153433
-0.136317
-0.101548
-0.062857
-0.033151
0.009742
0.043637
0.071434
0.097602
0.096317
0.071140
0.052026
0.039382
-0.009419
-0.077055
-0.087156
-0.116873
-0.145649
-0.159904
-0.171456
-0.161286
-0.148470
-0.106871
-0.056968
-0.013449
0.023731
0.056456
0.089604
0.103839
0.116894
0.095179
0.088690
0.050854
0.002460
-0.036963
-0.069639
-0.109766
-0.142473
-0.156642
-0.156181
-0.148340
-0.122296
-0.093460
-0.041938
-0.003164
0.038259
0.067686
0.111167
0.135902
0.133873
0.129800
0.102940
0.058587
0.018069
-0.022798
-0.055879
-0.088732
-0.108974
-0.130040
-0.126452
-0.111917
-0.099596
-0.064941
-0.012731
0.032481
0.073432
0.111674
0.146967
0.167602
0.171113
0.155330
0.130650
0.098132
0.053350
0.021799
-0.030521
-0.067618
-0.101423
-0.109137
-0.107375
-0.095564
-0.061830
-0.029084
0.015444
0.061807
0.105275
0.149785
0.172713
0.196641
0.201872
0.190093
0.170672
0.124773
0.082931
0.042474
-0.003257
-0.051490
-0.100046
-0.097544
-0.094646
-0.060361
-0.030184
0.007872
0.048760
0.086539
0.133202
0.178087
0.209410
0.222889
0.228957
0.219098
0.186425
0.152770
0.105618
0.069152
0.013423
-0.024369
-0.050630
-0.063169
-0.069423
-0.057372
-0.026709
-0.010139
0.035799
0.088942
0.139906
0.182299
0.208881
0.226105
0.223795
0.215710
0.192834
0.146803
0.098694
0.061911
0.016509
-0.026695
-0.058192
-0.086579
-0.087906
-0.077489
-0.049286
-0.006210
0.036059
0.082514
0.124647
0.155887
0.189444
0.205063
0.216746
0.195086
0.164362
0.127167
0.083078
0.039188
-0.014333
-0.061580
-0.084606
-0.113911
-0.121490
-0.108523
-0.078971
-0.042358
0.017586
0.049359
0.085708
0.129349
0.154186
0.166843
0.176313
0.170770
0.142572
0.113222
0.055281
-0.000186
-0.047717
-0.099916
-0.123958
-0.143074
-0.152144
-0.142893
-0.124606
-0.088983
-0.045296
0.000467
0.031573
0.069744
0.108415
0.136408
0.147323
0.139272
0.097756
0.038306
0.014723
-0.026011
-0.068078
-0.108648
-0.144828
-0.170481
-0.175846
-0.172910
-0.150676
-0.121213
-0.069197
-0.026559
0.036874
0.075451
0.103023
0.126278
0.120375
0.107362
0.087307
0.055262
0.017872
-0.035710
-0.091815
-0.136401
-0.171503
-0.184601
-0.203429
-0.187439
-0.165545
-0.125715
-0.077039
-0.034859
0.012646
0.061703
0.092016
0.109683
0.120089
0.117462
0.105906
0.061909
0.014449
-0.036182
-0.086896
-0.119188
-0.164705
-0.201894
-0.207833
-0.188053
-0.153215
-0.123011
-0.074644
-0.030710
0.018226
0.071083
0.095847
0.118839
0.122938
0.130239
0.109217
0.074556
0.036150
-0.024027
-0.070455
-0.113605
-0.152822
-0.172466
-0.188560
-0.182701
-0.148911
-0.110643
-0.076438
-0.023812
0.025345
0.060699
0.092026
0.121931
0.126801
0.130964
0.115241
0.078088
0.037003
-0.020240
-0.068765
-0.116380
-0.141494
-0.175636
-0.191988
-0.183932
-0.157808
-0.123128
-0.104123
-0.036075
0.024250
0.073839
0.111516
0.133690
0.141392
0.151242
0.120755
0.075082
0.023059
-0.015166
-0.062952
-0.105873
-0.151769
-0.178612
-0.193168
-0.185632
-0.147211
-0.110395
-0.063944
-0.026099
0.034201
0.068420
0.114472
0.131565
0.131530
0.124997
0.106366
0.072452
0.027188
-0.012717
-0.071707
-0.114079
-0.144577
-0.168807
-0.181806
-0.189262
-0.158236
-0.115300
-0.067627
-0.036283
0.027267
0.067558
0.093622
0.118021
0.128172
0.115297
0.102966
0.062964
0.017332
-0.024221
-0.077982
-0.111695
-0.140771
-0.163820
-0.194737
-0.179845
-0.163293
-0.129034
-0.087295
-0.039635
0.016788
0.051423
0.080577
0.116476
0.126402
0.099295
0.084358
0.053062
0.016437
-0.029262
-0.055492
-0.106404
-0.160640
-0.184247
-0.191716
-0.193770
-0.172748
-0.129384
-0.094029
-0.052884
-0.005286
0.038439
0.070139
0.094634
0.104747
0.105487
0.098978
0.081399
0.021642
-0.034273
-0.066247
-0.111933
-0.149466
-0.177113
-0.184031
-0.183733
-0.165203
-0.139090
-0.100012
-0.046327
0.002923
0.042914
0.078655
0.104791
0.125794
0.111770
0.088119
0.057579
0.017694
-0.047171
-0.063357
-0.096637
-0.153233
-0.188486
-0.195079
-0.187928
-0.164908
-0.140101
-0.091404
-0.051473
-0.004244
0.033780
0.076260
0.100663
0.110821
0.102358
0.076085
0.046405
0.010133
-0.019495
-0.063953
-0.117882
-0.151823
-0.175838
-0.197956
-0.190238
-0.162813
-0.144379
-0.100108
-0.047372
-0.004016
0.028968
0.073399
0.095535
0.094238
0.094305
0.072247
0.038718
0.012355
-0.027426
-0.068027
-0.112924
-0.145845
-0.171996
-0.186298
-0.174226
-0.150864
-0.130281
-0.098113
-0.055185
-0.019192
0.017170
0.054395
0.088405
0.093023
0.093544
0.082208
0.074701
0.035170
0.009183
-0.027232
-0.061583
-0.097133
-0.130341
-0.141471
-0.139878
-0.122438
-0.097309
-0.052226
-0.010201
0.040943
0.075679
0.105313
0.127592
0.132437
0.126557
0.102114
0.076248
0.030177
-0.010215
-0.039612
-0.090053
-0.115500
-0.138617
-0.143913
-0.144482
-0.126560
-0.087249
-0.038166
0.004326
0.064352
0.108611
0.139571
0.165576
0.155166
0.146968
0.121642
0.104438
0.066801
0.029201
-0.004678
-0.055170
-0.092898
-0.130515
-0.131965
-0.131495
-0.100246
-0.080869
-0.061945
-0.017355
0.027206
0.063212
0.090198
0.106436
0.116166
0.112890
0.079336
0.050998
0.009803
-0.040738
-0.074153
-0.103185
-0.153978
-0.169397
-0.165098
-0.159041
-0.135518
-0.113070
-0.081895
-0.040391
-0.006907
0.024310
0.074924
0.089938
0.084204
0.073473
0.040790
0.012578
-0.003482
-0.053843
-0.097415
-0.118344
-0.156818
-0.184218
-0.195241
-0.189627
-0.170190
-0.133932
-0.095999
-0.046368
-0.005561
0.017206
0.046024
0.074272
0.061170
0.051341
0.037790
0.017134
0.001209
-0.052414
-0.115370
-0.155902
-0.178654
-0.190084
-0.194095
-0.178822
-0.156082
-0.139655
-0.102728
-0.059908
-0.012430
0.029570
0.066176
0.074470
0.073749
0.074054
0.041321
-0.000608
-0.031654
-0.062979
-0.111772
-0.151376
-0.180140
-0.186595
-0.192167
-0.196047
-0.169620
-0.123405
-0.097844
-0.044860
-0.018673
0.014060
0.050057
0.074210
0.076997
0.073615
0.053363
0.005357
-0.026219
-0.067867
-0.115830
-0.147188
-0.179930
-0.199527
-0.211368
-0.203773
-0.173483
-0.143375
-0.108128
-0.060784
-0.024031
0.014528
0.039610
0.059086
0.095042
0.105902
0.074890
0.051132
0.030494
-0.010610
-0.031543
-0.063438
-0.081217
-0.077871
-0.066792
-0.046644
-0.010992
0.042048
0.089791
0.155331
0.209990
0.299114
0.372302
0.415480
0.462611
0.468850
0.460592
0.471459
0.459333
0.438904
0.436296
0.445602
0.452116
0.477470
0.523732
0.563256
0.622484
0.669461
0.712717
0.752463
0.771841
0.815276
0.825101
0.815812
0.796030
0.769996
0.699285
0.583057
0.470770
0.360620
0.262535
0.193383
0.115381
0.062824
0.017535
0.007713
0.016593
0.048526
0.090984
0.118326
0.156758
0.193894
0.214204
0.222780
0.217564
0.196714
0.155497
0.111713
0.070803
0.028781
-0.030072
-0.080801
-0.115850
-0.124906
-0.123569
-0.111282
-0.072298
-0.035168
-0.012715
0.029589
0.059129
0.103902
0.141061
0.151544
0.157159
0.137058
0.111687
0.071413
0.016430
-0.025707
-0.048381
-0.080032
-0.124469
-0.154704
-0.162466
-0.147275
-0.121666
-0.085943
-0.037855
0.016197
0.061191
0.103791
0.123180
0.138055
0.130056
0.120667
0.101338
0.069381
0.025130
-0.025321
-0.072281
-0.112050
-0.140136
-0.162278
-0.162351
-0.155099
-0.121048
-0.082478
-0.028421
0.016314
0.064384
0.103199
0.130276
0.153707
0.160963
0.152419
0.121858
0.087243
0.051101
-0.000137
-0.042430
-0.104414
-0.136936
-0.140974
-0.143175
-0.125748
-0.097594
-0.064144
-0.027161
0.019681
0.060202
0.125927
0.167248
0.159453
0.163648
0.159683
0.160037
0.119841
0.047577
0.009144
-0.036868
-0.074586
-0.118988
-0.116115
-0.121954
-0.098101
-0.074381
-0.055863
-0.018611
0.054778
0.112251
0.149020
0.168335
0.200842
0.216680
0.205699
0.178467
0.147688
0.093264
0.031632
-0.011421
-0.043628
-0.069481
-0.083776
-0.090182
-0.067187
-0.040214
-0.009020
0.028209
0.084976
0.139855
0.175360
0.196356
0.218343
0.231712
0.230676
0.226320
0.175897
0.108060
0.071285
0.026876
-0.004675
-0.045167
-0.068273
-0.076095
-0.062324
-0.028660
-0.001308
0.055474
0.118631
0.164365
0.206537
0.242097
0.259835
0.280463
0.269147
0.243232
0.199862
0.140588
0.084979
0.044731
-0.002507
-0.035345
-0.049898
-0.061999
-0.057202
-0.030902
0.008742
0.044509
0.092239
0.137766
0.188608
0.216541
0.243157
0.269049
0.260289
0.216934
0.177428
0.135747
0.096794
0.070357
0.014785
-0.042774
-0.080998
-0.096152
-0.053577
-0.046907
0.011878
0.045963
0.083775
0.118244
0.174583
0.206359
0.231330
0.225145
0.221445
0.201981
0.163199
0.083908
0.064365
0.034296
-0.001563
-0.046339
-0.085466
-0.093668
-0.079480
-0.064641
-0.041294
-0.002258
0.047786
0.093177
0.143031
0.178530
0.196511
0.199492
0.187806
0.172104
0.134327
0.074932
0.042105
0.011561
-0.053403
-0.108813
-0.122589
-0.136498
-0.130347
-0.118487
-0.074617
-0.030416
0.019276
0.056109
0.104925
0.130828
0.160438
0.168497
0.148386
0.139760
0.094784
0.051853
0.014459
-0.050823
-0.100912
-0.137768
-0.162499
-0.168703
-0.167097
-0.156558
-0.103478
-0.036116
-0.004344
0.051257
0.102485
0.122164
0.142468
0.151243
0.156376
0.122490
0.072701
0.032552
-0.016368
-0.058104
-0.096918
-0.131431
-0.159492
-0.175584
-0.172649
-0.147703
-0.098173
-0.052626
-0.004565
0.028711
0.060743
0.115297
0.140600
0.146078
0.148780
0.126534
0.093118
0.055237
-0.007573
-0.063632
-0.102817
-0.131871
-0.164129
-0.166836
-0.169792
-0.152246
-0.114943
-0.094986
-0.034675
0.033391
0.067909
0.097580
0.137648
0.160188
0.169301
0.148661
0.105436
0.061577
-0.004456
-0.048763
-0.087234
-0.115262
-0.163583
-0.178719
-0.167889
-0.160077
-0.105282
-0.052765
0.005438
0.070751
0.097955
0.101523
0.137216
0.177048
0.156236
0.133221
0.102631
0.061600
0.021393
-0.039145
-0.089011
-0.141566
-0.161972
-0.173529
-0.155888
-0.136296
-0.103068
-0.037179
0.029141
0.083621
0.122064
0.136028
0.160294
0.169248
0.154779
0.128109
0.092526
0.057386
0.006993
-0.035804
-0.089953
-0.125544
-0.146554
-0.156378
-0.153123
-0.130211
-0.101710
-0.081654
-0.019878
0.033845
0.105657
0.122988
0.148132
0.165667
0.147698
0.128827
0.095150
0.051828
0.004670
-0.043254
-0.081145
-0.126227
-0.129999
-0.150572
-0.160089
-0.143938
-0.089614
-0.058346
-0.014689
0.033383
0.072382
0.112643
0.145420
0.153006
0.135323
0.101232
0.058544
0.036535
-0.003074
-0.047362
-0.091823
-0.121497
-0.142533
-0.160377
-0.155334
-0.149286
-0.116569
-0.061016
-0.025756
0.011422
0.047116
0.095577
0.139812
0.144721
0.148729
0.148930
0.090802
0.035190
-0.016867
-0.070334
-0.119698
-0.139878
-0.158666
-0.169307
-0.162299
-0.135451
-0.108938
-0.059208
-0.011516
0.036893
0.070268
0.108558
0.124122
0.135951
0.120587
0.116438
0.070104
0.024780
-0.020626
-0.051089
-0.106626
-0.143673
-0.168824
-0.177041
-0.174565
-0.134476
-0.101713
-0.064446
-0.019683
0.026785
0.062344
0.093928
0.110067
0.122801
0.149098
0.123839
0.058857
0.028084
-0.003920
-0.058470
-0.110808
-0.143694
-0.161899
-0.166025
-0.167115
-0.150826
-0.121478
-0.089578
-0.049509
0.006988
0.046222
0.080495
0.107352
0.119034
0.095376
0.101449
0.094059
0.045175
-0.001738
-0.057002
-0.101974
-0.143376
-0.163486
-0.187566
-0.184586
-0.155436
-0.109628
-0.085874
-0.057587
0.012372
0.061686
0.090579
0.103436
0.123459
0.111846
0.100446
0.081789
0.046897
0.005097
-0.051072
-0.100087
-0.126424
-0.164181
-0.178164
-0.157682
-0.144855
-0.093435
-0.057307
-0.010753
0.034199
0.074496
0.107782
0.141319
0.176588
0.167400
0.134088
0.092607
0.064733
0.022852
-0.023855
-0.066554
-0.094740
-0.130982
-0.144210
-0.135494
-0.102744
-0.073616
-0.031023
0.001988
0.027840
0.079934
0.130341
0.143740
0.153093
0.139507
0.122790
0.083312
0.039516
0.015502
-0.015806
-0.061075
-0.082020
-0.108468
-0.109589
-0.096186
-0.084427
-0.049424
-0.014725
0.021712
0.068270
0.105269
0.157863
0.168004
0.158841
0.152802
0.147642
0.116189
0.069264
0.011974
-0.039565
-0.069649
-0.113655
-0.165538
-0.170052
-0.139745
-0.116271
-0.082513
-0.046215
0.008654
0.059097
0.097123
0.108675
0.119879
0.126555
0.126774
0.104270
0.043999
0.016826
-0.010407
-0.026487
-0.087479
-0.124315
-0.156274
-0.144818
-0.140931
-0.129052
-0.109709
-0.081828
-0.045035
-0.004197
0.038108
0.075221
0.093503
0.091983
0.081949
0.067985
0.056352
0.035885
-0.011745
-0.085531
-0.136244
-0.181315
-0.211272
-0.212513
-0.179594
-0.152586
-0.127546
-0.114340
-0.068977
0.001534
0.040587
0.066643
0.088838
0.095799
0.081158
0.058699
0.019189
-0.015245
-0.049554
-0.095134
-0.114362
-0.142966
-0.178151
-0.177391
-0.171918
-0.151692
-0.103320
-0.072254
-0.070531
-0.024282
0.011567
0.041359
0.074941
0.072045
0.084895
0.071281
0.034984
-0.007571
-0.045938
-0.092294
-0.131154
-0.179236
-0.196240
-0.197334
-0.207809
-0.161658
-0.132580
-0.092148
-0.043332
-0.009055
0.029866
0.071393
0.089885
0.086259
0.092105
0.078459
0.041650
0.004215
-0.062979
-0.112989
-0.142702
-0.166759
-0.191309
-0.181959
-0.171634
-0.172368
-0.136523
-0.095056
-0.044685
-0.000240
0.040844
0.083251
0.113956
0.129963
0.148060
0.150312
0.145999
0.119873
0.081084
0.042295
0.018138
0.014325
0.001822
0.019553
0.060368
0.108204
0.166809
0.228097
0.300011
0.379450
0.440102
0.506444
0.576398
0.623995
0.650006
0.658031
0.672062
0.678284
0.667357
0.652523
0.635504
0.628499
0.605848
0.587971
0.633764
0.631479
0.627763
0.643934
0.667235
0.687022
0.679706
0.633620
0.598086
0.556580
0.492390
0.417865
0.329583
0.271686
0.176858
0.103274
0.057850
0.014136
-0.004110
-0.027136
-0.044561
-0.030425
0.012830
0.036520
0.071348
0.105109
0.112798
0.127693
0.174589
0.173036
0.162046
0.153699
0.142743
0.099450
0.060602
0.018287
-0.032613
-0.067162
-0.100174
-0.097917
-0.087973
-0.066654
-0.051405
-0.026839
0.020511
0.062948
0.090622
0.121897
0.139417
0.151388
0.143346
0.104966
0.067776
0.037822
-0.011038
-0.055167
-0.094794
-0.121178
-0.116532
-0.137183
-0.147493
-0.112664
-0.063636
-0.022250
0.034458
0.068936
0.077903
0.102751
0.122196
0.124318
0.136304
0.102839
0.065981
0.024398
-0.021702
-0.058310
-0.085265
-0.132563
-0.134760
-0.128779
-0.116469
-0.099863
-0.071122
-0.049697
0.022812
0.074607
0.095106
0.124616
0.155821
0.182219
0.174503
0.138265
0.091279
0.044196
0.001127
-0.031001
-0.065410
-0.104638
-0.114354
-0.118057
-0.113840
-0.092587
-0.040239
-0.011642
0.038607
0.068989
0.105923
0.138993
0.167229
0.153043
0.152262
0.190516
0.157168
0.070825
0.018270
-0.026085
-0.075789
-0.068219
-0.073068
-0.090724
-0.071796
-0.054687
-0.017352
0.025315
0.051895
0.090085
0.148545
0.186910
0.201189
0.195179
0.188645
0.173554
0.133943
0.085842
0.030553
-0.000051
-0.036743
-0.056683
-0.074058
-0.052438
-0.060538
-0.020953
0.008000
0.034541
0.091423
0.145028
0.190107
0.215324
0.253217
0.270549
0.243829
0.218347
0.172766
0.129810
0.086515
0.041324
-0.016988
-0.028503
-0.031283
-0.036617
-0.032329
-0.005619
0.035411
0.064151
0.104506
0.159509
0.191094
0.258596
0.275010
0.265688
0.237403
0.220172
0.178714
0.128834
0.085070
0.040490
0.002869
-0.028931
-0.041704
-0.038061
-0.029823
0.011340
0.036758
0.079185
0.109496
0.151217
0.186884
0.215754
0.221193
0.221341
0.213589
0.214870
0.178826
0.112768
0.065033
0.019276
-0.021087
-0.060994
-0.053721
-0.042933
-0.045939
-0.018880
0.031564
0.051623
0.101586
0.126026
0.198535
0.220899
0.211356
0.216393
0.209037
0.189917
0.156925
0.110718
0.050051
0.001301
-0.041496
-0.077740
-0.097314
-0.096008
-0.084318
-0.060287
-0.016395
0.017541
0.061212
0.105902
0.137424
0.171007
0.199372
0.189342
0.163660
0.130956
0.099764
0.075575
0.034096
-0.022158
-0.063331
-0.108908
-0.141947
-0.146483
-0.143296
-0.121219
-0.074628
-0.023630
0.025689
0.076506
0.110166
0.133971
0.151371
0.149977
0.138150
0.093728
0.061547
0.023101
-0.019141
-0.060263
-0.100470
-0.133074
-0.148992
-0.168147
-0.151000
-0.121990
-0.093205
-0.054580
0.018961
0.040545
0.090920
0.147474
0.163105
0.152985
0.136513
0.107170
0.072684
0.020600
-0.034278
-0.075192
-0.110863
-0.133663
-0.145587
-0.168360
-0.168006
-0.130107
-0.085568
-0.004313
0.036827
0.067035
0.095597
0.128860
0.134799
0.140270
0.134741
0.112841
0.075725
0.018883
-0.022624
-0.072961
-0.112169
-0.146282
-0.151001
-0.164423
-0.156833
-0.121846
-0.094135
-0.039191
0.008215
0.073196
0.100352
0.123824
0.143108
0.132315
0.128818
0.125612
0.103019
0.040889
-0.016069
-0.062550
-0.112468
-0.138504
-0.156677
-0.163759
-0.142011
-0.111985
-0.054053
-0.027653
0.018681
0.069980
0.107850
0.133152
0.140643
0.149064
0.142994
0.122949
0.076397
0.048294
-0.002472
-0.062205
-0.106541
-0.132262
-0.134766
-0.139982
-0.123996
-0.110737
-0.083756
-0.036968
0.013792
0.058946
0.111353
0.126625
0.141971
0.145031
0.146841
0.108340
0.053591
0.005192
-0.027232
-0.048713
-0.103558
-0.141837
-0.168402
-0.168013
-0.155309
-0.116149
-0.086010
-0.040547
0.005525
0.069154
0.107933
0.139289
0.144195
0.157542
0.145168
0.115468
0.074293
0.026732
-0.021484
-0.077588
-0.121825
-0.154921
-0.180623
-0.208695
-0.159691
-0.135972
-0.085016
-0.041361
0.002943
0.019362
0.069101
0.118084
0.160365
0.155149
0.139808
0.111937
0.070791
0.021962
-0.030105
-0.087442
-0.130906
-0.161658
-0.183333
-0.188532
-0.176306
-0.149542
-0.097665
-0.057757
-0.019694
0.034571
0.101994
0.140162
0.149927
0.158304
0.127073
0.110552
0.066540
0.006966
-0.043338
-0.102585
-0.161224
-0.167549
-0.165640
-0.178890
-0.166672
-0.131584
-0.098647
-0.046431
-0.012392
0.037546
0.070929
0.111759
0.138226
0.126156
0.117716
0.088599
0.063005
0.008278
-0.010334
-0.059246
-0.121075
-0.155172
-0.167456
-0.187299
-0.176589
-0.155488
-0.115493
-0.075209
-0.018731
0.036508
0.084866
0.111852
0.145989
0.142726
0.122558
0.088305
0.051325
-0.001122
-0.030563
-0.100510
-0.142209
-0.157156
-0.168326
-0.181531
-0.189880
-0.163959
-0.124350
-0.081239
-0.027339
0.021265
0.067107
0.096370
0.111582
0.114945
0.092327
0.068253
0.042108
-0.004757
-0.035761
-0.085223
-0.129770
-0.148619
-0.144241
-0.148636
-0.169806
-0.162065
-0.082478
-0.036415
0.004927
0.059357
0.104820
0.126239
0.150766
0.147198
0.140031
0.125024
0.092109
0.019354
-0.005995
-0.032489
-0.086057
-0.123096
-0.147693
-0.150982
-0.152979
-0.137578
-0.103949
-0.050364
0.006623
0.053635
0.105311
0.146957
0.146800
0.154757
0.147374
0.132991
0.098408
0.058404
0.016041
-0.058588
-0.097744
-0.108764
-0.132310
-0.140383
-0.124163
-0.100150
-0.069939
-0.030440
0.033903
0.090167
0.127334
0.158729
0.168147
0.174765
0.152807
0.124789
0.080907
0.013474
-0.034425
-0.068111
-0.107863
-0.157480
-0.162751
-0.152443
-0.114934
-0.102612
-0.090811
-0.059298
-0.008151
0.043793
0.090741
0.124013
0.143646
0.150082
0.133394
0.097177
0.057874
-0.001256
-0.042156
-0.097112
-0.151838
-0.184772
-0.199765
-0.199505
-0.193239
-0.177926
-0.146134
-0.099897
-0.049217
0.006768
0.052730
0.079303
0.103346
0.102951
0.085180
0.061644
0.031579
-0.012826
-0.075659
-0.125904
-0.157383
-0.184928
-0.231139
-0.230172
-0.201606
-0.192565
-0.173551
-0.116214
-0.061965
-0.004114
0.028015
0.085252
0.120138
0.097992
0.096951
0.073936
0.035669
-0.010286
-0.065356
-0.107418
-0.156860
-0.192011
-0.207820
-0.221351
-0.225994
-0.196660
-0.164315
-0.119944
-0.071016
-0.007527
0.047001
0.048148
0.070231
0.110903
0.105519
0.064915
0.022658
-0.030959
-0.061819
-0.105400
-0.156543
-0.182563
-0.215644
-0.231988
-0.222757
-0.196974
-0.158571
-0.107346
-0.057496
0.002746
0.025118
0.064110
0.079816
0.089736
0.077104
0.053530
0.016073
-0.032313
-0.082276
-0.119962
-0.161678
-0.204065
-0.218800
-0.230049
-0.219070
-0.189149
-0.134677
-0.085145
-0.010712
0.052915
0.092507
0.168233
0.237605
0.273339
0.255166
0.238769
0.216743
0.183154
0.145741
0.119490
0.098694
0.087466
0.081862
0.096839
0.141591
0.202001
0.272506
0.350617
0.417946
0.475614
0.550280
0.631547
0.692683
0.744514
0.790403
0.795960
0.782265
0.744280
0.706464
0.650701
0.617137
0.557445
0.511929
0.480626
0.455592
0.427782
0.402271
0.385234
0.375513
0.372492
0.374477
0.342654
0.330442
0.296889
0.287047
0.217431
0.172993
0.092500
0.084111
0.009892
-0.038872
-0.059822
-0.096342
-0.112174
-0.107376
-0.089180
-0.074947
-0.029075
0.021010
0.060968
0.099998
0.123093
0.163344
0.171697
0.155997
0.121448
0.108126
0.065166
0.013400
-0.036753
-0.078839
-0.116087
-0.145026
-0.150944
-0.151088
-0.137683
-0.115935
-0.084018
-0.035933
-0.002021
0.046781
0.106765
0.138545
0.122645
0.101701
0.112734
0.059026
0.013129
-0.029881
-0.061702
-0.106936
-0.135448
-0.150544
-0.147799
-0.141705
-0.136492
-0.111414
-0.079274
-0.047705
0.018820
0.059088
0.078995
0.109241
0.117318
0.110972
0.105494
0.070722
0.036013
-0.016014
-0.051553
-0.097851
-0.123631
-0.152713
-0.162260
-0.158050
-0.139108
-0.119991
-0.080515
0.005855
0.033491
0.069668
0.094442
0.105669
0.108355
0.128050
0.121317
0.103294
0.047230
0.002904
-0.028712
-0.070106
-0.107203
-0.129905
-0.139788
-0.137378
-0.125353
-0.089429
-0.039767
0.008495
0.051070
0.100362
0.114334
0.139155
0.134022
0.126142
0.132561
0.093318
0.029608
0.002500
-0.006611
-0.066230
-0.080811
-0.081319
-0.081273
-0.092749
-0.073640
-0.046934
-0.005813
0.027946
0.066680
0.122286
0.164939
0.178877
0.193820
0.180366
0.161966
0.135298
0.106662
0.064626
0.032055
-0.023120
-0.065223
-0.077529
-0.083669
-0.088748
-0.071453
-0.040151
0.007755
0.065064
0.093830
0.166376
0.203255
0.203991
0.199214
0.213314
0.194825
0.152921
0.098421
0.035710
0.025734
0.000542
-0.039099
-0.065110
-0.077179
-0.068413
-0.048395
0.045296
0.086086
0.094808
0.114389
0.136120
0.178101
0.210656
0.240706
0.222930
0.197226
0.168906
0.118292
0.062355
0.019633
-0.024649
-0.058598
-0.077728
-0.071396
-0.069727
-0.057563
-0.030575
0.000516
0.074598
0.128791
0.149028
0.173606
0.200045
0.210178
0.201450
0.172620
0.145600
0.102788
0.048390
0.001006
-0.046490
-0.068987
-0.070608
-0.072996
-0.063133
-0.046029
-0.034822
-0.010214
0.033471
0.069288
0.113449
0.141669
0.149027
0.159072
0.150336
0.134485
0.107259
0.076825
0.027269
-0.015642
-0.054642
-0.091327
-0.125592
-0.118678
-0.112753
-0.098483
-0.064788
-0.033651
0.009608
0.051989
0.082766
0.102616
0.132025
0.141447
0.121030
0.097467
0.058794
0.013930
-0.013634
-0.063665
-0.108966
-0.138944
-0.150486
-0.144484
-0.136644
-0.140291
-0.113553
-0.064556
-0.006097
0.017572
0.045209
0.083549
0.101572
0.100566
0.097447
0.081710
0.055838
-0.007737
-0.051040
-0.095810
-0.119857
-0.112987
-0.138241
-0.154292
-0.173070
-0.158909
-0.129034
-0.087215
-0.038591
-0.017599
0.006093
0.047634
0.130171
0.102627
0.062497
0.074914
0.050700
0.024824
-0.039950
-0.085896
-0.128049
-0.139165
-0.151595
-0.159968
-0.166216
-0.131739
-0.092456
-0.061717
-0.021232
0.023323
0.051533
0.074215
0.094329
0.096317
0.087732
0.070169
0.025176
-0.023819
-0.075323
-0.108069
-0.139046
-0.177976
-0.198942
-0.205889
-0.197756
-0.159084
-0.122191
-0.097667
-0.044353
0.006876
0.056673
0.088008
0.088596
0.098772
0.113792
0.103585
0.046418
0.015230
-0.040249
-0.090021
-0.120396
-0.160267
-0.179462
-0.168296
-0.167681
-0.149558
-0.104584
-0.081979
-0.032777
0.031616
0.107410
0.129593
0.142248
0.144878
0.133831
0.094431
0.048349
-0.011342
-0.040429
-0.098424
-0.127300
-0.159841
-0.181048
-0.187559
-0.164651
-0.147392
-0.111744
-0.048999
-0.001029
0.045734
0.068812
0.091438
0.119788
0.128067
0.100536
0.073030
0.050461
0.005842
-0.054367
-0.116739
-0.129178
-0.148376
-0.184082
-0.197655
-0.197415
-0.158716
-0.113663
-0.062587
0.002811
0.055211
0.085367
0.101514
0.115250
0.115139
0.111523
0.073698
0.038920
-0.018211
-0.031481
-0.089563
-0.138876
-0.162443
-0.188063
-0.200693
-0.200160
-0.171127
-0.144380
-0.096372
-0.038370
0.009580
0.073644
0.099226
0.124522
0.126673
0.118427
0.096991
0.031272
-0.024911
-0.091754
-0.127785
-0.158925
-0.202894
-0.198692
-0.181487
-0.184093
-0.167264
-0.122715
-0.089949
-0.032296
0.009594
0.050268
0.084905
0.103424
0.102146
0.093754
0.064006
0.022026
-0.010829
-0.061333
-0.109362
-0.151469
-0.189337
-0.211566
-0.212558
-0.195851
-0.172371
-0.124488
-0.088205
-0.045492
0.008531
0.048818
0.094948
0.111723
0.116663
0.099501
0.061063
0.013004
-0.000961
-0.061311
-0.123587
-0.181779
-0.196373
-0.203884
-0.200135
-0.176090
-0.134693
-0.104996
-0.052079
-0.015970
0.044185
0.071667
0.115083
0.114727
0.109785
0.094547
0.086452
0.070751
0.023194
-0.041414
-0.082073
-0.122657
-0.170383
-0.173220
-0.171189
-0.161680
-0.139717
-0.093345
-0.074316
-0.051543
0.000690
0.088543
0.130528
0.123879
0.132804
0.161786
0.123160
0.063841
0.009245
-0.025495
-0.073484
-0.108225
-0.146124
-0.160624
-0.162928
-0.149357
-0.114420
-0.071951
-0.025422
0.017401
0.066504
0.095162
0.128556
0.131716
0.137481
0.129115
0.109221
0.059240
0.002149
-0.030801
-0.089469
-0.140154
-0.175634
-0.190036
-0.190933
-0.182174
-0.147381
-0.125559
-0.076071
-0.021639
0.020722
0.050678
0.083270
0.095051
0.093131
0.081803
0.062426
0.025830
-0.006702
-0.039308
-0.080333
-0.158333
-0.192849
-0.219809
-0.227348
-0.223358
-0.202802
-0.178618
-0.128941
-0.075593
-0.024098
0.029262
0.072796
0.101331
0.101897
0.091335
0.043670
0.012762
-0.026718
-0.084752
-0.136958
-0.196033
-0.227711
-0.251115
-0.251182
-0.237032
-0.219751
-0.173628
-0.106941
-0.062587
-0.025716
0.016779
0.056972
0.072466
0.071145
0.061553
0.024675
-0.016682
-0.048047
-0.121041
-0.139702
-0.196332
-0.233835
-0.264752
-0.231381
-0.208819
-0.200703
-0.171021
-0.144353
-0.105628
-0.050370
0.002712
0.042374
0.064440
0.091510
0.086864
0.025896
-0.007693
-0.044131
-0.087275
-0.142460
-0.195874
-0.256027
-0.266013
-0.247582
-0.227787
-0.199677
-0.171084
-0.123752
-0.059534
-0.017076
-0.000316
0.040020
0.062628
0.061447
0.053010
0.024125
-0.013607
-0.067655
-0.127103
-0.154076
-0.178336
-0.213102
-0.236826
-0.235830
-0.228390
-0.197125
-0.151175
-0.087401
0.002315
0.076588
0.140898
0.193575
0.202239
0.218058
0.216881
0.187844
0.169967
0.141198
0.121757
0.114406
0.097639
0.084597
0.105039
0.125337
0.162865
0.216773
0.289916
0.338656
0.420266
0.517361
0.593215
0.662099
0.715628
0.741426
0.787801
0.783711
0.752930
0.727270
0.682334
0.618607
0.564848
0.499662
0.480754
0.458347
0.430251
0.397951
0.357608
0.343228
0.326620
0.340825
0.339658
0.335502
0.315401
0.279906
0.248758
0.195698
0.125253
0.077187
0.010653
-0.043991
-0.095781
-0.130636
-0.154484
-0.161918
-0.147166
-0.112569
-0.092402
-0.037721
0.009545
0.057907
0.091690
0.117343
0.134423
0.136233
0.126091
0.101727
0.050723
0.030089
-0.011516
-0.079807
-0.115174
-0.152091
-0.173505
-0.188371
-0.187561
-0.173707
-0.132761
-0.089088
-0.039998
0.000023
0.051074
0.075585
0.084389
0.075899
0.076305
0.066950
0.039559
-0.000358
-0.064104
-0.113432
-0.171476
-0.205795
-0.219303
-0.218947
-0.206712
-0.164983
-0.143191
-0.101911
-0.045902
0.023456
0.060118
0.103271
0.122701
0.114997
0.105526
0.092882
0.030283
0.007280
-0.050723
-0.108286
-0.147031
-0.178186
-0.196655
-0.203052
-0.190969
-0.172772
-0.136671
-0.093242
-0.045302
0.026560
0.067223
0.107470
0.119734
0.132656
0.121721
0.098268
0.068191
0.014063
-0.041231
-0.082214
-0.115401
-0.150814
-0.185581
-0.196880
-0.184721
-0.157862
-0.111929
-0.064396
-0.023067
0.024509
0.069320
0.105641
0.138276
0.150211
0.140195
0.110905
0.082489
0.045351
-0.005495
-0.073620
-0.109823
-0.145936
-0.165864
-0.164330
-0.164772
-0.128875
-0.096899
-0.048369
0.006718
0.064784
0.103484
0.143167
0.185672
0.162810
0.164737
0.145111
0.117142
0.067382
0.023708
-0.022486
-0.074490
-0.104757
-0.123783
-0.130749
-0.106119
-0.096082
-0.073096
-0.019798
0.024715
0.083145
0.126970
0.170617
0.190330
0.188773
0.178368
0.157301
0.125760
0.060542
0.031575
-0.021723
-0.056518
-0.086770
-0.117788
-0.123802
-0.110749
-0.092464
-0.054712
-0.018701
0.027706
0.080045
0.133142
0.183828
0.217433
0.218805
0.193971
0.167204
0.126753
0.076310
0.029214
-0.024267
-0.079563
-0.119249
-0.149609
-0.147016
-0.141758
-0.091901
-0.061913
-0.006015
0.027901
0.084615
0.113473
0.146432
0.169456
0.171625
0.171078
0.143079
0.092201
0.049084
0.008461
-0.057025
-0.087555
-0.140143
-0.151792
-0.154754
-0.158076
-0.133923
-0.102443
-0.055511
0.002305
0.080891
0.102363
0.139698
0.160239
0.159800
0.146412
0.117922
0.081806
0.040364
-0.016160
-0.067236
-0.118971
-0.159039
-0.173798
-0.179110
-0.169686
-0.155946
-0.118516
-0.073796
-0.034141
0.026402
0.069829
0.101596
0.131771
0.114792
0.109060
0.087307
0.056573
0.000367
-0.035859
-0.100972
-0.140148
-0.198220
-0.216726
-0.215432
-0.205496
-0.177692
-0.143862
-0.092263
-0.045678
0.002809
0.040304
0.078224
0.083213
0.101161
0.096331
0.083103
0.037328
-0.006763
-0.065364
-0.116567
-0.168457
-0.207947
-0.230021
-0.240331
-0.239777
-0.217097
-0.177464
-0.123296
-0.074455
-0.013073
0.032554
0.069558
0.081625
0.091774
0.085716
0.083154
0.037038
0.001169
-0.057729
-0.131546
-0.168339
-0.201008
-0.235509
-0.227879
-0.227011
-0.199025
-0.163255
-0.098342
-0.050096
0.011720
0.054883
0.089728
0.120474
0.121842
0.094860
0.060980
0.035254
-0.008161
-0.056922
-0.120965
-0.162187
-0.198259
-0.229004
-0.235364
-0.215481
-0.202317
-0.155835
-0.107596
-0.062457
-0.023946
0.021033
0.072080
0.142303
0.113223
0.091762
0.066934
0.035807
0.000310
-0.053090
-0.112384
-0.157439
-0.207598
-0.226470
-0.225393
-0.214258
-0.182324
-0.148338
-0.110628
-0.040583
0.014712
0.067096
0.082736
0.098468
0.109385
0.104367
0.075307
0.033561
-0.019839
-0.056212
-0.109124
-0.149108
-0.194855
-0.204948
-0.213102
-0.198958
-0.164915
-0.129590
-0.086221
-0.037057
0.017711
0.042130
0.068635
0.095518
0.105065
0.090207
0.082470
0.047248
-0.010067
-0.056171
-0.115374
-0.155094
-0.186406
-0.224910
-0.234539
-0.201178
-0.180407
-0.150542
-0.116818
-0.069065
-0.012908
0.022556
0.064905
0.097794
0.090427
0.080281
0.068621
0.040334
-0.010254
-0.052388
-0.098278
-0.158463
-0.210741
-0.221845
-0.213707
-0.211577
-0.201116
-0.162137
-0.123063
-0.074202
-0.022258
0.022151
0.080740
0.109560
0.101467
0.092747
0.055692
0.010286
-0.027441
-0.080180
-0.128325
-0.166240
-0.204558
-0.221945
-0.235118
-0.230651
-0.207663
-0.166849
-0.121189
-0.068655
-0.018980
0.034885
0.076618
0.095773
0.091361
0.086004
0.066527
0.031451
-0.016520
-0.068632
-0.124553
-0.155021
-0.192201
-0.214216
-0.224514
-0.210540
-0.195444
-0.163082
-0.129490
-0.057301
-0.016680
0.035294
0.071275
0.104318
0.117500
0.115582
0.088400
0.046504
0.009604
-0.037570
-0.089244
-0.147352
-0.160504
-0.188073
-0.200205
-0.200411
-0.176089
-0.126374
-0.089095
-0.049668
-0.002070
0.040127
0.087490
0.118932
0.113877
0.119181
0.095897
0.057705
0.004960
-0.031076
-0.094508
-0.131716
-0.169577
-0.181844
-0.183409
-0.173914
-0.149654
-0.113888
-0.068236
-0.019622
0.020874
0.059949
0.090740
0.122592
0.118434
0.127094
0.098182
0.065110
0.039033
-0.020092
-0.089870
-0.149651
-0.191742
-0.204417
-0.199316
-0.190482
-0.173885
-0.128926
-0.095051
-0.057330
-0.016243
0.026955
0.061701
0.089273
0.084026
0.082948
0.046862
0.034850
-0.016885
-0.076213
-0.120007
-0.159826
-0.206981
-0.247604
-0.251933
-0.260433
-0.228667
-0.182916
-0.136501
-0.079274
-0.045603
-0.006875
0.043621
0.047802
0.064517
0.054651
0.028280
-0.021983
-0.049503
-0.097521
-0.150031
-0.195843
-0.235208
-0.262620
-0.268819
-0.268431
-0.259085
-0.212382
-0.158206
-0.107759
-0.069042
-0.026791
0.008110
0.043466
0.046559
0.041114
0.021097
-0.021819
-0.050727
-0.101455
-0.156245
-0.197853
-0.248806
-0.270907
-0.271910
-0.264639
-0.252598
-0.222998
-0.164820
-0.130872
-0.066590
-0.036542
-0.002483
0.038864
0.031562
0.036134
0.014716
-0.019153
-0.062653
-0.094009
-0.140006
-0.203625
-0.238707
-0.260704
-0.272350
-0.264188
-0.234721
-0.217215
-0.181775
-0.135049
-0.071814
-0.029387
0.009658
0.031619
0.032868
0.024457
-0.004780
-0.032818
-0.082331
-0.119350
-0.149432
-0.201465
-0.241649
-0.261995
-0.261683
-0.258720
-0.231597
-0.183796
-0.130920
-0.079447
-0.014449
0.058531
0.100655
0.141175
0.168349
0.185253
0.168583
0.143994
0.124118
0.091706
0.052251
0.043663
0.039653
0.042919
0.070500
0.109388
0.161283
0.219509
0.283564
0.360564
0.431472
0.516763
0.593678
0.654938
0.702261
0.727016
0.738668
0.738583
0.725090
0.670826
0.649546
0.600603
0.551859
0.517153
0.484556
0.465424
0.470565
0.466233
0.451296
0.418143
0.398890
0.377572
0.355309
0.334063
0.293269
0.255458
0.205789
0.169876
0.092774
0.035547
-0.032174
-0.073846
-0.121392
-0.144206
-0.150738
-0.145416
-0.122259
-0.093629
-0.070872
-0.026266
0.011833
0.050699
0.083297
0.101902
0.111196
0.116066
0.082441
0.042784
0.008480
-0.035042
-0.082643
-0.133883
-0.156753
-0.191704
-0.211679
-0.213038
-0.200929
-0.169720
-0.132752
-0.085852
-0.028086
0.009180
0.034610
0.057196
0.078841
0.068155
0.035679
0.001282
-0.032987
-0.063833
-0.116074
-0.155873
-0.197327
-0.223516
-0.233328
-0.230396
-0.211316
-0.174600
-0.137269
-0.091871
-0.044149
-0.002946
0.045756
0.066731
0.072148
0.067981
0.042814
0.008626
-0.014103
-0.060470
-0.108699
-0.159470
-0.193101
-0.215611
-0.230622
-0.222265
-0.190919
-0.163692
-0.114549
-0.073309
-0.030765
0.012199
0.047415
0.068884
0.080084
0.073595
0.053438
0.019913
-0.018463
-0.063915
-0.104262
-0.144915
-0.174065
-0.179452
-0.197856
-0.190469
-0.166692
-0.137595
-0.097941
-0.054730
-0.007595
0.024915
0.045550
0.086559
0.086013
0.088990
0.103025
0.062061
0.017594
-0.033349
-0.079893
-0.116036
-0.154095
-0.165749
-0.179493
-0.164989
-0.140755
-0.101910
-0.063433
-0.025164
0.023439
0.060120
0.089695
0.107450
0.115178
0.098188
0.085175
0.047949
0.005903
-0.014792
-0.057674
-0.095958
-0.108525
-0.126140
-0.128598
-0.111795
-0.090050
-0.075678
-0.041126
0.017704
0.055838
0.088849
0.112625
0.125691
0.124848
0.125908
0.098558
0.063728
0.039208
0.009852
-0.046496
-0.075607
-0.112314
-0.132566
-0.131103
-0.137581
-0.116711
-0.075868
-0.033572
0.014602
0.043499
0.089822
0.142134
0.142620
0.139323
0.134284
0.115301
0.077147
0.029660
-0.012016
-0.068763
-0.106614
-0.146517
-0.166221
-0.153779
-0.151202
-0.119729
-0.096826
-0.058099
-0.029950
0.016428
0.078959
0.103417
0.123771
0.141019
0.125198
0.095643
0.061456
0.014475
-0.022808
-0.065293
-0.111559
-0.125078
-0.157273
-0.172330
-0.164877
-0.153486
-0.111034
-0.060699
-0.028485
0.018783
0.054774
0.086403
0.107841
0.109419
0.084803
0.057716
0.022630
-0.015367
-0.052808
-0.088079
-0.140184
-0.175984
-0.192517
-0.196994
-0.193038
-0.167958
-0.141276
-0.102137
-0.048005
-0.000651
0.039362
0.072006
0.082966
0.085127
0.072749
0.053417
0.025166
-0.025431
-0.065959
-0.115324
-0.157630
-0.195331
-0.212364
-0.199869
-0.210234
-0.202660
-0.162659
-0.099333
-0.061304
-0.029654
0.010943
0.045230
0.058705
0.067710
0.050023
0.020592
-0.011371
-0.036535
-0.085510
-0.153519
-0.211513
-0.227576
-0.231019
-0.243967
-0.235933
-0.209199
-0.164334
-0.118039
-0.059655
-0.015861
0.010236
0.047522
0.063764
0.057208
0.035892
0.026877
-0.008559
-0.062736
-0.105357
-0.161306
-0.203338
-0.215581
-0.221629
-0.247198
-0.223422
-0.195560
-0.144318
-0.121258
-0.074927
-0.029383
0.012689
0.042496
0.048447
0.057858
0.042155
0.010114
-0.021126
-0.063194
-0.107247
-0.135445
-0.156963
-0.190504
-0.207199
-0.226765
-0.219930
-0.187435
-0.159795
-0.121072
-0.072042
-0.025482
0.020561
0.060010
0.084898
0.077009
0.051786
0.039518
-0.002258
-0.041487
-0.098107
-0.142151
-0.186037
-0.206720
-0.223480
-0.228180
-0.198376
-0.173251
-0.141319
-0.110988
-0.067967
-0.015685
0.042037
0.068465
0.079158
0.080371
0.074710
0.040767
0.011434
-0.043542
-0.105748
-0.138017
-0.198044
-0.214831
-0.229045
-0.239076
-0.223139
-0.195873
-0.153172
-0.096328
-0.057871
-0.026762
0.024510
0.063079
0.077509
0.094741
0.069973
0.027002
0.003462
-0.037910
-0.082249
-0.132330
-0.167384
-0.187228
-0.214020
-0.220606
-0.207774
-0.188164
-0.156180
-0.127471
-0.061038
-0.008269
0.033945
0.071605
0.089318
0.074389
0.055892
0.042160
0.017161
-0.029003
-0.088632
-0.143763
-0.191688
-0.217797
-0.231659
-0.241113
-0.234111
-0.204916
-0.168131
-0.124409
-0.067532
-0.031149
0.038660
0.072514
0.082282
0.064744
0.053107
0.015293
-0.019453
-0.058466
-0.083833
-0.130364
-0.205884
-0.236438
-0.262163
-0.263570
-0.241936
-0.208678
-0.166573
-0.123970
-0.062406
-0.007071
0.030865
0.052494
0.075995
0.078045
0.061709
0.028748
-0.009153
-0.048963
-0.098481
-0.145227
-0.193363
-0.202350
-0.224277
-0.232179
-0.216304
-0.176346
-0.151670
-0.096103
-0.029472
0.007241
0.042761
0.070355
0.082123
0.126594
0.106052
0.049843
0.018097
-0.032392
-0.084693
-0.135026
-0.185180
-0.209692
-0.208141
-0.223726
-0.217455
-0.183069
-0.112651
-0.079233
-0.026050
0.014696
0.069727
0.099071
0.127663
0.124591
0.108599
0.085227
0.055923
0.011087
-0.041692
-0.098042
-0.155741
-0.178473
-0.189110
-0.197022
-0.206104
-0.170449
-0.122297
-0.076588
-0.040283
0.002497
0.056341
0.069440
0.076736
0.097268
0.068525
0.066140
0.021581
-0.038254
-0.106965
-0.161140
-0.206473
-0.244096
-0.264908
-0.262666
-0.249872
-0.235615
-0.208672
-0.171471
-0.112802
-0.043673
0.002496
0.030329
0.047472
0.029677
0.014014
-0.041041
-0.114884
-0.087694
-0.121482
-0.177255
-0.227541
-0.245889
-0.231704
-0.237215
-0.232557
-0.230789
-0.187724
-0.145417
-0.118302
-0.079319
-0.040059
-0.028475
-0.007847
0.051824
0.045493
-0.023594
-0.023262
-0.039701
-0.099269
-0.157457
-0.224793
-0.261719
-0.285935
-0.294488
-0.284293
-0.244549
-0.202670
-0.147447
-0.105994
-0.063163
-0.044688
0.014275
0.043478
0.049207
0.016961
-0.011145
-0.050146
-0.094269
-0.132528
-0.200265
-0.250201
-0.269544
-0.287541
-0.304881
-0.296141
-0.261142
-0.216502
-0.167586
-0.108069
-0.051042
-0.010577
0.000355
0.019517
0.029903
0.025801
-0.007751
-0.035784
-0.099329
-0.148945
-0.192854
-0.234489
-0.276714
-0.289066
-0.301395
-0.293239
-0.255468
-0.210970
-0.181076
-0.141138
-0.082477
-0.048315
0.002562
0.027874
0.046389
0.024106
0.007336
-0.039989
-0.085841
-0.131241
-0.171329
-0.198915
-0.191940
-0.200617
-0.197369
-0.170465
-0.132226
-0.074231
-0.006199
0.048938
0.121574
0.207934
0.266392
0.289816
0.314452
0.336423
0.337684
0.333902
0.328286
0.310053
0.287905
0.266508
0.278819
0.280147
0.296891
0.360313
0.397101
0.472970
0.565093
0.630179
0.724920
0.819137
0.840185
0.844137
0.839851
0.793429
0.742437
0.691271
0.620759
0.522609
0.426722
0.310451
0.192390
0.112807
0.070743
0.022780
0.012565
0.015978
0.026449
0.059411
0.080074
0.120281
0.154922
0.178368
0.153464
0.134309
0.104322
0.067326
0.031426
-0.032178
-0.088731
-0.145987
-0.191602
-0.212429
-0.234032
-0.219974
-0.191064
-0.136385
-0.098252
-0.057801
-0.011577
0.018402
0.051968
0.083659
0.094050
0.079036
0.056994
0.016429
-0.029553
-0.088249
-0.132938
-0.176957
-0.212843
-0.261115
-0.257776
-0.245460
-0.229149
-0.200865
-0.157922
-0.106457
-0.066583
-0.030569
0.021405
0.057702
0.058026
0.059069
0.040737
-0.000067
-0.027252
-0.098546
-0.133450
-0.186430
-0.230647
-0.255027
-0.283884
-0.254197
-0.235186
-0.191282
-0.146709
-0.107389
-0.057779
-0.017988
0.021676
0.050363
0.065434
0.046508
0.041543
0.003663
-0.053191
-0.087917
-0.130723
-0.174331
-0.217634
-0.235976
-0.222776
-0.228814
-0.226149
-0.175169
-0.130331
-0.065390
-0.022443
0.002752
0.031880
0.074784
0.068998
0.048478
0.059112
0.005667
-0.021747
-0.060582
-0.113292
-0.156142
-0.175823
-0.220439
-0.224584
-0.212776
-0.188178
-0.175031
-0.116782
-0.069647
-0.028527
0.031280
0.052309
0.073949
0.103018
0.097242
0.078407
0.042195
-0.018665
-0.045068
-0.083009
-0.130933
-0.185512
-0.190827
-0.199616
-0.203097
-0.180548
-0.153631
-0.135715
-0.056549
-0.008279
0.040426
0.061543
0.069443
0.100251
0.090750
0.082035
0.073900
0.056117
-0.021717
-0.078157
-0.111541
-0.152371
-0.175144
-0.169538
-0.148357
-0.138394
-0.097185
-0.062295
-0.030488
0.008303
0.036916
0.062663
0.089110
0.100695
0.105644
0.086296
0.062029
0.046733
-0.011398
-0.089195
-0.135906
-0.169618
-0.183072
-0.189012
-0.173515
-0.169161
-0.142617
-0.092999
-0.047235
-0.003194
0.063186
0.108722
0.098355
0.105636
0.078808
0.076109
0.051756
-0.004915
-0.062716
-0.114147
-0.149157
-0.200524
-0.207997
-0.212315
-0.166368
-0.177277
-0.163262
-0.102907
-0.035896
0.001359
0.034835
0.058274
0.080273
0.098188
0.097028
0.064545
0.012999
-0.011673
-0.064603
-0.108211
-0.140152
-0.184378
-0.199460
-0.212554
-0.204423
-0.184008
-0.165328
-0.124552
-0.093182
-0.043338
0.002358
0.019461
0.049488
0.068484
0.041278
0.044721
0.010063
-0.027029
-0.060197
-0.114148
-0.176612
-0.222419
-0.248380
-0.251903
-0.240683
-0.215804
-0.178672
-0.167800
-0.121186
-0.065472
0.001119
0.037756
0.057430
0.074317
0.047202
0.043989
-0.001286
-0.039567
-0.076505
-0.135019
-0.167414
-0.214539
-0.232431
-0.254994
-0.255316
-0.227435
-0.207080
-0.172404
-0.139306
-0.079829
-0.041199
-0.004559
0.023824
0.041467
0.037727
0.016214
0.013987
-0.028645
-0.083184
-0.131290
-0.168465
-0.206041
-0.245237
-0.258286
-0.248312
-0.251022
-0.205350
-0.157535
-0.135909
-0.081743
-0.018530
0.001032
0.020579
0.040155
0.045914
0.032118
0.004742
-0.045626
-0.091148
-0.127251
-0.167738
-0.183572
-0.215151
-0.249187
-0.250620
-0.246725
-0.211910
-0.169298
-0.119858
-0.075011
-0.015385
0.000583
0.034490
0.052512
0.039460
0.029863
-0.002759
-0.034964
-0.086752
-0.138584
-0.179385
-0.189827
-0.207501
-0.229258
-0.252990
-0.230589
-0.187431
-0.151572
-0.118978
-0.067593
-0.008803
-0.003519
0.021839
0.039352
0.032951
0.028479
-0.001996
-0.048146
-0.084685
-0.116715
-0.145104
-0.196201
-0.220779
-0.226477
-0.220259
-0.212432
-0.180109
-0.149917
-0.100505
-0.076523
-0.022468
0.033582
0.046887
0.065795
0.056657
0.041676
0.001525
-0.052853
-0.100875
-0.127228
-0.157276
-0.210198
-0.233656
-0.230384
-0.218979
-0.206308
-0.172206
-0.134782
-0.090088
-0.048751
-0.018370
0.017744
0.007399
0.010801
0.048764
0.035838
-0.003812
-0.044856
-0.083501
-0.137229
-0.162859
-0.193078
-0.214514
-0.236515
-0.241824
-0.211577
-0.190795
-0.141878
-0.107280
-0.074796
-0.029587
-0.001319
0.016644
0.021689
0.041149
0.017585
-0.018475
-0.044164
-0.099705
-0.158703
-0.184961
-0.234258
-0.241948
-0.244047
-0.233283
-0.208245
-0.156133
-0.136113
-0.107102
-0.075002
-0.047263
-0.004684
0.009758
0.023995
0.020355
0.002752
-0.035290
-0.066699
-0.102162
-0.157102
-0.195712
-0.202963
-0.214630
-0.219102
-0.241258
-0.244012
-0.213705
-0.137247
-0.090214
-0.055605
-0.031777
-0.001894
0.025665
0.033620
0.025595
0.003034
-0.013795
-0.058664
-0.111652
-0.154245
-0.166125
-0.209490
-0.216906
-0.207235
-0.213113
-0.188935
-0.166306
-0.129166
-0.092830
-0.053672
-0.021392
0.036411
0.070378
0.077316
0.063557
0.028868
-0.007437
-0.045394
-0.074752
-0.123796
-0.181543
-0.206103
-0.234826
-0.235973
-0.233138
-0.206642
-0.167648
-0.124872
-0.062518
-0.011629
0.034127
0.055150
0.073733
0.087099
0.066571
0.049995
0.006249
-0.052200
-0.095391
-0.108557
-0.132883
-0.186559
-0.231275
-0.236575
-0.208158
-0.197193
-0.156280
-0.097224
-0.031997
0.004114
0.023038
0.062041
0.088558
0.079021
0.054754
0.028051
-0.019571
-0.042716
-0.108831
-0.166395
-0.201538
-0.241545
-0.268412
-0.279965
-0.237745
-0.206251
-0.177796
-0.152498
-0.112011
-0.050608
-0.017990
0.016451
0.050035
0.027137
0.007927
-0.019855
-0.056792
-0.106564
-0.146189
-0.193855
-0.221966
-0.259257
-0.277255
-0.280421
-0.249688
-0.226586
-0.186916
-0.162548
-0.123553
-0.069920
-0.024210
-0.014006
-0.006411
0.008626
0.042611
0.007907
-0.059203
-0.117583
-0.167818
-0.231431
-0.247939
-0.298918
-0.309933
-0.298893
-0.290079
-0.255710
-0.202384
-0.179291
-0.138209
-0.102732
-0.073765
-0.025672
-0.005065
-0.005064
-0.011775
-0.030664
-0.080444
-0.141145
-0.145054
-0.195884
-0.238926
-0.268424
-0.294812
-0.290063
-0.260478
-0.242331
-0.222086
-0.176052
-0.128377
-0.095252
-0.074684
-0.062775
0.006864
0.008157
0.006485
-0.005710
-0.062497
-0.079453
-0.130043
-0.202757
-0.263482
-0.290467
-0.310822
-0.318378
-0.324478
-0.292042
-0.205749
-0.159544
-0.128003
-0.091381
-0.036735
-0.023455
0.005776
0.012393
0.006149
-0.029997
-0.081345
-0.128140
-0.200577
-0.239168
-0.244028
-0.253705
-0.255698
-0.254827
-0.243641
-0.197296
-0.091693
-0.050921
0.004782
0.045324
0.103092
0.151598
0.174807
0.193496
0.201145
0.209019
0.228403
0.216347
0.189673
0.154153
0.140356
0.130696
0.150191
0.179733
0.219642
0.282846
0.342844
0.416918
0.518930
0.594687
0.671465
0.743982
0.810537
0.837834
0.842619
0.789007
0.737809
0.679621
0.616665
0.544645
0.500733
0.410871
0.340285
0.275979
0.206374
0.173688
0.149003
0.144823
0.134952
0.147342
0.175881
0.187709
0.177834
0.168865
0.160286
0.118414
0.077380
0.029587
-0.038160
-0.088719
-0.134956
-0.179044
-0.198733
-0.194261
-0.204502
-0.176114
-0.145524
-0.110566
-0.057334
-0.005835
0.028041
0.064027
0.103390
0.096294
0.091311
0.047675
-0.009982
-0.058587
-0.121500
-0.165887
-0.211049
-0.232703
-0.233543
-0.215709
-0.194379
-0.191954
-0.157984
-0.139041
-0.111612
-0.062340
-0.014095
0.019344
0.043469
0.074345
0.065547
0.019329
-0.027858
-0.065919
-0.114131
-0.160913
-0.187593
-0.231990
-0.237133
-0.230461
-0.229796
-0.224958
-0.196254
-0.157038
-0.105807
-0.035911
0.024096
0.066256
0.067571
0.076815
0.048961
0.026266
0.001143
-0.055994
-0.118275
-0.170557
-0.209187
-0.238451
-0.253690
-0.254407
-0.234207
-0.208881
-0.190556
-0.147998
-0.102328
-0.034030
0.024419
0.082955
0.086182
0.098159
0.102503
0.064380
0.045861
-0.005623
-0.080595
-0.134162
-0.184692
-0.221529
-0.235055
-0.246715
-0.244283
-0.207282
-0.185801
-0.137118
-0.094536
0.019374
0.082503
0.111469
0.111195
0.110628
0.110799
0.091617
0.036625
-0.026285
-0.070184
-0.124954
-0.173319
-0.183196
-0.213904
-0.219455
-0.203650
-0.177838
-0.137760
-0.064852
-0.012867
0.022407
0.069862
0.088168
0.110542
0.120142
0.137182
0.095339
0.057677
0.022059
-0.026238
-0.073416
-0.145866
-0.168721
-0.177199
-0.187096
-0.161281
-0.156711
-0.111831
-0.068862
-0.031028
0.011219
0.052663
0.094092
0.111683
0.113311
0.121482
0.115501
0.100263
0.046040
-0.018227
-0.042624
-0.093018
-0.142691
-0.177786
-0.195492
-0.196751
-0.176536
-0.130396
-0.066285
-0.036639
0.009657
0.050415
0.084870
0.114943
0.128995
0.118399
0.100352
0.082776
-0.006411
-0.059329
-0.092720
-0.132717
-0.185607
-0.205072
-0.203086
-0.197639
-0.148362
-0.107537
-0.077632
-0.041884
0.019280
0.060667
0.101513
0.142279
0.138361
0.117310
0.077250
0.045536
-0.002171
-0.083852
-0.141544
-0.180762
-0.194163
-0.204015
-0.209389
-0.181518
-0.143644
-0.143073
-0.131494
-0.105354
-0.010683
0.033181
0.069061
0.103193
0.117718
0.091916
0.059154
0.025071
-0.040223
-0.086223
-0.109739
-0.132670
-0.214367
-0.231637
-0.248716
-0.234703
-0.203126
-0.149328
-0.106263
-0.071481
-0.029768
0.010041
0.062865
0.090315
0.098678
0.090409
0.030361
0.006075
-0.026102
-0.071859
-0.113098
-0.165923
-0.212898
-0.257721
-0.263127
-0.249621
-0.206476
-0.193491
-0.157822
-0.087772
-0.023656
0.015716
0.042286
0.067079
0.063215
0.049470
0.039109
0.027846
-0.019308
-0.078052
-0.120870
-0.172869
-0.213886
-0.229825
-0.247164
-0.246119
-0.223040
-0.180009
-0.128381
-0.088677
-0.048758
-0.014069
0.017563
0.029500
0.073406
0.073205
0.048913
-0.001229
-0.070036
-0.110462
-0.157937
-0.194799
-0.223280
-0.252560
-0.273978
-0.245785
-0.220068
-0.202602
-0.142033
-0.085334
-0.050439
0.011277
0.039418
0.080316
0.087667
0.084943
0.074362
0.021587
-0.021871
-0.083679
-0.145454
-0.202467
-0.237925
-0.276181
-0.264478
-0.258912
-0.225302
-0.190783
-0.154491
-0.121852
-0.052428
0.023346
0.068459
0.105965
0.093878
0.075699
0.058041
0.039312
-0.008410
-0.050218
-0.111989
-0.173491
-0.208560
-0.237541
-0.258652
-0.249858
-0.229070
-0.164863
-0.114903
-0.029022
0.024639
0.046298
0.025995
0.063245
0.068064
0.076127
0.038511
-0.020475
-0.070300
-0.085090
-0.112155
-0.141946
-0.186292
-0.222114
-0.235529
-0.218132
-0.176454
-0.153553
-0.124846
-0.066804
0.009631
0.042636
0.063349
0.077335
0.074142
0.068858
0.035098
-0.003276
-0.038897
-0.073319
-0.121884
-0.188024
-0.210267
-0.226765
-0.244106
-0.224684
-0.199060
-0.147212
-0.125511
-0.076911
-0.030830
0.017615
0.061624
0.096465
0.116786
0.076845
0.047247
0.016429
-0.026693
-0.077073
-0.130110
-0.160065
-0.184983
-0.209734
-0.230181
-0.222389
-0.184727
-0.175508
-0.146520
-0.095667
-0.039422
-0.001472
0.049180
0.081569
0.081266
0.077509
0.079561
0.039866
-0.041179
-0.104905
-0.161541
-0.189719
-0.205309
-0.228773
-0.227000
-0.226021
-0.190367
-0.144680
-0.085160
-0.064982
-0.043660
0.000313
0.015420
0.047073
0.065248
0.059245
0.041625
-0.001978
-0.038247
-0.064372
-0.116966
-0.146534
-0.183811
-0.236007
-0.264638
-0.259680
-0.241810
-0.190761
-0.143568
-0.065605
-0.027492
0.003509
0.032637
0.080304
0.095380
0.077037
0.047865
0.021546
-0.028211
-0.096858
-0.174462
-0.215744
-0.244018
-0.250822
-0.234644
-0.217720
-0.222601
-0.193551
-0.160940
-0.101349
-0.020187
0.020240
0.052209
0.064366
0.080503
0.085866
0.040599
-0.012500
-0.043426
-0.080128
-0.132797
-0.173192
-0.203241
-0.242060
-0.257618
-0.252439
-0.208599
-0.177074
-0.134007
-0.072990
-0.010599
0.029233
0.033960
0.029701
0.046954
0.063386
0.065377
0.028788
-0.043597
-0.084750
-0.109631
-0.148921
-0.159703
-0.187153
-0.187864
-0.189453
-0.180127
-0.121199
-0.093418
-0.069559
-0.015268
0.023464
0.039729
0.053154
0.058649
0.054144
0.038413
0.013651
-0.005835
-0.037890
-0.066618
-0.092918
-0.128151
-0.152550
-0.182369
-0.207015
-0.233104
-0.181819
-0.082461
-0.031379
-0.011563
0.022408
0.069657
0.098197
0.112579
0.100973
0.089184
0.046584
0.005458
-0.018175
-0.073191
-0.146590
-0.193473
-0.227913
-0.249204
-0.254563
-0.236986
-0.175612
-0.101488
-0.042206
-0.010764
0.014506
0.041747
0.080957
0.075081
0.052709
0.043333
0.013114
-0.014561
-0.049271
-0.105601
-0.182830
-0.235465
-0.255754
-0.251149
-0.235745
-0.219540
-0.187375
-0.165737
-0.113222
-0.073813
-0.024860
0.014488
0.049814
0.062820
0.039187
0.032006
0.013560
-0.024686
-0.111629
-0.171540
-0.205122
-0.229343
-0.289625
-0.317870
-0.298010
-0.259428
-0.202903
-0.160916
-0.089505
-0.049224
-0.024756
0.016190
0.044487
0.052586
0.042991
0.017151
-0.034839
-0.058641
-0.090030
-0.130902
-0.204100
-0.256315
-0.283311
-0.287643
-0.281190
-0.254262
-0.219760
-0.160804
-0.095234
-0.048158
-0.005627
0.017092
0.023039
0.025398
0.001731
-0.021477
-0.033025
-0.067266
-0.089910
-0.134427
-0.167913
-0.211151
-0.226775
-0.231078
-0.244796
-0.241815
-0.216692
-0.161798
-0.144131
-0.108670
-0.065943
-0.044762
-0.012857
0.001541
0.004224
0.026789
0.001632
-0.045542
-0.090280
-0.117626
-0.148266
-0.218143
-0.283721
-0.300595
-0.289408
-0.265952
-0.229003
-0.181603
-0.115000
-0.067056
-0.004027
0.032597
0.050724
0.094777
0.129221
0.115943
0.102523
0.103272
0.057821
-0.012267
-0.050383
-0.078712
-0.076319
-0.053747
-0.003914
0.056306
0.119598
0.197272
0.270250
0.333276
0.391346
0.458184
0.533666
0.579166
0.614741
0.624387
0.612808
0.619788
0.615161
0.584665
0.555753
0.572352
0.554832
0.550715
0.575157
0.580688
0.602459
0.636681
0.666247
0.655697
0.666756
0.652762
0.629365
0.562079
0.501486
0.402344
0.279125
0.201208
0.092588
0.008750
-0.033054
-0.088847
-0.115365
-0.111882
-0.105402
-0.090087
-0.058692
-0.027415
-0.010162
0.038015
0.087085
0.123958
0.120154
0.114137
0.126398
0.136198
0.108873
0.058417
0.002671
-0.052594
-0.093227
-0.124392
-0.127754
-0.137410
-0.136896
-0.171450
-0.142595
-0.104593
-0.043579
0.008507
0.060772
0.073913
0.099801
0.111560
0.057097
0.028594
0.017236
-0.007153
-0.047391
-0.097395
-0.143219
-0.181255
-0.222344
-0.233846
-0.215867
-0.190695
-0.135382
-0.078028
-0.046393
-0.011667
0.019318
0.064257
0.094313
0.100312
0.076463
0.067580
0.012143
-0.014371
-0.056006
-0.112078
-0.144504
-0.158343
-0.182206
-0.199790
-0.186765
-0.176313
-0.143650
-0.102696
-0.052693
-0.027174
0.037905
0.081741
0.117130
0.116522
0.102656
0.074349
0.029506
0.001394
-0.044802
-0.085913
-0.118251
-0.160135
-0.193111
-0.208354
-0.184011
-0.170211
-0.143840
-0.114081
-0.091549
-0.041511
0.012463
0.058920
0.069657
0.074001
0.071974
0.097324
0.096242
0.062924
0.025583
-0.053966
-0.081546
-0.096839
-0.116389
-0.134590
-0.160845
-0.139737
-0.102414
-0.070428
-0.025136
0.014415
0.082506
0.105916
0.167359
0.166811
0.153413
0.130195
0.091914
0.055291
0.016537
-0.030513
-0.070669
-0.098903
-0.130458
-0.152601
-0.130999
-0.114294
-0.059911
-0.018742
0.014207
0.064615
0.104119
0.139993
0.169537
0.179866
0.185457
0.147815
0.120312
0.106069
0.054673
-0.037719
-0.114052
-0.147204
-0.141317
-0.116123
-0.122685
-0.118455
-0.032122
0.014917
0.066944
0.098890
0.130949
0.154969
0.165965
0.164371
0.164106
0.127586
0.088801
0.062627
0.032250
-0.003827
-0.056023
-0.103427
-0.107876
-0.126032
-0.119087
-0.102118
-0.071945
-0.050767
0.003539
0.083199
0.138301
0.192277
0.191280
0.193733
0.192144
0.146682
0.091717
0.032196
0.000957
-0.026297
-0.055868
-0.091512
-0.102144
-0.108407
-0.108958
-0.119290
-0.084655
-0.084152
-0.034775
0.016486
0.062184
0.110838
0.116957
0.133634
0.132136
0.131856
0.079384
-0.008141
-0.051682
-0.064555
-0.110832
-0.146614
-0.160670
-0.161648
-0.132064
-0.114782
-0.091403
-0.060640
-0.017900
0.013494
0.070250
0.071658
0.100031
0.141107
0.147943
0.114540
0.090883
0.025364
-0.035355
-0.078728
-0.127667
-0.164336
-0.171257
-0.181156
-0.184918
-0.173707
-0.126635
-0.078520
-0.036232
-0.003060
0.030127
0.060352
0.077953
0.125707
0.131072
0.102356
0.058901
0.012790
-0.053950
-0.121560
-0.156772
-0.188163
-0.203565
-0.211198
-0.191526
-0.168131
-0.135276
-0.087196
-0.047244
-0.022296
-0.020329
0.016000
0.073836
0.057587
0.025759
0.027511
0.031910
0.005203
-0.047863
-0.125643
-0.192035
-0.227413
-0.230161
-0.199782
-0.190710
-0.192793
-0.181284
-0.109050
-0.057648
-0.019847
0.017527
0.081167
0.149183
0.123626
0.078433
0.030723
0.008806
-0.029111
-0.095913
-0.130812
-0.176242
-0.193857
-0.168487
-0.162232
-0.140554
-0.130508
-0.142063
-0.105940
-0.043391
0.011886
0.054870
0.081524
0.102860
0.114422
0.090523
0.069413
0.047786
0.010648
-0.056738
-0.099336
-0.134396
-0.167821
-0.168995
-0.182090
-0.176158
-0.149361
-0.138625
-0.097644
-0.043208
0.001214
0.042648
0.085928
0.092720
0.119994
0.115569
0.078472
0.062703
0.008581
-0.049586
-0.082538
-0.107471
-0.124884
-0.145399
-0.179373
-0.190545
-0.177776
-0.141863
-0.094784
-0.026910
0.029948
0.077225
0.116920
0.144447
0.137621
0.112991
0.070905
0.035413
0.015828
-0.049415
-0.093359
-0.156970
-0.203601
-0.221791
-0.210034
-0.189558
-0.190113
-0.160228
-0.120585
-0.054940
0.003653
0.033824
0.054337
0.086550
0.110578
0.094527
0.073844
0.009026
-0.039222
-0.066058
-0.105973
-0.132681
-0.137527
-0.152496
-0.170829
-0.143381
-0.098495
-0.060829
-0.049111
-0.010427
0.012650
0.055273
0.069851
0.095894
0.105970
0.098952
0.101428
0.085433
0.024812
-0.028379
-0.088148
-0.139042
-0.165994
-0.188042
-0.201203
-0.191753
-0.160511
-0.125894
-0.066702
-0.024727
0.003670
0.045277
0.090020
0.116916
0.117902
0.111255
0.093148
0.053263
-0.010448
-0.076122
-0.126240
-0.146694
-0.163869
-0.167626
-0.172795
-0.173059
-0.137891
-0.131067
-0.110597
-0.089181
-0.040702
0.016674
0.065859
0.090871
0.096935
0.086219
0.062945
0.034685
0.000446
-0.056517
-0.109292
-0.170081
-0.207949
-0.214880
-0.218401
-0.224784
-0.193841
-0.143627
-0.092387
-0.061809
-0.024865
0.015977
0.060065
0.084476
0.093180
0.074815
0.050109
0.015447
0.001602
-0.026136
-0.090289
-0.120959
-0.141519
-0.174833
-0.181978
-0.172183
-0.186421
-0.137362
-0.101007
-0.062921
0.006740
0.092921
0.122803
0.079028
0.081732
0.063165
0.031027
0.016411
-0.043895
-0.097391
-0.138320
-0.191677
-0.226993
-0.244699
-0.247219
-0.231664
-0.212039
-0.186493
-0.119048
-0.049044
0.021181
0.084302
0.089730
0.108492
0.120079
0.095220
0.074600
0.038183
-0.049159
-0.107990
-0.134981
-0.173972
-0.186446
-0.214943
-0.230128
-0.223408
-0.211488
-0.162528
-0.091448
-0.019866
0.025620
0.050348
0.087465
0.099057
0.107957
0.098269
0.069511
0.029781
-0.021117
-0.075908
-0.118063
-0.153150
-0.186218
-0.208360
-0.184906
-0.196861
-0.205623
-0.160653
-0.100042
-0.031229
0.007820
0.034786
0.094990
0.130788
0.125850
0.122254
0.088873
0.046768
0.038793
0.005946
-0.082586
-0.153334
-0.188649
-0.227980
-0.243478
-0.220260
-0.165004
-0.119066
-0.041774
0.029830
0.053834
0.097955
0.116514
0.111417
0.115512
0.111645
0.090534
0.066873
0.055398
0.043409
0.002503
-0.067799
-0.137927
-0.187008
-0.212791
-0.215079
-0.178883
-0.167786
-0.135291
-0.065115
0.009205
0.060836
0.102311
0.113971
0.114636
0.102117
0.087187
0.058344
0.027105
-0.026003
-0.079427
-0.124159
-0.151511
-0.189718
-0.222212
-0.233161
-0.188205
-0.157481
-0.108602
-0.042355
0.008291
0.052580
0.068212
0.080738
0.088172
0.079844
0.067616
0.032706
-0.032521
-0.074179
-0.120574
-0.164023
-0.205781
-0.228826
-0.268250
-0.258230
-0.241611
-0.197627
-0.164216
-0.157929
-0.104925
-0.051147
-0.010817
0.040446
0.055053
0.039604
0.024288
0.007113
-0.037833
-0.072528
-0.110581
-0.175343
-0.219781
-0.272503
-0.291611
-0.250619
-0.244626
-0.206551
-0.162655
-0.117532
-0.052615
-0.016669
0.006468
0.025019
0.055952
0.055760
0.041482
0.016523
-0.054900
-0.101054
-0.134874
-0.179286
-0.237284
-0.272934
-0.267008
-0.219163
-0.155825
-0.136112
-0.106687
-0.084029
-0.009345
0.064414
0.097732
0.097044
0.122565
0.111108
0.093196
0.061250
0.002776
-0.039197
-0.085483
-0.131598
-0.186479
-0.218542
-0.251457
-0.246984
-0.214981
-0.169361
-0.140847
-0.067626
-0.022985
0.016947
0.057086
0.078908
0.095733
0.103049
0.090410
0.074611
0.033810
0.016023
-0.025333
-0.038812
-0.054298
-0.062891
-0.058462
-0.058020
-0.044393
0.009130
0.078492
0.124732
0.185410
0.252101
0.342275
0.406624
0.469928
0.547249
0.535421
0.531430
0.505614
0.478257
0.441010
0.434117
0.427703
0.440216
0.495503
0.536736
0.588003
0.664459
0.733084
0.772162
0.821075
0.883860
0.857632
0.856255
0.858597
0.824368
0.794405
0.718216
0.612594
0.505060
0.386622
0.276238
0.170138
0.082788
-0.000485
-0.021570
-0.027413
0.015058
0.046149
0.101357
0.126730
0.160372
0.203673
0.184161
0.156035
0.152161
0.144710
0.135032
0.095663
0.035316
-0.006470
-0.045947
-0.090555
-0.111258
-0.138470
-0.131509
-0.104330
-0.064517
-0.024089
0.009323
0.046601
0.079016
0.111787
0.110946
0.117465
0.121944
0.099283
0.083973
0.043510
0.006080
-0.055446
-0.090217
-0.120321
-0.157572
-0.146705
-0.150362
-0.146272
-0.114835
-0.092928
-0.068451
-0.020063
0.019583
0.047137
0.066781
0.071153
0.102992
0.093210
0.095110
0.059656
0.008131
-0.058719
-0.126971
-0.141664
-0.120134
-0.144651
-0.170681
-0.141935
-0.121857
-0.085073
-0.016393
0.044752
0.063680
0.101059
0.120444
0.117437
0.123530
0.099319
0.061429
0.019115
-0.035084
-0.076861
-0.086007
-0.111378
-0.149313
-0.166665
-0.158879
-0.140707
-0.104700
-0.064854
-0.004130
0.033720
0.075151
0.121352
0.120754
0.140953
0.139865
0.126096
0.096509
0.039561
-0.019687
-0.044901
-0.069054
-0.094410
-0.116840
-0.122734
-0.141074
-0.138485
-0.090829
-0.029108
-0.005836
0.051216
0.057616
0.115807
0.149609
0.152894
0.148869
0.130824
0.083785
0.030554
0.003265
-0.031108
-0.061788
-0.095706
-0.097191
-0.096785
-0.098984
-0.090616
-0.043530
-0.009438
0.036496
0.087724
0.127564
0.161292
0.177663
0.180214
0.148834
0.142637
0.130277
0.105253
0.060762
0.023420
-0.012284
-0.062416
-0.073899
-0.075303
-0.080934
-0.036933
-0.022927
0.029647
0.070172
0.109800
0.154176
0.183505
0.215283
0.251326
0.226059
0.195230
0.156485
0.097679
0.050234
0.008701
-0.027946
-0.044445
-0.045591
-0.035696
-0.042965
-0.047853
-0.029060
0.005126
0.045841
0.104910
0.138383
0.164325
0.187311
0.176645
0.189884
0.159392
0.108769
0.066654
0.038726
0.014773
-0.035073
-0.082105
-0.092416
-0.073569
-0.084348
-0.083722
-0.041321
-0.020602
-0.006894
0.090644
0.176359
0.204176
0.210062
0.192709
0.166642
0.152716
0.146664
0.100016
0.043202
-0.005720
-0.040219
-0.064151
-0.091297
-0.099721
-0.093138
-0.069670
-0.037223
0.001406
0.034115
0.072591
0.112127
0.143659
0.162354
0.164105
0.171798
0.146993
0.112388
0.078938
0.030678
-0.032097
-0.094818
-0.132488
-0.161460
-0.146671
-0.169136
-0.154609
-0.121560
-0.068870
-0.021495
0.002096
0.056026
0.077277
0.122744
0.152131
0.126843
0.122878
0.104858
0.073834
0.032677
-0.011069
-0.058946
-0.111364
-0.152367
-0.163554
-0.157487
-0.136443
-0.131157
-0.081178
-0.009981
0.038390
0.055249
0.097368
0.128349
0.135547
0.131927
0.132636
0.104914
0.056083
0.003043
-0.060863
-0.120681
-0.147087
-0.189634
-0.208703
-0.207122
-0.163078
-0.112505
-0.057392
-0.002200
0.046491
0.083675
0.120233
0.143491
0.146267
0.137697
0.110447
0.071743
0.039218
-0.000643
-0.050595
-0.102344
-0.131908
-0.145515
-0.158446
-0.169375
-0.159456
-0.125454
-0.092135
-0.031669
0.021968
0.050886
0.075898
0.114166
0.125575
0.137545
0.124988
0.083055
0.037732
-0.009594
-0.057148
-0.111557
-0.142134
-0.156054
-0.165877
-0.161730
-0.143858
-0.094981
-0.049127
-0.013710
0.035295
0.093351
0.116932
0.139665
0.169614
0.158563
0.110147
0.037163
-0.000687
-0.037121
-0.092609
-0.131260
-0.143811
-0.146925
-0.147719
-0.148206
-0.126694
-0.102048
-0.063470
-0.007922
0.051115
0.088992
0.122275
0.146453
0.160706
0.160687
0.131337
0.068657
0.036425
0.001403
-0.010220
-0.061831
-0.114201
-0.144742
-0.151501
-0.148095
-0.130950
-0.099183
-0.061818
-0.008429
0.040728
0.092417
0.118788
0.143521
0.143044
0.144362
0.125304
0.099390
0.057296
0.006518
-0.042218
-0.094931
-0.151483
-0.164447
-0.154979
-0.167839
-0.130896
-0.087248
-0.039348
-0.019789
0.028175
0.055247
0.095343
0.130896
0.138652
0.144767
0.103163
0.052000
0.022268
-0.012096
-0.060952
-0.098447
-0.139786
-0.167988
-0.174959
-0.166729
-0.145683
-0.110989
-0.086710
-0.040039
-0.002965
0.020412
0.039250
0.093760
0.121280
0.140856
0.098806
0.064743
0.017393
-0.026713
-0.083176
-0.130661
-0.156467
-0.168320
-0.178755
-0.168382
-0.110467
-0.073256
-0.045984
-0.000544
0.037794
0.074158
0.097404
0.130102
0.118244
0.100305
0.088196
0.054249
0.036978
-0.008625
-0.060986
-0.112130
-0.138016
-0.160125
-0.178738
-0.176797
-0.158572
-0.135426
-0.088597
-0.057169
-0.002996
0.047374
0.089260
0.127732
0.153444
0.108257
0.078902
0.076596
0.050636
-0.017989
-0.076582
-0.133057
-0.162957
-0.184146
-0.181020
-0.176616
-0.178912
-0.157228
-0.096619
-0.027256
0.012273
0.055166
0.078104
0.100382
0.113770
0.119396
0.089434
0.042415
0.012522
-0.030647
-0.070492
-0.107214
-0.152874
-0.172519
-0.185314
-0.184579
-0.148985
-0.117086
-0.084281
-0.047543
0.002574
0.046362
0.085820
0.120336
0.129869
0.109427
0.083249
0.079648
0.037873
-0.023547
-0.078280
-0.137985
-0.173463
-0.184778
-0.194337
-0.190203
-0.144659
-0.111627
-0.089580
-0.018510
0.023684
0.053050
0.079537
0.097021
0.088298
0.088683
0.062209
0.041027
-0.000642
-0.050450
-0.089204
-0.142901
-0.180316
-0.165238
-0.156265
-0.169235
-0.155105
-0.138183
-0.095474
-0.030916
0.018056
0.056671
0.089115
0.098103
0.093306
0.100133
0.083048
0.036502
0.000977
-0.050661
-0.082482
-0.120812
-0.162669
-0.182349
-0.199411
-0.192672
-0.151298
-0.103275
-0.070816
-0.008320
0.025608
0.068298
0.086055
0.111737
0.117262
0.133583
0.122206
0.090428
0.053730
-0.011672
-0.059176
-0.094905
-0.132254
-0.157099
-0.157390
-0.163568
-0.149179
-0.109760
-0.062013
-0.010051
0.035735
0.072476
0.104739
0.141373
0.139661
0.139800
0.115196
0.063801
0.029418
-0.008186
-0.057158
-0.089073
-0.111582
-0.129539
-0.134161
-0.140644
-0.122725
-0.095993
-0.046271
0.009532
0.055250
0.110678
0.143102
0.154856
0.163293
0.145762
0.118970
0.082169
0.031331
-0.018273
-0.082377
-0.149991
-0.183841
-0.193378
-0.178077
-0.169582
-0.143100
-0.103066
-0.049077
-0.025543
0.001822
0.038306
0.067596
0.102949
0.129815
0.122462
0.107728
0.070098
0.013904
-0.049589
-0.095476
-0.149503
-0.202049
-0.215618
-0.201267
-0.201276
-0.179952
-0.128073
-0.087370
-0.028665
-0.011799
0.034068
0.057302
0.089955
0.097822
0.092554
0.085405
0.036097
-0.009265
-0.075484
-0.126010
-0.158120
-0.183897
-0.207425
-0.216760
-0.216557
-0.204097
-0.166921
-0.122849
-0.069188
-0.022729
0.034161
0.071891
0.088541
0.090413
0.078834
0.040151
-0.009289
-0.051556
-0.078315
-0.113858
-0.165973
-0.215621
-0.243123
-0.236640
-0.220602
-0.197995
-0.162185
-0.139856
-0.082257
-0.037878
0.026358
0.070409
0.096452
0.101078
0.097777
0.066948
0.026626
-0.029461
-0.064175
-0.120459
-0.166332
-0.194769
-0.221945
-0.240448
-0.251088
-0.234949
-0.197553
-0.133446
-0.085640
-0.046984
0.005101
0.042357
0.062532
0.065449
0.059270
0.035945
-0.004835
-0.025812
-0.066584
-0.112794
-0.164141
-0.204888
-0.244956
-0.258536
-0.234252
-0.200635
-0.163866
-0.113444
-0.047742
0.014185
0.060299
0.092484
0.118026
0.150882
0.153171
0.162202
0.138429
0.097825
0.041261
0.006183
-0.006146
-0.007458
-0.010192
0.012346
0.037065
0.080089
0.166438
0.253727
0.349197
0.424595
0.509236
0.581155
0.634610
0.672297
0.692932
0.688834
0.704604
0.702009
0.702765
0.677384
0.661005
0.631839
0.583391
0.569960
0.557624
0.567769
0.584994
0.613978
0.643872
0.659138
0.631504
0.616272
0.580067
0.521504
0.456715
0.390785
0.299263
0.210955
0.146734
0.090898
0.030051
-0.010145
-0.042229
-0.070100
-0.076269
-0.056469
-0.039993
-0.002981
0.032825
0.067133
0.105750
0.127780
0.147146
0.154015
0.150060
0.129598
0.104075
0.062180
-0.011989
-0.064168
-0.095791
-0.137453
-0.162972
-0.168117
-0.179106
-0.161973
-0.121382
-0.075298
-0.035053
0.013101
0.050164
0.086691
0.104218
0.111169
0.095267
0.068327
0.021645
-0.020747
-0.074246
-0.119302
-0.159208
-0.193494
-0.198750
-0.201765
-0.191766
-0.163698
-0.151965
-0.122583
-0.064763
-0.007787
0.037207
0.055291
0.070277
0.069862
0.094866
0.090375
0.052023
0.014144
-0.044010
-0.089471
-0.132483
-0.181826
-0.219782
-0.226319
-0.195935
-0.175318
-0.142475
-0.088697
-0.040005
-0.014241
0.026366
0.049937
0.083495
0.096065
0.089074
0.076307
0.040960
0.011905
-0.030757
-0.077312
-0.124393
-0.166300
-0.187370
-0.194680
-0.177351
-0.161887
-0.120269
-0.077308
-0.029102
0.003127
0.033850
0.068315
0.103252
0.117969
0.119435
0.107082
0.078892
0.036284
-0.011788
-0.058343
-0.112270
-0.140152
-0.152917
-0.168584
-0.180711
-0.148788
-0.108017
-0.076632
-0.021168
0.039713
0.084103
0.110738
0.110085
0.115579
0.131706
0.115791
0.060371
0.010452
-0.029750
-0.058172
-0.092093
-0.126214
-0.140866
-0.129070
-0.127050
-0.108071
-0.083831
-0.062634
0.002835
0.045558
0.102673
0.122198
0.162903
0.172682
0.180629
0.162299
0.118551
0.061815
0.024832
-0.025775
-0.067902
-0.096998
-0.116646
-0.127825
-0.125309
-0.114149
-0.062979
-0.028043
0.015622
0.066412
0.105229
0.139285
0.161166
0.178302
0.181187
0.172021
0.123118
0.082670
0.028936
-0.018449
-0.062193
-0.097365
-0.117347
-0.133911
-0.131979
-0.116161
-0.080405
-0.043105
0.007891
0.050351
0.099210
0.120917
0.141178
0.152224
0.146732
0.136566
0.089473
0.052342
-0.001508
-0.062480
-0.108065
-0.124347
-0.136905
-0.149903
-0.163562
-0.151109
-0.105184
-0.064539
-0.033395
0.019284
0.081697
0.115583
0.130242
0.137089
0.118667
0.103763
0.070997
0.032035
-0.030324
-0.065613
-0.116677
-0.162332
-0.205985
-0.212182
-0.204453
-0.189048
-0.150493
-0.110271
-0.080147
-0.050004
-0.000188
0.053129
0.080285
0.093728
0.066325
0.051477
0.006253
-0.044431
-0.096601
-0.138260
-0.176043
-0.198593
-0.202889
-0.224250
-0.228934
-0.217071
-0.188849
-0.157736
-0.118283
-0.069767
-0.024512
0.003118
0.017470
0.040352
0.029572
0.013155
-0.018086
-0.071802
-0.116313
-0.165956
-0.203384
-0.242639
-0.274320
-0.272446
-0.265714
-0.238720
-0.215019
-0.175565
-0.113940
-0.078094
-0.043452
-0.014608
-0.001494
0.026961
0.028976
0.014069
-0.035023
-0.083201
-0.128501
-0.190527
-0.212656
-0.251897
-0.272948
-0.281944
-0.280017
-0.266762
-0.238966
-0.183995
-0.141896
-0.098178
-0.053739
-0.020065
0.003982
0.014542
0.012106
0.013315
-0.033087
-0.080582
-0.130817
-0.191725
-0.227642
-0.248527
-0.259437
-0.269938
-0.264155
-0.255735
-0.230750
-0.193954
-0.146485
-0.111056
-0.069220
-0.024287
0.015132
0.025094
0.008231
-0.008583
-0.038864
-0.072592
-0.125783
-0.182326
-0.225387
-0.262947
-0.291748
-0.298255
-0.291300
-0.275261
-0.233054
-0.182218
-0.140197
-0.092006
-0.051437
-0.005510
0.014079
0.028937
0.023933
-0.003578
-0.035555
-0.081571
-0.133058
-0.178646
-0.232406
-0.267684
-0.288237
-0.282757
-0.266754
-0.255382
-0.235751
-0.203795
-0.156512
-0.098449
-0.038868
-0.019311
-0.011650
0.009007
0.003488
-0.009539
-0.047085
-0.085252
-0.140618
-0.193590
-0.235860
-0.260283
-0.266387
-0.285369
-0.282690
-0.272998
-0.247221
-0.194608
-0.146429
-0.092736
-0.052478
-0.015388
0.020059
0.034127
0.014445
-0.011338
-0.045320
-0.099012
-0.157234
-0.212404
-0.252317
-0.280294
-0.302978
-0.322271
-0.322263
-0.304527
-0.269680
-0.224117
-0.168203
-0.106032
-0.072610
-0.041598
-0.015166
-0.004137
-0.002980
-0.006777
-0.054746
-0.110259
-0.150749
-0.202658
-0.254919
-0.275516
-0.300382
-0.322803
-0.329264
-0.303682
-0.260713
-0.199929
-0.159868
-0.114977
-0.079555
-0.058024
-0.033329
-0.007522
-0.006968
-0.036682
-0.075561
-0.104065
-0.156256
-0.224204
-0.273177
-0.305893
-0.322298
-0.327185
-0.316090
-0.305460
-0.281542
-0.234637
-0.187543
-0.134262
-0.106946
-0.067776
-0.034819
-0.035894
-0.038065
-0.046008
-0.074309
-0.124566
-0.179930
-0.238755
-0.274191
-0.312316
-0.352260
-0.350712
-0.328617
-0.303380
-0.275155
-0.232947
-0.201515
-0.149289
-0.105846
-0.068608
-0.046682
-0.039600
-0.050756
-0.058590
-0.093147
-0.145518
-0.185133
-0.237275
-0.264625
-0.309847
-0.338550
-0.330257
-0.322953
-0.313209
-0.279184
-0.237518
-0.203123
-0.154382
-0.121191
-0.085126
-0.059752
-0.046979
-0.046549
-0.056061
-0.099614
-0.144214
-0.191494
-0.257420
-0.301406
-0.330141
-0.352868
-0.371673
-0.364957
-0.342710
-0.293510
-0.266133
-0.224588
-0.163670
-0.093452
-0.037752
-0.037638
-0.035261
-0.058420
-0.085631
-0.099581
-0.134789
-0.206275
-0.266834
-0.304271
-0.323235
-0.340950
-0.352612
-0.348043
-0.331153
-0.309059
-0.260169
-0.219219
-0.171767
-0.114845
-0.079036
-0.059781
-0.059548
-0.065045
-0.090043
-0.120332
-0.156140
-0.209179
-0.262292
-0.296752
-0.337419
-0.354372
-0.359936
-0.352840
-0.333639
-0.304429
-0.272797
-0.227037
-0.167351
-0.119919
-0.091682
-0.082990
-0.077380
-0.076440
-0.093569
-0.131513
-0.157100
-0.198426
-0.257665
-0.298490
-0.330134
-0.358456
-0.363985
-0.358285
-0.355109
-0.317164
-0.252028
-0.216051
-0.178063
-0.139038
-0.091412
-0.073182
-0.064473
-0.070419
-0.089866
-0.120524
-0.147710
-0.194595
-0.254702
-0.304352
-0.335495
-0.360110
-0.360909
-0.334840
-0.323918
-0.299340
-0.262073
-0.208734
-0.165567
-0.100296
-0.075249
-0.055813
-0.041080
-0.049955
-0.058329
-0.091620
-0.137311
-0.175827
-0.224045
-0.270378
-0.312610
-0.345417
-0.352131
-0.335741
-0.318763
-0.274335
-0.219572
-0.181434
-0.139279
-0.107252
-0.074473
-0.055397
-0.046718
-0.062278
-0.073065
-0.114530
-0.156211
-0.196453
-0.224637
-0.264675
-0.298036
-0.326689
-0.334646
-0.323254
-0.304054
-0.255950
-0.207193
-0.174774
-0.132428
-0.090941
-0.074932
-0.044795
-0.040316
-0.050721
-0.071466
-0.098188
-0.138959
-0.184313
-0.243357
-0.293106
-0.311155
-0.343094
-0.359453
-0.368426
-0.342777
-0.314007
-0.267128
-0.214993
-0.168970
-0.129449
-0.105268
-0.087569
-0.073515
-0.061935
-0.088588
-0.141280
-0.184194
-0.228673
-0.288109
-0.323689
-0.348512
-0.374449
-0.367994
-0.358837
-0.364175
-0.326495
-0.287135
-0.249479
-0.218698
-0.187179
-0.147500
-0.130106
-0.114462
-0.115567
-0.143554
-0.171340
-0.201043
-0.237484
-0.282333
-0.338287
-0.384819
-0.385411
-0.386880
-0.407659
-0.391969
-0.360346
-0.315482
-0.269583
-0.220734
-0.170168
-0.143790
-0.125465
-0.111949
-0.094773
-0.117612
-0.151588
-0.203264
-0.241006
-0.301850
-0.339183
-0.378686
-0.394836
-0.403763
-0.390069
-0.386071
-0.350174
-0.301961
-0.265953
-0.229551
-0.183263
-0.132204
-0.102947
-0.105851
-0.112711
-0.134544
-0.184597
-0.216054
-0.258086
-0.283587
-0.335920
-0.393065
-0.405096
-0.410036
-0.404952
-0.390636
-0.356535
-0.321606
-0.278998
-0.242492
-0.191171
-0.120840
-0.106846
-0.110834
-0.124492
-0.162768
-0.199587
-0.236245
-0.273943
-0.319990
-0.353939
-0.375023
-0.409964
-0.407993
-0.403976
-0.374774
-0.328769
-0.278027
-0.225246
-0.159272
-0.093823
-0.046106
-0.012372
0.004575
0.006777
0.005171
-0.008291
-0.019879
-0.054868
-0.101904
-0.106443
-0.103281
-0.107428
-0.089012
-0.047092
0.019904
0.096321
0.157649
0.254438
0.326968
0.388274
0.461397
0.524268
0.573736
0.604255
0.627038
0.623998
0.600052
0.542399
0.482053
0.455666
0.422973
0.364519
0.321555
0.304896
0.298834
0.282088
0.262887
0.248568
0.241176
0.239193
0.226700
0.191734
0.148526
0.094420
0.060166
0.023862
-0.018194
-0.081992
-0.153274
-0.214059
-0.256868
-0.292825
-0.295775
-0.287993
-0.275565
-0.260401
-0.231970
-0.190840
-0.144617
-0.090293
-0.061227
-0.043496
-0.037273
-0.049540
-0.071098
-0.107966
-0.142780
-0.201795
-0.245238
-0.284107
-0.335540
-0.368591
-0.367584
-0.361826
-0.338127
-0.314156
-0.279174
-0.223608
-0.169540
-0.135935
-0.109239
-0.095036
-0.076307
-0.086217
-0.118479
-0.144491
-0.182531
-0.228352
-0.268828
-0.321536
-0.355043
-0.381639
-0.392590
-0.381996
-0.365157
-0.330784
-0.296905
-0.252568
-0.195344
-0.162656
-0.121944
-0.100943
-0.072621
-0.068836
-0.091077
-0.129851
-0.181991
-0.218206
-0.270026
-0.315132
-0.353154
-0.371568
-0.367729
-0.351319
-0.333048
-0.314917
-0.264666
-0.233627
-0.159927
-0.123537
-0.100741
-0.082321
-0.070119
-0.069780
-0.095252
-0.122203
-0.162190
-0.201349
-0.242200
-0.289201
-0.325293
-0.344864
-0.356007
-0.360412
-0.333002
-0.299601
-0.248293
-0.206226
-0.163097
-0.111637
-0.086308
-0.057116
-0.043256
-0.051518
-0.074482
-0.095949
-0.141977
-0.177579
-0.211389
-0.270203
-0.313459
-0.330935
-0.340552
-0.332696
-0.315174
-0.281068
-0.236090
-0.173830
-0.118860
-0.084184
-0.051560
-0.021469
-0.014414
-0.028398
-0.041910
-0.064120
-0.107044
-0.155999
-0.201872
-0.242096
-0.286685
-0.312992
-0.320166
-0.301147
-0.292121
-0.234119
-0.188545
-0.139320
-0.097747
-0.048648
-0.012559
0.013018
0.009890
-0.003165
-0.022590
-0.042961
-0.088435
-0.131223
-0.183033
-0.226971
-0.261025
-0.275922
-0.268051
-0.258950
-0.243973
-0.225702
-0.197483
-0.123759
-0.075234
-0.034114
-0.007029
0.021479
0.025498
0.019254
0.004163
-0.025169
-0.069084
-0.113484
-0.154018
-0.209523
-0.257634
-0.272899
-0.287344
-0.278215
-0.243374
-0.213983
-0.177933
-0.127479
-0.073494
-0.048224
-0.026223
-0.000125
0.006317
0.010505
-0.020695
-0.043498
-0.077183
-0.116790
-0.182240
-0.230556
-0.272574
-0.293868
-0.301231
-0.297173
-0.283744
-0.248924
-0.202778
-0.163142
-0.116975
-0.069686
-0.030925
-0.025581
-0.025338
-0.033710
-0.047250
-0.067621
-0.104369
-0.171505
-0.228681
-0.274439
-0.307277
-0.324795
-0.342978
-0.338476
-0.324683
-0.299350
-0.260642
-0.222325
-0.174452
-0.113605
-0.078413
-0.057221
-0.047338
-0.044788
-0.068457
-0.107265
-0.167890
-0.224072
-0.267220
-0.311019
-0.356815
-0.377951
-0.381229
-0.373516
-0.362225
-0.336856
-0.298517
-0.247356
-0.187738
-0.138016
-0.102125
-0.076429
-0.076990
-0.082011
-0.114342
-0.146244
-0.190353
-0.246463
-0.295949
-0.333427
-0.362107
-0.393572
-0.402590
-0.386850
-0.364503
-0.337555
-0.302887
-0.253017
-0.206145
-0.175570
-0.138634
-0.108687
-0.079887
-0.089853
-0.117430
-0.149222
-0.197756
-0.235479
-0.292388
-0.352056
-0.381023
-0.397065
-0.397360
-0.385613
-0.371972
-0.341900
-0.295169
-0.239600
-0.197182
-0.162360
-0.121025
-0.100672
-0.084282
-0.080301
-0.112363
-0.158025
-0.201151
-0.244116
-0.291395
-0.334123
-0.353177
-0.365814
-0.383997
-0.384848
-0.371638
-0.344389
-0.295911
-0.249678
-0.207018
-0.157606
-0.121394
-0.089233
-0.082869
-0.093190
-0.114073
-0.144124
-0.187286
-0.236805
-0.276486
-0.324412
-0.354565
-0.382754
-0.375370
-0.372835
-0.357825
-0.337684
-0.306853
-0.245940
-0.193270
-0.142132
-0.109776
-0.089741
-0.067432
-0.077641
-0.110264
-0.140013
-0.183069
-0.223043
-0.264056
-0.312658
-0.348784
-0.358973
-0.379298
-0.371260
-0.340708
-0.311277
-0.274368
-0.232228
-0.189063
-0.145780
-0.119405
-0.094900
-0.083640
-0.088207
-0.099298
-0.130949
-0.189648
-0.218607
-0.267117
-0.317398
-0.350049
-0.362908
-0.366248
-0.362718
-0.337440
-0.318853
-0.274735
-0.227261
-0.194372
-0.137449
-0.111687
-0.089588
-0.080850
-0.083982
-0.098515
-0.113346
-0.149564
-0.204302
-0.267316
-0.319068
-0.352650
-0.378163
-0.394679
-0.386500
-0.363654
-0.320086
-0.276178
-0.234628
-0.187489
-0.144938
-0.107989
-0.080694
-0.069759
-0.084896
-0.110893
-0.137067
-0.179847
-0.238022
-0.281153
-0.316176
-0.343915
-0.365185
-0.371791
-0.358354
-0.361658
-0.319485
-0.271942
-0.224343
-0.177544
-0.133786
-0.110955
-0.097265
-0.084318
-0.085381
-0.107872
-0.137647
-0.186827
-0.239142
-0.273991
-0.315267
-0.345568
-0.370238
-0.370300
-0.363174
-0.343914
-0.320820
-0.290347
-0.253581
-0.195663
-0.137245
-0.107912
-0.087365
-0.081569
-0.095682
-0.126033
-0.147816
-0.171429
-0.228655
-0.285114
-0.313121
-0.350263
-0.400363
-0.428159
-0.398849
-0.341721
-0.311444
-0.266174
-0.219260
-0.185217
-0.139010
-0.097496
-0.079625
-0.071729
-0.080843
-0.101547
-0.126072
-0.179929
-0.233189
-0.269298
-0.314566
-0.348859
-0.376187
-0.385342
-0.378415
-0.356692
-0.329905
-0.292006
-0.252157
-0.203936
-0.146516
-0.108538
-0.086243
-0.070596
-0.077208
-0.104317
-0.137902
-0.169616
-0.210896
-0.253977
-0.309628
-0.346835
-0.373226
-0.392223
-0.381096
-0.361684
-0.327939
-0.271111
-0.225619
-0.175911
-0.137726
-0.101336
-0.078253
-0.075429
-0.080727
-0.097168
-0.136066
-0.187224
-0.238708
-0.267384
-0.308694
-0.344352
-0.366922
-0.378396
-0.376821
-0.354435
-0.317333
-0.266043
-0.206285
-0.163182
-0.131863
-0.101855
-0.089949
-0.083280
-0.086729
-0.107482
-0.143382
-0.188998
-0.222120
-0.266706
-0.311800
-0.335153
-0.364798
-0.381987
-0.381828
-0.363294
-0.332511
-0.284753
-0.251255
-0.191298
-0.136224
-0.102541
-0.082042
-0.064830
-0.074898
-0.081200
-0.111129
-0.155481
-0.197456
-0.254475
-0.300093
-0.322435
-0.349340
-0.348494
-0.342322
-0.335791
-0.308298
-0.274972
-0.221243
-0.156098
-0.115743
-0.093940
-0.068695
-0.050254
-0.045403
-0.053574
-0.080486
-0.136073
-0.178965
-0.216640
-0.272681
-0.309033
-0.330561
-0.324459
-0.324230
-0.303741
-0.255108
-0.219697
-0.164173
-0.136869
-0.092066
-0.069725
-0.041449
-0.026095
-0.046479
-0.063711
-0.083719
-0.124484
-0.174422
-0.214680
-0.260440
-0.296339
-0.318598
-0.324208
-0.305483
-0.280493
-0.250472
-0.205769
-0.164756
-0.112044
-0.079537
-0.045540
-0.009740
0.001713
-0.007387
-0.023983
-0.052842
-0.087599
-0.141245
-0.187717
-0.233075
-0.274645
-0.306283
-0.328319
-0.315216
-0.297004
-0.270998
-0.231929
-0.179669
-0.140790
-0.094298
-0.055017
-0.020249
-0.019860
-0.034323
-0.065384
-0.091900
-0.140145
-0.185727
-0.241981
-0.267878
-0.302761
-0.331437
-0.346319
-0.338449
-0.308806
-0.284895
-0.234791
-0.194281
-0.149443
-0.104513
-0.071665
-0.055372
-0.041289
-0.062021
-0.079440
-0.120058
-0.162291
-0.202921
-0.231533
-0.282050
-0.310902
-0.339802
-0.355058
-0.364462
-0.342294
-0.303978
-0.266608
-0.228540
-0.175160
-0.133750
-0.091332
-0.056903
-0.046406
-0.058623
-0.073982
-0.108656
-0.158374
-0.207566
-0.260479
-0.305590
-0.327502
-0.357356
-0.366287
-0.358993
-0.326042
-0.294107
-0.263488
-0.204203
-0.154154
-0.105154
-0.076160
-0.058045
-0.054618
-0.065654
-0.085811
-0.114800
-0.147453
-0.193702
-0.233625
-0.288654
-0.332819
-0.333076
-0.350293
-0.347940
-0.318516
-0.293883
-0.262139
-0.223861
-0.145349
-0.098082
-0.075535
-0.060176
-0.040828
-0.050904
-0.075434
-0.110307
-0.142050
-0.187322
-0.242940
-0.286860
-0.322840
-0.351958
-0.358731
-0.353433
-0.326490
-0.297110
-0.263245
-0.198806
-0.140895
-0.119927
-0.076698
-0.051060
-0.040802
-0.022914
