-0.012627
0.023509
0.064511
0.111546
0.133094
0.129200
0.118366
0.101826
0.076425
0.035370
0.007401
-0.035941
-0.096820
-0.158216
-0.184235
-0.195572
-0.188979
-0.144580
-0.116012
-0.071957
-0.025097
0.023715
0.059957
0.091603
0.111471
0.114934
0.123839
0.101875
0.077616
0.029931
-0.008324
-0.062590
-0.109379
-0.152126
-0.167832
-0.197857
-0.183765
-0.161603
-0.115096
-0.055199
-0.013341
0.023735
0.069384
0.116879
0.142547
0.157545
0.132235
0.094308
0.062874
0.021951
-0.044395
-0.071077
-0.094250
-0.109549
-0.147065
-0.155776
-0.161666
-0.143294
-0.097796
-0.064490
-0.014500
0.033618
0.083456
0.118096
0.128228
0.136732
0.131739
0.100778
0.075355
0.041958
-0.000957
-0.070883
-0.115910
-0.132209
-0.145765
-0.154755
-0.146619
-0.111609
-0.087960
-0.048275
-0.003440
0.035256
0.081346
0.104845
0.137906
0.143442
0.138371
0.089916
0.066180
0.041008
0.012962
-0.038421
-0.082189
-0.123364
-0.152437
-0.164979
-0.153154
-0.129503
-0.079574
-0.048872
0.004376
0.056494
0.073715
0.115648
0.155908
0.144238
0.147062
0.128248
0.066203
0.034107
-0.003694
-0.058172
-0.096194
-0.132533
-0.147692
-0.160258
-0.161191
-0.164187
-0.129641
-0.058256
-0.033109
0.032823
0.105359
0.144619
0.137379
0.142974
0.138468
0.109436
0.093877
0.042742
-0.009324
-0.071401
-0.112769
-0.151081
-0.155322
-0.149869
-0.141848
-0.118857
-0.076634
-0.041612
-0.005859
0.031808
0.062919
0.083385
0.113445
0.125425
0.129057
0.100852
0.069653
0.040301
-0.001878
-0.057766
-0.100919
-0.138209
-0.156441
-0.163350
-0.166722
-0.143717
-0.121299
-0.067909
-0.033947
0.026394
0.064814
0.097665
0.123594
0.133169
0.130550
0.101750
0.072901
0.022726
-0.020480
-0.064823
-0.112862
-0.149053
-0.166512
-0.167149
-0.160072
-0.139805
-0.101025
-0.061014
-0.032925
0.015673
0.054011
0.088438
0.101666
0.098061
0.102350
0.070542
0.047761
0.029492
-0.017332
-0.057624
-0.109730
-0.146555
-0.169640
-0.176675
-0.170956
-0.137294
-0.118509
-0.065764
-0.029460
0.005807
0.039284
0.090782
0.104372
0.136239
0.132986
0.090334
0.052819
0.026959
-0.014389
-0.078287
-0.137435
-0.157249
-0.160692
-0.161198
-0.171858
-0.155581
-0.126347
-0.064005
-0.009009
0.022048
0.038682
0.078445
0.097379
0.103062
0.096397
0.083275
0.062886
0.034391
-0.025114
-0.086454
-0.122933
-0.150797
-0.155806
-0.171128
-0.167780
-0.155511
-0.114801
-0.068850
-0.035989
0.006673
0.051081
0.089626
0.116848
0.121509
0.113509
0.089752
0.054378
0.018588
-0.027259
-0.078388
-0.115830
-0.138678
-0.179220
-0.202376
-0.185024
-0.176183
-0.148106
-0.094378
-0.043139
-0.017591
0.036078
0.113178
0.144953
0.154247
0.148496
0.113157
0.063669
0.014015
-0.049291
-0.088201
-0.120255
-0.152173
-0.172774
-0.182571
-0.179617
-0.152291
-0.122825
-0.078648
-0.026263
0.028271
0.081032
0.100532
0.110266
0.130489
0.130474
0.110896
0.070688
0.029475
-0.015381
-0.059359
-0.082900
-0.116791
-0.153613
-0.147007
-0.134993
-0.124073
-0.102961
-0.057339
-0.012008
0.037299
0.092188
0.138518
0.154529
0.158621
0.160705
0.132674
0.093647
0.074633
0.031464
-0.045088
-0.068852
-0.115893
-0.144898
-0.165121
-0.152594
-0.113165
-0.077958
-0.040403
0.012146
0.068011
0.103928
0.142287
0.163771
0.178617
0.186517
0.163716
0.120073
0.070016
0.013367
-0.028292
-0.071660
-0.101532
-0.108637
-0.117159
-0.116627
-0.108776
-0.092444
-0.043552
-0.018451
0.042001
0.072223
0.122511
0.150494
0.156061
0.153046
0.123149
0.079813
0.015674
-0.017510
-0.056842
-0.100497
-0.132955
-0.152163
-0.164574
-0.173850
-0.142462
-0.086884
-0.077243
-0.032986
0.033915
0.058891
0.083445
0.109296
0.128794
0.125150
0.110719
0.072965
0.017808
-0.026262
-0.065394
-0.115394
-0.164596
-0.212699
-0.199858
-0.186731
-0.146252
-0.120533
-0.088238
-0.058834
-0.014193
0.042842
0.067350
0.089977
0.102647
0.096554
0.073662
0.045695
0.007593
-0.025992
-0.068149
-0.116972
-0.165643
-0.190407
-0.214887
-0.212614
-0.171535
-0.143156
-0.093999
-0.052824
-0.007238
0.039807
0.081929
0.101019
0.131069
0.108377
0.081060
0.055461
0.006561
-0.037228
-0.098058
-0.151073
-0.194687
-0.209746
-0.206133
-0.229366
-0.199314
-0.167310
-0.113960
-0.040127
0.020716
0.047774
0.086764
0.123699
0.137161
0.134055
0.092991
0.043202
-0.012048
-0.065246
-0.094559
-0.137402
-0.171118
-0.186438
-0.194578
-0.191842
-0.172036
-0.144557
-0.115953
-0.071032
0.003206
0.043212
0.057337
0.081991
0.110830
0.110562
0.099720
0.045752
0.010814
-0.018492
-0.060031
-0.104738
-0.133683
-0.131385
-0.130904
-0.121945
-0.087627
-0.027018
0.045645
0.106717
0.168646
0.227825
0.293833
0.335844
0.360597
0.392289
0.418529
0.410854
0.375243
0.374631
0.383148
0.369574
0.367717
0.366398
0.386931
0.415394
0.485319
0.594015
0.684443
0.771828
0.842291
0.895309
0.905220
0.922928
0.946788
0.949163
0.908590
0.847659
0.781244
0.703005
0.582544
0.449172
0.368769
0.283591
0.209546
0.165335
0.133809
0.116838
0.115825
0.137434
0.186366
0.225491
0.259194
0.264055
0.249117
0.248935
0.234405
0.189526
0.126323
0.080053
0.018083
-0.021578
-0.073778
-0.095415
-0.113021
-0.101454
-0.091240
-0.054585
-0.012811
0.039753
0.088945
0.120913
0.151801
0.177506
0.181838
0.165779
0.134203
0.099068
0.049731
0.008714
-0.036623
-0.088411
-0.143398
-0.173079
-0.174774
-0.148951
-0.107594
-0.084415
-0.040943
0.000132
0.035159
0.099976
0.142472
0.142069
0.154108
0.152069
0.138601
0.096751
0.044885
-0.021102
-0.045688
-0.095291
-0.105560
-0.135672
-0.158020
-0.150979
-0.113323
-0.089481
-0.069901
0.000752
0.052741
0.086948
0.132636
0.149909
0.146660
0.140013
0.128809
0.085786
0.052707
0.011253
-0.013195
-0.047917
-0.099890
-0.134930
-0.133914
-0.125504
-0.100821
-0.065507
-0.015432
0.026321
0.076797
0.113273
0.148159
0.172260
0.181650
0.170683
0.139459
0.118404
0.068785
0.023331
-0.017320
-0.080381
-0.096327
-0.124800
-0.136291
-0.125287
-0.087598
-0.041105
0.018739
0.060931
0.105524
0.138398
0.178045
0.196670
0.222010
0.215001
0.191886
0.142049
0.111388
0.067817
0.008809
-0.028312
-0.056002
-0.073064
-0.086864
-0.083615
-0.057147
-0.013525
0.026997
0.061391
0.117085
0.157658
0.189156
0.207814
0.227463
0.244473
0.249881
0.229787
0.171447
0.076919
0.043328
0.000070
-0.032286
-0.059848
-0.040319
-0.022134
0.001787
0.026092
0.061091
0.109403
0.160437
0.196017
0.244825
0.275913
0.284378
0.278391
0.259618
0.210564
0.160557
0.117361
0.081411
0.028527
-0.011180
-0.011539
-0.008749
-0.003863
-0.003684
0.044841
0.085756
0.122132
0.174082
0.199379
0.230493
0.257341
0.279824
0.258128
0.233275
0.200046
0.163453
0.106407
0.057743
0.031738
0.001478
-0.020955
-0.027542
-0.038703
-0.046817
0.004822
0.052175
0.092228
0.144080
0.190794
0.239972
0.263366
0.261277
0.240722
0.219589
0.180025
0.142112
0.095000
0.037889
-0.015145
-0.047080
-0.072551
-0.084966
-0.063256
-0.048192
-0.024795
0.017044
0.059714
0.100037
0.137629
0.179103
0.201583
0.211505
0.196320
0.171989
0.131087
0.079464
0.014215
-0.039651
-0.073420
-0.082847
-0.090063
-0.121728
-0.131232
-0.109174
-0.068465
-0.018398
0.036411
0.069931
0.089174
0.118212
0.152483
0.164721
0.136479
0.114324
0.091634
0.050689
0.012292
-0.042481
-0.106439
-0.119599
-0.139493
-0.154424
-0.151710
-0.127190
-0.088581
-0.032902
-0.008588
0.025453
0.067967
0.093227
0.116159
0.126139
0.126065
0.091014
0.061728
0.008786
-0.033299
-0.052677
-0.087676
-0.140096
-0.167613
-0.185552
-0.179329
-0.153098
-0.107990
-0.066063
-0.013155
0.031140
0.078141
0.128229
0.139335
0.110241
0.124979
0.106652
0.083915
0.023169
-0.034703
-0.078730
-0.121913
-0.154610
-0.176515
-0.173955
-0.134589
-0.134144
-0.106796
-0.066581
-0.029212
0.030500
0.066104
0.117616
0.141378
0.147216
0.144161
0.131308
0.093482
0.031228
-0.022325
-0.061923
-0.108884
-0.141036
-0.186628
-0.191462
-0.167755
-0.124262
-0.103010
-0.066032
-0.029701
0.027336
0.103683
0.124045
0.138331
0.131297
0.102864
0.115865
0.066019
0.010964
-0.011894
-0.052851
-0.095054
-0.134413
-0.150297
-0.154888
-0.149992
-0.125187
-0.094274
-0.057472
-0.015454
0.034072
0.062969
0.108710
0.144018
0.146707
0.116329
0.108355
0.082897
0.036014
-0.004896
-0.048804
-0.101623
-0.138082
-0.145597
-0.156147
-0.157582
-0.126492
-0.107228
-0.066077
-0.031962
0.027424
0.085527
0.125061
0.119686
0.134740
0.127948
0.110927
0.074706
0.042063
-0.000057
-0.046432
-0.088213
-0.149505
-0.145576
-0.161574
-0.150685
-0.129939
-0.096596
-0.064876
-0.026480
0.019126
0.073785
0.120808
0.143721
0.142219
0.147930
0.135973
0.090853
0.040451
-0.019404
-0.069009
-0.116524
-0.157120
-0.169897
-0.165419
-0.162334
-0.141815
-0.119509
-0.089729
-0.038011
-0.005025
0.052090
0.098794
0.123499
0.138725
0.136825
0.084845
0.075838
0.040187
-0.005445
-0.065085
-0.107775
-0.135729
-0.156732
-0.177464
-0.181858
-0.164524
-0.135768
-0.066783
0.000018
0.032576
0.029024
0.076320
0.140220
0.145426
0.123545
0.093436
0.048993
0.014259
-0.027048
-0.066508
-0.092928
-0.125757
-0.162087
-0.177843
-0.200751
-0.163254
-0.127292
-0.089549
-0.050977
0.004817
0.049682
0.087218
0.106228
0.123535
0.128379
0.102485
0.072566
0.014350
-0.029762
-0.080038
-0.115428
-0.149320
-0.178238
-0.193833
-0.185395
-0.174905
-0.121867
-0.077866
-0.047917
0.003938
0.061571
0.084725
0.102531
0.104449
0.092824
0.076285
0.054444
0.014805
-0.037460
-0.080971
-0.124839
-0.174626
-0.189544
-0.184838
-0.184278
-0.176541
-0.152191
-0.099264
-0.042075
0.017079
0.057365
0.096906
0.111480
0.131352
0.107073
0.071581
0.018647
-0.018806
-0.056046
-0.088323
-0.126851
-0.149222
-0.160162
-0.193189
-0.174867
-0.167753
-0.146685
-0.122667
-0.086853
-0.032432
0.009132
0.081518
0.101403
0.112159
0.102524
0.094549
0.058240
0.003484
-0.032238
-0.078190
-0.125967
-0.174134
-0.186343
-0.202174
-0.196966
-0.177250
-0.165814
-0.108770
-0.047086
-0.007551
0.035859
0.061440
0.087053
0.102213
0.088510
0.078050
0.045462
0.001995
-0.052175
-0.088804
-0.131588
-0.182265
-0.205516
-0.199300
-0.182833
-0.175100
-0.140990
-0.095206
-0.045159
-0.006721
0.049249
0.087357
0.094685
0.081376
0.109491
0.094919
0.054183
-0.003632
-0.051800
-0.100370
-0.136089
-0.172731
-0.200220
-0.207807
-0.200038
-0.164513
-0.133567
-0.106157
-0.069382
-0.013441
0.039759
0.078106
0.092945
0.093765
0.078637
0.075690
0.042939
-0.010945
-0.069245
-0.111999
-0.165432
-0.194755
-0.192324
-0.203385
-0.193376
-0.162491
-0.148951
-0.113191
-0.061195
0.006074
0.043705
0.068867
0.109238
0.110486
0.079437
0.054974
0.010278
-0.028848
-0.061684
-0.101591
-0.148539
-0.186323
-0.181762
-0.182675
-0.165632
-0.160276
-0.124674
-0.081921
-0.018932
0.014775
0.079081
0.114523
0.138961
0.156820
0.138481
0.119677
0.044897
-0.000751
-0.028172
-0.060711
-0.118083
-0.150359
-0.164114
-0.167307
-0.154939
-0.152614
-0.144316
-0.095694
-0.030125
0.001939
0.060930
0.115076
0.140355
0.140626
0.129302
0.112428
0.092423
0.029470
-0.059096
-0.047503
-0.073422
-0.110489
-0.125913
-0.167472
-0.177698
-0.165354
-0.118196
-0.046929
0.013573
0.073301
0.106005
0.100732
0.108298
0.130703
0.101998
0.078435
0.082476
0.070346
-0.032789
-0.101842
-0.149837
-0.165877
-0.175637
-0.185822
-0.172083
-0.166035
-0.132562
-0.085935
-0.049759
0.013543
0.044518
0.091093
0.101609
0.111710
0.093841
0.078724
0.017762
-0.009361
-0.054142
-0.103151
-0.151041
-0.195064
-0.218015
-0.232640
-0.239325
-0.184875
-0.138628
-0.111579
-0.049054
-0.014749
0.037184
0.061123
0.067484
0.097660
0.089878
0.073374
0.041329
-0.013110
-0.101595
-0.144957
-0.166647
-0.202241
-0.223681
-0.241549
-0.230878
-0.202640
-0.202952
-0.147248
-0.087590
-0.031684
0.025179
0.059777
0.065900
0.059601
0.064321
0.063301
0.022623
-0.021668
-0.068526
-0.121399
-0.168473
-0.210565
-0.230465
-0.228784
-0.223972
-0.205220
-0.181805
-0.144254
-0.077069
-0.038271
0.005778
0.034569
0.029373
0.072615
0.061123
0.037637
0.006448
-0.036079
-0.079930
-0.129087
-0.194111
-0.208848
-0.227337
-0.250897
-0.251247
-0.235069
-0.189341
-0.124436
-0.080667
-0.040659
0.010993
0.043942
0.047501
0.064509
0.054996
0.027938
-0.022686
-0.078737
-0.079776
-0.120633
-0.158413
-0.196366
-0.227994
-0.253175
-0.221472
-0.171079
-0.118690
-0.030772
0.018735
0.079772
0.137654
0.170514
0.199748
0.202345
0.226980
0.232637
0.221018
0.196672
0.174727
0.154219
0.149053
0.156568
0.169163
0.148544
0.216921
0.288602
0.387884
0.454128
0.537080
0.623663
0.693277
0.740538
0.801187
0.885071
0.912080
0.885118
0.848199
0.784079
0.736855
0.665807
0.605539
0.547350
0.490116
0.448912
0.391036
0.322080
0.308500
0.297752
0.301530
0.272015
0.269960
0.242275
0.258755
0.259018
0.230339
0.212392
0.173173
0.116224
0.045399
-0.035872
-0.105195
-0.110026
-0.129459
-0.145684
-0.140061
-0.130062
-0.088146
-0.060104
-0.011373
0.030533
0.069445
0.108532
0.139854
0.162642
0.147255
0.114744
0.038781
-0.002903
-0.031063
-0.057598
-0.110402
-0.165571
-0.179289
-0.169332
-0.168946
-0.159083
-0.148101
-0.097670
-0.053096
0.000012
0.040354
0.070728
0.085622
0.101999
0.101787
0.083730
0.044053
0.002641
-0.040967
-0.082938
-0.131353
-0.182283
-0.220122
-0.216489
-0.201780
-0.192170
-0.147656
-0.107579
-0.067802
-0.020999
0.008542
0.053684
0.107070
0.114250
0.113818
0.096974
0.040251
-0.006979
-0.063594
-0.128553
-0.163899
-0.192640
-0.218816
-0.219133
-0.205345
-0.169296
-0.132836
-0.097982
-0.038267
0.014803
0.046943
0.091882
0.120492
0.125959
0.096700
0.064321
0.050557
0.000690
-0.028279
-0.055871
-0.121901
-0.177228
-0.203156
-0.210123
-0.184506
-0.148544
-0.077104
-0.050903
-0.028035
0.015351
0.067261
0.093609
0.127449
0.131736
0.117062
0.105250
0.071256
0.033056
-0.020576
-0.057562
-0.093885
-0.132931
-0.138560
-0.153181
-0.164769
-0.115000
-0.069920
-0.021427
0.016477
0.057394
0.099178
0.126950
0.161327
0.170299
0.170553
0.157464
0.117860
0.083793
0.029528
-0.019525
-0.059377
-0.099555
-0.136547
-0.144361
-0.126508
-0.093783
-0.043538
0.008698
0.056962
0.110303
0.147067
0.164384
0.170441
0.190500
0.186287
0.165283
0.141272
0.079954
0.053398
0.007797
-0.043474
-0.083869
-0.080548
-0.076330
-0.071378
-0.094729
-0.078545
-0.008538
0.040148
0.098152
0.132469
0.183298
0.207001
0.222743
0.208288
0.180408
0.140852
0.089109
0.014181
-0.012447
-0.034574
-0.069101
-0.082660
-0.078377
-0.088052
-0.085363
-0.060643
-0.019731
0.042005
0.096593
0.151109
0.173939
0.197428
0.197392
0.179940
0.139684
0.107830
0.083768
0.048293
-0.023480
-0.072165
-0.103450
-0.128743
-0.140885
-0.128945
-0.109761
-0.075190
-0.027894
0.029228
0.080180
0.100780
0.117406
0.141967
0.148237
0.159451
0.132351
0.081074
0.032327
-0.033635
-0.064643
-0.104190
-0.146747
-0.182181
-0.209397
-0.201336
-0.171951
-0.116330
-0.078840
-0.027151
0.012082
0.029814
0.083389
0.100093
0.089159
0.089060
0.063941
0.019427
-0.028969
-0.072776
-0.109813
-0.156821
-0.194903
-0.219762
-0.241940
-0.229675
-0.196064
-0.164110
-0.119217
-0.081891
-0.031269
0.004417
0.018878
0.077559
0.069971
0.020506
0.031316
0.001075
-0.023984
-0.088927
-0.148358
-0.181541
-0.218024
-0.238747
-0.262938
-0.246812
-0.223754
-0.192871
-0.141592
-0.067303
-0.031413
-0.019584
-0.001729
0.031766
0.040284
0.022132
-0.001150
-0.025718
-0.074476
-0.093459
-0.122443
-0.183981
-0.221262
-0.244793
-0.235366
-0.243401
-0.225573
-0.163678
-0.106465
-0.099315
-0.021045
0.021094
-0.010065
-0.004453
0.041722
0.038026
0.040463
-0.012743
-0.056534
-0.096584
-0.148461
-0.207451
-0.252840
-0.261498
-0.240409
-0.223452
-0.192237
-0.168923
-0.156883
-0.116797
-0.078808
-0.026360
0.023963
0.062153
0.110975
0.119677
0.104032
0.048217
-0.017770
-0.083860
-0.109688
-0.209937
-0.288482
-0.289313
-0.254283
-0.244744
-0.224727
-0.177406
-0.148314
-0.086415
-0.043351
-0.027087
0.003258
0.055537
0.076002
0.055468
0.007138
-0.034353
-0.057511
-0.100656
-0.144477
-0.197724
-0.223649
-0.227317
-0.222544
-0.230754
-0.206583
-0.163107
-0.138009
-0.079247
-0.025008
0.004713
0.011110
0.036678
0.051477
0.055082
0.020248
-0.004018
-0.052453
-0.127320
-0.173499
-0.222659
-0.226635
-0.236998
-0.271783
-0.246410
-0.203681
-0.155935
-0.141350
-0.102670
-0.041736
0.015693
0.047004
0.052632
0.033512
0.053084
0.017102
-0.020918
-0.051934
-0.100785
-0.149432
-0.177259
-0.207135
-0.220287
-0.229095
-0.219486
-0.198729
-0.169589
-0.162893
-0.110054
-0.044073
-0.028601
-0.016946
0.017566
0.029369
0.038412
0.028534
-0.012913
-0.048726
-0.098937
-0.136131
-0.199939
-0.243199
-0.263639
-0.265064
-0.266648
-0.243058
-0.208369
-0.164266
-0.105640
-0.048181
-0.023565
-0.014073
0.006990
0.025490
-0.001445
-0.004401
-0.069106
-0.059061
-0.094355
-0.117987
-0.160757
-0.228988
-0.284610
-0.294082
-0.250294
-0.229485
-0.186562
-0.121350
-0.089194
-0.071048
-0.059461
-0.074260
-0.016396
0.019618
0.038239
0.002412
-0.021705
-0.065759
-0.120086
-0.169678
-0.195452
-0.237683
-0.277062
-0.285837
-0.288995
-0.263369
-0.228820
-0.192115
-0.148771
-0.115977
-0.084250
-0.033732
0.010072
0.020958
0.014407
0.001289
-0.038116
-0.064112
-0.145835
-0.181308
-0.227889
-0.244785
-0.270510
-0.279815
-0.276675
-0.244754
-0.202887
-0.165139
-0.130919
-0.087111
-0.070373
-0.037115
0.007502
0.026725
-0.001727
-0.008607
-0.056661
-0.109315
-0.155439
-0.229071
-0.243995
-0.255073
-0.281495
-0.299826
-0.295681
-0.295606
-0.256631
-0.186062
-0.122287
-0.058782
-0.038445
-0.021578
0.006717
0.042622
0.023665
-0.021417
-0.084243
-0.121372
-0.154209
-0.147035
-0.200286
-0.288270
-0.326135
-0.284286
-0.288976
-0.271819
-0.212297
-0.165017
-0.119388
-0.099110
-0.075653
-0.059841
-0.011497
-0.010161
-0.034984
-0.016059
-0.025329
-0.081707
-0.134333
-0.180032
-0.220285
-0.264412
-0.283038
-0.282966
-0.273286
-0.256977
-0.243440
-0.229085
-0.184073
-0.131860
-0.071085
-0.028333
0.029463
0.014765
-0.023407
-0.018336
-0.067476
-0.095813
-0.142102
-0.183221
-0.207834
-0.218178
-0.272047
-0.308747
-0.314133
-0.290821
-0.251575
-0.226430
-0.202868
-0.143865
-0.066817
-0.020493
0.016904
0.015543
0.010511
-0.018989
-0.055787
-0.088289
-0.137491
-0.192280
-0.225858
-0.227904
-0.267852
-0.286186
-0.290721
-0.300946
-0.284831
-0.222202
-0.172060
-0.134610
-0.106543
-0.039169
-0.011533
0.001387
-0.030657
-0.029879
-0.053999
-0.091303
-0.137712
-0.198491
-0.254816
-0.282993
-0.296845
-0.296608
-0.282038
-0.286326
-0.268480
-0.241955
-0.166699
-0.133398
-0.091650
-0.035403
0.013843
0.034662
0.007157
0.002303
0.000831
-0.035149
-0.115688
-0.204448
-0.270734
-0.292967
-0.311865
-0.312002
-0.285363
-0.284401
-0.229702
-0.189218
-0.136850
-0.063941
-0.035546
0.018983
0.040263
0.025966
0.006143
-0.018449
-0.085212
-0.113169
-0.131951
-0.180612
-0.228711
-0.221339
-0.259232
-0.259869
-0.261841
-0.266861
-0.194893
-0.155366
-0.101146
-0.068656
-0.021078
0.017546
0.046469
0.038117
0.028498
0.018260
-0.009595
-0.056580
-0.082158
-0.132240
-0.176511
-0.233478
-0.255527
-0.290505
-0.282649
-0.260940
-0.186601
-0.175990
-0.147388
-0.038824
0.008701
0.031759
0.040755
0.040435
0.048962
0.049586
-0.008490
-0.072853
-0.099886
-0.201810
-0.253245
-0.274860
-0.288156
-0.287632
-0.274765
-0.254164
-0.218049
-0.157870
-0.116238
-0.082918
-0.056294
-0.025740
-0.001006
-0.005106
-0.009091
-0.046200
-0.068985
-0.099860
-0.142266
-0.190580
-0.250754
-0.274146
-0.311583
-0.330006
-0.324833
-0.285581
-0.228236
-0.209980
-0.185012
-0.136350
-0.058101
-0.026110
0.016282
-0.002691
-0.042989
-0.104224
-0.107897
-0.126043
-0.154858
-0.194326
-0.234723
-0.301718
-0.334180
-0.332622
-0.321206
-0.288649
-0.256299
-0.243417
-0.198124
-0.117724
-0.080498
-0.061471
-0.058659
-0.036998
-0.036527
-0.053529
-0.096028
-0.143049
-0.172587
-0.200468
-0.244933
-0.293209
-0.326102
-0.315838
-0.281233
-0.276465
-0.268651
-0.244068
-0.193167
-0.140945
-0.084467
-0.088810
-0.061342
-0.046521
-0.048863
-0.070550
-0.088506
-0.108369
-0.173900
-0.229240
-0.265424
-0.309104
-0.367181
-0.360521
-0.352277
-0.295753
-0.242095
-0.195848
-0.154798
-0.159322
-0.142805
-0.130439
-0.071987
-0.005171
-0.034431
-0.069224
-0.104023
-0.143485
-0.193506
-0.242929
-0.280110
-0.303884
-0.317364
-0.314063
-0.297118
-0.281327
-0.225246
-0.168623
-0.110736
-0.046779
0.004173
0.053805
0.085593
0.081074
0.085886
0.076531
0.075278
0.049396
0.037066
-0.005530
-0.027625
-0.025390
-0.008358
0.050765
0.084626
0.102170
0.173914
0.272471
0.333627
0.434237
0.517106
0.583107
0.671129
0.727726
0.744956
0.768160
0.765598
0.716005
0.648442
0.599017
0.545640
0.486393
0.444718
0.419736
0.340033
0.335580
0.318567
0.309493
0.277213
0.269458
0.298971
0.301777
0.269862
0.230702
0.205939
0.162841
0.104635
0.036490
-0.008237
-0.036978
-0.097583
-0.138819
-0.172880
-0.202852
-0.203695
-0.213272
-0.212973
-0.153389
-0.084204
-0.049407
-0.022550
0.016798
0.060764
0.078797
0.067363
0.033744
-0.005311
-0.045965
-0.087260
-0.137684
-0.190690
-0.227862
-0.263854
-0.255362
-0.277945
-0.230934
-0.193938
-0.159884
-0.104966
-0.045850
-0.041180
-0.042199
-0.044353
-0.023288
0.001133
-0.045534
-0.071136
-0.097574
-0.132329
-0.158320
-0.185887
-0.233895
-0.257064
-0.271699
-0.255267
-0.223066
-0.214418
-0.163176
-0.133413
-0.088265
-0.083027
-0.022558
0.010738
0.015368
0.034613
0.020778
-0.065868
-0.119244
-0.124597
-0.171967
-0.238606
-0.265467
-0.246776
-0.241932
-0.263850
-0.241636
-0.234397
-0.160340
-0.104144
-0.067233
-0.038292
0.013952
0.047253
0.042463
0.047534
0.023942
-0.041052
-0.052362
-0.070643
-0.147839
-0.209059
-0.245717
-0.239591
-0.242994
-0.234779
-0.216246
-0.176377
-0.145800
-0.126260
-0.090621
-0.023004
0.006946
0.048711
0.061694
0.072283
0.050094
0.002894
-0.052825
-0.088184
-0.102767
-0.133793
-0.185479
-0.235404
-0.203924
-0.148451
-0.114780
-0.118571
-0.098234
-0.088952
-0.031325
-0.006934
0.055810
0.070248
0.105785
0.110145
0.066606
0.037342
0.009530
-0.007860
-0.020261
-0.139104
-0.212244
-0.192784
-0.188675
-0.169989
-0.131497
-0.098534
-0.043552
-0.015189
0.014820
0.049309
0.087096
0.127953
0.162211
0.153794
0.128514
0.073958
-0.015081
-0.037654
-0.034158
-0.061359
-0.120345
-0.193399
-0.159081
-0.141278
-0.114273
-0.067185
-0.029152
0.000506
0.074966
0.096975
0.109944
0.157161
0.167587
0.130013
0.085459
0.104310
0.056657
0.011538
-0.035665
-0.078916
-0.115848
-0.142618
-0.127728
-0.153349
-0.137923
-0.090728
-0.032223
-0.002334
0.032598
0.052977
0.105437
0.116002
0.116792
0.124351
0.123948
0.082547
0.039927
0.000455
-0.037125
-0.104418
-0.163446
-0.187399
-0.195063
-0.200127
-0.178798
-0.146171
-0.093973
-0.026841
0.027824
0.082423
0.075802
0.090289
0.111218
0.132927
0.118012
0.089911
0.056889
0.009910
-0.114849
-0.192443
-0.204838
-0.219147
-0.245371
-0.282834
-0.261507
-0.171607
-0.103347
-0.079303
-0.048322
0.004451
0.041031
0.050919
0.064406
0.076237
0.073142
-0.000696
-0.050787
-0.100806
-0.136345
-0.185432
-0.226760
-0.243390
-0.277381
-0.301708
-0.307829
-0.238570
-0.171668
-0.124135
-0.093589
-0.044799
0.013529
0.036694
0.050110
0.047576
0.012022
-0.039130
-0.072160
-0.131286
-0.207658
-0.216303
-0.237096
-0.273997
-0.289333
-0.265928
-0.257079
-0.229250
-0.204824
-0.136746
-0.093958
-0.053558
-0.018184
0.020704
0.015851
-0.012312
-0.031784
-0.052102
-0.097653
-0.155371
-0.211616
-0.249558
-0.263523
-0.267147
-0.297014
-0.310388
-0.238146
-0.212698
-0.194236
-0.162438
-0.118702
-0.042914
0.004362
0.015840
0.021972
0.007754
-0.000709
-0.054435
-0.111585
-0.150791
-0.211304
-0.279947
-0.298194
-0.306680
-0.303683
-0.272048
-0.248575
-0.247809
-0.197112
-0.124648
-0.065146
0.024108
0.049249
0.018878
0.039449
0.044974
0.026892
0.001829
-0.035129
-0.125904
-0.202209
-0.268889
-0.300046
-0.314371
-0.302552
-0.263729
-0.231615
-0.205425
-0.175722
-0.154639
-0.111745
-0.030900
0.014629
0.010301
0.006986
0.021753
0.027717
-0.006197
-0.061552
-0.118642
-0.181695
-0.209288
-0.247445
-0.280450
-0.280979
-0.266055
-0.252939
-0.222741
-0.190846
-0.119697
-0.068880
-0.074342
-0.015210
0.041026
0.035392
0.040933
0.061813
-0.004063
-0.082847
-0.110334
-0.156464
-0.204091
-0.246455
-0.279104
-0.275995
-0.270226
-0.253207
-0.240125
-0.215836
-0.161623
-0.080313
-0.030879
0.026499
0.036454
0.011720
0.020151
0.016804
-0.033402
-0.086071
-0.116123
-0.138128
-0.181123
-0.239551
-0.276837
-0.292952
-0.301167
-0.293666
-0.222089
-0.196735
-0.135999
-0.098329
-0.066051
-0.028197
-0.040254
-0.043169
0.005375
-0.021400
-0.068911
-0.114731
-0.152486
-0.205520
-0.206815
-0.234692
-0.245584
-0.273162
-0.267918
-0.237553
-0.208494
-0.178057
-0.113537
-0.068588
-0.026319
0.031109
0.037364
0.042077
0.009448
-0.023376
-0.062319
-0.093531
-0.130087
-0.180421
-0.229353
-0.248849
-0.283429
-0.293390
-0.268964
-0.264230
-0.229146
-0.191104
-0.135543
-0.082648
-0.005070
0.010804
0.002379
-0.013403
0.007837
0.001976
-0.029454
-0.054642
-0.142775
-0.247493
-0.277935
-0.280266
-0.304708
-0.303786
-0.278419
-0.251274
-0.217669
-0.164197
-0.175772
-0.174436
-0.108401
-0.088269
-0.008712
0.063860
0.035511
-0.015874
-0.018498
-0.070679
-0.076984
-0.113379
-0.183869
-0.262053
-0.302835
-0.294788
-0.318662
-0.304034
-0.203276
-0.150167
-0.109219
-0.147242
-0.053900
0.051586
0.044270
0.071472
0.105259
0.097092
0.042074
-0.179105
-0.241243
-0.238701
-0.334055
-0.322488
-0.317972
-0.303486
-0.296142
-0.252049
-0.208524
-0.126554
-0.086751
-0.006260
0.032189
0.015713
0.016890
-0.017741
-0.074290
-0.096857
-0.097363
-0.109823
-0.130550
-0.154244
-0.188013
-0.221613
-0.260341
-0.298987
-0.280878
-0.281037
-0.253041
-0.229201
-0.178123
-0.094749
-0.029885
0.019971
0.047067
0.026157
-0.011435
-0.027072
-0.063280
-0.126611
-0.139209
-0.171340
-0.220624
-0.262796
-0.285639
-0.252144
-0.223464
-0.228844
-0.253273
-0.224526
-0.162560
-0.086671
-0.010850
0.008487
0.019128
0.028385
0.018269
0.004595
-0.038897
-0.123725
-0.192055
-0.231386
-0.236563
-0.267621
-0.297995
-0.298119
-0.244886
-0.200882
-0.227290
-0.200243
-0.153970
-0.117069
-0.091245
-0.035489
-0.012618
-0.003704
-0.024040
-0.045312
-0.041976
-0.074040
-0.112749
-0.168661
-0.220445
-0.235175
-0.302627
-0.291951
-0.268777
-0.220849
-0.193963
-0.140090
-0.101397
-0.082910
-0.074069
-0.046517
-0.005676
-0.000997
0.005077
-0.007174
-0.012510
-0.044337
-0.086751
-0.138644
-0.197910
-0.217796
-0.224907
-0.281491
-0.258568
-0.220583
-0.187715
-0.131503
-0.086713
-0.047968
-0.008954
0.017347
0.058454
0.038170
0.004485
-0.021267
-0.052169
-0.074051
-0.079011
-0.140017
-0.198293
-0.210341
-0.186230
-0.195109
-0.220748
-0.195277
-0.160148
-0.125057
-0.103510
-0.054218
-0.008858
0.025997
0.052475
0.069225
0.046261
0.029399
-0.005920
-0.057656
-0.102582
-0.126346
-0.187116
-0.217549
-0.220991
-0.226370
-0.221565
-0.241235
-0.187521
-0.155614
-0.117868
-0.073851
-0.012254
0.026125
0.021029
0.007116
0.016241
-0.005282
0.001814
-0.064400
-0.131301
-0.144215
-0.218100
-0.317685
-0.294349
-0.302473
-0.331099
-0.301923
-0.211418
-0.176783
-0.103832
-0.050648
-0.063674
-0.010974
0.017326
0.035488
0.039912
-0.018250
-0.096508
-0.157174
-0.165998
-0.208432
-0.251201
-0.297288
-0.299349
-0.300046
-0.282630
-0.267634
-0.245316
-0.189949
-0.154388
-0.107731
-0.075430
-0.046458
0.023306
0.027190
0.002622
-0.036553
-0.090612
-0.142922
-0.190306
-0.222098
-0.246134
-0.274888
-0.327336
-0.365681
-0.319038
-0.284891
-0.246067
-0.216150
-0.137094
-0.059054
-0.008404
0.001619
0.010005
0.018246
-0.007328
-0.056143
-0.042626
-0.086797
-0.145782
-0.213533
-0.254555
-0.312002
-0.332172
-0.331821
-0.286701
-0.256740
-0.235789
-0.228579
-0.188198
-0.137679
-0.072716
-0.039638
-0.023270
-0.039571
-0.061566
-0.061268
-0.066185
-0.108963
-0.116706
-0.160198
-0.233496
-0.269884
-0.303420
-0.315152
-0.290806
-0.262041
-0.240660
-0.200340
-0.137169
-0.050236
0.021514
0.065709
0.099188
0.096838
0.117539
0.135043
0.087254
0.038701
0.039737
-0.007456
-0.047116
-0.034865
-0.054468
-0.040673
0.003530
0.058485
0.122351
0.239049
0.316314
0.416519
0.460274
0.535875
0.612135
0.604968
0.660047
0.661009
0.651802
0.659684
0.639109
0.586507
0.550345
0.506536
0.494376
0.454804
0.428064
0.441291
0.418739
0.407040
0.397515
0.409665
0.375203
0.333832
0.311799
0.275515
0.216913
0.129170
0.087578
0.058321
-0.018282
-0.070937
-0.154700
-0.218724
-0.236848
-0.216976
-0.216239
-0.207254
-0.188950
-0.141222
-0.092434
-0.036778
-0.004874
0.082087
0.131468
0.104237
0.086453
0.053654
0.026301
-0.016912
-0.075382
-0.115703
-0.147715
-0.203127
-0.259613
-0.262404
-0.255284
-0.242296
-0.221851
-0.202382
-0.157632
-0.102933
-0.024197
0.007331
0.048294
0.080737
0.067879
0.059765
0.013047
-0.064910
-0.098223
-0.115187
-0.189797
-0.225720
-0.185853
-0.256635
-0.283381
-0.241846
-0.185245
-0.149123
-0.092778
-0.052762
0.009556
0.027254
0.056193
0.078909
0.091598
0.035130
0.016713
-0.051149
-0.129396
-0.157617
-0.201653
-0.260171
-0.313942
-0.291154
-0.273908
-0.205104
-0.134186
-0.115382
-0.078469
-0.033917
0.001071
0.041988
0.058058
0.081103
0.048024
0.010469
-0.035087
-0.021766
-0.071490
-0.117491
-0.164401
-0.220071
-0.234073
-0.239951
-0.228305
-0.185346
-0.122419
-0.091006
-0.033108
0.010233
0.062143
0.075913
0.111954
0.108856
0.130669
0.093378
0.053371
-0.004968
-0.040759
-0.069429
-0.130497
-0.181775
-0.205473
-0.236927
-0.205913
-0.168496
-0.123934
-0.049479
-0.010248
0.049558
0.085183
0.078621
0.086225
0.180956
0.194957
0.119007
0.044361
0.062412
-0.011606
-0.114458
-0.148118
-0.159382
-0.121307
-0.105265
-0.110100
-0.069669
-0.073939
-0.068438
-0.022341
0.041742
0.100426
0.138860
0.192747
0.194393
0.174467
0.110322
0.081243
0.038621
0.031407
-0.000856
-0.047659
-0.079519
-0.099877
-0.115585
-0.120437
-0.117296
-0.065844
-0.004673
0.016023
0.077161
0.135007
0.182704
0.195250
0.200373
0.165578
0.168057
0.178245
0.152681
-0.006694
-0.098398
-0.096880
-0.122412
-0.131119
-0.129271
-0.134809
-0.110882
-0.035539
-0.011152
0.025901
0.089464
0.102759
0.120457
0.144370
0.159593
0.141777
0.152242
0.118989
0.092208
0.054459
-0.009206
-0.056065
-0.113357
-0.106865
-0.133755
-0.134445
-0.106150
-0.078051
-0.053241
-0.007515
0.064707
0.117591
0.163675
0.155883
0.183070
0.187984
0.131317
0.052816
-0.003700
-0.036539
-0.099808
-0.141020
-0.167101
-0.199666
-0.190796
-0.177248
-0.175030
-0.138484
-0.095525
-0.033107
0.029315
0.073951
0.105107
0.110899
0.103539
0.100351
0.071701
0.030023
-0.034225
-0.063349
-0.106619
-0.130252
-0.171936
-0.188146
-0.196125
-0.177004
-0.170980
-0.158000
-0.154837
-0.104279
-0.047712
-0.008022
0.017094
0.062439
0.102226
0.067260
0.037682
0.010624
-0.048253
-0.113839
-0.168367
-0.210099
-0.236295
-0.272797
-0.263177
-0.224944
-0.234955
-0.179873
-0.101081
-0.067502
-0.018358
0.013131
0.073343
0.053350
0.039974
0.066486
0.075534
0.018052
-0.075548
-0.096104
-0.158782
-0.235881
-0.261379
-0.268789
-0.286528
-0.233461
-0.232014
-0.187688
-0.139552
-0.070132
-0.028234
0.012261
0.061070
0.081291
0.089195
0.067175
0.040276
0.026417
-0.034235
-0.048865
-0.171596
-0.214600
-0.219572
-0.235637
-0.281377
-0.272743
-0.213266
-0.193269
-0.136308
-0.067072
-0.039860
0.012077
0.054805
0.047442
0.100149
0.105296
0.093993
0.019507
-0.032767
-0.094035
-0.175985
-0.190637
-0.227139
-0.236928
-0.253787
-0.271670
-0.266902
-0.199456
-0.112657
-0.020433
0.018371
0.081343
0.078707
0.062769
0.067304
0.034814
0.025375
0.015036
-0.009269
-0.055303
-0.103893
-0.182791
-0.221605
-0.194355
-0.176839
-0.146428
-0.154025
-0.144542
-0.152867
-0.097572
-0.020917
0.006835
0.060666
0.084802
0.056161
0.045240
0.060283
-0.027098
-0.124672
-0.120481
-0.160076
-0.171188
-0.227003
-0.250547
-0.244020
-0.250626
-0.237104
-0.202091
-0.114207
-0.044018
-0.018258
0.035196
0.083531
0.086484
0.136826
0.112559
0.081756
0.042026
0.001324
-0.075858
-0.133708
-0.181067
-0.129953
-0.168819
-0.211427
-0.224020
-0.182912
-0.158252
-0.146709
-0.060857
-0.019364
0.006444
0.036974
0.062600
0.088696
0.080036
0.028475
-0.029415
-0.070721
-0.104606
-0.087715
-0.164355
-0.243078
-0.303696
-0.271998
-0.234961
-0.166598
-0.175104
-0.069027
-0.085026
-0.042209
0.022244
0.044543
0.049706
0.079118
0.062825
0.091346
-0.000417
-0.104885
-0.169379
-0.178274
-0.252505
-0.314314
-0.334775
-0.306416
-0.234794
-0.217663
-0.164379
-0.115387
-0.025851
0.051857
0.075416
0.072825
0.028983
0.034164
0.014974
0.075423
0.081795
0.013726
-0.052534
-0.055474
-0.077743
-0.184373
-0.230786
-0.255511
-0.265366
-0.250157
-0.205088
-0.194336
-0.159257
-0.048254
-0.015153
0.003119
-0.027719
-0.007747
0.054836
0.046634
0.033380
0.046775
0.014622
-0.041792
-0.114169
-0.146743
-0.186452
-0.246259
-0.340197
-0.247980
-0.148836
-0.120801
-0.057317
-0.030569
0.007446
0.032611
0.037818
0.013287
0.028829
0.007165
-0.014345
-0.037081
-0.008877
-0.066388
-0.110583
-0.159661
-0.259697
-0.281183
-0.237140
-0.179713
-0.185199
-0.137534
-0.057524
-0.026384
-0.019154
0.051975
0.124573
0.112765
0.023206
-0.000820
-0.000218
-0.023902
-0.100455
-0.176122
-0.206580
-0.193792
-0.167780
-0.282092
-0.228463
-0.198913
-0.167783
-0.112628
-0.066356
-0.010101
0.018077
0.045095
0.063131
0.057067
-0.002732
-0.006798
0.001031
-0.042163
-0.034389
-0.120088
-0.160845
-0.221732
-0.242374
-0.205931
-0.225880
-0.252525
-0.172120
-0.145592
-0.138215
-0.036865
0.041812
0.073158
0.098511
0.086966
0.105184
0.058123
0.083653
-0.017672
-0.135886
-0.156869
-0.091966
-0.157319
-0.201979
-0.221451
-0.224570
-0.120639
-0.086284
-0.089637
-0.044490
-0.015744
0.015576
0.111579
0.096099
0.095202
0.087164
0.090153
0.066197
0.011471
-0.064179
-0.130897
-0.165897
-0.190904
-0.215100
-0.249429
-0.217137
-0.171476
-0.100922
-0.008558
0.111620
0.111888
-0.011401
0.042233
0.088494
0.116049
0.115675
0.101681
0.055969
0.072367
0.003309
-0.062158
-0.156952
-0.209697
-0.201425
-0.164013
-0.148880
-0.140351
-0.121074
-0.038819
-0.085496
-0.035704
0.024231
0.064021
0.112419
0.063142
0.036167
0.058345
0.030319
-0.040292
-0.082925
-0.083291
-0.085478
-0.134061
-0.160647
-0.178617
-0.216972
-0.196050
-0.121159
-0.099820
-0.055574
-0.002305
0.016031
0.022998
0.026420
0.033341
0.055351
-0.009340
-0.035444
-0.031357
-0.015558
-0.080456
-0.147931
-0.193894
-0.225962
-0.187181
-0.169679
-0.250188
-0.219675
-0.137837
-0.076517
-0.038874
-0.010846
0.018840
0.022275
0.023318
0.030284
0.084348
0.026043
0.001131
-0.046508
-0.106514
-0.189432
-0.271196
-0.282760
-0.236424
-0.251850
-0.230660
-0.235366
-0.196625
-0.156300
-0.079518
-0.031442
0.041519
0.122557
0.124093
0.006378
0.018504
-0.019102
-0.021700
-0.108751
-0.150216
-0.153460
-0.227741
-0.257087
-0.226007
-0.206710
-0.176051
-0.166428
-0.154553
-0.099218
-0.040479
0.027431
0.073788
0.074443
0.044959
0.066264
0.057601
0.004047
-0.010366
-0.095269
-0.163892
-0.186681
-0.223181
-0.238206
-0.269554
-0.243956
-0.245559
-0.223011
-0.166084
-0.113619
-0.067549
0.019041
0.061739
0.061053
0.057330
0.051324
0.047385
0.093601
0.115733
0.093866
-0.002932
-0.185504
-0.158759
-0.119937
-0.104906
-0.142954
-0.136962
-0.001814
0.110257
0.174518
0.268606
0.311340
0.342762
0.417544
0.462743
0.444449
0.468207
0.458485
0.493148
0.470762
0.414241
0.410839
0.443850
0.420598
0.464397
0.534364
0.582862
0.610870
0.642523
0.732439
0.743965
0.781678
0.782692
0.753024
0.775003
0.761466
0.677461
0.587466
0.476299
0.344330
0.206948
0.102097
0.008648
-0.003822
0.020217
-0.014178
0.008701
0.027391
0.047754
0.074583
0.016884
0.062896
0.109984
0.187710
0.162047
0.117603
0.116773
0.159132
0.099074
0.070703
0.029431
-0.006982
-0.132839
-0.262150
-0.250234
-0.224360
-0.167130
-0.141620
-0.088663
-0.027537
0.032538
0.078258
0.070353
0.142545
0.186286
0.150506
0.175397
0.101557
0.023462
-0.024678
-0.041771
-0.110502
-0.133499
-0.162588
-0.188624
-0.227479
-0.158887
-0.101125
-0.102313
-0.044534
0.048075
0.057456
0.091947
0.114394
0.103872
0.071676
0.063386
0.041242
-0.012861
-0.063469
-0.091754
-0.149510
-0.199451
-0.223522
-0.209472
-0.181644
-0.123903
-0.122541
-0.012732
0.025813
0.055139
0.017208
0.085263
0.136080
0.143870
0.121855
0.115448
0.080532
0.036592
-0.015862
-0.083359
-0.152998
-0.138362
-0.186973
-0.207261
-0.155052
-0.151635
-0.064531
-0.020517
-0.034321
0.016810
0.066461
0.091583
0.153494
0.209232
0.264782
0.146178
-0.006828
-0.074663
-0.084221
-0.104240
-0.138169
-0.187757
-0.216413
-0.257939
-0.249611
-0.139996
-0.048150
0.034189
0.126349
0.218005
0.214108
0.168657
0.209222
0.213050
0.214441
0.194727
0.127485
0.060879
0.027720
-0.020701
-0.039183
-0.047256
-0.048064
-0.095385
-0.080015
-0.069065
0.048373
0.104940
0.030658
0.006347
0.117610
0.176987
0.217478
0.243953
0.222015
0.174547
0.167880
0.138279
0.072035
-0.046380
-0.064481
-0.079425
-0.035853
0.004623
-0.008553
0.052778
-0.017954
0.052819
0.118555
0.129287
0.256510
0.219548
0.209942
0.248121
0.200337
0.147177
0.179505
0.190730
0.120556
0.057933
0.061356
0.104871
-0.088739
-0.204578
-0.113827
-0.046659
0.009705
0.069024
0.093168
0.182085
0.243813
0.273934
0.261459
0.268624
0.258059
0.229805
0.180703
0.163659
0.115573
0.048908
0.016804
-0.069831
-0.040978
-0.037742
-0.006223
0.019252
-0.015387
-0.002438
0.023815
0.083917
0.180012
0.231004
0.219566
0.203033
0.202573
0.208401
0.165102
0.087301
0.002848
0.018765
0.006333
-0.057233
-0.114770
-0.135173
-0.117360
-0.052668
0.048634
0.079380
0.100182
0.093485
0.105372
0.143209
0.161586
0.221701
0.282560
0.213974
0.152859
0.164098
0.010503
-0.116770
-0.173611
-0.142561
-0.089285
-0.099366
-0.143433
-0.056590
-0.092423
-0.067646
-0.005888
0.040425
0.059597
0.058352
0.105844
0.094235
0.112294
0.149250
0.152393
0.114019
0.074299
0.188422
0.013766
-0.338172
-0.535273
-0.388744
-0.242288
-0.166546
-0.138869
-0.075848
-0.003294
0.046719
0.087818
0.088769
0.138868
0.181567
0.144401
0.084753
0.079914
0.032526
0.000980
-0.035746
-0.099415
-0.109736
-0.111403
-0.139040
-0.241403
-0.224987
-0.163979
-0.114754
-0.042877
0.047790
0.126937
0.137663
0.124844
0.099299
0.095366
0.163494
0.032400
-0.077220
-0.094792
-0.101872
-0.154200
-0.199415
-0.206698
-0.210203
-0.187510
-0.115783
-0.086416
-0.067066
-0.072825
0.031278
0.083025
0.080244
0.086083
0.114408
0.105299
0.141103
0.165427
-0.090489
-0.071127
-0.056365
-0.109022
-0.137428
-0.149369
-0.209470
-0.200735
-0.160477
-0.133887
-0.096630
-0.032135
-0.021563
0.058290
0.131205
0.144709
0.172939
0.168799
0.207715
0.125354
0.003701
-0.100225
-0.124969
-0.151338
-0.107354
-0.167628
-0.184641
-0.096631
-0.088736
-0.070895
0.019684
0.040398
-0.010666
0.115180
0.258483
0.231061
0.068940
0.050427
-0.047215
-0.099468
-0.017662
-0.027967
-0.101368
-0.153470
-0.141126
-0.170057
-0.190569
-0.217542
-0.146370
-0.147134
-0.062700
-0.016588
0.018946
0.057145
0.062215
0.081195
0.119530
0.126804
0.135728
0.134619
0.060705
-0.007852
-0.039651
-0.058563
-0.088772
-0.155886
-0.088724
-0.110853
-0.227275
-0.102431
-0.043114
-0.091689
-0.062963
0.021309
0.100644
0.104228
0.115754
0.128168
0.143438
0.067359
0.074027
-0.045723
-0.056801
-0.123457
-0.164189
-0.177111
-0.170482
-0.170050
-0.139197
-0.073291
-0.016943
0.017275
0.071773
0.019222
0.055883
0.095161
0.086562
0.095264
0.063925
0.040728
0.019055
-0.026124
-0.073496
-0.118278
-0.181147
-0.194598
-0.221547
-0.171730
-0.171418
-0.071679
-0.067743
-0.055455
-0.005334
0.072808
0.070705
0.104666
0.104661
0.131775
0.132258
0.063561
0.027049
-0.008973
-0.044018
-0.094012
-0.133021
-0.196626
-0.185868
-0.110726
-0.214922
-0.217167
-0.074299
-0.003705
0.094320
0.081204
0.008271
0.088517
0.147164
0.200529
0.031696
0.004163
-0.021988
-0.066625
-0.115970
-0.170932
-0.201132
-0.160841
-0.166591
-0.183062
-0.170590
-0.130681
-0.070550
-0.052164
0.000477
0.044576
0.135393
0.141202
0.152129
0.125442
0.102955
0.078908
0.013882
-0.010561
-0.032421
-0.076586
-0.223040
-0.328473
-0.216906
-0.167573
-0.147089
-0.126809
-0.085062
-0.051359
-0.026323
0.027886
0.058949
0.075786
0.087967
0.065336
0.105375
0.099660
-0.031043
-0.090609
-0.047176
-0.097677
-0.108617
-0.189840
-0.245376
-0.185572
-0.245430
-0.184683
-0.032291
0.029107
0.065606
0.061061
0.091167
0.047651
-0.004722
0.049592
0.077516
0.050350
0.018346
-0.013377
-0.043440
-0.144210
-0.161996
-0.204398
-0.195274
-0.175228
-0.185056
-0.156381
-0.096805
-0.063190
0.002978
0.043061
0.066493
0.073840
0.111272
0.106704
0.117369
0.084297
0.008811
-0.009796
-0.086561
-0.213148
-0.174230
-0.142352
-0.172863
-0.151066
-0.106247
-0.042968
-0.073164
-0.060484
0.004152
0.073050
0.137997
0.102805
0.043723
0.060498
0.041674
0.063567
0.061521
0.011646
-0.064015
-0.120514
-0.103538
-0.151564
-0.147402
-0.185990
-0.224892
-0.053661
0.000578
-0.010704
0.072955
0.092897
0.119454
0.192611
0.199379
0.155528
0.096473
0.084993
0.014402
-0.062860
-0.070612
-0.081617
-0.128462
-0.130831
-0.147372
-0.131322
-0.108995
-0.074822
-0.029899
-0.025792
0.039204
0.131962
0.170232
0.168050
0.172697
0.180141
0.171045
0.116748
0.081373
0.019086
-0.080933
-0.133989
-0.135146
-0.180105
-0.183743
-0.183642
-0.113668
-0.067022
-0.021389
-0.010734
0.026654
0.118634
0.096442
0.088548
0.138531
0.110137
0.053743
0.043460
0.021408
-0.089174
-0.109678
-0.119735
-0.162330
-0.197847
-0.188149
-0.154871
-0.151988
-0.112048
-0.099174
-0.051150
-0.008384
0.077674
0.062954
0.091517
0.080806
0.036485
0.030696
0.056417
-0.015643
-0.068745
-0.104573
-0.137217
-0.176872
-0.197599
-0.178107
-0.201491
-0.200719
-0.195110
-0.123919
-0.042712
0.018034
0.063700
0.108099
0.108322
0.093290
0.044825
0.015161
0.023762
-0.018785
-0.083380
-0.148578
-0.165652
-0.183779
-0.217016
-0.212585
-0.220079
-0.198422
-0.170474
-0.103804
-0.054241
-0.009649
0.076178
0.091209
0.073963
0.064486
0.044942
0.019769
-0.006384
-0.004178
-0.038260
-0.087035
-0.151799
-0.205217
-0.200801
-0.172394
-0.182798
-0.180913
-0.145659
-0.125867
-0.061744
0.002890
0.083891
0.110649
0.037463
0.037637
0.019543
0.044545
0.023216
-0.026828
-0.080254
-0.115227
-0.156248
-0.171741
-0.142661
-0.235092
-0.135648
-0.147090
-0.220150
-0.127837
-0.027049
0.042681
0.088166
0.125236
0.183731
0.201488
0.185376
0.168027
0.142172
0.124871
0.120653
0.080322
0.070481
0.008968
0.024501
0.065292
0.140042
0.207755
0.302264
0.463796
0.487065
0.578700
0.682805
0.666815
0.512209
0.598895
0.773011
0.783708
0.772177
0.774012
0.779998
0.685859
0.663932
0.660960
0.662772
0.577132
0.594989
0.604999
0.626960
0.618919
0.588423
0.542381
0.546765
0.492934
0.505664
0.488590
0.426112
0.260182
0.100114
0.068082
0.048849
-0.027621
-0.089973
-0.073558
-0.095356
-0.057077
-0.031022
-0.048730
-0.082638
-0.021509
0.043497
0.123281
0.155437
0.185695
0.198095
0.169331
0.168689
0.101953
0.029964
0.068230
0.007807
-0.056441
-0.124591
-0.136787
-0.162342
-0.173132
-0.160246
-0.112113
-0.087292
-0.055341
0.002741
0.066552
0.113421
0.129242
0.175844
0.197589
0.147311
0.160948
0.140126
0.069472
-0.097319
-0.107693
-0.106364
-0.157604
-0.151521
-0.202584
-0.182590
-0.123624
-0.113567
-0.084352
0.000171
0.033379
0.098875
0.168168
0.182615
0.214024
0.167356
0.096298
0.125198
0.046117
0.014556
-0.104290
-0.157351
-0.115619
-0.145897
-0.140078
-0.113061
-0.110163
-0.085121
-0.054732
-0.048109
0.056142
0.113284
0.191561
0.190963
0.167245
0.154339
0.169252
0.066782
-0.000246
0.083357
-0.068193
-0.110590
-0.120404
-0.231074
-0.187016
-0.163429
-0.140117
-0.100161
-0.086320
0.007136
0.055733
0.107253
0.186061
0.211633
0.176774
0.118364
0.116121
0.102938
0.043582
0.019478
0.028564
-0.017215
-0.097233
-0.106054
-0.064725
-0.064175
-0.075460
-0.040676
-0.000699
0.054516
0.115331
0.147080
0.158792
0.169879
0.172943
0.304694
0.384361
0.336240
0.229074
0.019830
-0.104121
-0.126152
-0.147683
-0.074038
-0.033547
-0.001256
0.023613
0.022910
0.073451
0.083667
0.092282
0.204424
0.230166
0.265913
0.339784
0.347150
0.299642
0.192817
0.135746
0.022217
0.014200
0.052722
0.020278
-0.022744
0.028178
-0.037254
-0.065270
-0.049271
-0.026320
0.129804
0.161148
0.260970
0.306993
0.237831
0.292671
0.284679
0.226328
0.184310
0.193832
0.096540
0.018154
0.057519
0.018538
0.035020
-0.004618
0.009867
0.072565
0.104120
0.031043
0.074323
0.161963
0.267894
0.252727
0.191483
0.243015
0.200040
0.221732
0.222925
0.182031
0.093485
0.077223
-0.017779
-0.012058
-0.082889
-0.101927
-0.044614
-0.018450
0.002953
0.039537
0.088923
0.124817
0.179015
0.203163
0.222979
0.248332
0.238976
0.245129
0.236033
0.166991
0.131669
0.060029
0.053954
0.072357
-0.068177
-0.126282
-0.314940
-0.229681
-0.101084
-0.027839
0.040058
0.077284
0.130550
0.160812
0.168153
0.183869
0.204524
0.176542
0.190172
0.132576
0.092168
-0.012892
-0.095563
-0.212644
-0.195743
-0.200499
-0.158664
-0.119452
-0.099874
-0.076466
-0.024088
0.058649
0.131864
0.143616
0.187655
0.167676
0.116351
0.057559
0.060529
0.038993
-0.001728
-0.062078
-0.100807
-0.072912
-0.048745
-0.116683
-0.195747
-0.179934
-0.098824
-0.137048
0.001794
0.004046
0.070966
0.152900
0.124837
0.147741
0.076883
0.103725
0.085350
0.076689
-0.011927
-0.153176
-0.195438
-0.164057
-0.141733
-0.142941
-0.095910
-0.073053
-0.073584
-0.097140
-0.040150
0.001128
0.074049
0.118521
0.139901
0.119003
0.125645
0.093101
0.072351
0.058153
0.061084
0.048292
-0.052474
-0.159036
-0.180391
-0.254533
-0.301065
-0.184597
-0.051304
0.031623
0.068481
0.013598
0.084958
0.110367
0.086873
0.091987
0.065041
0.081393
0.110454
0.123524
0.071234
0.007433
-0.122131
-0.206403
-0.224869
-0.210639
-0.150565
-0.071560
-0.078832
-0.070423
-0.091154
0.076976
0.035815
0.053579
0.076405
0.181767
0.151528
0.133467
0.144075
0.079668
-0.020824
-0.114847
-0.150175
-0.131805
-0.140126
-0.189243
-0.161169
-0.116418
-0.044485
0.008540
0.037245
-0.019522
0.019350
0.067335
0.136263
0.149229
0.144475
0.099592
0.109910
0.116088
0.128624
0.057038
-0.034487
-0.182552
-0.114286
-0.194144
-0.222900
-0.186502
-0.142452
-0.065435
-0.001008
0.047123
0.080949
0.101606
0.132033
0.156854
0.140804
0.109911
0.068290
0.017732
-0.017810
-0.059283
-0.126585
-0.162739
-0.161014
-0.161367
-0.142400
-0.114828
-0.076010
-0.049115
0.012430
0.079886
0.149236
0.206746
0.096402
0.112052
0.201568
0.109691
0.103664
-0.002586
-0.201561
-0.069738
-0.175444
-0.148912
-0.151522
-0.176804
-0.166595
-0.129808
-0.035370
0.027931
0.062334
0.096350
0.175083
0.094698
0.007929
0.031987
0.043314
0.096075
0.066374
0.031798
-0.011862
-0.054433
-0.101286
-0.103189
-0.121598
-0.080143
-0.013334
-0.022658
-0.003528
0.123011
0.077920
-0.044135
-0.115749
0.019591
-0.010374
0.010679
0.090007
0.024126
-0.025590
-0.009941
-0.045065
-0.098705
-0.141776
-0.156887
-0.141857
-0.179827
-0.163209
-0.096694
-0.032631
0.002309
-0.002027
-0.051916
0.056121
0.101811
0.147779
0.153992
0.088197
0.059566
0.005992
0.004795
-0.054069
-0.083298
-0.132032
-0.153731
-0.164566
-0.192987
-0.193704
-0.163261
-0.111999
-0.065969
-0.026872
0.037866
0.100481
0.164628
0.203276
0.228871
0.206598
0.263056
-0.086854
-0.079576
-0.037743
-0.084909
-0.161085
-0.191790
-0.141852
-0.168838
-0.207391
-0.185181
-0.126730
-0.055175
-0.024900
0.001150
0.063089
0.096549
0.099659
0.130486
0.126353
0.089192
0.065181
0.022066
-0.042239
-0.091947
-0.136698
-0.166929
-0.166595
-0.105986
-0.059227
0.045056
-0.011457
-0.069954
0.081440
-0.119450
-0.074725
-0.002966
0.114397
0.119379
0.046839
-0.017220
0.013299
0.000618
-0.052284
-0.108160
-0.153144
-0.162403
-0.161133
-0.184199
-0.196319
-0.160779
-0.122749
-0.055071
-0.006692
0.053475
0.013975
0.058410
0.159808
0.185085
0.139735
0.114458
0.100876
0.048716
-0.001351
-0.020187
-0.029935
-0.104870
-0.078472
-0.177646
-0.215966
-0.161594
-0.139769
0.026294
0.054180
0.129787
0.177432
0.057851
0.100980
0.138174
0.150011
0.201493
0.136240
-0.044570
-0.088957
-0.059624
-0.049237
-0.090388
-0.113504
-0.113567
-0.073114
0.056484
0.098813
0.195254
0.241263
-0.012737
-0.122562
0.027462
0.042997
0.049101
0.122150
0.097318
0.072547
0.047845
0.002544
-0.033395
-0.072376
-0.095015
-0.106675
-0.150178
-0.124999
-0.060961
-0.033778
0.066636
0.108980
0.011999
0.032429
0.065500
0.066580
0.085122
0.115454
0.099128
0.077714
0.048443
0.042859
0.040972
0.033905
0.063851
-0.043887
-0.135228
-0.421387
-0.368421
-0.151059
-0.143863
-0.073995
-0.005796
0.020791
0.094041
0.126385
0.125233
0.098367
0.068881
0.020093
-0.014207
-0.047314
-0.058865
-0.111554
-0.139524
-0.086147
-0.130923
-0.133751
-0.159453
-0.115954
-0.047126
-0.123914
-0.111474
-0.020932
0.007724
0.074683
0.089416
0.063101
0.015801
0.037235
0.027514
-0.038688
-0.133205
-0.148940
-0.146265
-0.161183
-0.189508
-0.204725
-0.184190
-0.143914
-0.096191
-0.066343
-0.013347
0.045806
0.081268
0.090502
0.087142
0.083904
0.112840
0.104143
0.070461
-0.034876
-0.132310
-0.219826
-0.190937
-0.190228
-0.184705
-0.161411
-0.194855
-0.242231
-0.120371
-0.065395
0.033766
0.065376
0.111615
0.134566
0.045108
0.051863
0.084985
0.050056
0.004629
-0.049349
-0.119241
-0.187245
-0.188504
-0.218627
-0.214870
-0.183774
-0.173068
-0.148214
-0.124819
-0.035495
-0.013172
0.046557
0.080407
0.127761
0.103470
0.123031
0.119584
0.074685
0.031570
-0.024633
-0.007313
-0.055728
-0.048073
-0.018257
-0.014464
-0.001047
0.010801
0.072311
0.152381
0.239423
0.321424
0.398039
0.454093
0.502618
0.539818
0.543719
0.567989
0.556127
0.562225
0.549210
0.546164
0.534690
0.569608
0.609420
0.619580
0.624889
0.677805
0.689766
0.649378
0.724164
0.788857
0.824944
0.820929
0.818772
0.753537
0.673807
0.529189
0.451577
0.375551
0.292554
0.153725
0.055272
-0.049534
-0.059974
-0.034877
-0.008397
-0.011765
0.030953
0.070443
0.082532
0.112797
0.176766
0.169015
0.177900
0.181116
0.149899
0.161012
0.140923
0.091395
0.057144
0.000327
-0.052064
-0.126254
-0.153193
-0.163337
-0.156413
-0.137155
-0.088727
-0.026858
-0.009724
0.047329
0.098798
0.178314
0.193637
0.175205
0.133972
0.141067
0.020583
0.001478
-0.022076
-0.093319
-0.119625
-0.152804
-0.151113
-0.163412
-0.156126
-0.129359
-0.108798
-0.056606
-0.007965
0.040755
0.075840
0.113890
0.117573
0.139445
0.138968
0.107116
0.070224
-0.017588
-0.080076
-0.066715
-0.100684
-0.149972
-0.165571
-0.163376
-0.175752
-0.156426
-0.118734
-0.063450
-0.000202
0.059811
0.080666
0.125631
0.151098
0.181166
0.167466
0.158705
0.088412
0.033579
0.010333
-0.030442
-0.042206
-0.043060
-0.081150
-0.186921
-0.204671
-0.108977
-0.100745
-0.040593
0.015811
0.061635
0.123669
0.181079
0.204607
0.190144
0.168862
0.106855
0.093623
0.084587
0.051069
0.002575
-0.024501
-0.039714
-0.030268
-0.176775
-0.174129
-0.112644
-0.060579
0.002448
0.057752
0.065075
0.113305
0.148229
0.200682
0.202839
0.199453
0.160845
0.168484
0.123230
0.065138
0.019642
0.011229
0.012186
-0.030135
-0.110222
-0.129414
-0.064414
-0.017869
0.020803
0.048601
0.092967
0.187362
0.222916
0.196981
0.246111
0.272211
0.252729
0.216629
0.195847
0.160583
0.126225
0.006491
-0.122158
-0.054385
-0.034323
-0.018529
-0.059955
-0.030720
0.038860
0.115167
0.167062
0.206480
0.254125
0.289919
0.271073
0.245886
0.216132
0.223748
0.187816
0.139286
0.078614
0.029533
0.010048
-0.020503
-0.023164
-0.019755
-0.004098
0.041587
0.091514
0.127890
0.180699
0.225924
0.264428
0.268445
0.263014
0.237876
0.230859
0.193314
0.161044
0.124165
0.073963
0.024803
-0.012460
-0.050829
-0.083845
-0.104287
-0.100258
0.001643
0.106463
0.182030
0.224131
0.189805
0.194861
0.238731
0.250272
0.267151
0.235029
0.178239
0.112913
0.065342
0.016125
-0.034769
-0.117623
-0.084769
-0.087292
-0.072132
-0.067120
-0.045332
-0.021178
0.007885
0.092324
0.136323
0.175781
0.164523
0.169169
0.147222
0.162582
0.134399
0.120365
0.050343
-0.020126
-0.082930
-0.107655
-0.089624
-0.096544
-0.110044
-0.112096
-0.087181
-0.034615
0.005377
0.057439
0.090138
0.151485
0.201392
0.192624
0.197201
0.187384
0.173766
0.133415
-0.023401
-0.143904
-0.133598
-0.161251
-0.148552
-0.138747
-0.116925
-0.092679
-0.092341
-0.046093
-0.022961
0.075753
0.128210
0.139214
0.146580
0.167945
0.160826
0.124549
0.091630
0.043356
-0.004231
-0.057080
-0.107634
-0.152937
-0.195171
-0.173513
-0.176157
-0.139511
-0.105963
-0.046510
0.006041
0.045892
0.080630
0.116008
0.133195
0.137619
0.129815
0.090876
0.066754
0.050376
0.003051
-0.031789
-0.067038
-0.106900
-0.141894
-0.158972
-0.149076
-0.122332
-0.085461
-0.044245
0.002651
0.071403
0.126213
0.128330
0.138665
0.165747
0.170421
0.132395
0.064187
0.033344
0.014378
-0.039669
-0.096994
-0.135632
-0.154227
-0.154371
-0.139320
-0.109510
-0.085853
-0.066567
0.001522
0.065981
0.105638
0.163017
0.201399
0.199757
0.188926
0.169260
0.115377
0.050482
0.013138
-0.018094
-0.066432
-0.104639
-0.134114
-0.129642
-0.143996
-0.102978
-0.076980
-0.051854
0.019188
0.085561
0.111438
0.138836
0.139237
0.146697
0.198423
0.118798
0.083555
0.125763
0.076102
0.011562
-0.053698
-0.115439
-0.136084
-0.135021
-0.110770
-0.140752
-0.094716
-0.051131
0.064666
0.086621
0.119346
0.149501
0.194855
0.201553
0.204069
0.173488
0.136191
0.091185
0.046871
-0.051267
-0.145355
-0.127418
-0.146638
-0.180765
-0.139559
-0.133219
-0.101488
-0.058970
-0.006681
0.046483
0.094590
0.142070
0.173784
0.155834
0.139964
0.125504
0.117702
0.120178
0.063981
-0.005116
-0.047808
-0.088247
-0.140589
-0.147842
-0.118613
-0.089455
-0.059451
-0.013163
0.024537
0.067784
0.123487
0.148641
0.177895
0.188355
0.169189
0.147160
0.105414
0.070349
0.033577
-0.024083
-0.079180
-0.143334
-0.169477
-0.150840
-0.126044
-0.107423
-0.078737
-0.016702
0.036796
0.081511
0.119419
0.144138
0.163489
0.166912
0.166647
0.115066
0.099959
0.058607
0.019600
-0.022526
-0.075643
-0.119373
-0.151531
-0.156114
-0.135904
-0.130508
-0.076631
0.009083
0.029995
0.009674
0.067663
0.101287
0.130717
0.144117
0.187568
0.140739
0.091036
0.042058
0.003208
-0.066150
-0.141841
-0.155259
-0.168682
-0.167620
-0.155295
-0.121661
-0.073525
-0.002948
0.020224
0.090393
0.096413
0.142177
0.171782
0.156644
0.149329
0.114506
0.094294
0.052719
0.003036
-0.050741
-0.100152
-0.136263
-0.141931
-0.136786
-0.150578
-0.136063
-0.106023
-0.042009
0.020038
0.075218
0.101351
0.121306
0.111616
0.132564
0.147997
0.134501
0.107940
0.046450
0.000900
-0.058850
-0.111365
-0.107887
-0.137213
-0.144624
-0.129694
-0.097627
-0.102769
-0.067096
-0.017113
0.071441
0.093938
0.111611
0.124349
0.124897
0.120212
0.092180
0.072433
0.032091
-0.024140
-0.064919
-0.087810
-0.131716
-0.153581
-0.146158
-0.124070
-0.108947
-0.073195
-0.002551
0.046871
0.106253
0.126729
0.145289
0.184761
0.182154
0.138549
0.133147
0.113123
0.048117
0.036468
-0.004378
-0.045878
-0.076510
-0.080635
-0.118390
-0.120110
-0.075106
-0.030966
0.016846
0.037816
0.078002
0.126361
0.168705
0.196289
0.197478
0.180987
0.152093
0.118206
0.080805
0.036083
-0.000230
-0.031054
-0.068701
-0.093389
-0.091462
-0.073643
-0.062450
-0.012648
0.026863
0.074972
0.113734
0.143368
0.166619
0.187589
0.193652
0.210011
0.166118
0.129651
0.077238
0.069463
0.002614
-0.052674
-0.090465
-0.119619
-0.101524
-0.100259
-0.077678
-0.049877
-0.019185
0.033416
0.081468
0.121101
0.150716
0.164203
0.149829
0.128158
0.114281
0.090788
0.043837
-0.010367
-0.052490
-0.102686
-0.143872
-0.156524
-0.159878
-0.144114
-0.115906
-0.089871
-0.042388
0.033900
0.078644
0.098230
0.128107
0.163168
0.144023
0.133696
0.143630
0.111082
0.061019
0.008891
-0.021711
-0.037632
-0.073613
-0.150745
-0.178130
-0.162535
-0.150153
-0.156363
-0.073894
-0.010167
-0.018667
0.056857
0.116626
0.138815
0.148754
0.146911
0.123230
0.087084
0.052925
0.004137
-0.049757
-0.081451
-0.123658
-0.155276
-0.162363
-0.156075
-0.132887
-0.083006
-0.027818
0.018688
0.041160
0.081825
0.129888
0.150448
0.148679
0.145832
0.126680
0.095854
0.054679
0.004875
-0.054219
-0.116492
-0.140799
-0.184697
-0.190083
-0.173072
-0.152299
-0.112039
-0.044884
0.013031
0.078333
0.086937
0.089008
0.089059
0.111293
0.118950
0.112286
0.058728
0.016842
-0.026681
-0.096088
-0.151651
-0.178405
-0.172581
-0.146288
-0.133318
-0.112999
-0.041384
0.021565
0.082492
0.135562
0.191007
0.220329
0.221718
0.240556
0.261929
0.276985
0.262744
0.242730
0.201230
0.174461
0.167186
0.157541
0.158611
0.164449
0.208652
0.272999
0.341316
0.407358
0.465138
0.556837
0.609250
0.672115
0.731552
0.776232
0.816039
0.838851
0.848638
0.829286
0.797253
0.731714
0.670164
0.637703
0.601055
0.592173
0.547268
0.515021
0.518101
0.528564
0.531420
0.551360
0.548419
0.520512
0.502802
0.446413
0.382278
0.325492
0.310895
0.229180
0.165470
0.117951
0.077683
0.047584
0.002057
-0.017733
-0.014794
0.012723
0.047960
0.083720
0.122642
0.148560
0.184777
0.190307
0.174088
0.221086
0.247317
0.209406
0.157979
0.101321
0.018719
-0.047449
-0.072094
-0.093022
-0.096332
-0.100652
-0.121284
-0.104737
-0.040397
0.033581
0.093818
0.135229
0.170807
0.174311
0.188238
0.210842
0.210347
0.184482
0.152042
0.076112
0.041352
-0.002114
-0.040079
-0.060577
-0.102071
-0.115606
-0.088961
-0.042675
-0.025696
0.018360
0.073326
0.115854
0.124916
0.183144
0.228545
0.260470
0.248455
0.214932
0.190843
0.127243
0.058890
-0.019168
-0.068094
-0.101745
-0.116097
-0.110634
-0.109200
-0.107294
-0.052474
0.019377
0.070679
0.088718
0.133162
0.147428
0.131905
0.101153
0.095647
0.098167
0.084325
0.045488
0.017582
-0.020545
-0.052131
-0.064398
-0.061407
-0.017310
0.018200
0.054868
0.048980
0.049566
0.109412
0.167893
0.184968
0.231477
0.252401
0.250963
0.271250
0.254644
0.196921
0.146616
0.104826
0.061582
0.054871
0.045740
0.032613
0.050042
0.047865
0.056328
0.096724
0.134130
0.183580
0.227430
0.270193
0.303410
0.318004
0.323821
0.316927
0.306169
0.278059
0.213117
0.157659
0.106929
0.083220
0.050758
0.018687
0.008288
0.013954
0.036893
0.079489
0.130279
0.193746
0.228121
0.243838
0.286096
0.303556
0.311733
0.298551
0.288789
0.267099
0.238780
0.217735
0.195630
0.157905
0.073377
0.044565
0.056231
0.028650
0.010165
0.051059
0.107615
0.182470
0.230478
0.245210
0.262273
0.288833
0.362736
0.368434
0.389959
0.362095
0.285579
0.214908
0.128718
0.078874
0.046436
0.002210
-0.036355
-0.040373
0.005491
0.080116
0.112271
0.178703
0.268227
0.325024
0.379179
0.438912
0.428051
0.389960
0.379211
0.322936
0.262743
0.250005
0.208852
0.169359
0.122189
0.099099
0.094513
0.089037
0.093692
0.116831
0.170258
0.213575
0.262315
0.273993
0.282497
0.301353
0.324632
0.320205
0.320720
0.287271
0.253786
0.191841
0.109408
0.078095
0.049793
0.017992
0.001139
-0.019247
-0.013504
0.003822
0.048918
0.080364
0.107083
0.139555
0.197461
0.234363
0.251868
0.244592
0.223425
0.190887
0.162915
0.093510
0.038730
0.033670
-0.021899
-0.084857
-0.120923
-0.105517
-0.073818
-0.018601
0.039281
0.088038
0.126824
0.169648
0.221318
0.264770
0.251798
0.258780
0.280626
0.277015
0.197115
0.100908
0.054686
0.021927
-0.027023
-0.077706
-0.083757
-0.072466
-0.063068
-0.029688
0.034855
0.101407
0.186260
0.272120
0.299089
0.281958
0.250993
0.234704
0.201113
0.137187
0.078300
0.019774
-0.012493
-0.068047
-0.095447
-0.091285
-0.049577
-0.031777
0.010112
0.056697
0.084421
0.126665
0.155030
0.204990
0.227575
0.242271
0.239619
0.223480
0.189956
0.138726
0.108439
0.095262
0.050919
0.005545
-0.053621
-0.093275
-0.112989
-0.108987
-0.066501
-0.018083
0.033003
0.082982
0.150435
0.221781
0.247297
0.265756
0.238427
0.237094
0.231589
0.165398
0.076795
0.033522
-0.012417
-0.037028
-0.033071
-0.008160
-0.028755
-0.014006
-0.006106
0.031866
0.097602
0.174948
0.197932
0.211842
0.249704
0.267110
0.266736
0.272034
0.249411
0.215969
0.170216
0.119157
0.073444
0.028296
-0.006928
-0.037461
-0.051501
-0.040264
-0.025241
0.006437
0.075396
0.113262
0.174624
0.205954
0.208216
0.228067
0.245021
0.230467
0.165287
0.131231
0.091944
0.042367
-0.043994
-0.112063
-0.164455
-0.166054
-0.146289
-0.106497
-0.075296
-0.040106
0.053196
0.167430
0.324456
0.394296
0.345805
0.304656
0.254505
0.218944
0.180155
0.170990
0.168360
0.141791
0.090107
0.021147
-0.027941
-0.041696
-0.019428
0.012601
0.037953
0.059741
0.072361
0.103077
0.146496
0.218659
0.241304
0.259439
0.271612
0.251220
0.231623
0.191920
0.146650
0.103943
0.078240
0.035916
-0.005422
-0.027880
-0.031720
-0.042663
-0.009906
0.005338
0.041053
0.088014
0.115048
0.167035
0.208501
0.215264
0.214451
0.190371
0.171184
0.148623
0.137725
0.106376
0.067151
0.017158
-0.023946
-0.049339
-0.027016
-0.025404
-0.021942
-0.030433
0.028408
0.072643
0.092814
0.117869
0.151627
0.188368
0.191672
0.211415
0.231819
0.204277
0.172059
0.083502
0.032319
0.019682
0.019293
-0.022721
-0.051327
-0.030792
0.002058
0.019119
0.047833
0.107403
0.153215
0.184507
0.254409
0.273985
0.264256
0.257586
0.232511
0.179601
0.142009
0.091912
0.028314
-0.039104
-0.062081
-0.076377
-0.087864
-0.092409
-0.094608
-0.053912
-0.004036
0.042762
0.085857
0.116192
0.162512
0.211253
0.254479
0.255373
0.247483
0.216527
0.173042
0.109704
0.068747
0.080150
0.057719
0.026910
0.013408
0.007415
0.011105
0.057902
0.077635
0.128078
0.172640
0.223469
0.245146
0.271559
0.286603
0.277647
0.256813
0.249495
0.197488
0.164223
0.118314
0.068313
0.021491
0.007903
0.002336
-0.004908
0.031851
0.061668
0.100503
0.166807
0.219735
0.257606
0.287186
0.308071
0.305765
0.300213
0.260535
0.227261
0.158815
0.113761
0.054962
0.044640
-0.007613
-0.042329
-0.057752
-0.034159
-0.027132
-0.015009
0.009711
0.067579
0.141467
0.205043
0.232270
0.226949
0.214293
0.200448
0.177066
0.159645
0.103943
0.032370
-0.004074
-0.003538
-0.012043
-0.031625
-0.025449
0.002957
0.026707
0.089314
0.118701
0.160891
0.179882
0.213589
0.231685
0.242250
0.234624
0.204550
0.195565
0.175555
0.120165
0.078552
0.019499
-0.017826
-0.025161
-0.034074
-0.032406
-0.042688
-0.018542
-0.004207
0.036795
0.100602
0.166119
0.186261
0.199596
0.221306
0.245660
0.222404
0.185922
0.139460
0.078857
0.049408
0.011412
-0.035567
-0.063964
-0.092284
-0.115215
-0.107541
-0.061667
-0.025066
-0.004707
0.048479
0.092737
0.131468
0.176792
0.208756
0.225558
0.181659
0.136778
0.082821
0.038549
-0.042979
-0.083228
-0.097193
-0.084456
-0.096792
-0.109608
-0.100034
-0.071141
-0.022283
0.039558
0.083929
0.115143
0.132567
0.139661
0.150645
0.161287
0.159242
0.135536
0.121951
0.078324
0.021732
-0.037769
-0.050780
-0.079132
-0.120249
-0.143013
-0.118478
-0.094245
-0.056748
0.026137
0.096664
0.144807
0.190998
0.220506
0.265618
0.263855
0.259405
0.284355
0.268746
0.236905
0.201183
0.146816
0.115181
0.101819
0.095941
0.105460
0.150978
0.193742
0.235755
0.269849
0.338764
0.404371
0.466512
0.548397
0.614483
0.655481
0.681505
0.703580
0.723676
0.727320
0.693618
0.703359
0.675965
0.630253
0.644815
0.660088
0.660048
0.692731
0.733562
0.755037
0.786810
0.802220
0.790063
0.754653
0.680250
0.625511
0.564061
0.533746
0.470181
0.388552
0.305611
0.207882
0.119345
0.035546
0.021888
0.011866
-0.005120
0.004718
0.030018
0.069491
0.104496
0.167646
0.210884
0.285612
0.293890
0.293672
0.279902
0.249924
0.220277
0.191585
0.151151
0.093759
0.030021
-0.002224
-0.006874
-0.005700
0.010934
0.019678
0.022296
0.045593
0.082594
0.122729
0.177258
0.207894
0.219238
0.234588
0.228441
0.186009
0.164674
0.139037
0.089826
0.046140
-0.013352
-0.043914
-0.057685
-0.063838
-0.061117
-0.055254
-0.017202
0.023113
0.069334
0.129469
0.203361
0.239447
0.242063
0.243742
0.243107
0.214329
0.180286
0.125727
0.055484
0.027533
0.013023
-0.036162
-0.055388
-0.079977
-0.051956
-0.012227
0.029707
0.081204
0.119281
0.156132
0.203677
0.235751
0.257996
0.274997
0.247888
0.231236
0.183822
0.135029
0.092488
0.039073
0.010600
0.007750
-0.023767
-0.024598
0.003894
0.013982
0.029501
0.079376
0.125160
0.202666
0.250817
0.262133
0.275975
0.293595
0.289323
0.279554
0.244268
0.198377
0.154595
0.082207
0.037311
-0.002042
-0.010808
-0.012384
-0.016993
-0.011334
0.014287
0.048006
0.090587
0.166676
0.238244
0.296804
0.332515
0.368900
0.315412
0.268641
0.233468
0.189821
0.142286
0.113275
0.114030
0.103675
0.101220
0.058222
0.084815
0.126636
0.143511
0.169768
0.213609
0.266752
0.303926
0.328078
0.348282
0.353265
0.349225
0.308924
0.263502
0.203545
0.149115
0.106735
0.108510
0.091016
0.067380
0.054976
0.084578
0.115532
0.133461
0.177402
0.215623
0.267474
0.307295
0.342226
0.346667
0.368162
0.377964
0.379058
0.358391
0.310025
0.230372
0.159559
0.106932
0.094522
0.097125
0.086658
0.082758
0.092762
0.131630
0.191634
0.282274
0.311599
0.302753
0.311918
0.341709
0.338882
0.320972
0.299332
0.275183
0.246243
0.216535
0.181832
0.149694
0.096467
0.053573
0.044680
0.043236
0.094245
0.124566
0.180506
0.221496
0.261310
0.287905
0.336113
0.360420
0.351507
0.300617
0.262472
0.242323
0.209217
0.146020
0.062026
0.007961
-0.014354
-0.026170
0.002314
0.003280
0.033830
0.085717
0.110951
0.171894
0.228071
0.244149
0.248077
0.252482
0.258002
0.250667
0.229249
0.208556
0.127239
0.059916
0.037944
0.006017
-0.043112
-0.037060
-0.053147
-0.027599
0.013456
0.078870
0.100387
0.145387
0.170432
0.236081
0.251713
0.265847
0.272521
0.241336
0.245239
0.203903
0.138435
0.071500
0.032624
-0.004020
-0.021338
-0.024904
-0.038324
-0.018536
-0.001144
-0.001802
0.032127
0.082466
0.115738
0.135098
0.164206
0.206808
0.193026
0.176006
0.139891
0.144623
0.129865
0.081354
0.047071
0.018855
-0.033124
-0.060666
-0.067774
-0.067240
-0.047698
-0.031707
0.019998
0.068107
0.122336
0.165168
0.196370
0.208212
0.227738
0.221882
0.181797
0.147184
0.101056
0.059383
0.022349
-0.039186
-0.101215
-0.094069
-0.086558
-0.080880
-0.038945
-0.004240
0.032982
0.143862
0.209965
0.245432
0.245046
0.245785
0.250942
0.236629
0.217427
0.185331
0.141692
0.067296
0.023257
-0.025738
-0.057563
-0.067460
-0.086802
-0.089832
-0.074709
-0.014309
0.007607
0.067197
0.131066
0.172965
0.204859
0.221036
0.296474
0.299648
0.266802
0.196491
0.137049
0.070616
0.030992
0.002526
-0.027872
-0.039265
-0.068238
-0.064997
-0.023160
0.000630
0.035583
0.094644
0.145539
0.166535
0.186227
0.174222
0.201845
0.206418
0.182775
0.115286
0.085886
0.001044
-0.042134
-0.014926
0.013164
0.024778
-0.024639
-0.068944
-0.056385
-0.044598
-0.001408
0.068788
0.131116
0.209998
0.233432
0.254934
0.267614
0.258217
0.240744
0.224802
0.162028
0.094148
0.050904
0.016619
-0.029323
-0.067748
-0.087721
-0.083732
-0.061425
-0.014209
0.010915
0.057319
0.103872
0.155777
0.185541
0.205764
0.219702
0.225277
0.186030
0.135376
0.117576
0.079654
0.034637
0.006686
-0.024435
-0.046450
-0.036708
-0.045376
-0.011661
0.017335
0.044565
0.087806
0.129375
0.174096
0.176155
0.181763
0.187767
0.187257
0.163384
0.140525
0.114826
0.073501
0.027800
-0.025353
-0.067568
-0.084353
-0.095290
-0.068622
-0.083777
-0.076713
-0.023942
0.016556
0.113547
0.154206
0.156280
0.176360
0.186062
0.172380
0.148835
0.144120
0.123547
0.110669
0.069991
0.004766
-0.044755
-0.067854
-0.070956
-0.078645
-0.071965
-0.056324
-0.019980
0.036397
0.086313
0.103104
0.151381
0.195082
0.210088
0.215307
0.182340
0.151141
0.119584
0.081017
0.047263
0.004131
-0.051133
-0.056896
-0.057649
-0.032469
0.015937
0.030947
0.057869
0.113579
0.152184
0.180789
0.210780
0.219446
0.231356
0.208147
0.201413
0.174590
0.115848
0.064957
0.028876
-0.025415
-0.055157
-0.059921
-0.075186
-0.082627
-0.036865
-0.003052
0.061404
0.114985
0.138126
0.172311
0.212553
0.194862
0.186573
0.185744
0.149413
0.118446
0.100238
0.080778
0.047045
0.002615
-0.037787
-0.071464
-0.091415
-0.065531
-0.014796
0.050385
0.087933
0.103690
0.160032
0.214282
0.247902
0.260340
0.245568
0.224416
0.218895
0.177675
0.116097
0.039054
0.005433
-0.007555
-0.039438
-0.078450
-0.084191
-0.070328
-0.024771
-0.003405
0.026619
0.078868
0.127024
0.166615
0.198359
0.220278
0.212117
0.203265
0.178591
0.145897
0.100140
0.044343
-0.008715
-0.070014
-0.106748
-0.133703
-0.143201
-0.139724
-0.117199
-0.071934
-0.047399
-0.001651
0.066120
0.132655
0.152082
0.178512
0.162592
0.154869
0.144130
0.094730
0.032915
-0.027810
-0.071103
-0.102260
-0.131739
-0.165320
-0.176915
-0.147468
-0.136493
-0.104609
-0.037451
0.018068
0.062204
0.108280
0.131904
0.148864
0.147939
0.137738
0.120508
0.099041
0.031482
-0.034530
-0.069580
-0.098263
-0.134933
-0.163817
-0.160918
-0.139424
-0.139202
-0.105569
-0.073834
-0.019916
0.039003
0.100527
0.122194
0.129007
0.129337
0.131324
0.119209
0.089467
0.050176
-0.000277
-0.057090
-0.114345
-0.160704
-0.178406
-0.172774
-0.149664
-0.097039
-0.049069
-0.013409
0.020211
0.073391
0.124947
0.153628
0.150271
0.162758
0.154682
0.126354
0.087702
0.050871
-0.000717
-0.044108
-0.084547
-0.108141
-0.109730
-0.103973
-0.089206
-0.051492
-0.001286
0.052010
0.131490
0.192379
0.231985
0.260753
0.299131
0.333672
0.349622
0.349366
0.328381
0.302645
0.287597
0.262033
0.254864
0.279795
0.287851
0.312940
0.350863
0.401417
0.461300
0.543047
0.648600
0.708148
0.783735
0.846261
0.890835
0.906196
0.903841
0.885288
0.862794
0.814809
0.730582
0.692393
0.621448
0.540911
0.472559
0.408581
0.346382
0.300786
0.274824
0.264398
0.246399
0.258649
0.267773
0.269972
0.250371
0.231335
0.230973
0.229448
0.186618
0.136875
0.069794
0.012916
-0.020409
-0.078687
-0.088039
-0.102650
-0.086308
-0.056930
-0.007452
0.042374
0.092762
0.128196
0.163683
0.175508
0.213469
0.219840
0.210584
0.183952
0.132405
0.096399
0.039423
0.007053
-0.041717
-0.077808
-0.096797
-0.106524
-0.102920
-0.088598
-0.057402
-0.019226
0.041906
0.094262
0.119449
0.148818
0.165374
0.167457
0.160239
0.144270
0.103998
0.066993
0.003997
-0.043087
-0.070365
-0.101232
-0.113890
-0.127172
-0.124839
-0.111811
-0.058023
-0.021051
0.024094
0.080100
0.131855
0.143577
0.146492
0.137116
0.154343
0.158575
0.126077
0.081337
0.028637
-0.013232
-0.072228
-0.109032
-0.129563
-0.117412
-0.101728
-0.066416
-0.031839
-0.003639
0.030856
0.089620
0.119604
0.163835
0.191168
0.209443
0.192400
0.171089
0.134539
0.093310
0.056815
0.012493
-0.044355
-0.084069
-0.115219
-0.118633
-0.089150
-0.064975
-0.031925
0.014787
0.078013
0.122359
0.168637
0.186691
0.210128
0.225399
0.202158
0.179084
0.143088
0.112243
0.068222
0.041734
-0.004083
-0.041686
-0.080917
-0.082249
-0.068490
-0.051873
-0.002127
0.039573
0.091199
0.141625
0.172408
0.207582
0.230235
0.249227
0.239492
0.207871
0.163823
0.112639
0.076454
0.051661
0.002482
-0.036394
-0.040618
-0.032573
-0.031243
-0.001044
0.046505
0.088924
0.123224
0.167189
0.205827
0.239444
0.257322
0.247893
0.242119
0.220977
0.183833
0.147990
0.103182
0.059286
0.023560
-0.011465
-0.020453
-0.031536
-0.005910
0.026579
0.053069
0.076697
0.123836
0.162683
0.204460
0.253698
0.273639
0.269923
0.259882
0.256233
0.211960
0.179886
0.127320
0.081278
0.036236
-0.002247
-0.000051
0.000294
-0.007198
0.005933
0.032146
0.066545
0.118137
0.156744
0.190067
0.217887
0.240808
0.240166
0.237487
0.211565
0.189269
0.137433
0.077371
0.029983
-0.002489
-0.039487
-0.055428
-0.070336
-0.063664
-0.046267
-0.016818
0.019272
0.076675
0.126174
0.153833
0.185441
0.200466
0.207512
0.196757
0.161065
0.134279
0.085557
0.040250
0.005013
-0.033241
-0.083286
-0.126559
-0.130726
-0.128794
-0.090367
-0.052270
-0.024025
0.034326
0.072213
0.102729
0.137183
0.151949
0.161827
0.144853
0.134861
0.096775
0.057792
-0.011542
-0.065877
-0.100213
-0.112999
-0.143335
-0.154415
-0.144654
-0.118170
-0.069669
-0.044890
-0.003134
0.037557
0.082133
0.118299
0.139040
0.143606
0.127132
0.089278
0.071607
0.033830
-0.006318
-0.063560
-0.101726
-0.136317
-0.144287
-0.149312
-0.148818
-0.123962
-0.095629
-0.062800
-0.000434
0.052209
0.073966
0.102368
0.115597
0.129855
0.119059
0.094782
0.055458
0.015693
-0.035951
-0.071641
-0.120418
-0.157392
-0.177279
-0.162571
-0.166942
-0.153064
-0.107527
-0.076027
-0.020656
0.016194
0.074967
0.121352
0.136587
0.135532
0.103854
0.089693
0.070555
0.019345
-0.052451
-0.090595
-0.124567
-0.157018
-0.174203
-0.179096
-0.167840
-0.142166
-0.115834
-0.069194
-0.014878
0.034225
0.076671
0.107643
0.135936
0.141863
0.130746
0.088710
0.047288
0.016666
-0.033426
-0.087973
-0.133088
-0.171755
-0.193477
-0.189000
-0.175051
-0.139818
-0.103024
-0.061477
-0.004798
0.049577
0.107538
0.137166
0.158702
0.159664
0.154429
0.125226
0.096774
0.043036
-0.014512
-0.059164
-0.092890
-0.122026
-0.145824
-0.166147
-0.157868
-0.138064
-0.093933
-0.062916
-0.003523
0.055229
0.092773
0.122685
0.133780
0.140881
0.140305
0.102411
0.057306
-0.000983
-0.033019
-0.068154
-0.115907
-0.149740
-0.167528
-0.180953
-0.165543
-0.136553
-0.105473
-0.067344
-0.022448
0.040658
0.089644
0.118911
0.126330
0.115538
0.129295
0.094860
0.072843
0.020280
-0.034967
-0.070409
-0.132241
-0.156512
-0.192703
-0.197415
-0.195489
-0.160215
-0.114917
-0.069684
-0.020789
0.036037
0.065073
0.110348
0.132685
0.123209
0.110928
0.092345
0.048776
0.009590
-0.039892
-0.072208
-0.119851
-0.159324
-0.180043
-0.188463
-0.175070
-0.153229
-0.124031
-0.094044
-0.044304
0.019631
0.051814
0.095551
0.122751
0.115723
0.100081
0.076142
0.048994
0.009962
-0.044031
-0.091981
-0.139079
-0.182602
-0.184786
-0.185351
-0.186028
-0.165683
-0.132282
-0.077110
-0.010293
0.026238
0.046420
0.068035
0.088412
0.103505
0.116961
0.097704
0.052925
0.007164
-0.032885
-0.078337
-0.120559
-0.147549
-0.166034
-0.178000
-0.157397
-0.138922
-0.096141
-0.049663
-0.004293
0.042176
0.076720
0.115507
0.130040
0.129504
0.123459
0.111235
0.074180
0.025345
-0.018737
-0.066483
-0.108842
-0.147596
-0.177425
-0.170712
-0.159046
-0.126466
-0.092345
-0.051092
-0.008801
0.036926
0.071625
0.099097
0.138875
0.140429
0.132538
0.109033
0.076682
0.020669
0.002449
-0.051935
-0.097546
-0.131087
-0.150347
-0.156521
-0.151156
-0.126564
-0.095463
-0.045619
0.003276
0.072011
0.116088
0.142257
0.156058
0.160549
0.166178
0.119261
0.059673
0.036995
-0.006324
-0.048334
-0.091924
-0.135221
-0.157740
-0.159731
-0.163813
-0.159421
-0.125458
-0.090728
-0.054413
-0.006324
0.027715
0.071161
0.097430
0.087356
0.089158
0.072663
0.053497
0.002910
-0.036849
-0.090516
-0.126061
-0.165096
-0.184065
-0.202839
-0.195049
-0.159508
-0.133514
-0.091720
-0.049018
-0.013235
0.030207
0.060326
0.075984
0.078963
0.062284
0.040814
0.009399
-0.029107
-0.077701
-0.127625
-0.177054
-0.193395
-0.229522
-0.236624
-0.242779
-0.210562
-0.173646
-0.132605
-0.078105
-0.017401
0.015528
0.055093
0.065352
0.072722
0.061099
0.020436
-0.013196
-0.050329
-0.092021
-0.144136
-0.196633
-0.222316
-0.241503
-0.253000
-0.239819
-0.211922
-0.190938
-0.153473
-0.080672
-0.025697
0.025616
0.034605
0.065974
0.072381
0.042913
0.035107
0.005657
-0.045706
-0.103035
-0.141421
-0.192731
-0.218441
-0.241090
-0.229944
-0.208934
-0.189124
-0.169386
-0.145359
-0.118214
-0.046828
-0.002782
0.039235
0.059867
0.067113
0.057755
0.046127
0.011110
-0.037904
-0.085791
-0.123237
-0.174178
-0.208531
-0.215903
-0.194297
-0.191944
-0.164425
-0.117233
-0.047005
0.028807
0.084856
0.127963
0.186441
0.217551
0.219445
0.224534
0.235802
0.226200
0.201298
0.175105
0.156890
0.147046
0.132747
0.137434
0.162587
0.191310
0.253141
0.332459
0.408257
0.471460
0.541518
0.626544
0.699737
0.760377
0.813246
0.827591
0.834856
0.800377
0.746101
0.690256
0.636159
0.582197
0.535295
0.488868
0.456397
0.421181
0.361705
0.326735
0.310984
0.292358
0.289587
0.288804
0.275784
0.251520
0.223630
0.198228
0.165225
0.113134
0.070284
0.034236
-0.030492
-0.073924
-0.116606
-0.132975
-0.133228
-0.128346
-0.106595
-0.082350
-0.053651
-0.005266
0.051832
0.094817
0.127229
0.140822
0.137757
0.103390
0.074750
0.043122
-0.008808
-0.052194
-0.097196
-0.132525
-0.176562
-0.202245
-0.217130
-0.209881
-0.162280
-0.111197
-0.076837
-0.027122
0.035073
0.080494
0.100629
0.111417
0.116678
0.113535
0.098589
0.054736
0.006213
-0.036579
-0.090289
-0.128871
-0.171016
-0.183894
-0.192581
-0.180423
-0.163424
-0.135963
-0.090673
-0.035467
0.020430
0.049266
0.079746
0.101823
0.099849
0.071672
0.067925
0.034918
-0.021834
-0.077001
-0.106171
-0.124337
-0.144880
-0.172022
-0.182154
-0.164596
-0.150850
-0.108777
-0.063734
-0.018278
0.024142
0.053753
0.096838
0.114834
0.134653
0.116017
0.095471
0.061829
0.009532
-0.031450
-0.078670
-0.111857
-0.142210
-0.165234
-0.178693
-0.179333
-0.144575
-0.082529
-0.044507
0.010917
0.057075
0.083666
0.119133
0.142300
0.145164
0.121862
0.102268
0.070501
0.012268
-0.035610
-0.073460
-0.114307
-0.134777
-0.164533
-0.152851
-0.135505
-0.113013
-0.075351
-0.004803
0.047950
0.091863
0.137075
0.165734
0.176198
0.169677
0.168991
0.140224
0.119471
0.090778
0.048758
-0.012736
-0.057783
-0.102175
-0.100598
-0.089878
-0.075446
-0.075815
-0.042475
-0.002751
0.034697
0.084654
0.125840
0.169994
0.184874
0.195466
0.205956
0.171971
0.127556
0.077658
0.033212
0.008134
-0.037143
-0.049611
-0.059657
-0.075322
-0.074128
-0.035081
0.003138
0.047430
0.085987
0.121861
0.157958
0.177513
0.194467
0.204843
0.199514
0.165389
0.135369
0.077413
0.041291
0.001819
-0.026146
-0.067880
-0.091623
-0.091778
-0.097155
-0.085973
-0.049954
-0.000791
0.053508
0.092227
0.137447
0.166596
0.182659
0.185802
0.172679
0.153058
0.117697
0.064981
0.012294
-0.036517
-0.089556
-0.108415
-0.129979
-0.141943
-0.136863
-0.114002
-0.078930
-0.027047
0.031275
0.079077
0.126687
0.158715
0.154713
0.145674
0.128446
0.104942
0.081838
0.040035
-0.004442
-0.063553
-0.112723
-0.144282
-0.161330
-0.160055
-0.135295
-0.113275
-0.086755
-0.047661
-0.021086
0.011893
0.061672
0.104609
0.128472
0.117742
0.103885
0.080180
0.043711
-0.001681
-0.040855
-0.098955
-0.156841
-0.167349
-0.193835
-0.207611
-0.205108
-0.172996
-0.138001
-0.102743
-0.062966
-0.002262
0.040380
0.050344
0.072874
0.092237
0.077238
0.063348
0.051657
0.005181
-0.044519
-0.089247
-0.135302
-0.166142
-0.201739
-0.214090
-0.221224
-0.193631
-0.172118
-0.122930
-0.070989
-0.024664
0.016316
0.053918
0.076887
0.071310
0.051794
0.038806
0.016095
-0.027579
-0.076837
-0.118042
-0.172901
-0.203659
-0.223812
-0.226871
-0.216559
-0.182444
-0.148211
-0.104281
-0.050453
-0.022894
0.007985
0.037576
0.081178
0.093386
0.080394
0.058458
0.032769
-0.010183
-0.058485
-0.107241
-0.158975
-0.189570
-0.211966
-0.217535
-0.215332
-0.187615
-0.138206
-0.100682
-0.050036
-0.001539
0.040508
0.065304
0.088094
0.098813
0.105875
0.091218
0.047167
-0.008737
-0.056379
-0.116112
-0.151671
-0.165623
-0.190437
-0.198756
-0.197275
-0.171466
-0.146050
-0.087654
-0.032290
0.006994
0.060476
0.078577
0.089459
0.098723
0.087746
0.069869
0.041460
-0.003093
-0.044691
-0.091892
-0.134385
-0.161431
-0.193648
-0.206848
-0.207823
-0.183248
-0.159713
-0.105276
-0.058552
-0.005992
0.042506
0.070836
0.089779
0.092106
0.089694
0.067097
0.030315
-0.024004
-0.060339
-0.102940
-0.145179
-0.177514
-0.203690
-0.192316
-0.188248
-0.175855
-0.131387
-0.078762
-0.032349
-0.009919
0.043869
0.063617
0.071031
0.074314
0.067907
0.050416
0.018964
-0.027548
-0.069858
-0.116875
-0.156838
-0.181748
-0.204782
-0.216517
-0.200445
-0.168604
-0.142827
-0.099917
-0.056304
-0.014208
0.028768
0.051199
0.070018
0.108980
0.110562
0.075387
0.040123
-0.011559
-0.065480
-0.118145
-0.167290
-0.189646
-0.222532
-0.232888
-0.206132
-0.195654
-0.158017
-0.110324
-0.052274
-0.030853
0.033436
0.062107
0.077914
0.082673
0.078569
0.052072
0.012272
-0.042385
-0.086461
-0.119097
-0.164255
-0.196319
-0.204713
-0.215420
-0.219506
-0.198078
-0.160521
-0.119121
-0.068582
-0.017793
0.025974
0.054805
0.076465
0.087427
0.077043
0.054600
0.020968
-0.022963
-0.087942
-0.144173
-0.182838
-0.222133
-0.223722
-0.217012
-0.213149
-0.196965
-0.155937
-0.092696
-0.050306
-0.008516
0.022290
0.045559
0.070694
0.073494
0.059522
0.032854
0.018123
-0.019882
-0.071651
-0.119571
-0.160297
-0.174289
-0.195270
-0.200628
-0.206513
-0.196515
-0.161160
-0.103577
-0.059302
-0.009286
0.032576
0.065363
0.081239
0.085150
0.083307
0.060361
0.028160
-0.012572
-0.057001
-0.105292
-0.134144
-0.167688
-0.178468
-0.195721
-0.203456
-0.171136
-0.127712
-0.092526
-0.049760
0.005068
0.032713
0.056062
0.073175
0.090132
0.089386
0.076887
0.040893
-0.006160
-0.043003
-0.095982
-0.145979
-0.181802
-0.196818
-0.196753
-0.178164
-0.145116
-0.109269
-0.052781
-0.003547
0.048519
0.076533
0.104265
0.121554
0.114955
0.090877
0.092702
0.056457
0.005679
-0.047865
-0.083415
-0.135911
-0.168583
-0.188101
-0.182409
-0.183473
-0.163903
-0.127117
-0.073690
-0.024081
0.026208
0.059182
0.093571
0.112190
0.113884
0.089872
0.054676
0.027721
-0.028404
-0.083022
-0.125579
-0.171694
-0.198223
-0.215875
-0.233613
-0.213712
-0.200058
-0.156575
-0.113838
-0.070343
-0.035101
0.004298
0.029451
0.040013
0.050573
0.046836
0.016972
-0.018309
-0.062323
-0.115690
-0.165438
-0.209363
-0.236566
-0.266717
-0.265477
-0.247640
-0.244790
-0.201757
-0.146586
-0.116956
-0.079401
-0.034359
-0.002240
0.012998
0.019768
0.019798
-0.000276
-0.044004
-0.076926
-0.119088
-0.151767
-0.184030
-0.229632
-0.252231
-0.257515
-0.230866
-0.208488
-0.179315
-0.133068
-0.093175
-0.048506
-0.003058
0.021815
0.045284
0.028941
0.026199
0.000318
-0.036589
-0.085723
-0.120169
-0.152636
-0.198236
-0.227423
-0.230470
-0.235066
-0.230636
-0.214142
-0.190503
-0.149645
-0.111562
-0.054738
-0.013994
0.022985
0.043007
0.048726
0.035451
0.024045
-0.011854
-0.053135
-0.111698
-0.157934
-0.210275
-0.238112
-0.262880
-0.277418
-0.255967
-0.223686
-0.206249
-0.172178
-0.108134
-0.041481
-0.002118
0.029205
0.066170
0.060942
0.070213
0.065583
0.057351
0.023757
0.002887
-0.025371
-0.065025
-0.083824
-0.074925
-0.075306
-0.045840
-0.001891
0.079099
0.151434
0.221399
0.299243
0.381045
0.429868
0.486250
0.532752
0.555815
0.547257
0.554024
0.538813
0.541285
0.527082
0.522949
0.524851
0.520740
0.543204
0.559547
0.568688
0.606692
0.633471
0.644141
0.661864
0.671184
0.683238
0.646267
0.593851
0.538112
0.456807
0.376940
0.276955
0.169927
0.060150
-0.018081
-0.064577
-0.097714
-0.095374
-0.079463
-0.059724
-0.050859
-0.016954
0.035554
0.072515
0.106806
0.143620
0.147505
0.146131
0.134759
0.114134
0.076096
0.028382
-0.020563
-0.074825
-0.117244
-0.150874
-0.177028
-0.186480
-0.175340
-0.146426
-0.116928
-0.072184
-0.038034
0.001364
0.032539
0.050439
0.074927
0.092284
0.083042
0.053628
0.023515
-0.025379
-0.077805
-0.122571
-0.165136
-0.211216
-0.233712
-0.235151
-0.211703
-0.192157
-0.156476
-0.101457
-0.061971
-0.007534
0.026576
0.062232
0.079834
0.094697
0.080090
0.044063
0.003999
-0.042216
-0.076759
-0.118024
-0.166119
-0.195543
-0.216634
-0.217911
-0.207893
-0.173753
-0.137464
-0.089065
-0.039696
-0.016150
0.023813
0.066366
0.086957
0.094799
0.080749
0.062838
0.024081
-0.017247
-0.059329
-0.117093
-0.155778
-0.170844
-0.191099
-0.193373
-0.179608
-0.154357
-0.113714
-0.059920
-0.019908
0.032253
0.085428
0.125752
0.141551
0.135283
0.120070
0.088817
0.053192
0.009841
-0.019756
-0.080478
-0.116253
-0.142475
-0.155899
-0.174736
-0.172048
-0.152634
-0.101588
-0.044772
-0.004918
0.032706
0.081017
0.106966
0.130114
0.157802
0.143385
0.125909
0.086535
0.040708
-0.003299
-0.062762
-0.107219
-0.132300
-0.144996
-0.144146
-0.131875
-0.102946
-0.070143
-0.031085
0.013091
0.069618
0.118836
0.150130
0.159300
0.170381
0.161943
0.151081
0.111159
0.070399
0.035075
-0.003599
-0.034341
-0.074437
-0.087675
-0.112379
-0.098559
-0.068957
-0.033370
0.010012
0.058702
0.101546
0.146455
0.182555
0.198949
0.208315
0.193260
0.167698
0.128125
0.072343
0.025956
-0.008692
-0.050034
-0.097481
-0.093571
-0.089490
-0.084109
-0.068845
-0.035284
0.005487
0.060745
0.105981
0.139593
0.177393
0.196650
0.188384
0.180712
0.157083
0.132321
0.068532
0.030706
-0.013339
-0.055550
-0.102783
-0.134738
-0.127654
-0.109588
-0.082989
-0.062894
-0.014763
0.031656
0.067850
0.104922
0.137074
0.152804
0.147505
0.144170
0.117521
0.080297
0.038258
-0.011017
-0.048074
-0.092954
-0.126694
-0.164524
-0.175741
-0.172367
-0.160872
-0.131100
-0.068145
-0.022718
0.011682
0.055607
0.091068
0.104706
0.106575
0.110381
0.078863
0.045840
-0.005309
-0.048478
-0.110773
-0.156371
-0.187364
-0.191250
-0.196677
-0.184470
-0.160631
-0.108855
-0.059841
-0.033000
0.000563
0.047559
0.073870
0.072652
0.084336
0.090007
0.060964
0.009171
-0.053043
-0.094178
-0.140509
-0.179860
-0.190093
-0.209970
-0.223783
-0.234804
-0.216980
-0.174736
-0.125306
-0.074287
-0.013280
0.028620
0.054484
0.045624
0.047824
0.054882
0.040910
-0.001373
-0.037117
-0.065765
-0.110972
-0.169502
-0.203853
-0.227566
-0.234727
-0.213288
-0.196590
-0.154983
-0.110448
-0.080635
-0.033455
0.007635
0.039440
0.059494
0.069998
0.068878
0.043707
0.020047
-0.030231
-0.081203
-0.133125
-0.175184
-0.205757
-0.203776
-0.207635
-0.203539
-0.191065
-0.147112
-0.092796
-0.046772
-0.010317
0.017558
0.047222
0.065135
0.069618
0.054321
0.034283
-0.004306
-0.060552
-0.112449
-0.161297
-0.204344
-0.227932
-0.221963
-0.224373
-0.206729
-0.182244
-0.142061
-0.095071
-0.064440
-0.026073
0.024414
0.060717
0.090952
0.108096
0.103285
0.071636
0.037652
-0.016014
-0.059944
-0.120926
-0.160342
-0.192660
-0.224011
-0.235862
-0.225387
-0.203773
-0.167135
-0.111594
-0.058743
-0.016554
0.012800
0.053894
0.078643
0.089548
0.072294
0.038777
0.006941
-0.035594
-0.084420
-0.118440
-0.168516
-0.198221
-0.230923
-0.222458
-0.206694
-0.191211
-0.159051
-0.109708
-0.068741
-0.031778
0.022228
0.056745
0.086313
0.087273
0.081794
0.043834
0.007314
-0.049478
-0.082203
-0.117414
-0.158934
-0.197001
-0.216575
-0.227479
-0.220502
-0.204404
-0.171565
-0.129199
-0.085318
-0.034863
0.017139
0.050946
0.055140
0.065165
0.044375
0.027343
-0.009250
-0.061248
-0.104770
-0.151040
-0.178700
-0.198996
-0.209966
-0.214435
-0.225039
-0.204300
-0.177737
-0.122537
-0.077998
-0.039422
0.016202
0.049510
0.065912
0.070256
0.056643
0.028391
-0.016622
-0.071068
-0.112042
-0.157645
-0.198492
-0.221275
-0.239962
-0.255853
-0.243549
-0.208918
-0.179193
-0.131119
-0.088759
-0.036426
0.013222
0.031788
0.056492
0.051146
0.044853
0.036758
0.006945
-0.036088
-0.085729
-0.129079
-0.171050
-0.226018
-0.236065
-0.242126
-0.234671
-0.210191
-0.184293
-0.132463
-0.077306
-0.027041
-0.001578
0.032970
0.037758
0.043818
0.036781
0.011791
-0.024765
-0.066420
-0.100941
-0.142998
-0.176742
-0.211217
-0.233516
-0.248925
-0.243936
-0.214961
-0.181155
-0.138284
-0.089308
-0.052685
-0.006202
0.018726
0.041182
0.040834
0.029606
0.015428
-0.016264
-0.063964
-0.113991
-0.152003
-0.209573
-0.236520
-0.253405
-0.252620
-0.249015
-0.230782
-0.197024
-0.149426
-0.096710
-0.045251
-0.002718
0.024457
0.046635
0.060083
0.050907
0.027033
-0.011648
-0.041506
-0.079851
-0.137502
-0.197213
-0.244726
-0.255598
-0.252815
-0.246959
-0.216104
-0.179297
-0.119503
-0.072312
-0.022356
0.023610
0.060139
0.074321
0.080892
0.078839
0.049306
0.021965
-0.021361
-0.058211
-0.115223
-0.160474
-0.196422
-0.209818
-0.214730
-0.210080
-0.192156
-0.161313
-0.114724
-0.059134
-0.017240
0.017215
0.068472
0.096111
0.106296
0.099025
0.084648
0.044175
-0.011772
-0.049439
-0.085503
-0.131473
-0.170323
-0.202561
-0.205687
-0.202358
-0.174040
-0.172510
-0.135563
-0.090425
-0.030309
0.006508
0.027754
0.044149
0.057721
0.065438
0.041887
-0.008828
-0.055884
-0.093116
-0.139856
-0.173098
-0.224024
-0.248135
-0.258169
-0.241334
-0.218831
-0.189601
-0.150033
-0.105111
-0.064415
-0.024081
-0.002832
0.023816
0.021169
0.014072
-0.001777
-0.048885
-0.088611
-0.120715
-0.176376
-0.216960
-0.251982
-0.282086
-0.288063
-0.281261
-0.245926
-0.199706
-0.145401
-0.114661
-0.072231
-0.028051
-0.000970
0.007694
0.008897
-0.001667
-0.025027
-0.045384
-0.095772
-0.135567
-0.189298
-0.229821
-0.265250
-0.284588
-0.292372
-0.278601
-0.264112
-0.219547
-0.172459
-0.125283
-0.082372
-0.040995
-0.007010
0.004343
0.007547
-0.002613
-0.032376
-0.061369
-0.108478
-0.164810
-0.204370
-0.238636
-0.261287
-0.280492
-0.287677
-0.286576
-0.259359
-0.221551
-0.177263
-0.125585
-0.077927
-0.042523
-0.003155
0.011675
0.020249
0.004698
-0.017848
-0.054007
-0.100500
-0.147805
-0.204568
-0.259816
-0.286090
-0.300113
-0.310023
-0.286974
-0.253231
-0.219381
-0.175452
-0.143414
-0.099762
-0.072507
-0.037237
-0.016755
-0.003219
-0.009229
-0.019880
-0.025106
-0.053388
-0.096619
-0.144555
-0.170451
-0.181733
-0.178154
-0.157229
-0.127825
-0.117300
-0.085349
-0.035091
0.029958
0.103823
0.166214
0.223687
0.268072
0.305036
0.324044
0.327109
0.348803
0.331967
0.305624
0.299893
0.288581
0.286089
0.296965
0.334415
0.383522
0.438223
0.509566
0.595041
0.677936
0.716862
0.736142
0.770071
0.795599
0.796903
0.778540
0.736282
0.658758
0.557449
0.452318
0.334519
0.246174
0.154895
0.082942
0.025738
-0.016636
-0.038358
-0.037626
-0.011765
0.006343
0.052814
0.095247
0.127936
0.129976
0.126233
0.115919
0.089152
0.037659
-0.012196
-0.052114
-0.096458
-0.138984
-0.186457
-0.205554
-0.210003
-0.184405
-0.161732
-0.136172
-0.098891
-0.079038
-0.025636
0.005887
0.028551
0.052858
0.053702
0.044665
0.020101
-0.025532
-0.067751
-0.112172
-0.146677
-0.189381
-0.224471
-0.261716
-0.272751
-0.251047
-0.220243
-0.169056
-0.143550
-0.093268
-0.041732
0.005313
0.038544
0.056271
0.049055
0.040630
0.019147
-0.021284
-0.063382
-0.105189
-0.144159
-0.188302
-0.224910
-0.249511
-0.272358
-0.280598
-0.231555
-0.179177
-0.128935
-0.083379
-0.055516
-0.011548
0.027768
0.062794
0.064836
0.052798
0.036161
0.004900
-0.050188
-0.097196
-0.150063
-0.181265
-0.209299
-0.216469
-0.231004
-0.225849
-0.195449
-0.169093
-0.119495
-0.068750
-0.019937
0.001107
0.033356
0.064111
0.079756
0.061785
0.044749
0.003042
-0.031021
-0.075934
-0.124427
-0.155852
-0.188603
-0.219069
-0.244568
-0.207606
-0.173466
-0.123186
-0.083029
-0.048497
0.008525
0.058501
0.090620
0.098630
0.116074
0.113859
0.090177
0.052928
0.012890
-0.038579
-0.082350
-0.130401
-0.164447
-0.180015
-0.187729
-0.177832
-0.154404
-0.108539
-0.067627
-0.015788
0.024923
0.057600
0.085744
0.107023
0.118521
0.117982
0.102344
0.084527
0.049984
0.008831
-0.037360
-0.084562
-0.113788
-0.135534
-0.150616
-0.132630
-0.114424
-0.081712
-0.043154
-0.005124
0.060922
0.102208
0.135493
0.150335
0.166063
0.154647
0.124039
0.081899
0.041693
-0.002897
-0.047321
-0.093705
-0.113266
-0.133442
-0.139071
-0.119339
-0.099962
-0.065452
-0.023813
0.018665
0.071561
0.092681
0.119702
0.129802
0.128912
0.135115
0.120569
0.085693
0.033507
-0.000972
-0.048581
-0.090366
-0.124887
-0.144217
-0.148322
-0.152101
-0.138331
-0.105413
-0.043930
0.006513
0.055646
0.101095
0.126611
0.147225
0.154253
0.144646
0.111865
0.070527
0.028114
-0.018383
-0.066661
-0.108814
-0.154296
-0.171246
-0.184064
-0.181076
-0.162466
-0.133487
-0.093979
-0.023530
0.017002
0.044712
0.064708
0.090378
0.099621
0.094619
0.063097
0.023559
-0.026872
-0.075106
-0.127851
-0.161584
-0.182399
-0.209126
-0.216411
-0.209901
-0.199030
-0.173813
-0.132385
-0.088983
-0.046649
-0.002116
0.020362
0.044481
0.061448
0.062421
0.025218
-0.012204
-0.055001
-0.095105
-0.159974
-0.228728
-0.269166
-0.272051
-0.261158
-0.248466
-0.220368
-0.185983
-0.136856
-0.092992
-0.048253
0.004901
0.028226
0.033358
0.035099
0.032860
0.018633
-0.031366
-0.071865
-0.127428
-0.189852
-0.212130
-0.227265
-0.249863
-0.273830
-0.268305
-0.243689
-0.196256
-0.157751
-0.117900
-0.067983
-0.022597
0.011737
0.027265
0.035696
0.030223
0.008827
-0.026636
-0.067142
-0.115284
-0.169321
-0.218841
-0.247287
-0.259250
-0.261678
-0.252326
-0.226254
-0.201921
-0.160214
-0.097920
-0.039944
-0.005450
0.022095
0.037603
0.045762
0.034023
0.007173
-0.020841
-0.065180
-0.119711
-0.169580
-0.202686
-0.241267
-0.247719
-0.246519
-0.237718
-0.211472
-0.183308
-0.138083
-0.100266
-0.056664
-0.015814
0.014651
0.042618
0.049940
0.033254
0.001748
-0.039181
-0.069135
-0.111274
-0.167803
-0.203265
-0.236622
-0.265384
-0.278531
-0.270949
-0.251042
-0.206047
-0.162523
-0.118030
-0.055702
-0.015081
0.034986
0.067074
0.063617
0.048656
0.028106
-0.013898
-0.046547
-0.095513
-0.147708
-0.194452
-0.232782
-0.255398
-0.265094
-0.254064
-0.221441
-0.182403
-0.148665
-0.094798
-0.055765
-0.028738
0.004742
0.023850
0.022788
0.029383
0.004068
-0.032842
-0.069680
-0.094333
-0.148247
-0.185937
-0.212453
-0.235886
-0.244470
-0.244942
-0.216641
-0.185694
-0.140856
-0.100835
-0.064077
-0.031026
-0.002898
0.014438
0.037799
0.020563
-0.007240
-0.041398
-0.086240
-0.117298
-0.166162
-0.213159
-0.248776
-0.260110
-0.261937
-0.250040
-0.225204
-0.178709
-0.146305
-0.104622
-0.071752
-0.031794
0.001394
0.034179
0.038021
0.017494
-0.005856
-0.031632
-0.072127
-0.130151
-0.184288
-0.218939
-0.247136
-0.261181
-0.266251
-0.251915
-0.242384
-0.214102
-0.164542
-0.116211
-0.062990
-0.027553
-0.008873
0.011527
0.004242
-0.006984
-0.036288
-0.065836
-0.074082
-0.118107
-0.157492
-0.209646
-0.244834
-0.272072
-0.283098
-0.276394
-0.245623
-0.194162
-0.145229
-0.103995
-0.055415
-0.020788
-0.002002
0.003673
-0.000555
0.010854
-0.008680
-0.051288
-0.082976
-0.128830
-0.191872
-0.219712
-0.250608
-0.269075
-0.286968
-0.273767
-0.245952
-0.204449
-0.156831
-0.131137
-0.089801
-0.035776
-0.005397
0.012621
0.011906
0.014500
0.006941
-0.038428
-0.084323
-0.129055
-0.182064
-0.227230
-0.258483
-0.271626
-0.275710
-0.271324
-0.252154
-0.227601
-0.185742
-0.122004
-0.081238
-0.053436
-0.024250
-0.003203
0.006609
-0.003554
-0.039990
-0.065924
-0.101323
-0.139917
-0.191831
-0.231182
-0.260452
-0.284624
-0.279517
-0.263558
-0.224085
-0.200213
-0.158342
-0.098198
-0.040311
-0.007717
0.035275
0.052330
0.061914
0.052359
0.030179
-0.024747
-0.060000
-0.094771
-0.130789
-0.183009
-0.216305
-0.245097
-0.245512
-0.231849
-0.223409
-0.185340
-0.141046
-0.089782
-0.039994
-0.003521
0.021556
0.039776
0.050475
0.026322
-0.006285
-0.032089
-0.044012
-0.075583
-0.123128
-0.180470
-0.202080
-0.208502
-0.212220
-0.215135
-0.203835
-0.150497
-0.105213
-0.058728
-0.017782
0.015784
0.052200
0.067763
0.083147
0.060387
0.028493
0.002941
-0.029210
-0.076580
-0.136674
-0.192400
-0.219232
-0.250063
-0.270965
-0.280842
-0.251852
-0.214303
-0.152154
-0.096650
-0.054025
-0.017881
0.001126
0.022801
0.033758
0.008256
-0.009056
-0.036307
-0.073800
-0.120911
-0.175191
-0.216072
-0.264981
-0.284020
-0.283435
-0.275801
-0.260338
-0.226189
-0.191349
-0.148692
-0.097713
-0.062675
-0.023993
-0.009545
-0.007232
-0.016589
-0.044034
-0.079938
-0.117997
-0.150294
-0.206110
-0.248748
-0.282423
-0.309639
-0.313721
-0.306327
-0.287347
-0.243746
-0.199660
-0.144515
-0.093748
-0.066391
-0.026513
0.004674
0.006525
-0.000978
-0.017026
-0.071036
-0.126623
-0.172801
-0.202030
-0.235659
-0.264855
-0.292776
-0.307110
-0.292330
-0.268373
-0.243002
-0.199497
-0.158629
-0.109618
-0.068322
-0.034720
-0.004967
0.002685
0.003006
-0.028081
-0.058387
-0.101889
-0.145037
-0.198365
-0.240228
-0.289447
-0.306118
-0.297684
-0.283928
-0.258725
-0.242679
-0.215440
-0.152840
-0.094616
-0.045785
-0.016113
-0.008698
-0.007631
-0.009957
-0.027537
-0.068956
-0.118418
-0.163287
-0.224931
-0.260579
-0.289415
-0.306453
-0.307471
-0.293160
-0.274353
-0.219461
-0.174861
-0.112072
-0.056001
-0.001320
0.043548
0.082233
0.088311
0.087302
0.078411
0.059683
0.033860
-0.001508
-0.025609
-0.027726
-0.035094
-0.026306
-0.001399
0.049713
0.100147
0.181268
0.242863
0.332167
0.399801
0.460861
0.521449
0.568766
0.618696
0.661341
0.667893
0.661845
0.650046
0.629932
0.584602
0.538733
0.504572
0.481943
0.451732
0.456202
0.458131
0.473269
0.497352
0.486093
0.457283
0.426666
0.402985
0.368289
0.311119
0.256563
0.184949
0.109156
0.059217
-0.002117
-0.059314
-0.092460
-0.122337
-0.160215
-0.173674
-0.170525
-0.153436
-0.119559
-0.081505
-0.040789
0.006919
0.037989
0.067254
0.079212
0.075138
0.062755
0.036776
-0.002274
-0.040893
-0.085931
-0.135095
-0.170548
-0.206348
-0.228179
-0.230799
-0.224394
-0.208830
-0.171748
-0.133105
-0.091254
-0.048226
-0.013086
0.015342
0.039042
0.046000
0.029714
0.006840
-0.021724
-0.050527
-0.089341
-0.133737
-0.176151
-0.212610
-0.248546
-0.263152
-0.248995
-0.228512
-0.194907
-0.150261
-0.091958
-0.035896
0.002294
0.025960
0.052253
0.054552
0.044697
0.020701
-0.025866
-0.064744
-0.112868
-0.154762
-0.187425
-0.218976
-0.228753
-0.227197
-0.222428
-0.213573
-0.184170
-0.136983
-0.079711
-0.034415
-0.004067
0.027493
0.050707
0.053038
0.058011
0.047920
0.005826
-0.035094
-0.092548
-0.128271
-0.175295
-0.211751
-0.224346
-0.222276
-0.207433
-0.184573
-0.154010
-0.118302
-0.064084
-0.021187
0.013917
0.050421
0.079887
0.098107
0.093845
0.069299
0.030332
-0.024672
-0.073576
-0.110725
-0.130525
-0.154203
-0.185207
-0.197008
-0.168026
-0.144015
-0.117053
-0.081423
-0.019490
0.028783
0.065082
0.096081
0.108324
0.122040
0.113465
0.095865
0.060824
0.023028
-0.011354
-0.060348
-0.097019
-0.121845
-0.143863
-0.152542
-0.146576
-0.122044
-0.080053
-0.045744
-0.008315
0.031238
0.071220
0.111133
0.135684
0.132874
0.136725
0.120958
0.086454
0.057422
0.011102
-0.051278
-0.088986
-0.110403
-0.125094
-0.121461
-0.124521
-0.111213
-0.052024
-0.003796
0.032940
0.072027
0.110895
0.140829
0.155126
0.166653
0.160403
0.129741
0.084627
0.054685
0.006151
-0.046794
-0.080576
-0.098024
-0.138029
-0.145954
-0.133336
-0.116662
-0.078013
-0.030583
0.009373
0.059852
0.098244
0.136133
0.151449
0.147703
0.145996
0.121086
0.088037
0.039753
-0.003077
-0.046122
-0.080988
-0.127300
-0.158538
-0.173005
-0.163710
-0.141480
-0.101413
-0.070175
-0.029353
0.019691
0.055881
0.079675
0.099920
0.110247
0.110029
0.091233
0.053760
0.028951
-0.030973
-0.077456
-0.124027
-0.155351
-0.170790
-0.181983
-0.184612
-0.158520
-0.124094
-0.095665
-0.043297
0.017241
0.050590
0.086182
0.101796
0.106477
0.083345
0.060004
0.011667
-0.025692
-0.069376
-0.119629
-0.161708
-0.194453
-0.211555
-0.221404
-0.210106
-0.202889
-0.158233
-0.116167
-0.076799
-0.032646
-0.001340
0.039609
0.071470
0.068014
0.056631
0.020669
-0.050098
-0.088823
-0.117490
-0.149445
-0.190006
-0.229383
-0.255225
-0.254806
-0.242318
-0.207554
-0.173150
-0.131728
-0.087636
-0.047675
-0.013184
0.012330
0.032652
0.039128
0.031869
0.015299
-0.019717
-0.062795
-0.099592
-0.150698
-0.203287
-0.236759
-0.263281
-0.260594
-0.251129
-0.234355
-0.188188
-0.132233
-0.082612
-0.031518
0.014657
0.046345
0.061076
0.053287
0.049190
0.015345
-0.023653
-0.052169
-0.097345
-0.155325
-0.199758
-0.233533
-0.250286
-0.253738
-0.246947
-0.221746
-0.179921
-0.134458
-0.099029
-0.051725
0.000195
0.038091
0.058108
0.057509
0.053664
0.037674
0.000860
-0.025567
-0.080964
-0.138461
-0.178494
-0.205161
-0.230250
-0.231098
-0.221200
-0.199650
-0.166355
-0.122122
-0.068138
-0.026845
0.007709
0.030668
0.053275
0.068522
0.046443
0.027260
-0.010320
-0.052391
-0.092945
-0.145478
-0.190446
-0.219699
-0.239335
-0.235082
-0.217443
-0.186027
-0.144088
-0.114478
-0.062917
-0.029703
0.013217
0.057180
0.067198
0.058232
0.049627
0.025513
-0.027740
-0.074387
-0.115632
-0.133670
-0.175308
-0.210541
-0.242729
-0.248842
-0.233838
-0.197985
-0.160033
-0.128545
-0.066003
-0.004849
0.025000
0.058180
0.078721
0.079360
0.047833
0.024806
-0.009036
-0.046860
-0.086965
-0.140853
-0.185615
-0.212383
-0.228330
-0.242269
-0.231483
-0.213153
-0.170338
-0.124412
-0.086131
-0.044801
-0.002830
0.030650
0.041435
0.045399
0.028740
-0.000591
-0.033732
-0.069797
-0.103750
-0.140393
-0.185057
-0.212303
-0.232964
-0.222388
-0.220774
-0.205892
-0.170874
-0.128623
-0.083685
-0.044970
-0.017178
0.001584
0.033754
0.038071
0.026892
0.002473
-0.015727
-0.051593
-0.094465
-0.154528
-0.196517
-0.212407
-0.244920
-0.252152
-0.230303
-0.212875
-0.167406
-0.137323
-0.088072
-0.046185
-0.006995
0.023472
0.041764
0.044519
0.034725
0.007305
-0.028184
-0.069000
-0.105229
-0.147520
-0.180507
-0.220227
-0.240218
-0.249622
-0.233581
-0.202083
-0.172997
-0.139693
-0.098058
-0.055086
-0.018623
0.015213
0.032684
0.051623
0.040428
0.027804
-0.018465
-0.056451
-0.101048
-0.144179
-0.174339
-0.222048
-0.240039
-0.243241
-0.244830
-0.224436
-0.191619
-0.147741
-0.097809
-0.053303
-0.012593
0.029127
0.038390
0.041897
0.029855
0.008291
-0.030534
-0.076764
-0.121673
-0.159790
-0.194822
-0.227009
-0.242281
-0.247439
-0.239935
-0.229072
-0.193831
-0.146185
-0.093731
-0.051553
-0.013066
0.017902
0.040506
0.052768
0.044005
0.027633
-0.013002
-0.052159
-0.093083
-0.148821
-0.184563
-0.206757
-0.233282
-0.247484
-0.235375
-0.209421
-0.162865
-0.102134
-0.064170
-0.009424
0.038266
0.074133
0.081705
0.061855
0.048395
0.050390
0.035860
-0.007137
-0.053001
-0.111053
-0.145871
-0.183024
-0.200444
-0.204571
-0.195579
-0.181862
-0.147308
-0.099136
-0.053743
-0.013400
0.028326
0.064042
0.091192
0.106347
0.095314
0.079950
0.045865
0.006807
-0.035949
-0.088360
-0.131458
-0.157707
-0.181927
-0.187849
-0.182023
-0.167289
-0.128644
-0.084954
-0.036672
0.000585
0.036518
0.063004
0.075293
0.078939
0.068505
0.054627
0.011395
-0.022035
-0.071640
-0.127642
-0.166837
-0.207991
-0.229708
-0.244407
-0.231750
-0.199253
-0.158275
-0.125121
-0.072528
-0.031431
-0.001774
0.016225
0.032765
0.034868
0.013320
-0.008096
-0.040198
-0.087232
-0.145023
-0.176039
-0.202109
-0.222189
-0.268942
-0.278552
-0.267118
-0.232019
-0.191006
-0.139086
-0.087838
-0.044889
-0.010312
0.015628
0.032241
0.046121
0.038134
0.004901
-0.029765
-0.087806
-0.122722
-0.153442
-0.188487
-0.218047
-0.236239
-0.253047
-0.255972
-0.238748
-0.203507
-0.159279
-0.113021
-0.066869
-0.035711
-0.004805
0.028051
0.039745
0.033171
0.005800
-0.028612
-0.078458
-0.106455
-0.157870
-0.190563
-0.229537
-0.252951
-0.266444
-0.261765
-0.237540
-0.206038
-0.155766
-0.109781
-0.062517
-0.029225
0.008789
0.030325
0.033675
0.025162
-0.005289
-0.035800
-0.074410
-0.119060
-0.163425
-0.207641
-0.242510
-0.259265
-0.268070
-0.263666
-0.243691
-0.199997
-0.173526
-0.123182
-0.073890
-0.034073
-0.010370
0.012262
0.026906
0.023479
0.001463
-0.028469
-0.089864
-0.122241
-0.159520
-0.179554
-0.197904
-0.212544
-0.205122
-0.182396
-0.141465
-0.103465
-0.039455
0.016645
0.077281
0.137814
0.197101
0.229553
0.265618
0.282617
0.291257
0.282281
0.278327
0.266169
0.249248
0.222345
0.233336
0.255647
0.278449
0.333407
0.389366
0.455951
0.535593
0.621794
0.700395
0.772639
0.817023
0.833590
0.830064
0.839292
0.790884
0.735050
0.669698
0.592506
0.521422
0.430654
0.333109
0.245657
0.180993
0.137140
0.121876
0.098157
0.098545
0.108405
0.138521
0.162082
0.184485
0.202328
0.213784
0.181260
0.140246
0.102870
0.057060
-0.001062
-0.042051
-0.101452
-0.143793
-0.163412
-0.162883
-0.147031
-0.120587
-0.091213
-0.059403
-0.028874
0.009098
0.050044
0.077571
0.088242
0.091722
0.088518
0.061752
0.032866
-0.024799
-0.061187
-0.111558
-0.150454
-0.176887
-0.188507
-0.182279
-0.173024
-0.162577
-0.137331
-0.108731
-0.072112
-0.026803
0.026428
0.059792
0.077136
0.085000
0.062575
0.049131
0.021990
-0.012657
-0.061178
-0.097095
-0.143129
-0.178734
-0.202443
-0.211618
-0.208839
-0.175572
-0.139073
-0.093268
-0.039102
0.000897
0.033868
0.058944
0.089888
0.109243
0.104804
0.074929
0.032382
-0.001542
-0.046196
-0.088351
-0.126288
-0.154957
-0.177569
-0.188281
-0.169219
-0.145745
-0.114341
-0.069614
-0.029233
0.009398
0.058587
0.088141
0.109944
0.117462
0.109661
0.089422
0.056992
0.007769
-0.023345
-0.061275
-0.100735
-0.135226
-0.156502
-0.163253
-0.160884
-0.138755
-0.103277
-0.055300
-0.003417
0.033881
0.069290
0.094362
0.120511
0.141770
0.138554
0.115147
0.071076
0.030350
-0.014646
-0.051859
-0.071754
-0.111200
-0.139639
-0.135502
-0.126369
-0.104952
-0.065428
-0.021020
0.029684
0.057723
0.114459
0.144488
0.169216
0.177507
0.165134
0.157182
0.131370
0.103562
0.053219
0.017533
-0.029818
-0.062524
-0.094881
-0.105068
-0.095218
-0.070371
-0.024911
0.019853
0.055436
0.113768
0.155247
0.179202
0.203978
0.220435
0.210674
0.183192
0.149323
0.106700
0.070543
0.028216
-0.015923
-0.053458
-0.078928
-0.089283
-0.083908
-0.050839
-0.020646
0.022213
0.067526
0.120820
0.170090
0.198928
0.214621
0.224793
0.214276
0.186788
0.153294
0.110535
0.052986
0.017747
-0.026450
-0.059077
-0.090532
-0.094294
-0.085874
-0.072083
-0.038071
-0.005898
0.046234
0.100746
0.144372
0.176179
0.201517
0.202950
0.186041
0.165260
0.141942
0.105187
0.048665
-0.002190
-0.052380
-0.095251
-0.119574
-0.125676
-0.122326
-0.099722
-0.067687
-0.035020
0.014965
0.059777
0.094609
0.136411
0.151615
0.168671
0.158701
0.123679
0.099949
0.063415
-0.003120
-0.053665
-0.091036
-0.124274
-0.137463
-0.145107
-0.140413
-0.121844
-0.092829
-0.050161
-0.006073
0.032399
0.076471
0.110226
0.124959
0.130322
0.121236
0.104228
0.066721
0.006805
-0.026526
-0.078148
-0.111558
-0.152007
-0.186875
-0.202757
-0.203516
-0.167641
-0.133904
-0.097827
-0.052834
-0.009249
0.052022
0.085947
0.094393
0.093974
0.092069
0.065668
0.030964
-0.016487
-0.060509
-0.086922
-0.134546
-0.156023
-0.180165
-0.183074
-0.162655
-0.130179
-0.099549
-0.067160
-0.023717
0.017741
0.048685
0.079296
0.096899
0.113419
0.099825
0.068439
0.026698
-0.010952
-0.061680
-0.101035
-0.136737
-0.164817
-0.185365
-0.198804
-0.190456
-0.162455
-0.126125
-0.072441
-0.028349
0.013026
0.062816
0.094067
0.117358
0.122515
0.104403
0.077536
0.051544
-0.002253
-0.036778
-0.089685
-0.138000
-0.161261
-0.184125
-0.178301
-0.172226
-0.138314
-0.113179
-0.065209
-0.019740
0.017739
0.065480
0.087839
0.117761
0.116551
0.092032
0.071009
0.043017
0.006586
-0.060137
-0.093958
-0.127873
-0.166094
-0.197392
-0.191375
-0.188980
-0.161898
-0.126491
-0.076964
-0.010644
0.033779
0.080144
0.101216
0.119482
0.127942
0.114961
0.092662
0.062330
0.026210
-0.019212
-0.061637
-0.099262
-0.136640
-0.162647
-0.187166
-0.163644
-0.136401
-0.121275
-0.081277
-0.023719
0.021528
0.061491
0.086596
0.105010
0.118226
0.106621
0.072490
0.031565
-0.004173
-0.048990
-0.076462
-0.101971
-0.134786
-0.139165
-0.151458
-0.154055
-0.122187
-0.095775
-0.057795
-0.012117
0.016550
0.065749
0.102728
0.115464
0.118299
0.107158
0.087385
0.054439
0.021321
-0.030395
-0.068294
-0.121610
-0.147100
-0.166550
-0.176032
-0.165690
-0.142397
-0.115512
-0.077114
-0.030517
0.007690
0.054304
0.076459
0.084819
0.091527
0.102069
0.069494
0.039775
0.000118
-0.034496
-0.069155
-0.115455
-0.154820
-0.167719
-0.174818
-0.171929
-0.147528
-0.108532
-0.057063
-0.017137
0.012259
0.055875
0.085476
0.104944
0.104596
0.097977
0.084866
0.039548
0.003505
-0.047819
-0.086024
-0.139929
-0.158365
-0.181522
-0.182186
-0.175703
-0.167602
-0.136507
-0.081915
-0.029163
0.002257
0.029170
0.063947
0.081866
0.075544
0.086076
0.061175
0.038687
0.013464
-0.042446
-0.085165
-0.130589
-0.163699
-0.185592
-0.174821
-0.158803
-0.145362
-0.108676
-0.069016
-0.027008
0.003650
0.056781
0.095241
0.108519
0.115521
0.114052
0.089830
0.056494
-0.005953
-0.048741
-0.074421
-0.124446
-0.153332
-0.176219
-0.180150
-0.177431
-0.165694
-0.137854
-0.093932
-0.048262
-0.005343
0.044173
0.095122
0.106854
0.093924
0.094333
0.075138
0.045724
0.004632
-0.055231
-0.091803
-0.129100
-0.160530
-0.174902
-0.171454
-0.157948
-0.125774
-0.101809
-0.069116
-0.024981
0.029914
0.073876
0.096486
0.121082
0.126240
0.131231
0.108857
0.072651
0.037176
-0.022216
-0.062316
-0.102014
-0.138801
-0.153763
-0.162054
-0.168116
-0.127147
-0.092840
-0.057780
-0.004273
0.038453
0.083315
0.121360
0.135464
0.135933
0.131107
0.108943
0.074254
0.041703
0.009257
-0.035133
-0.074147
-0.108710
-0.134001
-0.136856
-0.119109
-0.091336
-0.048390
-0.009909
0.024581
0.067833
0.113891
0.149232
0.173680
0.184594
0.165490
0.131891
0.098395
0.061262
0.017985
-0.047661
-0.085707
-0.110817
-0.132833
-0.155861
-0.144826
-0.121780
-0.098193
-0.049552
-0.008458
0.028381
0.063328
0.103951
0.112060
0.109095
0.109506
0.088539
0.049349
0.008005
-0.041196
-0.084038
-0.127046
-0.166496
-0.178247
-0.177838
-0.184906
-0.162252
-0.126333
-0.082335
-0.045921
0.002639
0.049489
0.071938
0.093656
0.107223
0.111332
0.085544
0.049773
-0.001729
-0.047736
-0.102687
-0.154544
-0.185012
-0.197080
-0.186008
-0.176202
-0.153760
-0.130457
-0.082393
-0.026744
0.007784
0.043343
0.066923
0.078285
0.085185
0.076361
0.060104
0.028259
-0.006138
-0.058511
-0.097000
-0.132329
-0.174248
-0.186704
-0.202407
-0.206176
-0.181164
-0.127232
-0.091780
-0.038805
0.012105
0.047025
0.074376
0.088367
0.091936
0.084804
0.053005
0.027942
-0.021150
-0.069207
-0.108238
-0.150490
-0.177503
-0.202790
-0.206437
-0.201921
-0.166660
-0.140857
-0.101438
-0.042769
0.001696
0.036950
0.064380
0.089918
0.096037
0.087988
0.072039
0.035823
-0.016101
-0.056832
-0.097856
-0.146992
-0.179567
-0.214666
-0.211222
-0.201823
-0.188164
-0.132245
-0.076222
-0.029513
0.020276
0.057509
0.099872
0.132522
0.142446
0.151235
0.136617
0.110074
0.090503
0.070458
0.040395
0.015429
0.012495
0.015669
0.038706
0.068174
0.131626
0.191073
0.255019
0.334506
0.408598
0.480476
0.556985
0.604902
0.626716
0.649075
0.657756
0.660456
0.680701
0.683529
0.668475
0.662087
0.636091
0.611831
0.608426
0.618347
0.634697
0.658699
0.677804
0.698032
0.708143
0.691209
0.656052
0.620385
0.570426
0.517907
0.423973
0.331690
0.229846
0.156832
0.097798
0.040838
-0.012336
-0.021136
-0.033417
-0.025821
-0.012788
0.019263
0.043366
0.092253
0.121060
0.154151
0.166916
0.191434
0.198880
0.179789
0.158978
0.131572
0.101509
0.055678
-0.008287
-0.047513
-0.084422
-0.106907
-0.110152
-0.110222
-0.085910
-0.054402
-0.008153
0.019479
0.061762
0.097723
0.148264
0.170121
0.162085
0.144697
0.123921
0.090366
0.049620
0.001136
-0.042022
-0.099458
-0.126347
-0.144623
-0.150359
-0.142082
-0.121583
-0.099545
-0.060748
-0.014823
0.030898
0.078864
0.112592
0.145101
0.148454
0.148130
0.123434
0.087611
0.053751
0.004152
-0.046277
-0.088017
-0.120606
-0.137920
-0.137384
-0.135312
-0.110222
-0.068992
-0.020538
0.023298
0.072327
0.114977
0.145975
0.166074
0.170563
0.170225
0.130491
0.105323
0.057218
0.013868
-0.030158
-0.081253
-0.111273
-0.129580
-0.138200
-0.118702
-0.090314
-0.063672
-0.008726
0.041703
0.083935
0.136496
0.174084
0.198284
0.205736
0.202322
0.167194
0.142461
0.101667
0.045680
-0.005682
-0.045009
-0.066687
-0.082528
-0.077982
-0.082054
-0.051296
-0.012534
0.039219
0.088723
0.139079
0.177750
0.201053
0.209191
0.224323
0.223112
0.195068
0.160328
0.129986
0.094457
0.045561
-0.001431
-0.034223
-0.056766
-0.056673
-0.047157
-0.011776
0.008370
0.050003
0.094750
0.150546
0.193809
0.226380
0.252953
0.251224
0.234084
0.212301
0.200877
0.157531
0.103499
0.072119
0.037204
-0.007845
-0.040926
-0.046329
-0.034493
-0.001495
0.033389
0.070644
0.103299
0.141593
0.199948
0.236037
0.258681
0.261582
0.246343
0.211724
0.211284
0.179658
0.122962
0.070875
0.034878
0.005806
-0.014969
-0.012135
-0.024893
0.005306
0.033292
0.073617
0.118013
0.157352
0.199149
0.245318
0.261090
0.263504
0.256107
0.223916
0.195615
0.159655
0.107101
0.056379
0.023731
-0.005598
-0.024907
-0.038179
-0.029127
-0.001206
0.028337
0.061232
0.113186
0.155313
0.193160
0.221666
0.232816
0.242035
0.235284
0.193053
0.163852
0.115970
0.070980
0.018180
-0.018688
-0.043327
-0.066329
-0.068936
-0.072319
-0.048449
-0.019131
0.014210
0.043963
0.085811
0.135720
0.180796
0.203396
0.191692
0.187840
0.144962
0.105727
0.068666
0.009269
-0.038640
-0.070357
-0.102307
-0.124555
-0.135065
-0.143154
-0.104951
-0.075259
-0.039923
0.009753
0.056929
0.111065
0.154712
0.166965
0.171934
0.165273
0.134735
0.102931
0.055258
0.008827
-0.036525
-0.070085
-0.108870
-0.128607
-0.126058
-0.117846
-0.090058
-0.071856
-0.039254
0.003011
0.056415
0.101156
0.138017
0.137892
0.143449
0.136203
0.113639
0.077374
0.027333
-0.014203
-0.065823
-0.103798
-0.126835
-0.144637
-0.160051
-0.165047
-0.106788
-0.068853
-0.033067
0.006415
0.052693
0.106940
0.145975
0.171086
0.162659
0.140182
0.115158
0.090568
0.038636
-0.009837
-0.044145
-0.078955
-0.113279
-0.140926
-0.147328
-0.124857
-0.090718
-0.056687
-0.010255
0.028471
0.062686
0.099240
0.131171
0.146234
0.153081
0.133216
0.103943
0.072711
0.029927
-0.022136
-0.056449
-0.096373
-0.121078
-0.133880
-0.131372
-0.112355
-0.081663
-0.054632
-0.013710
0.027150
0.058384
0.103528
0.143612
0.158854
0.163193
0.151102
0.121303
0.096943
0.062077
0.015270
-0.026493
-0.061360
-0.100195
-0.127435
-0.140903
-0.137349
-0.115054
-0.088981
-0.031927
0.031454
0.080926
0.115323
0.141474
0.151854
0.153529
0.157333
0.146132
0.109640
0.063299
0.006818
-0.038961
-0.070362
-0.092700
-0.108749
-0.130645
-0.131735
-0.086734
-0.048589
-0.012543
0.036132
0.069568
0.112755
0.142702
0.168894
0.161137
0.136208
0.106265
0.088406
0.041993
-0.001769
-0.049985
-0.090024
-0.124322
-0.137902
-0.135243
-0.133535
-0.114299
-0.080054
-0.032425
0.016306
0.064773
0.095252
0.115815
0.129558
0.135340
0.126619
0.094401
0.077884
0.039574
-0.005679
-0.035441
-0.063030
-0.090801
-0.128276
-0.141502
-0.139788
-0.112551
-0.074205
-0.037301
0.013972
0.058650
0.085009
0.126167
0.145704
0.155471
0.137677
0.111583
0.079749
0.037179
-0.011572
-0.064422
-0.108866
-0.137354
-0.146396
-0.148748
-0.143781
-0.115662
-0.086799
-0.033305
0.008072
0.044717
0.099455
0.130718
0.153425
0.150784
0.142691
0.115686
0.090126
0.048003
-0.005056
-0.042586
-0.080717
-0.122245
-0.152954
-0.152301
-0.142740
-0.112744
-0.079840
-0.043072
-0.009776
0.039490
0.081347
0.109394
0.126542
0.138509
0.132237
0.105622
0.074520
0.030016
-0.005887
-0.057856
-0.093924
-0.125853
-0.141890
-0.141159
-0.135906
-0.130087
-0.097695
-0.064204
-0.009979
0.036358
0.068594
0.099903
0.127133
0.140067
0.129483
0.092157
0.064560
0.030312
-0.007332
-0.057143
-0.099160
-0.136259
-0.155515
-0.164567
-0.151940
-0.122809
-0.090237
-0.043083
0.008840
0.043655
0.077219
0.112231
0.138014
0.147939
0.123575
0.093985
0.058244
0.006276
-0.018409
-0.059003
-0.091684
-0.130205
-0.145450
-0.138901
-0.125888
-0.096373
-0.066570
-0.029405
0.014718
0.058372
0.087976
0.113727
0.143608
0.151861
0.150532
0.131995
0.097753
0.052150
0.022830
-0.017384
-0.053112
-0.091295
-0.104495
-0.101461
-0.091961
-0.083844
-0.056255
-0.023885
0.018399
0.063957
0.108571
0.144624
0.162492
0.161791
0.161443
0.148084
0.106629
0.061778
0.012374
-0.026271
-0.064472
-0.092188
-0.105897
-0.104691
-0.104367
-0.080742
-0.045611
0.008878
0.044597
0.072777
0.119105
0.154510
0.173646
0.180447
0.172312
0.148165
0.117478
0.071341
0.020222
-0.028352
-0.057359
-0.083914
-0.113135
-0.132997
-0.132946
-0.091781
-0.056110
-0.013350
0.025860
0.068612
0.115621
0.141154
0.154905
0.162118
0.150129
0.121730
0.067208
0.018342
-0.013086
-0.037966
-0.079596
-0.127778
-0.161447
-0.172410
-0.161789
-0.129941
-0.093306
-0.065163
-0.026276
0.017170
0.051993
0.081017
0.106652
0.119850
0.110772
0.101520
0.075021
0.022749
-0.032680
-0.080410
-0.112695
-0.162943
-0.176934
-0.181098
-0.172606
-0.159511
-0.124902
-0.092026
-0.052837
-0.003663
0.037525
0.067536
0.092396
0.113265
0.104288
0.081184
0.043284
0.000711
-0.034078
-0.085079
-0.121555
-0.146122
-0.170989
-0.174267
-0.163775
-0.137438
-0.108509
-0.067375
-0.029068
0.022371
0.058959
0.088791
0.117825
0.111194
0.107019
0.096647
0.063399
0.008307
-0.046911
-0.090317
-0.135471
-0.163082
-0.192087
-0.198280
-0.185266
-0.160827
-0.128996
-0.086375
-0.029995
0.021689
0.063881
0.105619
0.121915
0.120778
0.104801
0.073535
0.040342
-0.003494
-0.032894
-0.079615
-0.127384
-0.176039
-0.206198
-0.204717
-0.190043
-0.169878
-0.121469
-0.077074
-0.023233
0.036352
0.094640
0.132940
0.155681
0.184180
0.192866
0.185081
0.167668
0.144672
0.091217
0.054744
0.040814
0.025234
0.025187
0.046431
0.087680
0.130548
0.200927
0.273521
0.359189
0.434872
0.504977
0.573311
0.615508
0.654286
0.685517
0.709825
0.717013
0.710275
0.697217
0.676812
0.658675
0.633275
0.611887
0.618074
0.617665
0.605247
0.617299
0.643600
0.665313
0.666053
0.628240
0.613985
0.579387
0.536584
0.474546
0.403910
0.317301
0.219249
0.168395
0.106685
0.057533
0.022288
0.002942
-0.010417
-0.019600
-0.019729
0.008726
0.039760
0.076139
0.107583
0.144437
0.184841
0.220888
0.223051
0.202585
0.170656
0.137905
0.093810
0.039407
-0.007938
-0.049944
-0.082023
-0.103354
-0.106416
-0.098559
-0.078260
-0.055740
-0.024402
0.029986
0.090825
0.126806
0.146254
0.168150
0.173332
0.160106
0.137052
0.099923
0.061020
0.014223
-0.040418
-0.083711
-0.116140
-0.145513
-0.154333
-0.154969
-0.135850
-0.102277
-0.042482
-0.000406
0.048842
0.084956
0.117844
0.149084
0.155615
0.139720
0.116618
0.089605
0.042203
0.004097
-0.033607
-0.075228
-0.109329
-0.138259
-0.147265
-0.129456
-0.100847
-0.067995
-0.031582
0.025589
0.072578
0.108385
0.146183
0.164212
0.181664
0.160755
0.148316
0.113926
0.069173
0.011172
-0.024768
-0.073476
-0.102439
-0.119261
-0.101535
-0.084717
-0.070724
-0.035219
0.006689
0.060371
0.107629
0.148888
0.172891
0.183192
0.187266
0.169140
0.157136
0.115924
0.084686
0.037958
-0.001326
-0.032108
-0.072951
-0.098451
-0.102945
-0.078796
-0.049738
-0.018179
0.020261
0.053428
0.106339
0.157482
0.197731
0.232024
0.248583
0.242893
0.217169
0.191004
0.151243
0.095288
0.039998
-0.003917
-0.022312
-0.036344
-0.051047
-0.035539
-0.012518
0.019604
0.076729
0.111410
0.170019
0.190964
0.223730
0.242702
0.251350
0.234937
0.205364
0.173669
0.142866
0.101890
0.058685
0.014319
-0.011848
-0.029396
-0.034231
-0.014401
0.003973
0.023553
0.066946
0.121522
0.172882
0.207299
0.238471
0.261271
0.268446
0.256960
0.222630
0.187168
0.146887
0.106854
0.069696
0.045029
0.008301
-0.011236
-0.012177
-0.005297
0.015458
0.049303
0.084862
0.118573
0.158815
0.196010
0.230916
0.252052
0.258828
0.254332
0.230740
0.203090
0.150892
0.103141
0.053002
0.010153
-0.023562
-0.041656
-0.042176
-0.030880
-0.000808
0.022428
0.059721
0.101879
0.139987
0.170581
0.194457
0.221942
0.228689
0.212074
0.199684
0.161576
0.117751
0.067847
0.025528
-0.019422
-0.052890
-0.070865
-0.071609
-0.057981
-0.043651
-0.016938
0.020942
0.061489
0.103685
0.142845
0.178347
0.195088
0.202721
0.193232
0.170258
0.133327
0.089545
0.025264
-0.020156
-0.059982
-0.094190
-0.116464
-0.126544
-0.120300
-0.101245
-0.069257
-0.012142
0.035861
0.078374
0.123736
0.152568
0.169514
0.163534
0.154050
0.140358
0.105916
0.062883
0.016856
-0.029387
-0.069982
-0.117427
-0.149503
-0.163601
-0.145671
-0.121413
-0.093111
-0.061440
-0.003533
0.051538
0.102530
0.140765
0.161826
0.157992
0.134121
0.117905
0.077877
0.026773
-0.027634
-0.066343
-0.097952
-0.126512
-0.150436
-0.150393
-0.140556
-0.099031
-0.068128
-0.022975
0.019556
0.071901
0.095497
0.128725
0.141936
0.144545
0.144151
0.121210
0.087348
0.046746
0.012830
-0.031285
-0.059459
-0.096734
-0.120564
-0.133247
-0.124665
-0.090291
-0.053925
-0.025473
0.013578
0.050307
0.109364
0.135292
0.155967
0.173567
0.166131
0.135571
0.105758
0.049301
0.007261
-0.050858
-0.086585
-0.107330
-0.118125
-0.121638
-0.118144
-0.091139
-0.066035
-0.024676
0.012187
0.055582
0.098694
0.135759
0.156863
0.156586
0.154141
0.127430
0.080574
0.052284
0.022767
-0.028854
-0.070463
-0.109296
-0.138400
-0.150088
-0.125861
-0.089773
-0.048845
-0.012035
0.044152
0.075808
0.107325
0.141025
0.160447
0.156718
0.146365
0.129041
0.092579
0.057677
0.021175
-0.019626
-0.053187
-0.093398
-0.111042
-0.122274
-0.110586
-0.083467
-0.058804
-0.021120
0.013728
0.055952
0.104199
0.144444
0.160235
0.161759
0.145491
0.117450
0.088784
0.054368
0.008128
-0.040549
-0.074128
-0.116954
-0.135700
-0.140648
-0.122130
-0.096883
-0.066993
-0.028137
0.001275
0.056310
0.094971
0.131593
0.147393
0.150330
0.143063
0.119189
0.084392
0.036569
0.013134
-0.049119
-0.085637
-0.103116
-0.141675
-0.148357
-0.138700
-0.115075
-0.095166
-0.056922
-0.019189
0.026722
0.078195
0.111444
0.140412
0.131413
0.129066
0.114841
0.080018
0.036827
-0.012092
-0.049177
-0.084655
-0.117405
-0.126339
-0.138376
-0.135319
-0.117371
-0.090638
-0.037342
-0.003391
0.051254
0.082570
0.092965
0.117646
0.136917
0.136731
0.112398
0.072885
0.037298
-0.007274
-0.052175
-0.083777
-0.111045
-0.133097
-0.137627
-0.125832
-0.111543
-0.090223
-0.053322
-0.002390
0.038101
0.073743
0.104299
0.128013
0.128727
0.121663
0.110326
0.087431
0.043888
-0.007047
-0.058025
-0.088640
-0.124849
-0.152136
-0.154427
-0.154802
-0.118676
-0.096138
-0.043724
-0.004074
0.037640
0.078398
0.116958
0.131610
0.137485
0.124711
0.098144
0.077753
0.033839
-0.017755
-0.069052
-0.112916
-0.144814
-0.162941
-0.168346
-0.150091
-0.133177
-0.100072
-0.066175
-0.015438
0.033134
0.074029
0.094733
0.117659
0.133204
0.122371
0.099338
0.057381
0.014373
-0.021067
-0.051722
-0.102089
-0.134559
-0.144022
-0.159303
-0.150056
-0.127868
-0.080433
-0.041065
-0.005628
0.023911
0.058704
0.104932
0.137147
0.143043
0.129404
0.102057
0.061403
0.017488
-0.032849
-0.079129
-0.108299
-0.116914
-0.139651
-0.145297
-0.133637
-0.107294
-0.075217
-0.033048
0.005353
0.057062
0.111720
0.142002
0.155231
0.160037
0.153015
0.142205
0.112811
0.071151
0.020231
-0.028398
-0.067923
-0.094193
-0.115621
-0.128177
-0.115596
-0.089257
-0.061818
-0.037184
-0.017411
0.035836
0.091433
0.131017
0.134049
0.150003
0.144510
0.127494
0.103976
0.060267
0.025520
-0.018286
-0.067307
-0.103247
-0.124885
-0.125453
-0.100618
-0.068655
-0.020944
0.007037
0.044536
0.087818
0.138915
0.179049
0.196046
0.200166
0.174460
0.153913
0.129979
0.074148
0.031953
-0.023459
-0.081052
-0.127878
-0.151776
-0.151827
-0.129211
-0.098812
-0.076757
-0.036291
0.011266
0.050071
0.099728
0.138975
0.152791
0.152417
0.137383
0.114978
0.075298
0.035253
-0.018940
-0.067967
-0.117190
-0.150386
-0.164859
-0.160726
-0.145677
-0.124988
-0.100242
-0.059681
-0.017450
0.033742
0.073047
0.100236
0.122832
0.115777
0.103574
0.075615
0.062455
0.012494
-0.015830
-0.068442
-0.122584
-0.162136
-0.177824
-0.186110
-0.175189
-0.155359
-0.115150
-0.077965
-0.050672
-0.009153
0.042178
0.070850
0.075156
0.075306
0.057494
0.043806
0.017879
-0.032484
-0.066656
-0.104775
-0.131416
-0.151018
-0.163870
-0.165379
-0.150297
-0.134002
-0.109558
-0.083914
-0.042026
0.015820
0.056972
0.096579
0.104967
0.109559
0.081714
0.066515
0.033446
-0.001977
-0.035086
-0.083158
-0.131599
-0.166641
-0.187897
-0.196089
-0.183954
-0.145691
-0.105405
-0.077619
-0.037358
-0.003188
0.043853
0.069374
0.098794
0.109990
0.090083
0.061632
0.027284
-0.008624
-0.035571
-0.085431
-0.138744
-0.166436
-0.191583
-0.192365
-0.166702
-0.141823
-0.106184
-0.068513
-0.020325
0.028730
0.087953
0.126400
0.156743
0.174362
0.165747
0.165910
0.133903
0.099113
0.065369
0.047243
0.018892
0.002709
0.004954
0.018768
0.083567
0.156048
0.211808
0.279960
0.368719
0.448232
0.515284
0.572838
0.616592
0.670344
0.695943
0.731573
0.732746
0.732238
0.703376
0.681391
0.660374
0.640906
0.624479
0.621979
0.621303
0.617185
0.628581
0.648088
0.646787
0.638419
0.602246
0.564580
0.528147
0.486938
0.429027
0.363854
0.281337
0.206672
0.151453
0.095149
0.043816
0.009773
-0.010441
-0.039252
-0.026937
-0.023733
-0.003141
0.042509
0.077179
0.112270
0.152093
0.176700
0.189650
0.186064
0.168657
0.142951
0.112359
0.070701
0.019835
-0.019822
-0.065050
-0.120069
-0.147068
-0.143808
-0.130499
-0.101660
-0.065850
-0.036768
-0.000696
0.056339
0.101949
0.130932
0.133999
0.150788
0.137695
0.112339
0.092460
0.045054
0.015430
-0.034075
-0.074545
-0.108114
-0.134572
-0.147021
-0.130166
-0.113971
-0.095479
-0.058284
-0.005610
0.046069
0.092009
0.133599
0.153946
0.157017
0.145159
0.115817
0.088806
