-0.072289
-0.032517
-0.007863
0.061896
0.114691
0.133275
0.089868
0.055532
0.048012
-0.002424
-0.077504
-0.102285
-0.146743
-0.202042
-0.224718
-0.230902
-0.237384
-0.206461
-0.158526
-0.119917
-0.070505
-0.026043
0.026639
0.065388
0.105430
0.091966
0.084803
0.073195
0.030573
-0.014697
-0.074688
-0.113490
-0.154168
-0.199218
-0.232316
-0.234566
-0.224575
-0.215946
-0.174913
-0.110716
-0.068870
-0.029187
0.026793
0.060987
0.090045
0.094321
0.082921
0.067181
0.038571
0.002427
-0.054778
-0.123609
-0.157358
-0.198461
-0.213829
-0.225024
-0.235387
-0.210379
-0.163717
-0.130027
-0.084434
-0.018987
0.025298
0.049270
0.066602
0.068382
0.053726
0.064282
0.041171
-0.021213
-0.068542
-0.108348
-0.141603
-0.187270
-0.209190
-0.197253
-0.199340
-0.221862
-0.194272
-0.127598
-0.086992
-0.036245
0.006883
0.055908
0.079004
0.069188
0.060872
0.048489
0.006237
-0.011760
-0.075100
-0.120351
-0.175888
-0.213185
-0.222415
-0.248232
-0.232284
-0.197461
-0.160476
-0.138384
-0.073848
-0.040360
0.005994
0.054474
0.089383
0.084563
0.066480
0.030302
0.005383
-0.050222
-0.092466
-0.125423
-0.159663
-0.178651
-0.215011
-0.222207
-0.211811
-0.167946
-0.119572
-0.085948
-0.059392
-0.010944
0.032711
0.057897
0.074866
0.080729
0.092021
0.074696
0.034316
-0.009422
-0.068968
-0.106589
-0.150427
-0.176925
-0.192278
-0.201336
-0.183024
-0.157918
-0.145800
-0.103826
-0.063122
-0.036148
0.015261
0.075084
0.152982
0.184515
0.145377
0.092328
0.009292
-0.048601
-0.077646
-0.089947
-0.141232
-0.176075
-0.185982
-0.166066
-0.173446
-0.155779
-0.112918
-0.048097
-0.011796
0.033711
0.086451
0.109114
0.127454
0.132720
0.112522
0.108302
0.034637
-0.004043
-0.040684
-0.067100
-0.112464
-0.143794
-0.198068
-0.219617
-0.211208
-0.188619
-0.143629
-0.098016
-0.067667
-0.013387
0.026902
0.060664
0.076996
0.072965
0.071118
0.043373
-0.004268
-0.031164
-0.070156
-0.130003
-0.168604
-0.180619
-0.209412
-0.230752
-0.235974
-0.227673
-0.233974
-0.198947
-0.152047
-0.107490
-0.045072
0.023365
0.062206
0.072473
0.036382
0.006802
-0.021624
-0.059404
-0.118580
-0.160085
-0.201916
-0.242860
-0.266879
-0.274178
-0.270964
-0.268645
-0.226750
-0.176967
-0.132407
-0.086522
-0.040715
-0.020503
0.014685
0.027474
0.025064
0.004904
-0.048181
-0.079033
-0.115329
-0.156466
-0.200551
-0.260328
-0.298286
-0.297683
-0.280492
-0.252676
-0.201011
-0.167505
-0.137946
-0.071798
-0.039201
-0.025834
-0.000884
0.012223
0.013660
-0.027256
-0.062353
-0.100300
-0.118690
-0.146275
-0.205719
-0.255542
-0.277145
-0.273550
-0.247440
-0.221638
-0.189358
-0.151489
-0.109117
-0.059187
-0.057148
-0.026755
-0.010966
-0.005482
-0.002640
-0.007489
-0.055668
-0.110094
-0.169965
-0.200372
-0.249440
-0.294754
-0.293440
-0.295914
-0.267064
-0.180840
-0.148761
-0.073507
-0.023315
-0.009739
0.038770
0.082017
0.142348
0.160545
0.167436
0.155682
0.120192
0.103319
0.057887
0.022768
0.000573
-0.002483
0.015756
0.049410
0.093608
0.142874
0.221845
0.311573
0.408092
0.479896
0.529699
0.602297
0.660222
0.699057
0.724822
0.729733
0.717896
0.705925
0.686034
0.637125
0.580503
0.548538
0.494537
0.504035
0.510139
0.508499
0.506748
0.482261
0.460963
0.443451
0.410565
0.383006
0.379139
0.326849
0.259294
0.189080
0.115716
0.058696
0.009604
-0.038070
-0.107337
-0.132894
-0.158115
-0.159633
-0.160888
-0.141878
-0.119317
-0.080277
-0.030418
0.027389
0.060140
0.095400
0.130339
0.130843
0.115669
0.057944
0.016095
-0.011344
-0.076134
-0.130162
-0.165494
-0.211516
-0.263037
-0.259433
-0.220771
-0.205279
-0.174968
-0.165601
-0.066651
-0.021278
-0.014300
-0.017460
0.009097
0.038236
0.055656
0.051983
0.031190
0.001832
-0.049575
-0.119406
-0.180368
-0.251100
-0.286473
-0.268571
-0.253586
-0.221467
-0.181227
-0.149439
-0.114693
-0.056735
-0.005436
0.033877
0.062393
0.070732
0.068619
0.046905
-0.002887
-0.034595
-0.083600
-0.143070
-0.171051
-0.210235
-0.240773
-0.252592
-0.242801
-0.223730
-0.219741
-0.133276
-0.082139
-0.015734
0.003208
0.044920
0.080134
0.083465
0.073101
0.058688
0.001476
-0.035535
-0.071833
-0.121061
-0.146236
-0.182466
-0.203475
-0.210400
-0.206710
-0.162827
-0.118483
-0.080322
-0.028690
-0.021742
-0.000780
0.025340
0.071136
0.073202
0.064302
0.054014
0.009098
-0.016918
-0.065699
-0.097415
-0.148194
-0.173705
-0.184786
-0.189180
-0.184134
-0.173837
-0.116382
-0.076159
-0.054382
-0.024733
0.031033
0.090558
0.123381
0.106539
0.058810
0.058641
0.071416
0.000004
-0.076471
-0.118054
-0.121664
-0.133905
-0.178353
-0.187469
-0.166070
-0.132069
-0.101481
-0.047077
0.005515
0.044631
0.105498
0.126347
0.145955
0.160664
0.134926
0.117766
0.094604
0.046300
-0.014460
-0.065114
-0.120041
-0.121988
-0.139787
-0.168589
-0.166447
-0.117831
-0.089210
-0.049568
-0.023917
0.023953
0.059339
0.109504
0.137737
0.152542
0.144987
0.097311
0.057421
0.013047
-0.046108
-0.102018
-0.136153
-0.169538
-0.193987
-0.205231
-0.193965
-0.148088
-0.114494
-0.079478
-0.014952
0.032499
0.068850
0.079948
0.094404
0.113947
0.100714
0.075107
0.034106
-0.021735
-0.072448
-0.101060
-0.117121
-0.189862
-0.208458
-0.218059
-0.203985
-0.171262
-0.143080
-0.100641
-0.054037
-0.010266
0.044457
0.064629
0.080708
0.088935
0.075539
0.062243
0.026930
-0.013945
-0.068015
-0.117443
-0.161138
-0.199698
-0.220393
-0.224530
-0.211499
-0.198466
-0.147925
-0.120856
-0.096510
-0.057368
0.031575
0.116543
0.075582
0.051413
0.053438
0.048308
0.026366
-0.030631
-0.083933
-0.144419
-0.183907
-0.202440
-0.230501
-0.234114
-0.227547
-0.207632
-0.200359
-0.157124
-0.110966
-0.058031
0.007793
0.044419
0.045863
0.065084
0.066796
0.049941
0.003623
-0.051084
-0.092017
-0.125516
-0.177116
-0.209213
-0.238855
-0.216303
-0.218403
-0.211570
-0.196283
-0.147108
-0.108237
-0.053034
-0.019372
0.026343
0.050840
0.052669
0.053660
0.034046
-0.008949
-0.056904
-0.103161
-0.141480
-0.187207
-0.191684
-0.206503
-0.214289
-0.216288
-0.197794
-0.164190
-0.124589
-0.087101
-0.021823
0.024129
0.041214
0.061614
0.048692
0.033638
0.045071
-0.000537
-0.066937
-0.076686
-0.100685
-0.133698
-0.193420
-0.224769
-0.236848
-0.226791
-0.195258
-0.152504
-0.099589
-0.049194
-0.040575
-0.015034
0.045289
0.112894
0.098407
0.057965
0.023132
-0.014813
-0.059301
-0.097995
-0.153144
-0.182682
-0.198734
-0.204075
-0.215994
-0.197808
-0.182072
-0.136113
-0.096626
-0.045486
-0.008686
0.034414
0.059215
0.063660
0.074246
0.059315
0.032554
0.010051
-0.028579
-0.090087
-0.137866
-0.170285
-0.224402
-0.250939
-0.238176
-0.240472
-0.184313
-0.134747
-0.085831
-0.010256
0.003699
0.021970
0.063136
0.066077
0.068313
0.058779
0.046529
0.016901
-0.038521
-0.099116
-0.135397
-0.173595
-0.207024
-0.225360
-0.219011
-0.225573
-0.210489
-0.161050
-0.098677
-0.056299
-0.012878
0.030604
0.069025
0.081926
0.070371
0.070370
0.043322
-0.000675
-0.035405
-0.077612
-0.120777
-0.179447
-0.236816
-0.237709
-0.270349
-0.237636
-0.198459
-0.139114
-0.102697
-0.074718
-0.040924
-0.004597
0.037482
0.055381
0.078699
0.057738
0.020638
0.000561
-0.036384
-0.105810
-0.145765
-0.176109
-0.210881
-0.236711
-0.236087
-0.240457
-0.200322
-0.159641
-0.124940
-0.098969
-0.046842
0.008541
0.043410
0.080689
0.102018
0.061555
0.032434
-0.018090
-0.067242
-0.141577
-0.163399
-0.172677
-0.188479
-0.209134
-0.235521
-0.232093
-0.202189
-0.163700
-0.136082
-0.099027
-0.061227
-0.022384
0.013968
0.058418
0.084657
0.089498
0.067413
0.021838
-0.033547
-0.080934
-0.132166
-0.170632
-0.215047
-0.236765
-0.243602
-0.220969
-0.213789
-0.172802
-0.136843
-0.106009
-0.053708
0.002632
0.028808
0.071188
0.047485
0.030029
0.017961
0.015681
-0.014792
-0.064943
-0.116891
-0.150221
-0.198052
-0.229017
-0.218033
-0.193886
-0.174972
-0.126516
-0.091790
-0.054884
0.010364
0.034987
0.074251
0.094515
0.090217
0.075324
0.045501
0.005729
-0.026129
-0.058484
-0.114325
-0.100621
-0.112356
-0.146760
-0.171513
-0.167944
-0.153661
-0.136751
-0.066486
-0.051031
0.026221
0.057727
0.085713
0.111388
0.103862
0.083539
0.051620
0.012584
0.004565
-0.030554
-0.076454
-0.099068
-0.121948
-0.126500
-0.145383
-0.135805
-0.138774
-0.093652
-0.062475
-0.017344
0.015385
0.068135
0.094648
0.094110
0.100235
0.090863
0.075413
0.033854
-0.025951
-0.069055
-0.143102
-0.193790
-0.190291
-0.198542
-0.201537
-0.220551
-0.168988
-0.128564
-0.084101
-0.066589
-0.036123
0.030187
0.045676
0.054556
0.057005
0.034058
0.025067
-0.006718
-0.060956
-0.101035
-0.149061
-0.187889
-0.221783
-0.238729
-0.264363
-0.241849
-0.218937
-0.195125
-0.156464
-0.090410
-0.047216
-0.023534
0.009600
0.041336
0.059694
0.050418
0.021458
-0.014618
-0.077351
-0.096625
-0.157978
-0.210222
-0.250105
-0.281286
-0.275542
-0.253489
-0.229319
-0.186700
-0.149822
-0.100523
-0.064794
0.002545
0.043802
0.058286
0.071817
0.072403
0.057872
0.022428
-0.055457
-0.105213
-0.165816
-0.222574
-0.245596
-0.264438
-0.281231
-0.268377
-0.231961
-0.201255
-0.166554
-0.114418
-0.049866
0.000132
0.033845
0.072225
0.039878
0.017505
0.040287
-0.000149
-0.060961
-0.082406
-0.115505
-0.169708
-0.223467
-0.251625
-0.248510
-0.248450
-0.249308
-0.206215
-0.161609
-0.114096
-0.063575
-0.029576
0.014382
0.030243
0.036694
0.044379
0.054652
0.028115
-0.004871
-0.007126
-0.054375
-0.090075
-0.099791
-0.106132
-0.099417
-0.079588
-0.064345
-0.046390
-0.013085
0.064333
0.131006
0.187147
0.300230
0.355085
0.361499
0.392931
0.412971
0.421438
0.388863
0.368961
0.355438
0.321893
0.339644
0.338259
0.367564
0.409177
0.482591
0.523316
0.617625
0.701058
0.779799
0.811044
0.832876
0.837792
0.846028
0.799994
0.761481
0.706854
0.604316
0.510741
0.406137
0.293730
0.190422
0.120252
0.058003
0.036836
0.044771
0.036146
0.049574
0.088183
0.127349
0.152053
0.169619
0.156126
0.172191
0.158168
0.124662
0.107270
0.045508
0.001335
-0.051157
-0.080908
-0.115789
-0.132306
-0.145740
-0.141075
-0.126648
-0.126384
-0.070683
-0.032828
0.018051
0.059129
0.090427
0.108150
0.110516
0.085432
0.073557
0.032193
-0.011517
-0.053142
-0.098422
-0.126610
-0.186984
-0.216845
-0.220537
-0.232153
-0.175844
-0.125265
-0.101342
-0.056981
-0.020518
0.019630
0.057126
0.074698
0.085440
0.072703
0.046392
0.017046
-0.010928
-0.059727
-0.130010
-0.194277
-0.212547
-0.212452
-0.241448
-0.234526
-0.211419
-0.172893
-0.103691
-0.042690
0.004314
0.052510
0.085709
0.104814
0.097999
0.108974
0.075754
0.031339
-0.009300
-0.045442
-0.088109
-0.150044
-0.211737
-0.224632
-0.229199
-0.214919
-0.197963
-0.138079
-0.083316
-0.031181
-0.022949
0.039332
0.102560
0.110274
0.118668
0.137222
0.098785
0.055359
0.008205
-0.038905
-0.090689
-0.150392
-0.192242
-0.228677
-0.234187
-0.199598
-0.166408
-0.132927
-0.067187
-0.011133
0.007906
0.048826
0.092634
0.103936
0.122661
0.093967
0.096255
0.061556
0.044390
0.003172
-0.044958
-0.100367
-0.137397
-0.191747
-0.175600
-0.181738
-0.169276
-0.135062
-0.079166
-0.034330
0.023855
0.072797
0.121007
0.158559
0.143682
0.133936
0.131843
0.079118
0.021275
-0.009398
-0.072263
-0.121272
-0.172412
-0.218439
-0.181679
-0.116519
-0.087029
-0.043544
0.001608
0.029798
0.047755
0.077644
0.103167
0.124947
0.110059
0.098224
0.091687
0.064159
0.019242
-0.018539
-0.047786
-0.085708
-0.097194
-0.123943
-0.120659
-0.144039
-0.101464
-0.087409
-0.048505
-0.043092
-0.020525
0.057067
0.078848
0.085902
0.089406
0.095635
0.090105
0.035073
-0.015401
-0.040160
-0.088251
-0.127395
-0.182958
-0.186428
-0.194592
-0.206699
-0.159750
-0.088063
-0.078673
-0.046723
-0.003694
0.042880
0.084498
0.100102
0.105050
0.095059
0.054298
0.011992
-0.025326
-0.068515
-0.117559
-0.154289
-0.175060
-0.175706
-0.175419
-0.159863
-0.145307
-0.119114
-0.076437
-0.017494
0.005683
0.047157
0.075318
0.044513
0.065032
0.072841
0.012140
-0.039950
-0.020344
-0.062508
-0.133654
-0.166003
-0.196913
-0.221318
-0.229904
-0.223834
-0.174362
-0.124803
-0.084281
-0.040145
-0.008128
0.037568
0.072959
0.058628
0.068033
0.073012
0.029294
-0.004633
-0.071663
-0.117276
-0.173362
-0.180181
-0.175529
-0.215147
-0.226942
-0.193956
-0.172647
-0.146303
-0.096621
-0.028000
0.007666
0.056402
0.071835
0.078794
0.068315
0.048442
0.026451
-0.009917
-0.052849
-0.095212
-0.126995
-0.162184
-0.202513
-0.241889
-0.257251
-0.231052
-0.196128
-0.170782
-0.134249
-0.052315
0.005130
0.040974
0.081402
0.097201
0.096401
0.078661
0.040924
0.014757
-0.013484
-0.061052
-0.105491
-0.166919
-0.186245
-0.217089
-0.241921
-0.241000
-0.207257
-0.182656
-0.130474
-0.080874
-0.037958
0.015617
0.058538
0.074640
0.084184
0.097427
0.050508
0.008054
-0.029844
-0.057958
-0.115587
-0.155945
-0.202730
-0.205835
-0.230224
-0.238904
-0.220249
-0.185621
-0.125542
-0.087126
-0.055373
0.029053
0.081847
0.118082
0.096645
0.088670
0.066589
0.035849
-0.009353
-0.056661
-0.101044
-0.154401
-0.196104
-0.192972
-0.210139
-0.211087
-0.214142
-0.173863
-0.129653
-0.107840
-0.055341
-0.000600
0.047114
0.043307
0.055468
0.058263
0.053225
0.028013
-0.023232
-0.064451
-0.097930
-0.128523
-0.161466
-0.197213
-0.206441
-0.210614
-0.162470
-0.147198
-0.098975
-0.081434
-0.033790
0.005467
0.048754
0.083188
0.080677
0.049803
0.021423
-0.003151
-0.040994
-0.101794
-0.150114
-0.189578
-0.206844
-0.212604
-0.197808
-0.193716
-0.184880
-0.150262
-0.119961
-0.064185
-0.034582
0.030491
0.076008
0.073198
0.070193
0.054328
0.004144
-0.041338
-0.091726
-0.098722
-0.126891
-0.176865
-0.210952
-0.213382
-0.216991
-0.194745
-0.188385
-0.157663
-0.108780
-0.067696
-0.037629
-0.001207
0.030121
0.068175
0.060286
0.030927
-0.005861
-0.054339
-0.094402
-0.117284
-0.133256
-0.153295
-0.199171
-0.207025
-0.218741
-0.218739
-0.214791
-0.164579
-0.131073
-0.098610
-0.054708
-0.035234
-0.004754
0.039371
0.059619
0.039858
0.042073
-0.007093
-0.055340
-0.113713
-0.161075
-0.198500
-0.230732
-0.245392
-0.257112
-0.251692
-0.242834
-0.228618
-0.130035
-0.061830
-0.035399
0.014104
0.041733
0.054699
0.046719
0.056226
0.031281
-0.000751
-0.046615
-0.084477
-0.139117
-0.192613
-0.188429
-0.174704
-0.221044
-0.225648
-0.195570
-0.153044
-0.114630
-0.062009
-0.020531
0.014772
0.067547
0.090076
0.106390
0.085064
0.060731
0.022166
-0.028994
-0.066945
-0.118658
-0.173371
-0.172665
-0.173385
-0.214073
-0.206933
-0.182011
-0.145696
-0.111215
-0.074257
-0.007548
0.047510
0.059116
0.059600
0.065519
0.078607
0.070512
0.047893
-0.012076
-0.062084
-0.080406
-0.118476
-0.162112
-0.170448
-0.185277
-0.168718
-0.150683
-0.122980
-0.090808
-0.059562
-0.013452
0.019253
0.045546
0.058687
0.046019
0.063257
0.033326
-0.004850
-0.051144
-0.102162
-0.161318
-0.209123
-0.220233
-0.241082
-0.248940
-0.260794
-0.229910
-0.206339
-0.162162
-0.115507
-0.061048
-0.030281
0.048881
0.041018
0.013905
-0.011588
-0.044116
-0.079158
-0.115150
-0.134655
-0.136517
-0.183947
-0.231170
-0.265552
-0.296938
-0.255372
-0.222727
-0.203004
-0.167161
-0.119999
-0.084588
-0.047665
-0.023493
-0.008843
0.008117
-0.017233
-0.069132
-0.095522
-0.104285
-0.137361
-0.192343
-0.246583
-0.283930
-0.314266
-0.324786
-0.280822
-0.255892
-0.225102
-0.168449
-0.115727
-0.073562
-0.048407
-0.023783
0.026068
0.045950
0.022916
-0.026482
-0.069923
-0.118349
-0.166406
-0.208710
-0.258612
-0.276097
-0.285368
-0.292817
-0.286541
-0.270173
-0.239297
-0.189028
-0.123809
-0.066833
-0.020358
0.017676
-0.004273
-0.033098
-0.021318
-0.058896
-0.084126
-0.117616
-0.140914
-0.185496
-0.235190
-0.260946
-0.307681
-0.342622
-0.340344
-0.269213
-0.229887
-0.204398
-0.168663
-0.105118
-0.042234
0.038378
0.054239
0.014630
0.013840
0.019939
-0.019235
-0.054020
-0.078609
-0.104861
-0.142119
-0.161098
-0.180949
-0.168767
-0.160109
-0.121064
-0.084179
-0.016594
0.072717
0.143406
0.207577
0.259174
0.297184
0.328285
0.342915
0.396345
0.412387
0.357624
0.353581
0.354006
0.332087
0.322166
0.357958
0.384709
0.432148
0.479064
0.569304
0.625332
0.659887
0.675389
0.718440
0.738306
0.748668
0.737560
0.705849
0.647040
0.584693
0.471285
0.339551
0.225757
0.134880
0.061801
-0.010044
-0.062705
-0.064205
-0.045385
-0.030670
-0.031203
-0.003830
0.035183
0.054747
0.085790
0.122835
0.139463
0.118152
0.091968
0.061519
0.025838
-0.020858
-0.074498
-0.117872
-0.167151
-0.202523
-0.224479
-0.214608
-0.196157
-0.172006
-0.146524
-0.092497
-0.049396
-0.002600
0.034238
0.029027
0.023844
0.032742
-0.001356
-0.047878
-0.092449
-0.127180
-0.145551
-0.195903
-0.229828
-0.245844
-0.275134
-0.271811
-0.213178
-0.191105
-0.141642
-0.106873
-0.064119
-0.019822
0.004705
0.020703
0.023457
0.015922
-0.010504
-0.037430
-0.090385
-0.147872
-0.177363
-0.211631
-0.237133
-0.253406
-0.277885
-0.282725
-0.248762
-0.205214
-0.175902
-0.105594
-0.055714
-0.010359
0.025282
0.032614
0.036035
0.039539
0.001387
-0.035439
-0.076579
-0.128552
-0.180239
-0.213979
-0.240387
-0.251504
-0.261764
-0.250645
-0.217888
-0.205092
-0.155753
-0.106022
-0.049492
-0.011718
0.047760
0.054419
0.049484
0.014500
-0.039459
-0.002285
-0.034330
-0.096535
-0.156645
-0.201963
-0.244807
-0.259672
-0.242173
-0.245777
-0.212191
-0.173508
-0.117700
-0.060660
-0.011541
0.004305
0.030645
0.073058
0.079235
0.076190
0.041171
0.008269
-0.039295
-0.070597
-0.111584
-0.186341
-0.231290
-0.232409
-0.237515
-0.213524
-0.185133
-0.169136
-0.107342
-0.099266
-0.038739
0.023172
0.059608
0.102201
0.112798
0.081865
0.057557
0.014332
-0.005850
-0.043291
-0.103240
-0.157628
-0.199678
-0.214340
-0.218159
-0.225918
-0.198995
-0.157281
-0.127680
-0.084506
-0.029320
0.016164
0.059764
0.080919
0.088070
0.074134
0.046579
0.013717
-0.008202
-0.025870
-0.080693
-0.179689
-0.226529
-0.241704
-0.253787
-0.240487
-0.200510
-0.158659
-0.103371
-0.066483
-0.032722
-0.009048
0.028833
0.057381
0.065375
0.041475
0.041231
0.014728
-0.031182
-0.087909
-0.143363
-0.179159
-0.208546
-0.251427
-0.267082
-0.255965
-0.238128
-0.198328
-0.154102
-0.091769
-0.033808
0.002121
0.041637
0.039084
0.043190
0.043486
0.016156
-0.011867
-0.046903
-0.089102
-0.136671
-0.180210
-0.210427
-0.224905
-0.245044
-0.248060
-0.211704
-0.175159
-0.143463
-0.113568
-0.062543
-0.010136
0.013256
0.041405
0.061997
0.055054
0.012389
-0.032209
-0.091594
-0.122678
-0.146802
-0.187626
-0.223753
-0.249542
-0.258163
-0.230764
-0.216182
-0.170014
-0.146446
-0.121670
-0.068125
-0.031278
0.004419
0.001318
0.001896
0.003328
-0.016862
-0.054053
-0.087524
-0.134479
-0.173177
-0.207435
-0.243550
-0.266422
-0.267035
-0.257505
-0.240728
-0.203565
-0.169431
-0.108944
-0.052660
-0.041947
-0.011155
0.000517
0.011281
0.023864
-0.016427
-0.062826
-0.106142
-0.158807
-0.197518
-0.193015
-0.197156
-0.223273
-0.253144
-0.262951
-0.230299
-0.166102
-0.121418
-0.084508
-0.058577
-0.029423
-0.001019
0.031073
0.032916
0.029332
-0.002539
-0.069943
-0.111496
-0.133531
-0.174576
-0.212731
-0.237286
-0.234103
-0.248663
-0.238588
-0.213860
-0.190365
-0.162128
-0.088964
-0.045767
-0.017605
0.022489
0.057156
0.062272
0.031840
0.010918
-0.032321
-0.072820
-0.115372
-0.183952
-0.213974
-0.235791
-0.271366
-0.256148
-0.250016
-0.232108
-0.190534
-0.137806
-0.122611
-0.048376
-0.015138
0.043195
0.045455
0.054242
0.040602
0.002824
-0.032341
-0.065668
-0.103009
-0.152067
-0.203703
-0.235366
-0.271444
-0.288351
-0.284642
-0.229588
-0.192948
-0.166162
-0.119947
-0.057178
0.001008
0.039554
0.049142
0.045956
0.043384
0.013835
-0.017097
-0.075006
-0.120827
-0.168939
-0.198015
-0.238928
-0.270869
-0.282627
-0.297055
-0.268725
-0.234670
-0.168889
-0.108937
-0.065103
-0.009903
0.054560
0.074681
0.070206
0.033774
0.005434
-0.026536
-0.068675
-0.115017
-0.162771
-0.213451
-0.244098
-0.255225
-0.277345
-0.261992
-0.235250
-0.217363
-0.176493
-0.132920
-0.076238
-0.040430
-0.010392
0.019945
0.015622
0.003611
-0.024962
-0.059331
-0.079138
-0.111685
-0.142467
-0.195422
-0.248206
-0.261775
-0.285656
-0.270156
-0.235646
-0.238387
-0.185474
-0.126837
-0.079516
-0.047114
-0.034733
-0.019595
-0.018512
-0.008989
-0.023327
-0.059585
-0.094738
-0.122397
-0.164298
-0.213092
-0.247231
-0.262254
-0.273826
-0.286430
-0.277294
-0.215150
-0.157632
-0.130189
-0.085572
-0.048300
-0.017189
-0.031027
0.012909
0.000156
-0.041793
-0.085182
-0.088332
-0.106563
-0.169687
-0.247704
-0.247651
-0.263851
-0.266283
-0.282226
-0.259128
-0.218306
-0.171511
-0.135038
-0.091527
-0.056898
-0.029103
-0.023225
-0.004284
-0.002154
-0.034536
-0.084390
-0.132828
-0.151620
-0.186442
-0.221484
-0.249223
-0.275131
-0.316127
-0.306749
-0.258552
-0.211127
-0.162699
-0.126757
-0.068910
-0.025282
0.002887
-0.001293
0.011349
-0.007978
-0.049679
-0.056008
-0.083040
-0.156827
-0.209281
-0.256492
-0.284664
-0.290135
-0.284218
-0.253771
-0.242155
-0.220540
-0.167398
-0.129190
-0.104419
-0.054640
-0.014144
0.023136
0.016919
0.001137
-0.027904
-0.076089
-0.100082
-0.167260
-0.211130
-0.250786
-0.287317
-0.299335
-0.293965
-0.284382
-0.274702
-0.222905
-0.178233
-0.125434
-0.083176
-0.024633
0.005998
0.000532
0.005866
0.015539
-0.023769
-0.094637
-0.117076
-0.150180
-0.222638
-0.238989
-0.274032
-0.307589
-0.304093
-0.286815
-0.271389
-0.232138
-0.175648
-0.130927
-0.094483
-0.058818
-0.001233
0.019991
0.025358
0.023153
-0.018187
-0.058331
-0.096025
-0.164895
-0.217262
-0.240314
-0.310281
-0.309262
-0.306170
-0.282457
-0.261181
-0.229649
-0.188886
-0.140000
-0.110042
-0.045748
0.018191
0.023073
0.030862
0.016288
0.005643
-0.028622
-0.066810
-0.101550
-0.168517
-0.215259
-0.253192
-0.284651
-0.282346
-0.265900
-0.235167
-0.197895
-0.153523
-0.085093
-0.045040
-0.030251
-0.002156
0.025442
0.033780
0.050988
0.050440
-0.013042
-0.052927
-0.097204
-0.133393
-0.188932
-0.236015
-0.250849
-0.247322
-0.214899
-0.219963
-0.192841
-0.126833
-0.090713
-0.040979
-0.007609
0.026716
0.037546
0.055096
0.055989
0.046329
0.009849
-0.029063
-0.079785
-0.130224
-0.179243
-0.215872
-0.250966
-0.255257
-0.254400
-0.237821
-0.211225
-0.172811
-0.117578
-0.066454
-0.020090
-0.004847
0.001514
0.007682
0.015671
-0.002944
-0.041537
-0.077897
-0.126971
-0.195928
-0.236654
-0.242230
-0.261542
-0.280729
-0.291089
-0.265962
-0.231060
-0.176557
-0.131105
-0.098917
-0.067566
-0.049762
-0.017675
-0.005352
-0.032336
-0.061382
-0.111449
-0.132487
-0.213989
-0.202266
-0.246911
-0.289488
-0.319416
-0.304210
-0.292908
-0.254776
-0.220039
-0.184681
-0.170846
-0.118862
-0.062734
-0.055123
-0.034028
-0.031000
-0.044798
-0.065547
-0.097214
-0.133575
-0.186319
-0.243654
-0.274108
-0.278429
-0.286476
-0.310428
-0.292280
-0.261444
-0.242633
-0.189729
-0.152779
-0.108725
-0.074319
-0.046450
-0.034072
0.006729
-0.012954
-0.065438
-0.104913
-0.133413
-0.193924
-0.241611
-0.282605
-0.306322
-0.309443
-0.317952
-0.312768
-0.281290
-0.231020
-0.184648
-0.129031
-0.048780
-0.024012
-0.018915
-0.027305
-0.020681
-0.019313
-0.046343
-0.087167
-0.137871
-0.187433
-0.227466
-0.267772
-0.309782
-0.333699
-0.333927
-0.333395
-0.307551
-0.262732
-0.209534
-0.162119
-0.094844
-0.039449
0.011319
0.025585
0.041807
0.037072
0.034633
0.024064
0.005787
-0.031178
-0.062411
-0.125982
-0.132624
-0.146416
-0.135577
-0.097324
-0.034946
0.026180
0.087518
0.163647
0.259744
0.334498
0.398381
0.457900
0.484593
0.514177
0.548012
0.540127
0.544621
0.531195
0.496329
0.497026
0.490682
0.471101
0.451464
0.489064
0.493453
0.489800
0.506131
0.537995
0.563709
0.564842
0.557741
0.491902
0.456062
0.406319
0.316589
0.235198
0.163085
0.079307
-0.006614
-0.069877
-0.126380
-0.145995
-0.155974
-0.150674
-0.137442
-0.126692
-0.091778
-0.045497
-0.003006
0.041230
0.067350
0.082059
0.085495
0.059386
0.031301
0.020971
-0.021190
-0.072256
-0.129628
-0.188488
-0.237868
-0.234583
-0.219399
-0.224369
-0.196164
-0.167460
-0.148323
-0.096338
-0.086981
-0.038642
-0.013250
-0.007127
0.003666
0.042729
0.019126
-0.003465
-0.067850
-0.128147
-0.187400
-0.203812
-0.238982
-0.268492
-0.279702
-0.256934
-0.229352
-0.191168
-0.158764
-0.114969
-0.078295
0.013925
0.042502
0.027651
0.020991
0.003776
-0.018306
-0.051879
-0.094617
-0.136131
-0.176436
-0.220895
-0.257226
-0.274975
-0.265786
-0.270377
-0.229624
-0.185060
-0.137257
-0.104285
-0.060698
-0.004494
0.025079
0.041892
0.051259
0.025722
0.010813
-0.025167
-0.090233
-0.129656
-0.160321
-0.185455
-0.231500
-0.243729
-0.259107
-0.253761
-0.222562
-0.158331
-0.103941
-0.073495
-0.029159
0.015212
0.049663
0.076370
0.074093
0.067194
0.022162
-0.030520
-0.062580
-0.107013
-0.162921
-0.214802
-0.225455
-0.216161
-0.233633
-0.226726
-0.189724
-0.152236
-0.111224
-0.068259
-0.018857
0.035803
0.086071
0.090492
0.103050
0.086833
0.067292
0.026912
-0.021392
-0.063587
-0.084766
-0.145513
-0.188116
-0.210818
-0.210299
-0.189559
-0.169055
-0.135508
-0.114512
-0.064893
-0.001372
0.056768
0.083658
0.117878
0.132652
0.117652
0.098483
0.053410
0.019405
-0.035781
-0.084160
-0.136024
-0.153334
-0.171732
-0.181418
-0.187198
-0.158966
-0.130787
-0.090710
-0.037753
0.009053
0.049864
0.068645
0.115520
0.135603
0.140848
0.117154
0.075996
0.023275
-0.006318
-0.053114
-0.104951
-0.147921
-0.174002
-0.190900
-0.180252
-0.149473
-0.108512
-0.087848
-0.053665
-0.019493
0.031881
0.090624
0.097077
0.086536
0.074920
0.055820
0.040427
0.029595
-0.023789
-0.076601
-0.116699
-0.148169
-0.171552
-0.211389
-0.189821
-0.155899
-0.123238
-0.104625
-0.053902
-0.017183
0.022891
0.047024
0.061904
0.068612
0.058910
0.039259
0.038715
0.002594
-0.051897
-0.115166
-0.154472
-0.161137
-0.167387
-0.177345
-0.192913
-0.188652
-0.147503
-0.104614
-0.052406
-0.017351
0.011506
0.040096
0.069281
0.095420
0.080660
0.049809
-0.003827
-0.042191
-0.080160
-0.128315
-0.153788
-0.176754
-0.218209
-0.230551
-0.222317
-0.193077
-0.160632
-0.120400
-0.078212
-0.026675
0.018917
0.036234
0.044815
0.039036
0.027830
0.010485
-0.054112
-0.071453
-0.111145
-0.151732
-0.198085
-0.232343
-0.234556
-0.234808
-0.219729
-0.183442
-0.147804
-0.124833
-0.086118
-0.032478
0.006136
0.028264
0.044551
0.058130
0.045153
0.012465
-0.038051
-0.073335
-0.109477
-0.164592
-0.192751
-0.215065
-0.216968
-0.240015
-0.218307
-0.198194
-0.165809
-0.118400
-0.059555
-0.025454
0.015424
0.046505
0.065910
0.061167
0.047230
0.018081
-0.013908
-0.055508
-0.112599
-0.137966
-0.178306
-0.223982
-0.244219
-0.238392
-0.223392
-0.207298
-0.164066
-0.128208
-0.078063
-0.037155
0.021483
0.077951
0.090857
0.069218
0.057099
0.047991
0.016541
-0.013518
-0.056861
-0.124389
-0.169168
-0.197903
-0.219297
-0.237387
-0.242985
-0.177174
-0.166852
-0.106209
-0.077494
-0.039394
0.008134
0.057839
0.073393
0.094929
0.075914
0.053912
0.015530
-0.049667
-0.085286
-0.113922
-0.166580
-0.210827
-0.233309
-0.230526
-0.220567
-0.202947
-0.173340
-0.120935
-0.082948
-0.032819
0.013555
0.063063
0.099792
0.097404
0.068018
0.049667
0.023764
-0.022673
-0.067739
-0.121841
-0.167830
-0.198943
-0.229126
-0.226162
-0.233535
-0.199647
-0.168225
-0.138170
-0.094247
-0.029439
0.018441
0.058228
0.084494
0.077789
0.051004
0.037359
-0.003919
-0.031997
-0.092593
-0.128227
-0.180575
-0.180498
-0.196735
-0.226915
-0.225135
-0.198892
-0.160973
-0.117334
-0.094742
-0.049507
-0.005719
0.029697
0.045045
0.047786
0.042545
0.042038
-0.003912
-0.054369
-0.079641
-0.121140
-0.196094
-0.210636
-0.224026
-0.219318
-0.199386
-0.181699
-0.143993
-0.094654
-0.087785
-0.048946
-0.001932
0.038811
0.070947
0.069971
0.036341
0.028161
-0.003613
-0.022485
-0.071521
-0.145944
-0.196281
-0.199994
-0.218997
-0.223192
-0.223528
-0.194806
-0.143263
-0.109122
-0.090709
-0.032967
0.013885
0.049979
0.055042
0.055848
0.048932
0.032252
-0.003570
-0.036007
-0.093008
-0.157306
-0.201651
-0.222066
-0.240159
-0.223398
-0.230050
-0.204549
-0.164092
-0.111209
-0.058512
-0.003887
0.025176
0.047922
0.070438
0.079878
0.067145
0.034539
-0.008665
-0.037236
-0.097139
-0.165870
-0.204880
-0.239083
-0.244698
-0.235398
-0.224286
-0.206482
-0.173541
-0.122273
-0.067075
-0.018398
0.021968
0.057523
0.066108
0.079834
0.065135
0.010631
-0.015032
-0.038677
-0.095980
-0.137574
-0.180082
-0.209094
-0.224789
-0.242230
-0.231668
-0.221578
-0.178478
-0.121849
-0.072850
-0.052338
-0.022383
0.001920
0.071046
0.066517
0.051823
0.059423
0.059534
0.003587
-0.061198
-0.124047
-0.160924
-0.193484
-0.246048
-0.264070
-0.224649
-0.211149
-0.189548
-0.155751
-0.097731
-0.041994
0.028922
0.060765
0.095428
0.100810
0.082201
0.062400
0.030070
-0.035136
-0.084829
-0.098343
-0.137715
-0.191582
-0.232274
-0.231769
-0.213493
-0.192786
-0.167442
-0.108831
-0.062827
-0.011937
0.034613
0.063231
0.089803
0.106975
0.097111
0.105942
0.066211
0.015375
-0.043148
-0.072840
-0.112140
-0.149023
-0.165759
-0.181572
-0.171430
-0.154752
-0.132812
-0.079494
-0.031236
0.011849
0.054183
0.075455
0.093500
0.115391
0.106992
0.073875
0.059388
0.016835
-0.023454
-0.064085
-0.105748
-0.137602
-0.144172
-0.148539
-0.129347
-0.120119
-0.100993
-0.058925
-0.005994
0.031515
0.070790
0.089149
0.103972
0.121662
0.101863
0.071609
0.030720
0.000781
-0.049245
-0.085594
-0.127945
-0.157861
-0.164967
-0.183951
-0.159146
-0.141093
-0.125327
-0.109471
-0.037307
0.003704
0.045333
0.083470
0.105616
0.118489
0.074381
0.029087
-0.001480
-0.048458
-0.097490
-0.141942
-0.168695
-0.179824
-0.225823
-0.225803
-0.203749
-0.186223
-0.118948
-0.088119
-0.069936
-0.021305
0.042874
0.047992
0.073615
0.091741
0.057400
0.051319
0.020936
-0.046422
-0.100521
-0.122974
-0.149382
-0.199291
-0.230782
-0.230367
-0.232282
-0.211011
-0.159213
-0.100498
-0.048069
-0.006485
0.021537
0.049948
0.074266
0.066794
0.047202
0.033045
-0.013319
-0.056134
-0.102254
-0.132140
-0.153204
-0.210081
-0.235301
-0.245929
-0.222816
-0.185417
-0.144289
-0.118306
-0.091514
-0.022351
0.035632
0.067024
0.087038
0.102644
0.072931
0.054320
0.023306
-0.019059
-0.063344
-0.113058
-0.173687
-0.234704
-0.261341
-0.247716
-0.234016
-0.211289
-0.150578
-0.123623
-0.102110
-0.033681
0.037159
0.069103
0.071438
0.089327
0.062563
0.043773
0.015300
-0.026695
-0.077033
-0.121508
-0.167779
-0.202604
-0.225037
-0.242546
-0.225962
-0.159539
-0.125861
-0.066189
-0.002192
0.050683
0.114991
0.156682
0.221829
0.219522
0.216808
0.196393
0.190655
0.189351
0.179771
0.152573
0.141600
0.159195
0.155761
0.174566
0.219043
0.273618
0.329692
0.396418
0.477871
0.569955
0.692512
0.753364
0.782533
0.813461
0.845536
0.845511
0.826899
0.816634
0.762190
0.708259
0.634616
0.589390
0.546057
0.514818
0.479140
0.415956
0.366047
0.368760
0.336719
0.322861
0.327110
0.325108
0.296996
0.264702
0.229909
0.196523
0.204385
0.151868
0.098539
0.054592
-0.005191
-0.041914
-0.059422
-0.067366
-0.056654
-0.043274
-0.008622
0.025997
0.060764
0.091440
0.120954
0.134557
0.161830
0.177782
0.152726
0.107203
0.084232
0.040091
-0.015997
-0.050329
-0.096759
-0.143335
-0.163451
-0.138946
-0.119269
-0.086143
-0.061076
-0.029126
0.005437
0.047297
0.084674
0.116962
0.119600
0.138070
0.124375
0.114756
0.080890
0.023697
-0.020321
-0.081103
-0.123975
-0.147070
-0.155012
-0.163326
-0.157992
-0.125215
-0.089332
-0.054880
0.005719
0.057796
0.087500
0.115656
0.161703
0.168436
0.132358
0.099994
0.064175
0.037494
0.001395
-0.054736
-0.104614
-0.141974
-0.158690
-0.165573
-0.150442
-0.119007
-0.077834
-0.021642
0.023148
0.078324
0.115945
0.144785
0.152810
0.165388
0.165314
0.134694
0.096273
0.034648
0.001786
-0.022362
-0.038505
-0.096062
-0.142861
-0.164042
-0.137601
-0.074270
-0.039529
0.005303
0.039623
0.083242
0.118628
0.147231
0.173476
0.201198
0.172995
0.163261
0.128144
0.093968
0.058052
0.014716
-0.047506
-0.085622
-0.097187
-0.114243
-0.094482
-0.067347
-0.033348
-0.004576
0.058850
0.116649
0.135229
0.180481
0.230671
0.238832
0.198804
0.189521
0.187183
0.139876
0.075638
0.012269
-0.036231
-0.041855
-0.048392
-0.077378
-0.073991
-0.067593
-0.042040
-0.004786
0.040326
0.094697
0.136314
0.158355
0.192838
0.239119
0.245744
0.235604
0.198618
0.145489
0.105643
0.060074
0.018369
-0.033202
-0.070978
-0.093076
-0.057309
-0.014777
0.017500
0.045736
0.089144
0.124934
0.163853
0.200534
0.218305
0.226859
0.220605
0.206383
0.163798
0.128457
0.078779
0.031503
-0.000899
-0.024983
-0.044719
-0.053609
-0.048455
-0.031266
-0.001491
0.045966
0.075937
0.101820
0.159570
0.190582
0.206046
0.204063
0.197425
0.171984
0.133760
0.084568
0.065751
0.031964
-0.018769
-0.050538
-0.079538
-0.092721
-0.072726
-0.050618
-0.019258
0.014764
0.048231
0.053262
0.164358
0.233310
0.216404
0.230638
0.203794
0.139421
0.104691
0.080843
0.027670
-0.022328
-0.058157
-0.077658
-0.097413
-0.106627
-0.104114
-0.082902
-0.058674
-0.011792
0.037154
0.104340
0.156259
0.174105
0.182731
0.165543
0.146524
0.122639
0.075537
0.040246
-0.007324
-0.042321
-0.079334
-0.117724
-0.120317
-0.120586
-0.124724
-0.101971
-0.073805
-0.051913
0.016946
0.057453
0.108850
0.160027
0.158808
0.159682
0.138772
0.097982
0.078613
0.037335
-0.023034
-0.063688
-0.087510
-0.131647
-0.142421
-0.155629
-0.146034
-0.127720
-0.092751
-0.027704
0.019918
0.060329
0.090938
0.126543
0.155781
0.158341
0.138450
0.127259
0.092474
0.044670
0.003892
-0.022983
-0.080181
-0.126501
-0.151817
-0.155127
-0.140780
-0.127932
-0.091555
-0.037132
0.011757
0.070718
0.109666
0.122704
0.136568
0.174514
0.159045
0.161714
0.130144
0.065490
-0.003256
-0.058524
-0.081465
-0.094256
-0.141090
-0.144304
-0.146504
-0.112094
-0.073122
-0.047233
-0.005478
0.075781
0.150740
0.158257
0.170514
0.174346
0.162255
0.140248
0.128488
0.077857
0.021825
-0.013516
-0.055578
-0.103846
-0.124436
-0.126584
-0.138266
-0.120797
-0.089021
-0.034622
0.023246
0.072479
0.077417
0.137846
0.177557
0.183929
0.194388
0.163225
0.131322
0.082548
0.037800
-0.005070
-0.052794
-0.075485
-0.110852
-0.128726
-0.111985
-0.097885
-0.071905
-0.018228
0.006230
0.050161
0.096547
0.145656
0.157431
0.164691
0.158659
0.134927
0.106953
0.073500
0.018543
-0.015715
-0.034314
-0.081913
-0.111551
-0.132244
-0.126233
-0.108646
-0.080176
-0.060940
-0.023195
0.064132
0.149183
0.172961
0.165922
0.167384
0.167132
0.155389
0.099861
0.045801
-0.006245
-0.033300
-0.071751
-0.092752
-0.121302
-0.133422
-0.114784
-0.097120
-0.066237
-0.020450
0.027016
0.061435
0.095914
0.125724
0.141120
0.134093
0.130904
0.108636
0.080281
0.039118
-0.007232
-0.047657
-0.084523
-0.117558
-0.131107
-0.132563
-0.115631
-0.094216
-0.059906
-0.036937
0.013764
0.069271
0.110233
0.130965
0.153075
0.129662
0.138260
0.117224
0.085567
0.045582
0.003580
-0.050890
-0.098229
-0.136252
-0.146532
-0.148329
-0.114791
-0.087770
-0.067636
-0.035773
0.002355
0.026209
0.101719
0.145303
0.161220
0.144154
0.154734
0.110219
0.077255
0.056466
0.014640
-0.056869
-0.143651
-0.150024
-0.140774
-0.158642
-0.152946
-0.117058
-0.048853
0.000666
0.021672
0.095214
0.129814
0.150073
0.178155
0.159290
0.153526
0.142835
0.096857
0.044979
-0.007868
-0.052391
-0.102112
-0.134032
-0.155370
-0.157115
-0.148615
-0.113050
-0.088593
-0.038342
0.016031
0.069357
0.114331
0.137242
0.143537
0.161482
0.161635
0.128048
0.104996
0.062619
0.014949
-0.035362
-0.075337
-0.106438
-0.123691
-0.133376
-0.115279
-0.091384
-0.064765
-0.028798
0.044101
0.080421
0.132234
0.175454
0.188934
0.214205
0.199136
0.178011
0.143927
0.086516
0.046586
-0.004106
-0.049700
-0.082491
-0.101313
-0.106515
-0.123509
-0.076981
-0.034116
0.004232
0.033508
0.073049
0.107654
0.150359
0.157543
0.182512
0.181734
0.168369
0.148950
0.113638
0.067710
0.032443
-0.012730
-0.059072
-0.081537
-0.094240
-0.081681
-0.063647
-0.038264
0.021706
0.072100
0.106174
0.148174
0.179516
0.194180
0.198270
0.188825
0.176448
0.144895
0.095618
0.062699
0.011328
-0.038004
-0.073308
-0.104401
-0.116083
-0.122079
-0.104361
-0.075521
-0.030462
0.009723
0.058223
0.101588
0.126387
0.139917
0.153801
0.124748
0.131217
0.120447
0.074547
0.019400
-0.040297
-0.082898
-0.121399
-0.136551
-0.134716
-0.125884
-0.098852
-0.067431
-0.046632
0.012968
0.042570
0.076991
0.101229
0.106884
0.107865
0.113684
0.085389
0.054909
0.014277
-0.019716
-0.045846
-0.089996
-0.130125
-0.155685
-0.146851
-0.131745
-0.113329
-0.085059
-0.045217
-0.001465
0.030168
0.071269
0.107290
0.133376
0.125230
0.116069
0.116409
0.083130
0.037656
-0.013375
-0.056680
-0.109119
-0.140699
-0.145337
-0.151253
-0.128952
-0.115338
-0.092972
-0.053377
-0.019047
0.044461
0.098050
0.100871
0.128202
0.123304
0.114741
0.114606
0.082470
0.009675
-0.038938
-0.076939
-0.112800
-0.127655
-0.178460
-0.198564
-0.158463
-0.120388
-0.074085
-0.053399
-0.000999
0.046036
0.092647
0.125209
0.134694
0.138848
0.118404
0.081041
0.050273
0.007816
-0.028541
-0.058839
-0.101384
-0.120084
-0.135798
-0.123163
-0.106394
-0.068303
-0.021892
0.035500
0.106812
0.172589
0.236417
0.276940
0.309589
0.336703
0.359363
0.365414
0.354833
0.337955
0.312347
0.296917
0.285379
0.282658
0.284405
0.314874
0.364241
0.425273
0.495512
0.576491
0.669782
0.757711
0.831655
0.908430
0.957550
0.961105
0.951644
0.925530
0.883798
0.798380
0.730641
0.679336
0.616661
0.547421
0.436632
0.357173
0.303063
0.278212
0.280203
0.256456
0.244857
0.252268
0.281500
0.285893
0.323513
0.325482
0.310045
0.280527
0.242475
0.185692
0.135220
0.083243
0.031563
0.001750
-0.050739
-0.075000
-0.075659
-0.042766
-0.013891
0.018856
0.071953
0.110794
0.134907
0.165796
0.192726
0.196299
0.202815
0.180956
0.152186
0.115782
0.051186
0.001579
-0.051425
-0.079748
-0.091114
-0.099708
-0.108167
-0.064246
-0.028669
0.009349
0.031224
0.067690
0.087352
0.149502
0.166262
0.178887
0.189634
0.158907
0.109084
0.069703
0.022005
-0.034209
-0.032342
-0.063696
-0.085222
-0.096276
-0.099496
-0.082588
-0.044463
0.004822
0.053499
0.091092
0.129017
0.154544
0.175132
0.186183
0.178020
0.162425
0.121298
0.087043
0.043693
-0.003968
-0.038032
-0.069913
-0.088033
-0.074570
-0.076169
-0.076730
-0.043542
-0.002194
0.045669
0.101132
0.157681
0.201957
0.219610
0.198005
0.166648
0.142997
0.128499
0.108852
0.088312
0.081932
0.039901
-0.028214
-0.099427
-0.099965
-0.056872
-0.014561
-0.004719
0.038450
0.086656
0.140847
0.184706
0.222313
0.224838
0.209568
0.209402
0.186594
0.154370
0.119653
0.078981
0.034844
-0.001788
-0.033380
-0.054377
-0.038398
-0.013538
0.008416
0.037609
0.073273
0.110648
0.161694
0.214817
0.254823
0.277682
0.272763
0.256737
0.217293
0.197570
0.164298
0.106601
0.060069
0.017631
-0.003759
-0.011293
-0.024006
-0.023420
0.028604
0.069090
0.125402
0.182816
0.216059
0.247967
0.271439
0.295184
0.299851
0.290436
0.255261
0.222690
0.181809
0.149837
0.089851
0.039025
0.009216
0.002789
0.006227
0.007948
0.029502
0.072619
0.119411
0.151246
0.204725
0.262505
0.291855
0.315595
0.316364
0.302954
0.263846
0.237455
0.194360
0.148512
0.090906
0.037471
-0.006843
-0.039220
-0.026032
-0.013617
0.023754
0.062047
0.106762
0.145604
0.199992
0.223083
0.242459
0.270778
0.289812
0.279607
0.258939
0.234332
0.186807
0.142256
0.082348
0.031251
-0.007952
-0.040805
-0.071894
-0.040588
-0.025745
-0.016997
0.029741
0.099857
0.158219
0.209343
0.248272
0.257127
0.248752
0.236045
0.199833
0.179120
0.157372
0.098643
0.059230
0.010343
-0.022847
-0.055324
-0.061841
-0.049768
-0.039416
-0.017629
0.018121
0.068521
0.115225
0.140799
0.175583
0.207545
0.203116
0.185551
0.166559
0.126769
0.078763
0.048632
0.028748
-0.011657
-0.063222
-0.079270
-0.056430
-0.064089
-0.054294
-0.040588
0.015961
0.044615
0.084434
0.116510
0.159070
0.175943
0.158908
0.176179
0.147596
0.122947
0.085165
0.050479
0.008586
-0.064677
-0.072618
-0.077423
-0.076851
-0.078874
-0.059016
-0.024785
0.023637
0.067493
0.097306
0.120581
0.146001
0.172659
0.174544
0.165573
0.138924
0.095155
0.070425
0.035835
-0.007122
-0.041710
-0.074700
-0.100740
-0.094385
-0.082034
-0.057425
-0.022285
0.000886
0.032571
0.097229
0.146635
0.178508
0.196128
0.189293
0.156934
0.161802
0.133606
0.065680
0.017577
0.014699
-0.028267
-0.063416
-0.097491
-0.111330
-0.088286
-0.058560
-0.022309
0.028839
0.085432
0.121550
0.138081
0.155536
0.188629
0.204266
0.203170
0.166738
0.123028
0.078053
0.036499
-0.005701
-0.046138
-0.087569
-0.085561
-0.099776
-0.106768
-0.057424
-0.007929
0.020627
0.058517
0.120256
0.156488
0.195928
0.206655
0.194224
0.187811
0.160748
0.124445
0.090311
0.055103
0.022171
-0.030302
-0.084674
-0.117359
-0.100330
-0.095276
-0.081957
-0.042913
-0.003253
0.035750
0.087610
0.154178
0.180906
0.189140
0.200252
0.205616
0.184323
0.138074
0.100337
0.050648
0.004438
-0.047144
-0.077000
-0.110931
-0.108419
-0.091913
-0.066765
-0.042115
-0.008869
0.039047
0.095630
0.140818
0.176640
0.193871
0.195850
0.191681
0.161647
0.170300
0.113771
0.012963
-0.016470
-0.040084
-0.092386
-0.114095
-0.095589
-0.098813
-0.086703
-0.044249
-0.025180
0.016687
0.058102
0.108966
0.161776
0.185832
0.173379
0.160559
0.162920
0.114755
0.061046
0.014213
-0.037332
-0.034990
-0.038956
-0.054958
-0.085804
-0.102782
-0.094362
-0.042724
0.008321
0.034684
0.084156
0.122119
0.142778
0.145250
0.160949
0.170588
0.162517
0.138052
0.058122
0.029167
0.003330
-0.030095
-0.057269
-0.102358
-0.116360
-0.098564
-0.068846
-0.044002
-0.011595
0.020017
0.052181
0.094576
0.124530
0.138217
0.137568
0.137785
0.127407
0.106555
0.074488
0.028205
-0.018859
-0.048223
-0.072560
-0.103280
-0.107745
-0.097410
-0.072470
-0.041462
-0.001771
0.024119
0.034428
0.106890
0.139269
0.147324
0.144318
0.142090
0.113891
0.085638
0.066495
0.027117
-0.018895
-0.068150
-0.082459
-0.114672
-0.130926
-0.121039
-0.076622
-0.024186
-0.001483
0.019214
0.075792
0.157114
0.171698
0.184187
0.179007
0.161700
0.146688
0.119573
0.080650
0.049976
0.001602
-0.042506
-0.054232
-0.084980
-0.088002
-0.069962
-0.045996
-0.026559
0.018672
0.056192
0.112485
0.168970
0.208836
0.210900
0.194514
0.179474
0.135068
0.099621
0.099239
0.053222
-0.003016
-0.036385
-0.069611
-0.076050
-0.082407
-0.092417
-0.046085
-0.013238
0.030888
0.082513
0.142619
0.171555
0.203197
0.212037
0.214479
0.223598
0.202992
0.156559
0.107415
0.079715
0.018350
-0.041811
-0.083389
-0.104171
-0.103881
-0.090534
-0.081211
-0.039533
0.002420
0.044830
0.091528
0.142489
0.178401
0.183378
0.200340
0.185963
0.162744
0.128131
0.077213
0.028733
-0.030065
-0.087764
-0.107332
-0.124451
-0.109691
-0.100500
-0.102362
-0.101379
-0.049690
0.010018
0.060185
0.111362
0.149724
0.160336
0.164593
0.163183
0.135703
0.088615
0.051226
0.002347
-0.052191
-0.081887
-0.115987
-0.132177
-0.148365
-0.158907
-0.158099
-0.090260
-0.053302
-0.030331
0.014073
0.072859
0.126052
0.172332
0.150861
0.113797
0.121643
0.101210
0.063789
0.001933
-0.048373
-0.083617
-0.120330
-0.158918
-0.160869
-0.150738
-0.121445
-0.088609
-0.065241
-0.033555
0.018442
0.056165
0.096800
0.120310
0.144098
0.134494
0.088505
0.061758
0.020164
-0.014349
-0.067800
-0.102519
-0.119307
-0.152440
-0.169222
-0.132991
-0.116476
-0.096869
-0.057680
-0.017314
0.022927
0.076777
0.116129
0.126384
0.118972
0.103897
0.089269
0.053695
0.016127
-0.019348
-0.064405
-0.092821
-0.126613
-0.166373
-0.168869
-0.162555
-0.127233
-0.086585
-0.035984
0.009187
0.053709
0.074537
0.145980
0.173993
0.178761
0.186334
0.183506
0.172379
0.143897
0.085979
0.050237
0.044664
0.041823
0.012886
0.045971
0.084664
0.129856
0.212568
0.311537
0.385120
0.456277
0.510808
0.588786
0.639384
0.657051
0.674065
0.710540
0.716220
0.710321
0.683954
0.670623
0.674307
0.663014
0.631689
0.639758
0.676749
0.686098
0.710375
0.738521
0.754017
0.783195
0.764726
0.706639
0.658936
0.586827
0.517696
0.428895
0.339848
0.258919
0.188239
0.124257
0.063014
0.025523
0.012994
-0.019840
-0.021378
0.000798
0.038628
0.077160
0.112195
0.158441
0.180833
0.201978
0.221746
0.219164
0.204469
0.193222
0.166473
0.125300
0.083271
0.003839
-0.068691
-0.094285
-0.094616
-0.104630
-0.101902
-0.079960
-0.041843
-0.010585
0.032042
0.082865
0.142123
0.173908
0.178767
0.167263
0.163263
0.149268
0.119477
0.078002
0.030182
-0.021023
-0.067431
-0.103496
-0.126531
-0.138850
-0.128136
-0.099762
-0.063660
-0.022874
0.006093
0.068611
0.105586
0.139982
0.186929
0.170310
0.155122
0.147795
0.103840
0.069976
0.015678
-0.015691
-0.043658
-0.082587
-0.114242
-0.095128
-0.095899
-0.085544
-0.065010
-0.032738
0.018026
0.057153
0.111697
0.137777
0.166338
0.185184
0.191382
0.158612
0.103183
0.088689
0.050280
-0.000365
-0.038225
-0.082138
-0.092720
-0.093772
-0.088484
-0.040123
-0.030962
-0.005809
0.030193
0.071003
0.115992
0.157016
0.181823
0.187320
0.192791
0.173678
0.132374
0.098029
0.069062
0.028443
-0.005453
-0.036920
-0.066055
-0.075239
-0.069133
-0.044834
-0.007463
0.046506
0.079511
0.124044
0.165221
0.195156
0.211627
0.214773
0.205813
0.189647
0.183118
0.135959
0.105010
0.033554
0.001880
-0.011468
-0.032685
-0.028177
-0.016507
0.003280
0.038574
0.069570
0.119094
0.166066
0.195396
0.210259
0.212912
0.254062
0.273624
0.248299
0.195974
0.167192
0.126991
0.073963
0.019192
-0.006262
-0.021836
-0.014603
0.004166
0.030595
0.070213
0.124071
0.175370
0.205677
0.231590
0.276275
0.281492
0.276680
0.268042
0.246798
0.215988
0.162094
0.110265
0.073285
0.026063
-0.009390
-0.032544
-0.019072
-0.007856
0.034208
0.041910
0.084757
0.165918
0.218800
0.248988
0.254248
0.268063
0.271222
0.239724
0.239004
0.203728
0.152950
0.114531
0.052598
0.004991
-0.040446
-0.060680
-0.064538
-0.030776
0.007021
0.036277
0.074605
0.115113
0.154822
0.179031
0.210521
0.244491
0.251110
0.226794
0.204443
0.173829
0.132315
0.085320
0.023069
-0.018063
-0.066242
-0.093962
-0.076199
-0.080526
-0.059512
-0.034193
0.013166
0.049704
0.109752
0.123880
0.164850
0.196434
0.194905
0.194456
0.160664
0.178513
0.132835
0.072420
-0.008502
-0.053320
-0.088328
-0.116887
-0.121533
-0.122538
-0.092924
-0.076730
-0.052508
0.002980
0.070134
0.112037
0.145075
0.169105
0.185113
0.176344
0.158721
0.130106
0.082084
0.031526
-0.024039
-0.071259
-0.106633
-0.124605
-0.152030
-0.128306
-0.102376
-0.059897
-0.030874
-0.000711
0.049548
0.084739
0.117015
0.155819
0.163945
0.156482
0.139886
0.117709
0.068146
0.004726
-0.033446
-0.061761
-0.078023
-0.104022
-0.126923
-0.126731
-0.103222
-0.079629
-0.036822
-0.019290
0.054091
0.105710
0.105515
0.139797
0.142437
0.159784
0.144161
0.113468
0.073212
0.039276
-0.010304
-0.070336
-0.105303
-0.144036
-0.116940
-0.112092
-0.093556
-0.078443
-0.011646
0.045901
0.065436
0.094184
0.126452
0.158719
0.159230
0.140397
0.115397
0.099898
0.057136
0.019500
-0.039272
-0.071858
-0.095288
-0.114829
-0.127532
-0.114118
-0.080409
-0.038689
0.005304
0.057974
0.090593
0.118243
0.142360
0.161606
0.151078
0.138407
0.109713
0.094598
0.037595
-0.012479
-0.036131
-0.057888
-0.096324
-0.127311
-0.139256
-0.108766
-0.070549
-0.031998
0.008875
0.048779
0.077127
0.121312
0.169429
0.181927
0.171815
0.156898
0.116285
0.088582
0.055585
0.027845
-0.018256
-0.077761
-0.116334
-0.133737
-0.128621
-0.116832
-0.091611
-0.065034
-0.010041
0.051301
0.084127
0.104851
0.133481
0.168011
0.179273
0.160798
0.127524
0.072691
0.053980
0.011623
-0.046924
-0.081713
-0.098564
-0.134820
-0.164281
-0.116922
-0.081744
-0.070590
-0.022294
0.021537
0.079794
0.111794
0.145161
0.163335
0.170125
0.147910
0.129901
0.094158
0.032775
0.008508
-0.030447
-0.073240
-0.114842
-0.146165
-0.152902
-0.132827
-0.109594
-0.088298
-0.028123
0.011438
0.048118
0.084184
0.122794
0.163016
0.169879
0.155490
0.124669
0.080215
0.049733
-0.002392
-0.065175
-0.089829
-0.115434
-0.144045
-0.147763
-0.152469
-0.116546
-0.085409
-0.040305
-0.007071
0.040909
0.081357
0.123158
0.150407
0.164273
0.164179
0.127067
0.090812
0.042971
-0.005884
-0.054292
-0.094877
-0.125951
-0.153916
-0.128930
-0.131239
-0.121952
-0.081280
-0.045326
-0.010846
0.044432
0.072704
0.112695
0.140940
0.140564
0.131042
0.138353
0.106554
0.039980
-0.011495
-0.077712
-0.113594
-0.123029
-0.156438
-0.145360
-0.097806
-0.066726
-0.062502
-0.049085
-0.019252
0.017669
0.046221
0.111170
0.125711
0.132016
0.150512
0.130624
0.079366
0.044211
0.022123
-0.023168
-0.063538
-0.115856
-0.158590
-0.133705
-0.108575
-0.076682
-0.055510
-0.026938
0.014666
0.071327
0.097111
0.130897
0.172391
0.173263
0.161127
0.138003
0.116271
0.058674
-0.004821
-0.036071
-0.056601
-0.067492
-0.086532
-0.103737
-0.109989
-0.087913
-0.053426
-0.015183
0.027758
0.089739
0.132565
0.150566
0.162401
0.153847
0.145171
0.131883
0.111518
0.063841
0.031883
-0.006836
-0.044806
-0.080362
-0.084905
-0.088265
-0.080451
-0.051085
-0.023087
0.022657
0.056257
0.091452
0.117877
0.166180
0.185007
0.170347
0.158698
0.133459
0.098305
0.078837
0.016059
-0.037523
-0.077187
-0.112522
-0.128383
-0.123087
-0.109729
-0.098491
-0.066493
-0.039302
0.010758
0.081265
0.120984
0.129594
0.137667
0.152331
0.139213
0.120537
0.079021
0.027345
-0.031497
-0.092867
-0.132351
-0.166404
-0.194486
-0.158460
-0.146375
-0.115998
-0.073040
-0.057156
-0.013320
0.044039
0.111823
0.153291
0.136538
0.114184
0.088520
0.084628
0.070614
0.002520
-0.051137
-0.098800
-0.148618
-0.168067
-0.185322
-0.185283
-0.162970
-0.148997
-0.120600
-0.081372
-0.032460
0.020922
0.061538
0.087672
0.111030
0.142068
0.125932
0.096528
0.058210
0.021308
-0.032860
-0.083754
-0.137617
-0.154652
-0.171365
-0.190106
-0.183330
-0.163834
-0.128151
-0.081627
-0.053911
-0.008444
0.034103
0.074135
0.114588
0.121243
0.110358
0.100220
0.063867
0.023180
-0.015083
-0.063732
-0.114152
-0.164761
-0.186571
-0.198203
-0.195178
-0.177767
-0.156073
-0.113133
-0.044224
0.005410
0.044092
0.087696
0.119109
0.127517
0.110339
0.078588
0.075308
0.042764
-0.005682
-0.058399
-0.099834
-0.129860
-0.161984
-0.168327
-0.112337
-0.084479
-0.050464
0.004185
0.060402
0.128756
0.188269
0.237732
0.269089
0.302984
0.321878
0.330050
0.321543
0.306394
0.272912
0.264904
0.286417
0.300429
0.307773
0.330465
0.363511
0.395771
0.487427
0.562798
0.627471
0.720687
0.782188
0.845099
0.908116
0.919316
0.892742
0.890381
0.853995
0.804656
0.726298
0.667195
0.596228
0.493181
0.406288
0.333519
0.278975
0.258647
0.238429
0.224140
0.218829
0.236181
0.253570
0.259598
0.268351
0.276283
0.270512
0.246452
0.197902
0.147801
0.089033
0.032858
-0.015225
-0.052371
-0.052647
-0.064129
-0.063575
-0.039098
-0.017627
0.042765
0.081581
0.090272
0.138866
0.144957
0.161922
0.169352
0.151104
0.122934
0.086662
0.057757
0.025497
-0.030942
-0.080695
-0.107606
-0.132039
-0.137280
-0.117611
-0.095850
-0.065273
-0.029680
0.017205
0.061715
0.096027
0.127264
0.133923
0.147679
0.144983
0.133709
0.101811
0.031127
-0.011740
-0.055536
-0.088150
-0.121203
-0.147826
-0.146447
-0.136395
-0.109815
-0.070026
-0.037206
0.006240
0.063488
0.103341
0.141396
0.163830
0.163841
0.159109
0.130107
0.092304
0.050858
-0.003002
-0.060342
-0.088453
-0.105205
-0.101549
-0.116761
-0.120305
-0.108900
-0.071031
-0.029365
0.015948
0.070885
0.118319
0.149151
0.161823
0.151387
0.166650
0.163352
0.143272
0.067248
0.020999
-0.027081
-0.027067
-0.046506
-0.072412
-0.096994
-0.117031
-0.102002
-0.073653
-0.033259
0.025572
0.072436
0.118593
0.158851
0.198507
0.203684
0.200303
0.192929
0.151873
0.091572
0.064707
0.014407
-0.026623
-0.038775
-0.047610
-0.050120
-0.064834
-0.041274
-0.004282
0.035041
0.096947
0.141128
0.181476
0.177808
0.202103
0.224944
0.228734
0.212098
0.185435
0.145440
0.117235
0.064833
0.027176
-0.009091
-0.018663
-0.032967
-0.037569
-0.024303
0.024143
0.073588
0.118034
0.162946
0.192665
0.225864
0.259205
0.254772
0.255753
0.242187
0.211057
0.169417
0.119877
0.077709
0.038062
0.018102
-0.004879
-0.011643
0.000629
0.013836
0.051340
0.091097
0.134585
0.180772
0.219588
0.242014
0.263080
0.262125
0.257046
0.233501
0.194372
0.148531
0.112696
0.068011
0.034331
-0.000303
-0.015373
-0.019869
-0.012346
0.006456
0.027359
0.070672
0.108591
0.146326
0.185578
0.212471
0.246487
0.234497
0.217383
0.203820
0.172732
0.150466
0.106791
0.048970
-0.002935
-0.033730
-0.054982
-0.059176
-0.043095
-0.017348
0.013518
0.049159
0.090867
0.138689
0.167866
0.209372
0.216993
0.199911
0.183028
0.131588
0.113052
0.047050
0.014491
-0.011900
-0.009628
-0.025457
-0.073085
-0.116561
-0.123921
-0.093841
-0.040419
0.013894
0.069067
0.110051
0.151734
0.169657
0.179861
0.173160
0.166827
0.135668
0.105708
0.055871
0.009762
-0.043349
-0.092773
-0.120302
-0.137764
-0.145084
-0.137615
-0.119401
-0.086043
-0.037887
0.023379
0.059027
0.097956
0.136540
0.154768
0.152341
0.146902
0.126190
0.083622
0.041156
0.000301
-0.047233
-0.084887
-0.132330
-0.157718
-0.162387
-0.153474
-0.123659
-0.105307
-0.054668
-0.004938
0.032393
0.089048
0.115763
0.161301
0.186021
0.177028
0.129894
0.100866
0.053967
-0.007339
-0.059897
-0.101226
-0.119020
-0.135998
-0.144077
-0.128033
-0.104514
-0.102950
-0.053510
-0.026961
0.050877
0.092465
0.140942
0.165562
0.167404
0.156834
0.141364
0.101508
0.067991
0.021972
-0.004585
-0.047847
-0.094143
-0.120389
-0.120598
-0.105237
-0.100676
-0.093308
-0.063095
-0.011061
0.043515
0.079284
0.104452
0.119709
0.137516
0.135179
0.160625
0.159168
0.117957
0.076993
0.002790
-0.052683
-0.080049
-0.124184
-0.133798
-0.138075
-0.105753
-0.069357
-0.029996
-0.000355
0.050810
0.098362
0.121034
0.140920
0.148295
0.146278
0.123596
0.088597
0.065103
0.032710
-0.005122
-0.053678
-0.090076
-0.113967
-0.117119
-0.107824
-0.085504
-0.056483
-0.018847
0.010502
0.058843
0.099712
0.135360
0.144033
0.143686
0.147033
0.125915
0.093845
0.048177
0.009099
-0.038283
-0.071719
-0.102985
-0.118047
-0.126426
-0.110405
-0.094165
-0.057147
-0.023587
0.014807
0.062410
0.093120
0.118305
0.153143
0.164931
0.137401
0.104597
0.085416
0.045056
-0.004571
-0.062844
-0.076191
-0.109962
-0.117649
-0.131732
-0.120106
-0.101032
-0.079197
-0.031994
-0.000824
0.058052
0.086218
0.112398
0.134971
0.169473
0.142379
0.115584
0.093105
0.050836
-0.003066
-0.057824
-0.091639
-0.104137
-0.121100
-0.134553
-0.130211
-0.093858
-0.057959
-0.005644
0.047680
0.065607
0.077071
0.115599
0.106602
0.120552
0.118014
0.099009
0.072037
0.025519
-0.024920
-0.057697
-0.103235
-0.139918
-0.156720
-0.164344
-0.142811
-0.121619
-0.069788
-0.019435
0.009765
0.045072
0.093108
0.146144
0.171097
0.149671
0.122594
0.099988
0.082381
0.031280
-0.030846
-0.064262
-0.100026
-0.147581
-0.137507
-0.129866
-0.138029
-0.123999
-0.096795
-0.041241
0.007251
0.049448
0.106026
0.117952
0.126126
0.142398
0.137710
0.095109
0.085663
0.049109
-0.003347
-0.049388
-0.096935
-0.131632
-0.190214
-0.210512
-0.155676
-0.113385
-0.061220
-0.046888
-0.010855
0.046029
0.094104
0.127419
0.145428
0.149723
0.136851
0.122453
0.089767
0.040223
-0.007689
-0.049646
-0.097794
-0.133227
-0.151741
-0.163315
-0.163520
-0.137600
-0.091104
-0.054569
-0.007898
0.036537
0.074757
0.103514
0.140974
0.162468
0.162362
0.141540
0.104796
0.054824
0.033195
-0.006653
-0.057543
-0.113788
-0.130507
-0.120114
-0.114673
-0.096946
-0.067773
-0.028561
0.039728
0.074594
0.120771
0.155813
0.160729
0.182404
0.168076
0.146031
0.115196
0.079662
0.026698
-0.024232
-0.062276
-0.075849
-0.109724
-0.121043
-0.111503
-0.093292
-0.056945
-0.019683
0.030092
0.074853
0.122767
0.156564
0.171110
0.182098
0.183313
0.169494
0.138412
0.103710
0.055806
-0.000290
-0.040073
-0.059616
-0.080654
-0.112828
-0.093626
-0.080076
-0.064608
-0.048749
-0.013279
0.057956
0.095478
0.121483
0.129669
0.118638
0.187345
0.168682
0.109485
0.051776
0.017048
-0.032280
-0.088214
-0.116057
-0.123281
-0.114759
-0.105732
-0.087778
-0.075577
-0.051307
-0.002641
0.045701
0.076161
0.117802
0.128184
0.133310
0.111293
0.087184
0.061280
0.018871
-0.035612
-0.099650
-0.107281
-0.150211
-0.157701
-0.151804
-0.123602
-0.105426
-0.100819
-0.062843
0.009599
0.027857
0.039906
0.075340
0.087582
0.098832
0.094170
0.069504
0.036071
-0.001157
-0.051615
-0.092495
-0.112115
-0.129522
-0.162066
-0.177610
-0.178674
-0.146238
-0.111004
-0.065966
-0.017542
0.034960
0.061534
0.092776
0.105275
0.115970
0.090759
0.068872
0.034174
-0.013848
-0.065165
-0.081444
-0.124833
-0.173259
-0.185245
-0.190124
-0.183410
-0.117077
-0.074915
-0.075856
-0.032846
0.023034
0.076264
0.098256
0.134149
0.122662
0.111013
0.096926
0.065683
0.012388
-0.046272
-0.096890
-0.148076
-0.179656
-0.184564
-0.172654
-0.159258
-0.154707
-0.113368
-0.059432
-0.029817
0.016549
0.081546
0.114156
0.117744
0.148742
0.144500
0.128697
0.104223
0.055135
0.027863
0.027485
-0.006932
-0.036669
-0.042140
-0.054989
-0.049039
0.016636
0.081612
0.148772
0.240478
0.318129
0.399755
0.466160
0.498653
0.558482
0.586483
0.585956
0.596886
0.576441
0.566205
0.552990
0.547988
0.545141
0.561979
0.585481
0.627273
0.642571
0.667595
0.712278
0.762312
0.787313
0.811874
0.828233
0.821923
0.786463
0.710385
0.623826
0.520487
0.433034
0.337046
0.236675
0.144101
0.071582
0.039881
0.016596
0.011274
0.037432
0.049193
0.081395
0.120988
0.151432
0.169569
0.200656
0.221151
0.222966
0.213410
0.184249
0.146008
0.097319
0.056461
0.015566
-0.026019
-0.061535
-0.095478
-0.104196
-0.098515
-0.086535
-0.047559
0.014825
0.062602
0.062707
0.121125
0.131877
0.129157
0.140477
0.131740
0.109673
0.094092
0.062800
0.016419
-0.027502
-0.070618
-0.097053
-0.117826
-0.128594
-0.105889
-0.089092
-0.059200
-0.021099
0.016579
0.051033
0.104567
0.141095
0.145828
0.139626
0.130620
0.121156
0.083102
0.054468
0.007514
-0.041697
-0.082297
-0.110207
-0.128873
-0.135009
-0.124302
-0.093588
-0.047031
-0.006549
0.034329
0.081322
0.120107
0.141326
0.174284
0.159467
0.138596
0.132671
0.105204
0.062653
0.002429
-0.028871
-0.061833
-0.099324
-0.106708
-0.108825
-0.103330
-0.082317
-0.039737
0.016243
0.068307
0.111326
0.152112
0.179235
0.192196
0.182225
0.168715
0.148415
0.113342
0.068336
0.029231
-0.006200
-0.038404
-0.070131
-0.094035
-0.107547
-0.085488
-0.061249
-0.022546
0.022139
0.068833
0.137396
0.184342
0.212447
0.224826
0.224568
0.215608
0.189910
0.163143
0.122450
0.075466
0.019823
-0.022837
-0.048798
-0.060675
-0.056586
-0.032601
-0.029207
0.010259
0.069939
0.128627
0.167867
0.208366
0.221308
0.248392
0.257563
0.257579
0.238596
0.195031
0.149578
0.091920
0.057361
0.028379
-0.011631
-0.022336
-0.026134
-0.024503
-0.004420
0.035595
0.074505
0.137723
0.188046
0.216908
0.248992
0.279713
0.291114
0.287234
0.265550
0.235948
0.185123
0.132089
0.072598
0.029694
-0.002137
-0.010939
-0.019055
-0.029376
-0.022751
0.025371
0.072384
0.139447
0.203343
0.243877
0.283351
0.285621
0.278621
0.267483
0.274789
0.227603
0.174498
0.118216
0.065194
0.036224
0.016271
0.000861
-0.027288
-0.049073
-0.032208
0.013165
0.039229
0.118686
0.166041
0.195369
0.242902
0.256329
0.250702
0.231683
0.226459
0.189596
0.127920
0.090920
0.044142
0.007944
-0.023209
-0.050686
-0.065976
-0.061157
-0.044382
-0.023511
0.005529
0.053515
0.112074
0.144424
0.186020
0.185437
0.200706
0.190771
0.180079
0.150097
0.097793
0.049658
0.003291
-0.032000
-0.056213
-0.079498
-0.098181
-0.098468
-0.072328
-0.046226
-0.023206
0.013014
0.066970
0.094572
0.122833
0.162324
0.169835
0.166297
0.145047
0.111892
0.073744
0.032238
-0.008432
-0.044738
-0.105240
-0.125233
-0.112380
-0.109396
-0.104106
-0.072728
-0.027619
0.019981
0.055287
0.080143
0.119512
0.129469
0.126937
0.123361
0.130248
0.108280
0.061060
0.007096
-0.036373
-0.076568
-0.100899
-0.124007
-0.113601
-0.094231
-0.087433
-0.076007
-0.029482
0.026919
0.058322
0.102355
0.113384
0.135830
0.146853
0.137823
0.133153
0.102316
0.063426
0.011098
-0.043279
-0.084871
-0.110593
-0.111130
-0.108040
-0.102508
-0.092064
-0.066047
-0.008823
0.043797
0.080266
0.105694
0.130735
0.149191
0.166390
0.156916
0.129714
0.086916
0.041055
-0.014077
-0.056281
-0.062177
-0.090793
-0.128493
-0.136924
-0.137924
-0.110342
-0.065856
-0.020315
0.030414
0.061138
0.155701
0.207570
0.205035
0.194277
0.170695
0.121398
0.084385
0.062851
0.008450
-0.036409
-0.066562
-0.083572
-0.092287
-0.106602
-0.088190
-0.066372
-0.038534
-0.014572
0.047226
0.093478
0.140597
0.175351
0.173134
0.167248
0.169883
0.149245
0.118562
0.075656
0.023178
-0.030720
-0.069261
-0.100964
-0.118011
-0.118091
-0.115377
-0.086657
-0.055059
-0.023940
0.027888
0.075161
0.134465
0.174055
0.180027
0.171416
0.165822
0.156102
0.120952
0.064157
0.001356
-0.021938
-0.066499
-0.114179
-0.116712
-0.127027
-0.122065
-0.104406
-0.065717
-0.038840
0.008675
0.074008
0.100110
0.137741
0.156609
0.155367
0.155684
0.157160
0.125801
0.075814
0.017287
-0.031823
-0.064916
-0.107402
-0.127954
-0.143567
-0.141105
-0.113504
-0.072182
-0.039359
0.009027
0.056716
0.094717
0.128922
0.159142
0.168285
0.156375
0.129569
0.095394
0.064816
0.029088
-0.016634
-0.061373
-0.107383
-0.137281
-0.147892
-0.125092
-0.133269
-0.102092
-0.055939
0.019147
0.071180
0.117709
0.140984
0.148697
0.155773
0.144308
0.120880
0.093497
0.070938
0.012549
-0.038838
-0.071865
-0.101170
-0.110804
-0.110156
-0.110707
-0.103308
-0.069964
-0.045324
0.022152
0.052918
0.069744
0.113632
0.153839
0.142705
0.119264
0.094571
0.077635
0.023711
-0.014130
-0.022912
-0.049050
-0.071790
-0.106576
-0.126135
-0.113894
-0.087438
-0.054799
-0.023219
0.017031
0.056591
0.096313
0.108282
0.114459
0.129291
0.146621
0.126286
0.059128
0.013308
0.000801
-0.036312
-0.068210
-0.111683
-0.128382
-0.136513
-0.128061
-0.098013
-0.063778
-0.015765
0.034929
0.063430
0.087420
0.112821
0.138293
0.154886
0.136186
0.108106
0.077662
0.041741
-0.009039
-0.056922
-0.088682
-0.114061
-0.128570
-0.130055
-0.126256
-0.100287
-0.077042
-0.040531
0.027587
0.074660
0.102490
0.122991
0.129895
0.142408
0.163640
0.145012
0.092018
0.053426
0.004064
-0.039207
-0.076717
-0.117019
-0.129769
-0.128540
-0.120648
-0.096548
-0.048164
0.001658
0.054550
0.103929
0.145052
0.177611
0.198755
0.190641
0.182646
0.167565
0.131185
0.077734
0.034736
-0.005605
-0.041541
-0.073370
-0.114689
-0.127686
-0.103595
-0.086900
-0.060303
-0.016638
0.025401
0.086255
0.129188
0.169186
0.191485
0.196225
0.186492
0.160513
0.141088
0.106750
0.071473
0.016186
-0.030316
-0.065868
-0.086557
-0.103093
-0.112483
-0.084289
-0.056965
-0.019582
0.051674
0.146922
0.178949
0.178308
0.194450
0.210670
0.190885
0.155047
0.131623
0.098006
0.048021
-0.008760
-0.059542
-0.082368
-0.102098
-0.152713
-0.107168
-0.069112
-0.047853
-0.035207
-0.004807
0.044845
0.099942
0.124406
0.143755
0.156784
0.155988
0.155477
0.105560
0.056449
0.026900
-0.009791
-0.060170
-0.094893
-0.145152
-0.154311
-0.162810
-0.114527
-0.074395
-0.044862
-0.002570
0.025681
0.065790
0.102866
0.125510
0.128428
0.126043
0.101486
0.061664
0.021264
-0.022183
-0.067224
-0.101931
-0.111731
-0.123333
-0.126328
-0.124425
-0.112983
-0.103791
-0.063342
-0.009638
0.032189
0.069172
0.095181
0.110003
0.128130
0.127451
0.097011
0.067609
0.024098
-0.027736
-0.059479
-0.083921
-0.125992
-0.140289
-0.148195
-0.139733
-0.108287
-0.079343
-0.022320
0.015577
0.033650
0.082767
0.099419
0.116509
0.102158
0.126844
0.107460
0.078384
0.031224
-0.018168
-0.075272
-0.117565
-0.136815
-0.148843
-0.152989
-0.145619
-0.116447
-0.084968
-0.044186
-0.000454
0.033686
0.065338
0.099704
0.112154
0.100238
0.123709
0.138348
0.111226
0.060194
0.015118
-0.046492
-0.093214
-0.126649
-0.136828
-0.122034
-0.095923
-0.067257
-0.007701
0.063452
0.122663
0.158711
0.230889
0.274049
0.300638
0.324802
0.344196
0.348430
0.336917
0.316743
0.305062
0.314652
0.302837
0.286384
0.290775
0.319786
0.335167
0.381267
0.465874
0.589112
0.680574
0.758063
0.819089
0.888057
0.941814
0.954104
0.940305
0.919094
0.878016
0.810179
0.738382
0.668807
0.601649
0.518203
0.421110
0.344290
0.297600
0.276973
0.251219
0.235305
0.233653
0.240979
0.275181
0.295720
0.310161
0.308987
0.303508
0.271698
0.232221
0.178362
0.128864
0.065171
0.021312
0.000663
-0.027685
-0.051783
-0.073414
-0.046815
0.000529
0.031929
0.081231
0.109325
0.138583
0.172661
0.187528
0.190571
0.190419
0.176639
0.134776
0.090470
0.058858
0.017621
-0.037476
-0.065953
-0.079580
-0.091279
-0.093717
-0.082664
-0.029667
0.013534
0.062822
0.095205
0.139593
0.165851
0.169164
0.160105
0.165402
0.151730
0.117746
0.070603
0.037837
-0.010482
-0.046817
-0.073325
-0.095843
-0.103045
-0.091185
-0.068029
-0.026875
0.007377
0.045397
0.095060
0.134149
0.168459
0.184652
0.170197
0.158010
0.146455
0.119079
0.080176
0.031512
-0.003616
-0.045517
-0.086200
-0.095896
-0.094158
-0.091206
-0.049984
-0.012457
0.024445
0.082233
0.127118
0.156611
0.174173
0.196348
0.211001
0.195803
0.176886
0.142028
0.088133
0.052891
0.017838
-0.032143
-0.066513
-0.077018
-0.080159
-0.073789
-0.055513
-0.018089
0.022636
0.117103
0.155229
0.184509
0.196610
0.221961
0.237581
0.248839
0.216817
0.196842
0.140312
0.086721
0.046193
0.013910
-0.025656
-0.053177
-0.058049
-0.036304
-0.019434
0.018462
0.061888
0.112431
0.170613
0.215588
0.231836
0.222275
0.262313
0.289181
0.277391
0.239911
0.181979
0.101179
0.071771
0.050948
0.045622
-0.004622
-0.011695
0.006850
0.010346
0.047518
0.107356
0.151948
0.202625
0.242019
0.267725
0.298608
0.306198
0.301907
0.287437
0.257622
0.217868
0.179808
0.114597
0.067661
0.055333
0.038756
0.022192
0.019438
0.046124
0.074296
0.099780
0.143122
0.193487
0.237944
0.287668
0.318659
0.303528
0.284269
0.268266
0.249940
0.197571
0.158091
0.128874
0.103111
0.041304
0.011023
0.025800
0.033276
0.042878
0.067671
0.089090
0.139320
0.184358
0.219580
0.241149
0.267603
0.298176
0.282706
0.253040
0.228608
0.202689
0.133786
0.084801
0.046586
0.020084
0.003788
-0.000769
0.002762
0.006871
0.020337
0.064752
0.122618
0.160814
0.185989
0.199302
0.195896
0.201643
0.194149
0.194643
0.169793
0.101835
0.089765
0.069714
0.009789
-0.025510
-0.050162
-0.054914
-0.050161
-0.023397
0.015232
0.052656
0.107527
0.123919
0.168060
0.179480
0.173017
0.180685
0.184148
0.179796
0.154148
0.099903
0.040050
-0.018432
-0.052372
-0.080530
-0.102500
-0.113550
-0.067894
-0.037688
-0.025252
-0.009418
0.034707
0.079048
0.145271
0.161534
0.178357
0.180278
0.166651
0.147655
0.112090
0.066489
0.025735
-0.019772
-0.078355
-0.090912
-0.106080
-0.105236
-0.093643
-0.084483
-0.049871
0.017051
0.067838
0.099956
0.110406
0.138157
0.168310
0.167024
0.163113
0.141961
0.105914
0.059313
0.009307
-0.020614
-0.061054
-0.094113
-0.108683
-0.125274
-0.110844
-0.095856
-0.057449
-0.010879
0.028499
0.082871
0.134689
0.152434
0.175549
0.186821
0.170831
0.157068
0.123116
0.088686
0.056543
0.014603
-0.051012
-0.099475
-0.118574
-0.123632
-0.102767
-0.065477
-0.059498
-0.014343
0.031944
0.088556
0.144291
0.167008
0.184856
0.197999
0.183277
0.154277
0.144472
0.142713
0.054779
-0.017388
-0.054010
-0.071219
-0.108661
-0.130990
-0.085130
-0.062233
-0.038837
-0.012343
0.032668
0.099305
0.146920
0.183739
0.208398
0.186757
0.184128
0.162257
0.157075
0.130697
0.071834
0.011886
-0.052881
-0.078153
-0.085977
-0.102945
-0.092837
-0.072109
-0.042994
-0.006540
0.016452
0.077726
0.129233
0.169412
0.196071
0.191608
0.180204
0.160913
0.126203
0.088618
0.046340
-0.007921
-0.037046
-0.078728
-0.094542
-0.095144
-0.077476
-0.068916
-0.054660
-0.019973
0.008125
0.068418
0.107707
0.136847
0.150916
0.172367
0.177101
0.161034
0.133850
0.101222
0.059148
0.011329
-0.031060
-0.060438
-0.079917
-0.100028
-0.096140
-0.071321
-0.023379
0.017166
0.054476
0.081993
0.108012
0.135390
0.162318
0.163376
0.171022
0.159693
0.120062
0.060063
0.017174
-0.011616
-0.051293
-0.074363
-0.091476
-0.100064
-0.104327
-0.070200
-0.045897
-0.007463
0.038413
0.072561
0.122825
0.147054
0.152564
0.152898
0.150838
0.118033
0.081697
0.067254
0.021506
-0.032575
-0.072072
-0.088892
-0.103187
-0.117090
-0.121706
-0.096642
-0.043454
0.000038
0.033010
0.080900
0.130445
0.123493
0.165786
0.162296
0.147639
0.128151
0.098076
0.043425
0.015535
-0.033102
-0.064961
-0.087377
-0.110603
-0.115967
-0.115566
-0.117868
-0.085777
0.009544
0.045083
0.078744
0.121033
0.144342
0.166903
0.140942
0.119378
0.125896
0.129694
0.086895
0.017490
-0.047579
-0.102749
-0.119094
-0.138415
-0.128875
-0.118231
-0.107389
-0.079662
-0.022174
0.048941
0.083955
0.119706
0.138359
0.165218
0.181333
0.168584
0.148036
0.107226
0.071242
0.011306
-0.033600
-0.074524
-0.081674
-0.125689
-0.136563
-0.122632
-0.111963
-0.087773
-0.048504
0.011429
0.049315
0.085032
0.127110
0.141608
0.161678
0.163119
0.139202
0.137399
0.110285
0.049396
-0.021677
-0.084640
-0.120851
-0.132205
-0.142973
-0.123279
-0.104437
-0.079299
-0.029921
0.015059
0.058716
0.093723
0.125583
0.149620
0.172491
0.166068
0.146506
0.115408
0.077872
0.021279
-0.007392
-0.080837
-0.095738
-0.116708
-0.109007
-0.100578
-0.082207
-0.045170
-0.003635
0.027634
0.076797
0.113413
0.143222
0.169316
0.180851
0.180856
0.167142
0.135137
0.097717
0.060525
0.015992
-0.051479
-0.074018
-0.094214
-0.084573
-0.069582
-0.062443
-0.034956
0.004917
0.038279
0.082998
0.136817
0.169207
0.189197
0.180618
0.158108
0.141892
0.111669
0.069614
0.028730
-0.010385
-0.035341
-0.043812
-0.058509
-0.061775
-0.061196
-0.042674
-0.013774
0.024798
0.067825
0.121289
0.166723
0.189288
0.199653
0.197507
0.191277
0.173933
0.131123
0.078419
0.029091
-0.018947
-0.052301
-0.068704
-0.096771
-0.095451
-0.098823
-0.079897
-0.037383
0.003930
0.041073
0.063572
0.099073
0.143163
0.155262
0.164086
0.168560
0.157289
0.100816
0.011955
0.000588
-0.047633
-0.038534
-0.057833
-0.109706
-0.145349
-0.128149
-0.063033
-0.044295
-0.032168
0.021078
0.050001
0.101520
0.131667
0.165723
0.168606
0.156927
0.128273
0.103941
0.053190
-0.013477
-0.055421
-0.090120
-0.115066
-0.145544
-0.168895
-0.161421
-0.138344
-0.102183
-0.049888
-0.004163
0.040485
0.078011
0.108356
0.142680
0.152497
0.144604
0.126508
0.094980
0.049126
0.009176
-0.036457
-0.091013
-0.123369
-0.144242
-0.160721
-0.178614
-0.155676
-0.097197
-0.046333
-0.007906
0.037994
0.085860
0.116648
0.143148
0.155677
0.147777
0.128229
0.103682
0.053727
0.001648
-0.040375
-0.084885
-0.109006
-0.128566
-0.140076
-0.138949
-0.148490
-0.111507
-0.066284
-0.025643
0.038710
0.076913
0.105341
0.127192
0.134236
0.128542
0.124059
0.085089
0.026822
-0.016408
-0.053534
-0.100399
-0.134683
-0.144621
-0.161268
-0.141916
-0.114559
-0.090110
-0.011109
0.092380
0.129046
0.163873
0.199369
0.221453
0.252848
0.263287
0.244552
0.219908
0.209101
0.178563
0.152459
0.140826
0.143276
0.151204
0.171051
0.191294
0.254545
0.311903
0.379207
0.449971
0.508710
0.580366
0.642009
0.714914
0.756116
0.772869
0.802686
0.815303
0.808074
0.752922
0.682839
0.679623
0.639210
0.613533
0.609952
0.599814
0.577124
0.549192
0.523773
0.500545
0.484888
0.473311
0.440705
0.429547
0.393785
0.323912
0.281466
0.227192
0.172891
0.148437
0.078416
0.043239
-0.000754
-0.018609
-0.024399
-0.035682
-0.012968
0.017945
0.057539
0.103368
0.152338
0.187615
0.202317
0.202942
0.206097
0.208114
0.181254
0.149582
0.105039
0.060314
0.009129
-0.056945
-0.076147
-0.098166
-0.103798
-0.092066
-0.074097
-0.027635
0.015827
0.049075
0.095630
0.135181
0.158050
0.163049
0.165575
0.174092
0.169492
0.152502
0.098940
0.019637
-0.022735
-0.036448
-0.099213
-0.118978
-0.122621
-0.105498
-0.110510
-0.065203
0.002770
0.058519
0.108385
0.160197
0.173549
0.183085
0.188872
0.197025
0.164097
0.124512
0.096242
0.063102
0.001211
-0.046445
-0.097132
-0.122956
-0.121543
-0.101144
-0.060376
-0.034459
0.017527
0.063731
0.102114
0.155219
0.177520
0.186457
0.212471
0.206810
0.197851
0.175742
0.119568
0.060947
0.011806
-0.031493
-0.058835
-0.081178
-0.094287
-0.080617
-0.057941
-0.027696
0.021203
0.063486
0.109168
0.147146
0.184336
0.212024
0.220128
0.219474
0.199333
0.187150
0.141275
0.091034
0.051619
0.020998
-0.016688
-0.029349
-0.058200
-0.042539
-0.020215
0.010573
0.054897
0.084029
0.134851
0.177696
0.205137
0.234647
0.242945
0.237436
0.231125
0.209905
0.165653
0.126494
0.070366
0.044590
0.028293
0.007415
-0.008608
-0.008093
0.013315
0.053172
0.090606
0.132640
0.177929
0.220827
0.250263
0.259809
0.276863
0.277295
0.247974
0.224541
0.191787
0.178529
0.150129
0.084034
0.035495
0.026305
0.044351
0.031721
0.036708
0.076999
0.121298
0.163005
0.201143
0.226652
0.244803
0.260892
0.260276
0.264066
0.282170
0.270862
0.222648
0.149171
0.101295
0.081239
0.064700
0.052467
0.022206
0.018872
0.051732
0.083495
0.119422
0.155083
0.204695
0.229756
0.251365
0.266804
0.282761
0.275800
0.246357
0.220784
0.206154
0.157709
0.080937
0.028141
-0.000435
-0.019660
-0.017934
-0.011440
0.015619
0.038266
0.073873
0.126837
0.172126
0.205744
0.225608
0.237383
0.231995
0.235168
0.201295
0.195710
0.133340
0.085629
0.035152
-0.016506
-0.035005
-0.050673
-0.069771
-0.058026
-0.030924
0.005736
0.047087
0.091010
0.135943
0.167704
0.199343
0.212546
0.211203
0.196021
0.160616
0.146852
0.105906
0.041099
0.005711
-0.037561
-0.072899
-0.093510
-0.107805
-0.083093
-0.077374
-0.047923
-0.007765
0.049296
0.088807
0.162434
0.177112
0.187049
0.151192
0.147095
0.163766
0.138856
0.087467
0.041255
-0.009787
-0.074493
-0.095272
-0.127888
-0.134971
-0.124008
-0.091591
-0.057350
-0.027529
0.021843
0.068020
0.114350
0.149464
0.164695
0.187102
0.181410
0.150710
0.121365
0.079817
0.019529
-0.023974
-0.069901
-0.082696
-0.113593
-0.137859
-0.132942
-0.103893
-0.071941
-0.015948
0.050867
0.077979
0.098333
0.153103
0.187500
0.193775
0.184422
0.161143
0.110132
0.087265
0.051289
-0.008569
-0.045840
-0.075599
-0.081171
-0.090444
-0.099370
-0.088168
-0.064664
-0.020175
0.023257
0.069163
0.127953
0.151631
0.177540
0.184859
0.189996
0.169585
0.142101
0.073566
0.036939
0.000782
-0.045404
-0.086895
-0.101282
-0.094047
-0.098385
-0.076772
-0.047219
-0.024133
0.038415
0.084778
0.126493
0.147184
0.155224
0.181744
0.173575
0.141025
0.122517
0.084093
0.041422
-0.009114
-0.049450
-0.038448
-0.035886
-0.075319
-0.098935
-0.079850
-0.036639
0.013852
0.040175
0.069511
0.129090
0.159255
0.175914
0.178257
0.163447
0.143134
0.112995
0.070814
0.026858
-0.025163
-0.031359
-0.052276
-0.091568
-0.102008
-0.096008
-0.069842
-0.045120
-0.017793
0.034427
0.096173
0.121355
0.147579
0.181262
0.173773
0.163181
0.136488
0.099272
0.086944
0.034531
-0.004577
-0.048126
-0.066876
-0.079152
-0.110641
-0.102374
-0.057016
-0.025943
0.008772
0.054583
0.099136
0.153486
0.164495
0.183982
0.183662
0.168217
0.160668
0.077210
0.037738
-0.000018
-0.032769
-0.079783
-0.097579
-0.126956
-0.105704
-0.099028
-0.089092
-0.061542
-0.017394
0.033723
0.070289
0.117950
0.159838
0.156885
0.161185
0.171617
0.150544
0.108853
0.053285
0.013724
-0.017516
-0.068592
-0.108577
-0.120025
-0.132222
-0.130064
-0.098799
-0.066018
-0.024100
0.034405
0.060547
0.100017
0.137844
0.165033
0.186234
0.179107
0.149805
0.110965
0.053216
0.011966
-0.042868
-0.084884
-0.113251
-0.135204
-0.149454
-0.152429
-0.122679
-0.090789
-0.027736
0.020295
0.067134
0.110089
0.135849
0.158013
0.151328
0.130215
0.088854
0.114350
0.072692
0.034730
-0.019309
-0.060156
-0.083931
-0.130181
-0.148669
-0.147928
-0.117198
-0.060329
-0.010704
0.030287
0.049288
0.095177
0.132095
0.159302
0.176068
0.154056
0.131448
0.098948
0.058928
0.021326
-0.026503
-0.079790
-0.108708
-0.137277
-0.143921
-0.138549
-0.130436
-0.103336
-0.066108
-0.019894
0.029159
0.086198
0.136020
0.159803
0.156722
0.150321
0.127549
0.103689
0.084663
0.046575
0.011162
-0.048970
-0.079861
-0.094923
-0.114781
-0.113196
-0.089878
-0.060293
-0.001873
0.048993
0.097011
0.112997
0.127856
0.165938
0.177447
0.175361
0.173037
0.134386
0.088809
0.044343
-0.002143
-0.033911
-0.064364
-0.088630
-0.092844
-0.070006
-0.056226
-0.031406
0.003420
0.045144
0.077570
0.125990
0.143392
0.160851
0.180311
0.182248
0.166779
0.136388
0.108382
0.078301
0.041093
-0.006160
-0.041536
-0.064717
-0.074045
-0.064253
-0.038469
-0.013801
0.013232
0.064465
0.119933
0.145254
0.174058
0.180586
0.172897
0.153629
0.135901
0.089777
0.054960
0.028121
-0.034312
-0.060497
-0.094907
-0.120897
-0.109437
-0.125676
-0.111889
-0.077480
-0.026145
0.026279
0.045664
0.082067
0.123065
0.138308
0.136921
0.133921
0.099053
0.078882
0.050489
-0.007361
-0.066259
-0.102154
-0.140913
-0.147863
-0.123417
-0.111067
-0.101524
-0.082409
-0.041423
-0.000082
0.053444
0.099301
0.082243
0.093824
0.111793
0.129247
0.097666
0.059259
0.012806
-0.036201
-0.080880
-0.110907
-0.139607
-0.164348
-0.181145
-0.155945
-0.114602
-0.100129
-0.056856
-0.013863
0.032801
0.084271
0.107673
0.122512
0.122396
0.114199
0.091287
0.058342
0.011917
-0.030800
-0.077675
-0.126882
-0.146916
-0.159634
-0.160717
-0.158700
-0.127218
-0.093735
-0.055496
-0.012719
0.036390
0.080728
0.113675
0.138317
0.135830
0.126022
0.097163
0.060561
0.016259
-0.023823
-0.075354
-0.111251
-0.142138
-0.171554
-0.185403
-0.162041
-0.135435
-0.104372
-0.048475
-0.011856
0.029859
0.072823
0.098118
0.125141
0.129162
0.138480
0.095368
0.050075
0.021944
-0.011888
-0.052474
-0.087795
-0.107600
-0.118204
-0.098931
-0.060280
-0.021722
0.020984
0.068778
0.118691
0.177266
0.241882
0.296316
0.343644
0.375902
0.405437
0.404439
0.400605
0.388941
0.355273
0.330160
0.302981
0.336228
0.368035
0.376727
0.393818
0.459147
0.528764
0.620843
0.703326
0.795159
0.861460
0.899984
0.916269
0.928965
0.918618
0.869666
0.832253
0.782532
0.675867
0.548033
0.439719
0.347110
0.282257
0.228105
0.184054
0.149021
0.143629
0.141087
0.148948
0.188110
0.198721
0.242188
0.261465
0.259448
0.246512
0.210797
0.175101
0.136269
0.101575
0.043343
-0.003727
-0.041239
-0.061997
-0.063092
-0.075491
-0.070850
-0.042909
0.003553
0.038104
0.080286
0.112904
0.134307
0.165101
0.194712
0.177347
0.154519
0.118989
0.071365
0.045717
0.003587
-0.038795
-0.070654
-0.083596
-0.107794
-0.094280
-0.084168
-0.062768
-0.023549
0.018769
0.050455
0.084656
0.117221
0.148449
0.161623
0.144266
0.114659
0.092485
0.054327
0.013784
-0.028838
-0.080347
-0.101131
-0.117272
-0.117637
-0.110241
-0.087585
-0.048037
-0.019922
0.016629
0.071746
0.102159
0.138854
0.156492
0.160774
0.152912
0.136092
0.098335
0.070733
0.019859
-0.054862
-0.069853
-0.065462
-0.085810
-0.107581
-0.095777
-0.079479
-0.067710
0.027788
0.049532
0.082499
0.110303
0.150912
0.151522
0.171026
0.176440
0.147064
0.108536
0.082902
0.051963
0.005605
-0.040364
-0.076613
-0.082954
-0.073821
-0.061029
-0.053955
-0.018601
0.036010
0.084304
0.147497
0.166425
0.193853
0.197166
0.211679
0.208369
0.180920
0.135031
0.093867
0.052547
0.010059
-0.032672
-0.066099
-0.060572
-0.072038
-0.051001
-0.016742
0.034457
0.066915
0.108629
0.149788
0.191023
0.224922
0.239914
0.241944
0.234163
0.223141
0.180286
0.125333
0.088714
0.040904
0.006740
-0.028412
-0.048560
-0.052528
-0.019343
0.016269
0.054091
0.085374
0.127484
0.175467
0.207652
0.260689
0.276195
0.280007
0.259205
0.236844
0.234067
0.190308
0.131782
0.089306
0.036737
-0.000420
-0.012698
-0.032128
-0.029692
-0.031160
0.014613
0.061819
0.140909
0.177085
0.215520
0.237001
0.262604
0.288073
0.287848
0.236537
0.222610
0.171610
0.139019
0.081321
0.035064
0.003061
-0.024926
-0.029899
-0.028860
-0.003572
0.032929
0.065871
0.101811
0.142149
0.192004
0.230143
0.232790
0.233185
0.218411
0.218876
0.180798
0.132963
0.086385
0.046680
0.005004
-0.040650
-0.058417
-0.060216
-0.084898
-0.044518
-0.017222
0.008655
0.047680
0.107897
0.123577
0.138196
0.175322
0.197287
0.179677
0.148223
0.121369
0.083799
0.027399
-0.016448
-0.042072
-0.073364
-0.102118
-0.108759
-0.104922
-0.087849
-0.045455
-0.028415
0.015686
0.041374
0.084661
0.141022
0.162390
0.164264
0.125460
0.106376
0.105102
0.095377
0.035715
-0.017171
-0.065780
-0.079922
-0.117584
-0.156630
-0.159798
-0.100163
-0.025130
0.002058
0.028878
0.050541
0.094198
0.137188
0.150104
0.152857
0.144641
0.125591
0.077661
0.033357
-0.008580
-0.060747
-0.096797
-0.121038
-0.130734
-0.138222
-0.142361
-0.115059
-0.084118
-0.041667
-0.014793
0.038356
0.085967
0.122342
0.125091
0.125020
0.130306
0.118891
0.083634
0.047687
0.013156
-0.039620
-0.090585
-0.132265
-0.142313
-0.151133
-0.126496
-0.116644
-0.079926
-0.044440
0.011547
0.070238
0.099297
0.138518
0.158452
0.156489
0.146851
0.121671
0.077224
0.011948
-0.022780
-0.052649
-0.099115
-0.128142
-0.135612
-0.135170
-0.119282
-0.099453
-0.071756
-0.027990
0.033227
0.073928
0.095721
0.110100
0.144630
0.159145
0.147971
0.111961
0.082748
0.044783
-0.018472
-0.065268
-0.083874
-0.117961
-0.115526
-0.127335
-0.124776
-0.104133
-0.069822
-0.031578
0.035496
0.071603
0.152410
0.165191
0.161150
0.156771
0.155737
0.143530
0.108324
0.067810
0.022580
-0.019442
-0.036262
-0.088379
-0.124088
-0.150189
-0.155225
-0.129488
-0.077512
-0.041481
-0.010215
0.047875
0.088976
0.140093
0.163345
0.173760
0.155751
0.146349
0.115205
0.073687
0.026363
-0.034853
-0.079235
-0.103691
-0.113034
-0.135592
-0.139976
-0.102418
-0.079792
-0.048852
-0.012454
0.042991
0.068439
0.122848
0.159014
0.170642
0.148327
0.124754
0.101972
0.050607
-0.002250
-0.041697
-0.073063
-0.094279
-0.114367
-0.124799
-0.126911
-0.114294
-0.095046
-0.048241
-0.000133
0.052976
0.076602
0.107394
0.114847
0.133319
0.132042
0.125524
0.091646
0.061278
0.023140
-0.036323
-0.104527
-0.126048
-0.131203
-0.114826
-0.126421
-0.115524
-0.080953
-0.049186
-0.022808
0.010316
0.035467
0.066856
0.119094
0.148845
0.138720
0.109057
0.064425
0.031094
-0.004857
-0.048871
-0.088167
-0.100692
-0.124171
-0.155031
-0.158861
-0.119461
-0.085648
-0.054395
-0.010669
0.048024
0.078333
0.112564
0.121972
0.129470
0.109287
0.109501
0.071939
0.012412
-0.039654
-0.061938
-0.088393
-0.131789
-0.141294
-0.134045
-0.133320
-0.114526
-0.069112
-0.014307
0.021066
0.050718
0.056376
0.092933
0.116698
0.100020
0.085755
0.074615
0.062000
0.020565
-0.039182
-0.081255
-0.113175
-0.154590
-0.153953
-0.170699
-0.119954
-0.081980
-0.039896
-0.008436
-0.002186
0.055153
0.088209
0.108965
0.142185
0.134198
0.125757
0.106449
0.073205
0.030103
-0.015386
-0.070306
-0.117563
-0.114532
-0.154326
-0.151437
-0.125782
-0.081917
-0.053308
-0.010426
0.046516
0.089948
0.149083
0.150133
0.174167
0.165933
0.129579
0.120018
0.108273
0.057663
0.013033
-0.033985
-0.067477
-0.093582
-0.120806
-0.122217
-0.123298
-0.100390
-0.076216
-0.023299
0.030036
0.075027
0.110386
0.125962
0.158864
0.165936
0.168956
0.145928
0.125670
0.075057
0.007399
-0.042480
-0.058051
-0.095791
-0.103253
-0.099034
-0.099940
-0.082707
-0.038959
0.019232
0.064917
0.090777
0.122383
0.154876
0.161156
0.157074
0.151311
0.126129
0.103349
0.054324
0.001945
-0.045204
-0.084420
-0.121764
-0.137195
-0.162452
-0.147353
-0.137846
-0.131262
-0.092144
-0.030447
0.015620
0.058919
0.105643
0.134576
0.146893
0.145235
0.121844
0.079997
0.013822
-0.032751
-0.088653
-0.130893
-0.165124
-0.162386
-0.169603
-0.192694
-0.182730
-0.144820
-0.085327
-0.020913
0.012719
0.055744
0.084456
0.110855
0.114538
0.114687
0.095066
0.065536
0.018719
-0.023372
-0.048146
-0.092450
-0.137483
-0.178958
-0.166204
-0.178957
-0.171944
-0.140749
-0.107005
-0.075310
-0.028664
0.039774
0.059419
0.104956
0.124179
0.118850
0.102363
0.065038
0.044756
-0.021490
-0.070049
-0.127330
-0.144726
-0.168993
-0.165646
-0.171625
-0.163859
-0.113004
-0.067749
-0.033562
-0.001444
0.052478
0.075180
0.104336
0.096010
0.084442
0.072889
0.034210
-0.012647
-0.048552
-0.064578
-0.097440
-0.141962
-0.168845
-0.178341
-0.164688
-0.141310
-0.109270
-0.067120
-0.028719
0.002304
0.017114
0.047951
0.060012
0.072302
0.078448
0.061366
0.024577
-0.000051
-0.022525
-0.059518
-0.057376
-0.087220
-0.091954
-0.085995
-0.058553
-0.043648
0.009781
0.062813
0.094475
0.152951
0.198513
0.243862
0.288293
0.325205
0.356520
0.352105
0.346865
0.348853
0.355847
0.350634
0.341265
0.346995
0.344917
0.366948
0.396576
0.456471
0.550785
0.642587
0.716555
0.804409
0.869029
0.881202
0.883946
0.880554
0.855535
0.814428
0.746745
0.684618
0.637267
0.553061
0.454331
0.348284
0.268310
0.206014
0.163786
0.148111
0.139182
0.113940
0.140501
0.163045
0.193079
0.212618
0.239762
0.270246
0.251616
0.196952
0.143704
0.123318
0.060011
0.021909
-0.048234
-0.080125
-0.081738
-0.096745
-0.098854
-0.078824
-0.050525
-0.023534
0.047951
0.073708
0.148630
0.185191
0.192638
0.190711
0.155303
0.127390
0.106492
0.064816
0.016162
-0.042340
-0.093382
-0.116204
-0.129697
-0.134989
-0.158430
-0.124652
-0.091931
-0.061671
-0.010355
0.035080
0.069108
0.094386
0.117384
0.130818
0.155878
0.142128
0.093495
0.048118
0.011757
-0.029046
-0.080142
-0.122574
-0.144514
-0.179820
-0.175829
-0.133676
-0.098244
-0.066052
-0.006895
0.051059
0.084758
0.123450
0.133150
0.144108
0.137790
0.126183
0.094445
0.051495
0.000133
-0.023503
-0.064068
-0.104501
-0.132818
-0.123584
-0.123924
-0.122285
-0.092445
-0.057067
-0.005444
0.041319
0.091043
0.123798
0.144629
0.173410
0.166314
0.153512
0.138882
0.084594
0.032375
-0.004028
-0.054319
-0.088274
-0.096738
-0.101225
-0.107433
-0.086119
-0.051289
-0.003647
0.028740
0.075286
0.120553
0.156961
0.162199
0.162003
0.145322
0.126245
0.096337
0.081389
0.054841
-0.000300
-0.040534
-0.061194
-0.076509
-0.080444
-0.064563
-0.055424
-0.032834
0.016599
0.047491
0.095537
0.148558
0.184375
0.196851
0.198764
0.201979
0.176367
0.160747
0.132307
0.093058
0.050619
0.001380
-0.032920
-0.058204
-0.052786
-0.038743
-0.023559
0.001706
0.058484
0.100567
0.129177
0.165024
0.194388
0.197019
0.228562
0.202507
0.158563
0.144574
0.135370
0.099303
0.059908
0.024938
-0.028732
-0.056768
-0.047634
-0.025074
0.000328
0.037517
0.089828
0.110537
0.132312
0.159868
0.186921
0.203614
0.213424
0.206510
0.188637
0.157562
0.118630
0.065362
0.024647
-0.016003
-0.056802
-0.076846
-0.083036
-0.055864
-0.058018
-0.013591
0.053788
0.096600
0.121933
0.154006
0.191249
0.216705
0.207942
0.207209
0.180718
0.134831
0.104728
0.076002
0.035816
-0.032666
-0.082718
-0.112320
-0.136437
-0.130217
-0.083424
-0.034517
0.012051
0.038220
0.092981
0.144718
0.133526
0.139010
0.171494
0.171385
0.158904
0.106831
0.077236
0.035921
-0.007901
-0.062064
-0.109112
-0.131769
-0.146719
-0.148856
-0.122174
-0.079394
-0.044024
-0.004123
0.027213
0.084603
0.116200
0.117177
0.123153
0.119164
0.096304
0.074329
0.044242
0.004558
-0.046437
-0.086726
-0.125727
-0.161449
-0.154247
-0.141889
-0.112547
-0.080798
-0.046785
0.000689
0.029091
0.068994
0.081690
0.100561
0.133391
0.140149
0.107921
0.064714
0.004518
-0.024872
-0.050602
-0.095534
-0.116688
-0.132409
-0.140883
-0.128122
-0.110617
-0.098635
-0.072203
-0.016520
0.035790
0.061422
0.098604
0.082803
0.117819
0.131788
0.102552
0.063413
0.046616
-0.003748
-0.054469
-0.096006
-0.126474
-0.173127
-0.165560
-0.135002
-0.125144
-0.083987
-0.041646
-0.020458
0.030856
0.086724
0.104947
0.128478
0.119045
0.107026
0.088037
0.067872
0.038602
-0.006231
-0.056606
-0.094120
-0.127978
-0.150122
-0.147417
-0.124625
-0.102716
-0.096407
-0.060434
-0.017674
0.036121
0.082705
0.121951
0.139729
0.156680
0.143199
0.132761
0.091656
0.045110
0.010736
-0.040328
-0.084332
-0.131652
-0.159766
-0.161533
-0.146242
-0.129089
-0.065334
-0.038242
-0.002444
0.044520
0.085302
0.131442
0.153912
0.165751
0.137798
0.102546
0.079473
0.044065
0.006686
-0.048519
-0.108632
-0.149064
-0.188264
-0.167257
-0.136891
-0.108935
-0.076270
-0.030777
0.007714
0.074756
0.105652
0.123658
0.132067
0.147134
0.158222
0.132753
0.086550
0.050955
0.017703
-0.032257
-0.072823
-0.128053
-0.130356
-0.149212
-0.152999
-0.132091
-0.111934
-0.063276
-0.008439
0.032574
0.074169
0.133509
0.148248
0.131206
0.138199
0.137638
0.117527
0.059475
0.005670
-0.037596
-0.090512
-0.129806
-0.150382
-0.159732
-0.160075
-0.144301
-0.103045
-0.049690
-0.012766
0.030679
0.053148
0.096126
0.127151
0.113043
0.108783
0.103795
0.080244
0.056350
0.006796
-0.034563
-0.093916
-0.124913
-0.142510
-0.147921
-0.146993
-0.133114
-0.097283
-0.060744
-0.021940
0.020627
0.051088
0.090047
0.109876
0.109888
0.108277
0.096272
0.074952
0.035774
0.001740
-0.049875
-0.096427
-0.126759
-0.167036
-0.164930
-0.166167
-0.157231
-0.120645
-0.077155
-0.034912
0.013601
0.041641
0.065779
0.082857
0.119737
0.123921
0.111783
0.073142
0.036361
-0.015152
-0.067618
-0.094277
-0.137880
-0.151309
-0.149676
-0.138782
-0.123846
-0.092006
-0.066004
-0.051552
-0.013329
0.041541
0.087711
0.110537
0.114362
0.104416
0.084018
0.052925
0.004113
-0.043041
-0.095484
-0.118452
-0.150882
-0.168778
-0.169449
-0.150846
-0.142548
-0.109734
-0.063786
-0.025390
0.015437
0.056698
0.087870
0.108440
0.119525
0.104841
0.082088
0.040470
-0.009722
-0.047615
-0.097343
-0.130662
-0.161604
-0.186221
-0.181077
-0.167142
-0.135159
-0.105610
-0.068203
-0.024293
0.025195
0.067540
0.104970
0.120405
0.126967
0.105548
0.082691
0.055499
0.028407
-0.012114
-0.052902
-0.099115
-0.133604
-0.148611
-0.168163
-0.151485
-0.118100
-0.079711
-0.025587
0.004707
0.056431
0.083202
0.130003
0.148816
0.155852
0.141530
0.132662
0.078267
0.021363
-0.025046
-0.063594
-0.107012
-0.128400
-0.124539
-0.107696
-0.107845
-0.113069
-0.094730
-0.052712
0.015260
0.069552
0.094405
0.143838
0.180666
0.174617
0.170162
0.155130
0.107119
0.070764
0.035887
-0.019081
-0.064845
-0.116776
-0.136771
-0.153194
-0.146514
-0.129477
-0.086822
-0.058895
-0.022442
0.035003
0.076751
0.099701
0.132521
0.136095
0.132207
0.102248
0.072923
0.034178
0.000523
-0.052859
-0.106999
-0.147729
-0.176698
-0.181589
-0.164394
-0.153046
-0.115197
-0.078184
-0.037812
-0.009722
0.035710
0.061636
0.076117
0.086386
0.095635
0.073480
0.035611
-0.001419
-0.042157
-0.080933
-0.115243
-0.160277
-0.185175
-0.184261
-0.191697
-0.158149
-0.140117
-0.114512
-0.070525
-0.030060
0.004839
0.038404
0.076533
0.085804
0.088710
0.060456
0.011112
-0.014163
-0.060078
-0.089436
-0.123393
-0.150008
-0.180776
-0.190995
-0.174377
-0.165681
-0.136294
-0.114079
-0.050065
-0.016264
0.017526
0.060353
0.073815
0.096454
0.092633
0.059801
0.023002
-0.005128
-0.055887
-0.107971
-0.140586
-0.161943
-0.185750
-0.199342
-0.186193
-0.152085
-0.106534
-0.051759
-0.021526
-0.001378
0.026472
0.050845
0.077198
0.085866
0.084429
0.072557
0.032467
-0.017037
-0.051509
-0.078048
-0.118427
-0.181139
-0.200246
-0.197868
-0.181648
-0.173598
-0.132890
-0.087449
-0.039787
-0.013026
0.028653
0.052354
0.082932
0.126625
0.134171
0.114825
0.091539
0.056516
0.010507
-0.014504
-0.031947
-0.043430
-0.043315
-0.036654
-0.023417
0.019189
0.071196
0.134919
0.201833
0.278082
0.320178
0.379139
0.421100
0.465369
0.483925
0.483849
0.487421
0.476305
0.459583
0.461237
0.458320
0.466339
0.473447
0.506896
0.559168
0.600669
0.654824
0.694505
0.747136
0.778628
0.785708
0.797854
0.795998
0.774148
0.755164
0.679087
0.565711
0.462332
0.356897
0.275640
0.197000
0.110042
0.034500
-0.007180
-0.014101
0.003886
0.042544
0.071301
0.103489
0.134511
0.181206
0.226875
0.236061
0.214363
0.207706
0.190323
0.173021
0.115383
0.064284
0.020431
-0.036135
-0.068924
-0.100433
-0.121936
-0.118563
-0.102223
-0.076831
-0.036202
0.009179
0.046999
0.087274
0.151497
0.160513
0.129321
0.119988
0.134653
0.103302
0.032127
-0.000676
-0.033562
-0.084387
-0.120499
-0.140078
-0.150691
-0.128209
-0.116692
-0.096521
-0.068209
-0.043048
0.014165
0.082519
0.109403
0.124517
0.130780
0.157027
0.146113
0.096595
0.053999
0.009683
-0.050540
-0.093227
-0.118642
-0.129431
-0.150840
-0.151616
-0.131148
-0.081819
-0.063391
-0.003192
0.064938
0.090256
0.104457
0.123994
0.150813
0.137645
0.140618
0.112099
0.058712
0.004719
-0.024678
-0.057363
-0.086816
-0.111459
-0.124955
-0.113884
-0.097831
-0.078659
-0.059304
0.003018
0.041802
0.077424
0.121623
0.159904
0.178999
0.165440
0.142974
0.115377
0.079581
0.033993
-0.010999
-0.031431
-0.066822
-0.108902
-0.126443
-0.103886
-0.070850
-0.040996
-0.005954
0.020327
0.089421
0.126401
0.157618
0.180068
0.163132
0.180653
0.170176
0.128650
0.081018
0.038918
0.000572
-0.019328
-0.046371
-0.052370
-0.069710
-0.069207
-0.045054
-0.020840
-0.011717
0.053359
0.128058
0.186743
0.199443
0.193102
0.190041
0.181360
0.167865
0.142082
0.090631
0.046413
0.024495
0.037557
0.000557
-0.036889
-0.062512
-0.056074
-0.017858
0.018882
0.050092
0.094455
0.148420
0.190354
0.203967
0.222166
0.216148
0.207738
0.210779
0.168277
0.120145
0.068191
0.019809
-0.009543
-0.024437
-0.037025
-0.039250
-0.021490
-0.009203
0.005436
0.045956
0.107015
0.154117
0.178051
0.196016
0.209417
0.229552
0.217179
0.196493
0.154409
0.127647
0.090376
0.040180
-0.025955
-0.053224
-0.067117
-0.097594
-0.074321
-0.057098
-0.006904
0.026287
0.060915
0.116818
0.148894
0.192996
0.201629
0.202783
0.171267
0.143924
0.119548
0.091348
0.036968
-0.004315
-0.047423
-0.095059
-0.121884
-0.113478
-0.111005
-0.095821
-0.036386
0.016048
0.061921
0.119020
0.120905
0.157975
0.173194
0.185671
0.161637
0.137015
0.121369
0.090381
0.024453
-0.035357
-0.076066
-0.105847
-0.125636
-0.152733
-0.124966
-0.104086
-0.051253
-0.006110
0.027079
0.053280
0.084457
0.156444
0.179501
0.159107
0.141018
0.117126
0.123934
0.086631
0.031253
-0.041594
-0.102554
-0.130004
-0.155911
-0.154385
-0.150473
-0.131237
-0.116696
-0.069736
-0.018375
0.036813
0.072211
0.115948
0.145483
0.175794
0.149167
0.126669
0.082980
0.043654
-0.003686
-0.022045
-0.071169
-0.110701
-0.135639
-0.170218
-0.182054
-0.144269
-0.076449
-0.044083
0.001036
0.058885
0.081815
0.102295
0.136853
0.149354
0.141243
0.117366
0.102045
0.061052
0.037506
-0.017703
-0.077113
-0.106804
-0.130296
-0.140285
-0.129867
-0.110512
-0.072443
-0.045108
0.002971
0.051822
0.085881
0.113605
0.127439
0.129903
0.135496
0.094370
0.067708
0.044529
0.028730
-0.030588
-0.057678
-0.092551
-0.103811
-0.108184
-0.108085
-0.103370
-0.072988
-0.042042
0.030456
0.062705
0.088173
0.120099
0.147501
0.160128
0.119788
0.112824
0.085710
0.070351
0.034517
-0.022742
-0.052866
-0.076808
-0.111007
-0.119876
-0.103219
-0.097562
-0.061982
-0.014789
0.006404
0.062794
0.091497
0.112332
0.145326
0.146973
0.118860
0.105055
0.108570
0.058708
0.019226
-0.017143
-0.057387
-0.110703
-0.115523
-0.117406
-0.119445
-0.094977
-0.067448
-0.010970
0.041758
0.080645
0.099493
0.123891
0.135948
0.149783
0.159138
0.145942
0.114628
0.058554
-0.002346
-0.054550
-0.091206
-0.091441
-0.114415
-0.120557
-0.098017
-0.113286
-0.087464
-0.030664
0.014676
0.049849
0.092036
0.134381
0.131658
0.147181
0.121942
0.106889
0.081533
0.044651
0.000209
-0.052665
-0.097362
-0.121502
-0.140323
-0.154429
-0.145264
-0.112092
-0.084190
-0.044543
-0.010861
0.028164
0.072605
0.120666
0.139584
0.171134
0.142996
0.102190
0.057394
0.054486
-0.008834
-0.067105
-0.092904
-0.091253
-0.146982
-0.154980
-0.138633
-0.146997
-0.111134
-0.066029
-0.031304
0.010521
0.095427
0.128682
0.138750
0.159107
0.153017
0.114834
0.085128
0.066477
0.025648
-0.034526
-0.104684
-0.153103
-0.184042
-0.180685
-0.162818
-0.132501
-0.081571
-0.039306
0.010367
0.040611
0.074474
0.118831
0.112290
0.117212
0.113583
0.071795
0.066036
0.043135
0.022113
-0.027358
-0.091828
-0.112764
-0.135888
-0.156392
-0.154833
-0.133651
-0.116867
-0.081715
-0.037844
0.031010
0.069399
0.095645
0.125261
0.131807
0.133807
0.133666
0.098371
0.038757
-0.024491
-0.085212
-0.110346
-0.100761
-0.157154
-0.157779
-0.159589
-0.161313
-0.137956
-0.100323
-0.046986
0.008453
0.056270
0.067897
0.086289
0.084662
0.114382
0.128462
0.115806
0.050719
-0.016357
-0.038358
-0.073295
-0.116504
-0.150893
-0.161118
-0.149715
-0.134888
-0.114752
-0.089125
-0.030257
0.013556
0.049590
0.084460
0.115710
0.118265
0.107407
0.107098
0.065442
0.026584
0.001047
-0.026310
-0.080547
-0.115739
-0.153118
-0.190793
-0.179267
-0.145225
-0.094195
-0.067392
-0.024963
-0.015084
0.034707
0.079395
0.110933
0.150750
0.142080
0.099456
0.013780
-0.048392
-0.071673
-0.083850
-0.071783
-0.102959
-0.132978
-0.153642
-0.124299
-0.127182
-0.101885
-0.062923
-0.022350
0.011982
0.054800
0.083068
0.098464
0.114822
0.120470
0.107663
0.061267
-0.002387
-0.043613
-0.100147
-0.124026
-0.140597
-0.137152
-0.137001
-0.139417
-0.123566
-0.104523
-0.074768
-0.016746
0.015774
0.020301
0.048371
0.117103
0.178164
0.128513
0.062893
0.044442
0.051608
0.000389
-0.075430
-0.113005
-0.148068
-0.181554
-0.177116
-0.148860
-0.119694
-0.088340
-0.024480
-0.000811
0.028049
0.037442
0.054838
0.130144
0.161622
0.118804
0.072620
0.059034
0.061925
-0.002042
-0.070802
-0.091736
-0.135242
-0.146248
-0.140068
-0.125668
-0.115222
-0.060224
0.001911
0.050196
0.068119
0.082925
0.117860
0.164314
0.169705
0.169893
0.139130
0.087424
0.041703
0.021386
-0.003778
-0.042464
-0.100504
-0.158356
-0.182731
-0.188863
-0.135829
-0.094548
-0.054055
0.032364
0.096579
0.149360
0.172698
0.175484
0.161512
0.156732
0.109537
0.065499
0.043720
-0.009895
0.006732
-0.023160
-0.073995
-0.100245
-0.151886
-0.157600
-0.144254
-0.107984
-0.049191
0.010137
0.063556
0.101878
0.119721
0.125611
0.143915
0.131473
0.096065
0.079455
0.047556
0.005250
-0.030816
-0.078865
-0.157290
-0.183072
-0.177848
-0.172280
-0.176523
-0.117213
-0.046186
0.019443
0.079727
0.101214
0.131326
0.097866
0.078744
0.091692
0.098025
0.054230
0.031875
-0.039105
-0.109384
-0.151526
-0.202530
-0.222156
-0.171316
-0.159177
-0.159853
-0.135914
-0.100983
-0.037659
-0.011974
0.018946
0.054841
0.103625
0.160786
0.091734
0.058638
0.039881
-0.005767
-0.058141
-0.100954
-0.118605
-0.143122
-0.185387
-0.207068
-0.202079
-0.195592
-0.155666
-0.069131
0.001167
-0.011252
0.055647
0.081979
0.091654
0.111458
0.126268
0.099667
0.047225
-0.019065
-0.082458
-0.108544
-0.113985
-0.146166
-0.157828
-0.148098
-0.156084
-0.181738
-0.136478
-0.073796
-0.046266
-0.016790
0.013069
0.042671
0.045269
0.067392
0.068499
0.069749
0.046369
0.025654
-0.042555
-0.094247
-0.152539
-0.165043
-0.148101
-0.166954
-0.194025
-0.158465
-0.150331
-0.130227
-0.051558
-0.013384
0.016289
0.051571
0.074280
0.131916
0.135665
0.102072
0.075320
0.027338
0.021995
0.006315
-0.008243
-0.011236
-0.043161
-0.026681
0.010524
0.012844
0.068028
0.160727
0.223751
0.285353
0.319118
0.373522
0.462654
0.512798
0.519017
0.541225
0.540610
0.526063
0.526698
0.533187
0.531260
0.552786
0.592405
0.596955
0.611634
0.642727
0.680475
0.717473
0.774143
0.788966
0.820603
0.817085
0.804972
0.756696
0.683959
0.625129
0.535308
0.426454
0.349267
0.254850
0.139882
0.061085
0.050531
0.008492
-0.008040
0.003305
0.028329
0.076503
0.081353
0.107026
0.165041
0.210404
0.211477
0.211485
0.197543
0.171382
0.132306
0.069679
0.040367
0.021775
-0.016021
-0.081190
-0.121539
-0.130959
-0.155084
-0.137363
-0.065194
-0.007475
0.020239
0.041060
0.068174
0.108883
0.118796
0.147134
0.129819
0.116706
0.081262
0.027615
-0.030351
-0.049834
-0.085720
-0.112649
-0.137327
-0.168790
-0.164347
-0.127195
-0.096956
-0.041167
0.003258
0.026706
0.067261
0.078981
0.141961
0.157916
0.150481
0.129085
0.105993
0.034051
-0.050693
-0.085603
-0.122335
-0.148237
-0.157875
-0.151617
-0.112887
-0.136967
-0.113910
-0.069267
-0.015081
0.063239
0.080994
0.109669
0.188320
0.196994
0.149345
0.110046
0.083397
0.034360
-0.004140
-0.047571
-0.070511
-0.117414
-0.165292
-0.168983
-0.142091
-0.112613
-0.098096
-0.025086
0.020434
0.061416
0.103108
0.129256
0.146244
0.174698
0.169874
0.140831
0.126916
0.070218
0.018688
-0.014190
-0.039133
-0.089746
-0.123160
-0.140167
-0.113070
-0.070108
-0.041686
0.016361
0.025234
0.045902
0.132481
0.160531
0.130686
0.146956
0.182018
0.158089
0.149965
0.122888
0.067915
0.008204
-0.038720
-0.066358
-0.075625
-0.099993
-0.088828
-0.077534
-0.033550
-0.013649
0.056539
0.115006
0.142044
0.151292
0.187088
0.232148
0.225842
0.213879
0.193744
0.159791
0.118326
0.053474
0.006472
-0.021836
-0.042936
-0.034419
-0.031622
-0.011344
-0.004162
0.032446
0.072184
0.122620
0.161708
0.189281
0.204198
0.265526
0.254617
0.223746
0.191518
0.126805
0.069325
0.026057
0.011410
0.016885
-0.019552
-0.038914
-0.035073
-0.015199
0.022766
0.035373
0.079058
0.125639
0.185081
0.204914
0.232972
0.236811
0.239826
0.241925
0.173411
0.141379
0.086994
0.014934
-0.024993
-0.068637
-0.067450
-0.085467
-0.023721
-0.016608
0.014491
0.023952
0.065167
0.101465
0.155107
0.174110
0.204826
0.192949
0.201119
0.172261
0.133950
0.101349
0.053257
-0.001784
-0.031618
-0.048418
-0.084401
-0.083732
-0.082143
-0.061988
-0.037492
-0.018395
0.015096
0.091770
0.123830
0.135064
0.148745
0.153251
0.167501
0.157489
0.122371
0.063183
0.010465
-0.047223
-0.107679
-0.142689
-0.126646
-0.121552
-0.129491
-0.111369
-0.091270
-0.057039
-0.033421
0.058971
0.095704
0.140995
0.152262
0.170543
0.169325
0.112167
0.053457
0.025154
-0.024921
-0.070104
-0.103717
-0.122891
-0.155658
-0.175472
-0.154202
-0.128168
-0.139916
-0.088532
-0.025415
0.021789
0.069682
0.110101
0.125578
0.149196
0.140321
0.084998
0.041636
0.009092
-0.046151
-0.064683
-0.080184
-0.123939
-0.168927
-0.174326
-0.154853
-0.129965
-0.100882
-0.084109
-0.041523
0.000645
0.087683
0.116674
0.146549
0.144273
0.134270
0.098064
0.063915
0.035784
-0.015208
-0.062713
-0.133059
-0.162527
-0.171506
-0.186745
-0.180289
-0.156268
-0.114162
-0.084623
-0.025068
0.038421
0.069933
0.085469
0.102294
0.119064
0.131477
0.131324
0.077347
0.038441
-0.008107
-0.053705
-0.101838
-0.159494
-0.177855
-0.168589
-0.135509
-0.129787
-0.107075
-0.080026
-0.032841
0.047641
0.077207
0.094489
0.119670
0.126052
0.134362
0.103562
0.064039
0.025648
-0.006333
-0.040625
-0.096906
-0.141896
-0.168594
-0.165129
-0.157541
-0.168142
-0.116533
-0.053582
0.008598
0.047334
0.070926
0.085023
0.111320
0.116967
0.122828
0.109142
0.091493
0.046387
-0.001850
-0.080761
-0.128405
-0.130608
-0.142265
-0.156839
-0.169204
-0.143809
-0.103441
-0.073168
-0.046262
-0.002338
0.043809
0.083213
0.111195
0.121402
0.117729
0.081176
0.036127
0.011787
-0.035570
-0.062997
-0.123952
-0.177936
-0.172556
-0.149285
-0.130652
-0.124817
-0.105936
-0.077677
-0.049805
-0.005861
0.039326
0.075273
0.112022
0.099607
0.091319
0.089176
0.061121
0.008043
-0.048822
-0.092850
-0.123501
-0.140237
-0.143878
-0.145215
-0.147070
-0.148476
-0.116207
-0.099934
-0.045063
-0.005494
0.015519
0.028701
0.051245
0.092996
0.071080
0.059269
0.034468
-0.020689
-0.079946
-0.104221
-0.122100
-0.152346
-0.177296
-0.166271
-0.158102
-0.132077
-0.081771
-0.045122
-0.026239
-0.016582
0.008251
0.043879
0.074190
0.064182
0.076714
0.075717
0.041901
-0.039526
-0.090790
-0.091564
-0.126605
-0.151587
-0.176308
-0.160730
-0.160826
-0.182601
-0.139125
-0.085657
-0.039561
0.002027
0.044924
0.062093
0.076396
0.078243
0.067471
0.037916
0.008331
-0.029604
-0.082499
-0.138162
-0.171967
-0.188895
-0.205502
-0.216849
-0.213196
-0.188846
-0.144439
-0.081778
-0.041486
0.007255
0.057279
0.079550
0.087976
0.089562
0.061794
0.035534
0.013555
-0.022337
-0.063905
-0.094630
-0.139430
-0.182868
-0.201083
-0.215700
-0.218334
-0.187631
-0.149434
-0.083681
-0.013012
0.008180
0.042097
0.042679
0.057098
0.091962
0.110746
0.081936
0.036406
-0.021840
-0.065228
-0.112245
-0.150299
-0.188192
-0.205753
-0.214475
-0.210213
-0.190056
-0.179379
-0.130881
-0.065722
-0.017960
0.038231
0.073391
0.105337
0.101704
0.099377
0.062451
0.018255
-0.025744
-0.082992
-0.136613
-0.201999
-0.191091
-0.198030
-0.235113
-0.190205
-0.158278
-0.144645
-0.108751
-0.081203
-0.019603
0.027788
0.069697
0.090524
0.093902
0.093510
0.093107
0.072378
0.038186
-0.040023
-0.123579
-0.174055
-0.189905
-0.208665
-0.217705
-0.217380
-0.210104
-0.158835
-0.128545
-0.087248
-0.038597
0.009660
0.055632
0.084683
0.086680
0.088699
0.061028
0.028568
0.000907
-0.063023
-0.108837
-0.120422
-0.175364
-0.184055
-0.195496
-0.217638
-0.189463
-0.167014
-0.126070
-0.083156
-0.016382
0.029952
0.061212
0.075955
0.076828
0.093257
0.071621
0.036202
0.007888
-0.021629
-0.070277
-0.109669
-0.153646
-0.168405
-0.171891
-0.167332
-0.151361
-0.126758
-0.080827
-0.041021
0.009608
0.054016
0.089771
0.119587
0.134392
0.120965
0.102695
0.061558
0.024845
-0.016385
-0.062505
-0.115298
-0.151911
-0.160430
-0.189794
-0.179737
-0.130753
-0.091253
-0.053954
-0.022957
0.031551
0.062719
0.123475
0.143909
0.128095
0.096718
0.103047
0.058497
0.030420
-0.024184
-0.052562
-0.066986
-0.081062
-0.129714
-0.143540
-0.113951
-0.089965
-0.071850
-0.034583
-0.006415
0.006686
0.045298
0.090560
0.115233
0.108006
0.117600
0.076365
0.035592
-0.010811
-0.048184
-0.104432
-0.143005
-0.163138
-0.162922
-0.157671
-0.163176
-0.141967
-0.108780
-0.087984
-0.035325
0.006191
0.042094
0.066939
0.077864
0.082279
0.066266
0.049694
0.024070
-0.019589
-0.066052
-0.110466
-0.151302
-0.176588
-0.195176
-0.203789
-0.190987
-0.175057
-0.145586
-0.112094
-0.074788
-0.012963
0.022961
0.058920
0.065201
0.078247
0.057651
0.040522
-0.013918
-0.048847
-0.091977
-0.135634
-0.178624
-0.212407
-0.229052
-0.209503
-0.189978
-0.174057
-0.142448
-0.103736
-0.056803
-0.001451
0.043109
0.050335
0.051522
0.046641
0.049312
0.027076
0.017431
-0.011712
-0.059722
-0.127493
-0.175136
-0.210006
-0.219498
-0.227195
-0.238069
-0.226125
-0.183201
-0.103746
-0.054226
-0.029406
0.020418
0.065813
0.088789
0.074920
0.069135
0.061372
0.025884
-0.007203
-0.063657
-0.168837
-0.178038
-0.212181
-0.211084
-0.211598
-0.213483
-0.173971
-0.087213
-0.103383
-0.097184
-0.094197
-0.006962
0.032720
0.055666
0.064061
0.070099
0.055601
0.018912
-0.004334
-0.036826
-0.074179
-0.106018
-0.122211
-0.125242
-0.125140
-0.111342
-0.077571
-0.030223
0.022552
0.086581
0.154724
0.228787
0.275487
0.343656
0.393641
0.424474
0.436275
0.441153
0.410170
0.395042
0.432552
0.437631
0.371169
0.373587
0.438734
0.464144
0.511590
0.607634
0.685331
0.753399
0.811898
0.834800
0.845327
0.905095
0.897461
0.875793
0.828298
0.770823
0.691377
0.575308
0.450028
0.329850
0.230394
0.153501
0.090013
0.039388
0.019494
0.047489
0.097905
0.121809
0.138345
0.164326
0.175580
0.203928
0.219936
0.198467
0.173522
0.138184
0.057099
0.008634
-0.029155
-0.030810
-0.087932
-0.086580
-0.093877
-0.100164
-0.082415
-0.064923
-0.048527
-0.023820
0.019435
0.062111
0.100408
0.120258
0.142494
0.125086
0.101663
0.054619
0.010817
-0.023566
-0.067307
-0.104599
-0.128698
-0.142262
-0.159345
-0.157703
-0.141915
-0.096986
-0.072811
-0.036375
-0.004459
0.039078
0.089844
0.092126
0.105297
0.075980
0.059649
0.045094
0.004520
-0.028825
-0.075461
-0.111420
-0.136162
-0.170780
-0.181687
-0.169178
-0.122097
-0.096985
-0.043953
-0.010495
0.014207
0.071583
0.099818
0.103942
0.098832
0.102922
0.089684
0.061148
0.026963
-0.031579
-0.069496
-0.101119
-0.132820
-0.153796
-0.165395
-0.146160
-0.115347
-0.078092
-0.044995
0.006361
0.046483
0.081473
0.106177
0.124235
0.132589
0.123250
0.125005
0.088700
0.043630
0.004586
-0.036396
-0.097164
-0.122283
-0.132172
-0.121545
-0.129261
-0.111189
-0.078694
-0.021929
0.001819
0.064429
0.107122
0.129640
0.145950
0.178997
0.195764
0.181592
0.133413
0.060882
0.012031
-0.017656
-0.067626
-0.097142
-0.097835
-0.110707
-0.115659
-0.085121
-0.049039
-0.002769
0.055494
0.107872
0.147510
0.188449
0.222284
0.218797
0.208065
0.187364
0.152144
0.096331
0.067362
0.021781
-0.013049
-0.038925
-0.061095
-0.083459
-0.050822
-0.041288
-0.036183
0.021157
0.078586
0.136178
0.178183
0.235776
0.221686
0.249172
0.260081
0.221404
0.200946
0.165527
0.079101
0.042130
0.001637
-0.030859
-0.050889
-0.062210
-0.063606
-0.036062
0.025545
0.060155
0.084586
0.141025
0.186114
0.219616
0.248964
0.258586
0.234177
0.219390
0.186922
0.139026
0.085490
0.035917
-0.002492
-0.051888
-0.071670
-0.085417
-0.070801
-0.033601
-0.004438
0.032999
0.047651
0.111424
0.175232
0.208667
0.213662
0.214578
0.223568
0.196438
0.149041
0.107650
0.074278
0.073905
0.033768
-0.035774
-0.088157
-0.106884
-0.104067
-0.071995
-0.071831
-0.053593
-0.000542
0.084503
0.129902
0.147649
0.175706
0.188511
0.168459
0.143407
0.116928
0.076957
0.016044
-0.026816
-0.080534
-0.073487
-0.121828
-0.127599
-0.120988
-0.122880
-0.091786
-0.063019
-0.025188
0.015913
0.069425
0.113425
0.163668
0.154333
0.141704
0.119807
0.087645
0.044314
-0.005747
-0.040275
-0.074058
-0.137085
-0.149164
-0.150076
-0.159988
-0.138517
-0.107407
-0.079565
-0.031904
0.003743
0.052381
0.080025
0.107500
0.137089
0.085476
0.062301
0.042715
-0.000167
-0.025259
-0.065600
-0.116147
-0.149628
-0.148920
-0.159844
-0.156960
-0.128108
-0.101531
-0.073061
-0.045201
-0.020269
0.031613
0.081932
0.079694
0.103145
0.110576
0.091310
0.069153
0.033410
-0.023477
-0.061588
-0.109291
-0.139964
-0.159453
-0.165725
-0.164748
-0.132653
-0.117559
-0.079914
-0.023759
0.000673
0.030152
0.089219
0.126992
0.132425
0.101575
0.092253
0.071662
0.024283
-0.036553
-0.064845
-0.087712
-0.111675
-0.147811
-0.146642
-0.127176
-0.103306
-0.097826
-0.042021
-0.007090
0.022733
0.065089
0.115312
0.093074
0.070891
0.138393
0.100221
0.050947
-0.001266
-0.025471
-0.065255
-0.085627
-0.122643
-0.129755
-0.159508
-0.152905
-0.114928
-0.054857
-0.020695
0.015495
0.031143
0.073217
0.115481
0.130612
0.148539
0.138241
0.115271
0.076383
0.036357
-0.014984
-0.048088
-0.101057
-0.134931
-0.145266
-0.182495
-0.175562
-0.137620
-0.111092
-0.029004
0.017304
0.041593
0.084192
0.111183
0.137262
0.152562
0.136255
0.113300
0.066682
-0.002369
-0.019101
-0.064523
-0.113691
-0.139721
-0.155520
-0.161848
-0.162358
-0.127896
-0.091208
-0.057725
-0.021461
0.043754
0.079377
0.122881
0.150420
0.146818
0.111853
0.110886
0.080615
0.035225
-0.010232
-0.060398
-0.096500
-0.126027
-0.164192
-0.161118
-0.159112
-0.159453
-0.117467
-0.071404
-0.031445
0.021211
0.075546
0.099024
0.118942
0.134968
0.139544
0.132966
0.101101
0.050548
-0.013728
-0.060496
-0.096902
-0.133932
-0.182319
-0.228554
-0.222036
-0.190589
-0.141571
-0.098438
-0.032320
0.053104
0.106638
0.102913
0.097001
0.106837
0.127920
0.094638
0.065706
0.021817
-0.017246
-0.078297
-0.125565
-0.148435
-0.169222
-0.177348
-0.142449
-0.124644
-0.091600
-0.075853
-0.028579
-0.000580
0.034671
0.101890
0.129794
0.123331
0.121237
0.097042
0.069119
0.018165
-0.026113
-0.054745
-0.105819
-0.138851
-0.157605
-0.167459
-0.172924
-0.162711
-0.140142
-0.089068
-0.044352
0.001308
0.051258
0.095214
0.120587
0.122807
0.116843
0.086787
0.085681
0.045108
-0.004783
-0.060729
-0.087414
-0.117580
-0.151733
-0.189960
-0.179686
-0.131468
-0.122320
-0.081744
-0.054508
-0.016060
0.036994
0.073297
0.098316
0.125520
0.107957
0.078656
0.056777
0.023821
-0.020962
-0.058173
-0.104649
-0.148168
-0.182509
-0.192653
-0.144737
-0.123294
-0.116065
-0.079696
-0.040158
0.006447
0.054818
0.091582
0.110367
0.112307
0.098351
0.070369
0.033962
-0.007211
-0.037572
-0.052175
-0.101698
-0.137248
-0.135498
-0.139273
-0.135619
-0.110502
-0.085880
-0.066185
-0.038485
0.001963
0.065181
0.087309
0.121008
0.108647
0.096407
0.087059
0.075576
0.027839
-0.028794
-0.097144
-0.148402
-0.159319
-0.121699
-0.125324
-0.143962
-0.145974
-0.109657
-0.075693
-0.019256
0.025470
0.066060
0.112690
0.153591
0.155368
0.122028
0.089396
0.088501
0.046403
-0.006086
-0.046290
-0.088950
-0.128908
-0.125763
-0.144733
-0.142078
-0.098572
-0.065558
-0.021393
0.025248
0.080938
0.117786
0.149404
0.174583
0.152630
0.153417
0.130839
0.094207
0.051777
-0.018428
-0.065112
-0.093044
-0.119265
-0.146579
-0.142615
-0.105116
-0.091505
-0.059148
-0.018037
0.008156
0.058865
0.103228
0.167307
0.189586
0.183692
0.164451
0.157869
0.129172
0.086131
0.029984
-0.031306
-0.069844
-0.093462
-0.122280
-0.156996
-0.143983
-0.121066
-0.110749
-0.097827
-0.023753
0.056419
0.107199
0.124733
0.164031
0.173302
0.169485
0.151936
0.084617
0.035992
-0.009024
-0.056831
-0.108242
-0.119483
-0.154109
-0.193504
-0.195354
-0.152334
-0.122158
-0.099051
-0.048113
0.028911
0.088988
0.110047
0.122027
0.121514
0.118008
0.128456
0.104313
0.036302
-0.029295
-0.069188
-0.088203
-0.142234
-0.184631
-0.190361
-0.171092
-0.177860
-0.109978
-0.085980
-0.070299
-0.010155
0.062739
0.096018
0.081235
0.099406
0.115204
0.085134
0.044737
0.007195
-0.029166
-0.070549
-0.095302
-0.112907
-0.161231
-0.181432
-0.184663
-0.185791
-0.160728
-0.099717
-0.055639
0.004460
0.048782
0.093660
0.109925
0.108143
0.099750
0.083640
0.052606
-0.007309
-0.030657
-0.023713
-0.108002
-0.160910
-0.168414
-0.195524
-0.167285
-0.130912
-0.105263
-0.078199
-0.046720
-0.010557
0.040786
0.072827
0.084549
0.100693
0.089400
0.073328
0.046204
0.000766
-0.041876
-0.069084
-0.115761
-0.149465
-0.178936
-0.185578
-0.179846
-0.147805
-0.116939
-0.080783
-0.031067
0.004555
0.053261
0.098486
0.140172
0.151177
0.149516
0.129172
0.088919
0.039938
0.067515
0.077286
0.027492
0.032006
0.023113
0.006168
0.037686
0.098548
0.168709
0.236555
0.318841
0.402302
0.482111
0.524048
0.581189
0.611439
0.662045
0.666626
0.663520
0.663302
0.654896
0.643357
0.663284
0.681973
0.663265
0.653142
0.646093
0.699876
0.729033
0.736866
0.769438
0.793744
0.817582
0.783664
0.726395
0.646755
0.581310
0.515742
0.417340
0.314221
0.221376
0.145137
0.068558
0.025492
-0.003193
0.024184
0.022537
0.021072
0.041171
0.055869
0.099272
0.138793
0.169529
0.178300
0.206979
0.213486
0.192378
0.169499
0.165581
0.112670
0.046029
-0.001235
-0.050807
-0.096384
-0.119895
-0.148447
-0.133880
-0.095759
-0.069747
-0.036392
0.013989
0.057711
0.104568
0.146898
0.186391
0.170618
0.139110
0.131661
0.115718
0.071441
-0.007652
-0.053535
-0.097821
-0.114587
-0.133030
-0.143030
-0.143131
-0.116549
-0.096763
-0.056903
-0.010606
0.029967
0.083079
0.126181
0.157297
0.178815
0.169177
0.127561
0.097653
0.072152
0.037523
-0.021761
-0.087038
-0.118150
-0.135542
-0.139214
-0.131219
-0.110914
-0.081936
-0.052437
-0.014933
0.037454
0.078431
0.103850
0.153346
0.175946
0.160177
0.141136
0.118438
0.068300
0.003030
-0.037819
-0.088269
-0.116926
-0.130994
-0.149129
-0.127013
-0.089443
-0.047428
-0.013550
0.023533
0.059651
0.103168
0.150875
0.172527
0.167872
0.179485
0.167154
0.135142
0.093309
0.048606
0.016627
-0.022329
-0.077887
-0.107109
-0.091215
-0.099249
-0.067074
-0.018966
-0.003079
0.036295
0.082038
0.133689
0.151464
0.169438
0.200603
0.215028
0.194777
0.153565
0.097779
0.060626
0.044053
0.003302
-0.030413
-0.051610
-0.017324
-0.010231
-0.025343
-0.018072
0.036134
0.072936
0.105223
0.151918
0.207774
0.229098
0.228280
0.224034
0.224590
0.188283
0.159286
0.108889
0.064073
0.024039
0.010864
-0.010837
-0.026935
-0.029471
0.011737
0.041011
0.085757
0.148306
0.175790
0.202247
0.235647
0.268984
0.253663
0.236027
0.220806
0.192479
0.162425
0.094319
0.081714
0.053371
0.010104
-0.013730
-0.034737
-0.027892
-0.003572
0.033739
0.094546
0.135871
0.177976
0.237245
0.255245
0.260594
0.276581
0.253244
0.221056
0.176784
0.122595
0.083348
0.034968
-0.000863
-0.026502
-0.023102
-0.043440
-0.047211
-0.022857
0.027989
0.064524
0.114682
0.149028
0.182457
0.216178
0.226023
0.229942
0.230456
0.220865
0.183673
0.120473
0.055329
0.014519
-0.031069
-0.072714
-0.090719
-0.101949
-0.110110
-0.056183
-0.031840
-0.004088
0.015306
0.044383
0.112096
0.177196
0.191268
0.179598
0.168693
0.173465
0.166331
0.106488
0.019652
-0.047691
-0.091327
-0.120164
-0.112784
-0.107565
-0.120399
-0.136825
-0.108320
-0.054640
0.007767
0.052722
0.078304
0.117959
0.151145
0.153890
0.164325
0.152217
0.132129
0.055948
-0.008946
-0.020736
-0.108424
-0.157299
-0.196455
-0.157709
-0.163279
-0.165486
-0.099559
-0.063961
-0.027196
0.004452
0.045592
0.085704
0.104977
0.141088
0.155365
0.099620
0.051068
0.014032
-0.028368
-0.039518
-0.074110
-0.118698
-0.148227
-0.166432
-0.171466
-0.152015
-0.121922
-0.074496
-0.024710
0.019858
0.060160
0.079941
0.093989
0.112556
0.117477
0.089659
0.064188
0.030205
-0.027808
-0.066961
-0.106128
-0.117170
-0.106835
-0.144434
-0.149113
-0.129019
-0.097883
-0.063606
-0.021099
0.019182
0.042279
0.088777
0.118592
0.121475
0.122737
0.108165
0.073569
0.020763
-0.026222
-0.052108
-0.079287
-0.118893
-0.136720
-0.142990
-0.141793
-0.117682
-0.097841
-0.083825
-0.040316
0.024982
0.055292
0.119668
0.160898
0.151562
0.138033
0.080063
0.070942
0.026403
-0.007614
-0.075120
-0.144370
-0.156616
-0.142538
-0.130551
-0.126216
-0.122346
-0.108395
-0.057978
-0.008116
0.044786
0.069873
0.095660
0.126834
0.140612
0.139841
0.108442
0.067474
0.023320
-0.012193
-0.052883
-0.091201
-0.114842
-0.129191
-0.151551
-0.146145
-0.110486
-0.092202
-0.071738
-0.009941
0.037391
0.094645
0.122094
0.119810
0.114006
0.117480
0.092598
0.089706
0.047333
-0.040217
-0.072121
-0.117027
-0.130060
-0.148487
-0.129319
-0.113034
-0.150122
-0.118654
-0.062952
-0.016841
0.018044
0.069795
0.113938
0.137734
0.132284
0.122410
0.111298
0.083665
0.018035
-0.017837
-0.073981
-0.123212
-0.164042
-0.181221
-0.176308
-0.153044
-0.120377
-0.085202
-0.077538
-0.016550
0.036263
0.058981
0.100748
0.124733
0.132602
0.120665
0.094276
0.058963
0.009036
-0.044350
-0.063857
-0.100386
-0.151111
-0.181497
-0.174240
-0.167377
-0.166883
-0.110049
-0.074320
-0.022998
0.022364
0.062433
0.102753
0.121339
0.119491
0.113757
0.088586
0.060903
0.010205
-0.043058
-0.065892
-0.110487
-0.147853
-0.163217
-0.174683
-0.175408
-0.144799
-0.136324
-0.092559
-0.029788
0.020409
0.049581
0.087799
0.121727
0.118472
0.104072
0.069303
0.058423
0.024151
-0.026369
-0.091335
-0.131867
-0.173914
-0.209119
-0.180897
-0.162584
-0.141685
-0.107915
-0.083844
-0.045655
-0.008143
0.057261
0.081141
0.107453
0.113407
0.137076
0.113734
0.075583
0.028618
-0.008099
-0.049567
-0.105039
-0.155338
-0.177529
-0.175261
-0.186056
-0.160315
-0.135244
-0.106859
-0.057911
-0.006373
0.056351
0.086693
0.097625
0.110260
0.106479
0.081961
0.057839
0.020604
-0.018664
-0.064687
-0.111944
-0.137035
-0.155722
-0.166680
-0.172187
-0.152544
-0.123969
-0.087761
-0.044018
-0.006273
0.016527
0.047336
0.081492
0.099969
0.110837
0.078077
0.057680
0.022564
-0.029543
-0.064305
-0.114247
-0.146749
-0.156454
-0.163442
-0.168700
-0.142495
-0.110108
-0.074543
-0.013740
0.028912
0.067413
0.086599
0.103497
0.102597
0.107546
0.115851
0.094860
0.084452
0.019795
-0.026833
-0.081156
-0.125837
-0.146965
-0.140685
-0.128322
-0.094256
-0.074942
-0.036174
-0.015156
-0.008753
0.003098
0.094407
0.203535
0.210167
0.187119
0.132094
0.089058
0.042186
-0.000154
-0.040890
-0.075833
-0.113168
-0.127922
-0.118075
-0.102986
-0.074695
-0.059202
-0.024245
0.038962
0.082771
0.098104
0.129953
0.160282
0.171595
0.143900
0.129900
0.106273
0.038020
-0.026678
-0.056959
-0.082250
-0.124069
-0.159922
-0.162300
-0.153886
-0.115590
-0.082252
-0.044607
0.015102
0.050009
0.077199
0.085456
0.105681
0.124090
0.116958
0.085980
0.044269
0.004872
-0.052925
-0.118885
-0.147708
-0.168693
-0.180529
-0.183119
-0.170598
-0.140465
-0.107067
-0.063711
-0.021086
0.020697
0.052173
0.082590
0.104859
0.112544
0.109945
0.065929
0.019926
-0.006103
-0.062900
-0.105188
-0.145159
-0.183741
-0.203029
-0.206363
-0.193587
-0.179067
-0.165837
-0.095343
-0.056235
-0.029975
0.013087
0.055433
0.104704
0.119994
0.100008
0.088207
0.037569
-0.033962
-0.068252
-0.106387
-0.130883
-0.162868
-0.194150
-0.220697
-0.229033
-0.162638
-0.137625
-0.105123
-0.076920
0.005271
0.041945
0.053826
0.071729
0.113936
0.078267
0.083528
0.061101
-0.019538
-0.046364
-0.076534
-0.130178
-0.172323
-0.191370
-0.208822
-0.207643
-0.196553
-0.137757
-0.101133
-0.064519
-0.012426
0.019369
0.051112
0.079416
0.104115
0.090911
0.073550
0.045678
-0.016825
-0.060937
-0.109850
-0.155735
-0.188295
-0.194537
-0.217036
-0.215311
-0.180229
-0.139669
-0.108496
-0.060264
0.018001
0.062631
0.103804
0.155135
0.186288
0.200356
0.196244
0.186568
0.139979
0.115675
0.091421
0.067359
0.052987
0.066663
0.079194
0.122151
0.164900
0.227434
0.311708
0.402609
0.489061
0.560374
0.622768
0.667564
0.715692
0.768034
0.784615
0.785117
0.763811
0.763036
0.758214
0.744903
0.694892
0.629275
0.621237
0.607174
0.587049
0.612556
0.642207
0.630036
0.593323
0.561133
0.517605
0.484783
0.435145
0.399094
0.309941
0.248020
0.198301
0.156955
0.102980
0.060939
0.031786
-0.011571
-0.027551
-0.038417
-0.042454
-0.010233
0.017363
0.056602
0.087179
0.108534
0.150723
0.188190
0.171139
0.158741
0.135146
0.100661
0.068837
0.009521
-0.034797
-0.075864
-0.100919
-0.132890
-0.150313
-0.155602
-0.128797
-0.090815
-0.036185
0.013791
0.057227
0.071131
0.104514
0.105187
0.110210
0.105836
0.097050
0.063159
0.031850
-0.025716
-0.072921
-0.103550
-0.129801
-0.133618
-0.162765
-0.135370
-0.112480
-0.129540
-0.050930
0.004573
0.049868
0.064589
0.092832
0.088367
0.094705
0.103504
0.079394
0.056206
0.015372
-0.007118
-0.036301
-0.084527
-0.124373
-0.112999
-0.146508
-0.143137
-0.123404
-0.074459
-0.039835
-0.002836
0.044290
0.100088
0.142180
0.151745
0.137388
0.127002
0.109417
0.090066
0.050417
0.002137
-0.041282
-0.095764
-0.123076
-0.118172
-0.134858
-0.135654
-0.109857
-0.087609
-0.032788
0.039147
0.099350
0.115745
0.168268
0.194975
0.204179
0.173359
0.134564
0.092877
0.063601
0.029584
-0.002254
-0.036135
-0.105206
-0.150048
-0.142746
-0.116065
-0.078228
-0.046631
-0.008429
0.052000
0.099238
0.139354
0.200756
0.223064
0.211251
0.196811
0.129433
0.138673
0.122644
0.091507
0.054300
0.007066
-0.053597
-0.079933
-0.082442
-0.075030
-0.048442
-0.007764
0.051702
0.084397
0.131210
0.167396
0.215908
0.242320
0.263569
0.253241
0.211883
0.192751
0.159153
0.108345
0.065686
0.002297
-0.034652
-0.053337
-0.046221
-0.031993
-0.012629
0.033226
0.065025
0.130816
0.150127
0.179699
0.201292
0.238445
0.268321
0.292030
0.222479
0.161024
0.132235
0.128794
0.093565
0.053990
0.029313
-0.010489
-0.038720
-0.048413
-0.013910
0.028840
0.056012
0.109718
0.162995
0.192428
0.242658
0.309417
0.236174
0.166492
0.181114
0.178391
0.129091
0.103615
0.071248
0.079143
0.025113
-0.021167
-0.021026
-0.020753
-0.048589
-0.031608
0.016957
0.078281
0.113832
0.156500
0.186556
0.186893
0.199004
0.193763
0.202429
0.178893
0.128379
0.097091
0.048328
-0.001590
-0.038881
-0.081846
-0.108326
-0.102525
-0.077958
-0.030248
-0.001407
0.031245
0.065788
0.096538
0.128079
0.166944
0.162863
0.122988
0.122843
0.119103
0.089599
0.019473
-0.010503
-0.082825
-0.140984
-0.164988
-0.145355
-0.081972
-0.081978
-0.081749
-0.056080
0.005744
0.050390
0.060779
0.103733
0.138212
0.125955
0.082623
0.073595
0.053518
0.028056
0.028472
-0.056020
-0.117782
-0.128944
-0.172488
-0.166320
-0.136842
-0.102058
-0.063961
-0.068224
-0.064179
-0.009747
0.047406
0.125882
0.131423
0.143129
0.133365
0.063214
0.031314
0.014121
-0.046985
-0.088462
-0.123928
-0.144766
-0.131950
-0.133761
-0.127057
-0.077453
-0.079169
-0.050136
0.015482
0.062716
0.065093
0.069657
0.111925
0.108747
0.088099
0.076080
0.050350
0.018661
-0.012422
-0.043783
-0.079484
-0.148110
-0.180118
-0.172738
-0.152881
-0.117776
-0.082188
-0.039480
-0.007268
0.041959
0.064395
0.123894
0.130391
0.141159
0.131852
0.105674
0.104408
0.047160
-0.011136
-0.059110
-0.093546
-0.114236
-0.151037
-0.171037
-0.177553
-0.136724
-0.104807
-0.038083
0.038639
0.088387
0.093626
0.117608
0.118908
0.133195
0.129819
0.104950
0.068795
0.025190
-0.027966
-0.084019
-0.131427
-0.152805
-0.139980
-0.133056
-0.140358
-0.094963
-0.061689
-0.032046
-0.008449
0.029578
0.070654
0.107765
0.176638
0.153013
0.116465
0.122135
0.106644
0.057893
0.014027
-0.076431
-0.120256
-0.123117
-0.136869
-0.154153
-0.172399
-0.135581
-0.101290
-0.088910
0.003117
0.052383
0.032092
0.059831
0.129646
0.205534
0.168479
0.093348
0.082911
0.048917
0.030343
-0.018867
-0.102290
-0.115596
-0.160569
-0.183054
-0.145515
-0.128024
-0.084266
-0.047736
-0.010395
0.026928
0.054193
0.138210
0.147098
0.140319
0.105444
0.061269
0.065190
0.078258
0.046167
0.005779
-0.098098
-0.171887
-0.198770
-0.187739
