0.008987
0.060373
0.105614
0.117586
0.142701
0.160204
0.141428
0.112517
0.073289
0.038352
-0.023096
-0.081477
-0.125260
-0.136010
-0.158834
-0.170743
-0.168199
-0.121486
-0.079916
-0.043377
0.013836
0.052631
0.125631
0.133295
0.162700
0.173280
0.185527
0.181254
0.146428
0.073110
0.009164
-0.038817
-0.076617
-0.110048
-0.138482
-0.143691
-0.136241
-0.115153
-0.037228
0.010099
0.062006
0.083725
0.104578
0.123958
0.146342
0.145427
0.125528
0.111457
0.094584
0.046343
0.002954
-0.035411
-0.071042
-0.106224
-0.132621
-0.142160
-0.132062
-0.110909
-0.077529
-0.035668
0.016361
0.046289
0.079161
0.114738
0.129816
0.125540
0.107514
0.088209
0.051083
0.002722
-0.037580
-0.094571
-0.146562
-0.161579
-0.184535
-0.202118
-0.184979
-0.171606
-0.141826
-0.080735
-0.042467
0.009504
0.061889
0.095502
0.091499
0.097818
0.079158
0.065640
0.030482
-0.028514
-0.062351
-0.110932
-0.172578
-0.206107
-0.201832
-0.218471
-0.223374
-0.204128
-0.173839
-0.123793
-0.082692
-0.050167
-0.011546
0.024307
0.084207
0.098915
0.088218
0.054578
0.018345
0.004131
-0.033402
-0.104121
-0.136500
-0.174590
-0.187464
-0.197179
-0.191564
-0.157450
-0.131743
-0.099050
-0.050062
0.001158
0.032123
0.073170
0.108878
0.115380
0.116875
0.089083
0.032230
-0.031179
-0.070457
-0.105789
-0.146195
-0.179522
-0.203184
-0.228712
-0.218970
-0.197783
-0.148458
-0.091687
-0.042845
-0.010215
0.032371
0.049000
0.089019
0.100434
0.094553
0.090803
0.063858
0.020474
-0.010909
-0.048681
-0.077036
-0.080522
-0.085454
-0.092259
-0.064584
-0.035179
0.000284
0.075717
0.137059
0.212779
0.293847
0.335630
0.368215
0.389523
0.406997
0.426522
0.416867
0.448876
0.429359
0.386248
0.364611
0.386696
0.411411
0.453215
0.472856
0.530922
0.601901
0.663364
0.703165
0.740522
0.762279
0.784637
0.796585
0.778018
0.736198
0.686733
0.615525
0.512307
0.411963
0.323350
0.239357
0.153051
0.082849
0.033922
0.009432
-0.001330
0.014615
0.044602
0.073164
0.128126
0.170700
0.191338
0.198502
0.200722
0.202861
0.161602
0.135251
0.097093
0.050973
0.000904
-0.049867
-0.085257
-0.119842
-0.133313
-0.140390
-0.121282
-0.082601
-0.057716
0.003314
0.048579
0.077915
0.117940
0.134381
0.139680
0.126859
0.127145
0.100741
0.049705
-0.012599
-0.069124
-0.121784
-0.142028
-0.142818
-0.152886
-0.155255
-0.146671
-0.109522
-0.050897
-0.002444
0.056522
0.095206
0.115571
0.115102
0.117251
0.122043
0.083898
0.046022
-0.011122
-0.071751
-0.068224
-0.116699
-0.152315
-0.185038
-0.168982
-0.164228
-0.142491
-0.101229
-0.048299
-0.011365
0.035203
0.069382
0.098220
0.135045
0.158873
0.165937
0.116973
0.086384
0.049181
0.001529
-0.043815
-0.095720
-0.121167
-0.137386
-0.128495
-0.131758
-0.108486
-0.069855
-0.033110
-0.003194
0.036670
0.075833
0.128935
0.152889
0.157881
0.151788
0.133768
0.097043
0.038542
-0.007519
-0.028849
-0.058383
-0.090400
-0.104894
-0.117180
-0.106008
-0.067594
-0.042556
0.007491
0.042190
0.081592
0.119249
0.145817
0.158697
0.184049
0.185135
0.172587
0.148150
0.087603
0.042620
0.000041
-0.044836
-0.062138
-0.072306
-0.084154
-0.064027
-0.033222
-0.000532
0.025129
0.059896
0.110620
0.147575
0.169036
0.203764
0.212853
0.182873
0.163963
0.136403
0.089288
0.046400
0.001463
-0.039047
-0.085959
-0.107471
-0.111267
-0.125349
-0.097039
-0.053473
-0.010895
0.033378
0.068710
0.112760
0.173919
0.225691
0.244193
0.239341
0.227084
0.206667
0.137529
0.080939
0.040021
-0.017031
-0.042341
-0.061537
-0.066885
-0.070278
-0.040240
-0.013277
0.025077
0.053624
0.099968
0.131103
0.176787
0.185729
0.206518
0.205379
0.180681
0.136394
0.086305
0.041729
0.024573
-0.019880
-0.049421
-0.081768
-0.088535
-0.087173
-0.076363
-0.036754
-0.000232
0.032729
0.086234
0.136204
0.159879
0.181333
0.198027
0.168808
0.163038
0.104831
0.051912
0.015266
-0.037389
-0.084446
-0.104648
-0.122721
-0.131255
-0.132922
-0.111596
-0.079113
-0.032675
0.000427
0.039854
0.069061
0.099259
0.106858
0.107797
0.087999
0.054724
0.017097
-0.007936
-0.035603
-0.063162
-0.092771
-0.111463
-0.118869
-0.125394
-0.144068
-0.130003
-0.104383
-0.062661
-0.022272
0.009988
0.056079
0.081524
0.106358
0.105521
0.118887
0.091665
0.061438
0.048664
-0.005813
-0.054829
-0.098575
-0.144752
-0.155099
-0.203370
-0.177924
-0.177243
-0.146800
-0.090392
-0.032961
0.003590
0.051110
0.055800
0.072634
0.093860
0.086377
0.078032
0.026626
-0.028290
-0.061471
-0.103348
-0.136206
-0.157385
-0.179218
-0.176439
-0.167911
-0.145908
-0.113316
-0.060259
-0.018954
0.037093
0.074378
0.108261
0.125079
0.125253
0.108614
0.085247
0.054991
-0.015304
-0.075420
-0.124948
-0.146517
-0.180106
-0.157722
-0.175310
-0.176779
-0.166919
-0.134355
-0.064626
-0.023340
0.012892
0.051877
0.091815
0.116825
0.121130
0.110852
0.080646
0.048149
0.006448
-0.028627
-0.074941
-0.112921
-0.144639
-0.174003
-0.200669
-0.210058
-0.192802
-0.128645
-0.050574
-0.004724
0.041326
0.077677
0.091984
0.105247
0.108010
0.112283
0.088692
0.058210
0.019759
-0.032483
-0.061608
-0.100478
-0.125169
-0.138514
-0.146872
-0.145771
-0.120515
-0.097461
-0.055229
-0.020773
0.021874
0.055845
0.108266
0.133517
0.125181
0.101703
0.063465
0.045629
0.012207
-0.054535
-0.097344
-0.128755
-0.133146
-0.154004
-0.148386
-0.149220
-0.125616
-0.086557
-0.020310
0.023967
0.046069
0.087064
0.094060
0.112957
0.137692
0.142849
0.118780
0.082055
0.034135
-0.007283
-0.039147
-0.082156
-0.110653
-0.146881
-0.197222
-0.150724
-0.116890
-0.090787
-0.066653
-0.023777
0.042621
0.088016
0.123783
0.151683
0.135234
0.122558
0.115544
0.069954
0.027046
-0.017264
-0.069507
-0.110124
-0.131928
-0.164664
-0.187982
-0.181993
-0.158340
-0.121400
-0.069291
-0.026095
0.022601
0.053872
0.089381
0.096367
0.103977
0.089109
0.073424
0.051966
0.026614
-0.017439
-0.071772
-0.114946
-0.159708
-0.171257
-0.176172
-0.185131
-0.131592
-0.095033
-0.056792
-0.017315
0.029557
0.074622
0.083560
0.107728
0.112710
0.096620
0.064498
0.030080
0.004383
-0.048195
-0.095431
-0.125999
-0.160677
-0.177535
-0.187568
-0.189207
-0.162336
-0.169121
-0.119514
-0.035320
0.004055
0.058430
0.080218
0.110850
0.129649
0.119096
0.092884
0.057390
0.024591
-0.014664
-0.067977
-0.127198
-0.166857
-0.178517
-0.176562
-0.171837
-0.158757
-0.125650
-0.080470
-0.035937
0.003549
0.057903
0.087045
0.101186
0.113393
0.103169
0.074756
0.050880
0.001453
-0.043175
-0.090942
-0.142308
-0.170106
-0.194137
-0.195135
-0.175771
-0.133894
-0.112034
-0.090582
-0.034314
0.011800
0.056187
0.086976
0.092097
0.107085
0.151248
0.123007
0.077448
0.037396
0.001172
-0.036742
-0.090136
-0.122916
-0.131663
-0.151032
-0.141763
-0.125186
-0.104773
-0.062099
-0.024527
0.004057
0.057170
0.098553
0.118806
0.111620
0.101023
0.072846
0.027644
-0.009357
-0.015347
-0.045574
-0.113156
-0.137785
-0.135242
-0.143994
-0.154210
-0.101911
-0.032901
0.006013
0.024192
0.046002
0.084728
0.117343
0.156125
0.171569
0.141688
0.094840
0.077387
0.044407
0.011407
-0.031218
-0.071171
-0.116745
-0.148732
-0.168511
-0.155851
-0.115493
-0.082234
-0.053797
-0.016642
0.019545
0.050922
0.094160
0.108514
0.149201
0.122509
0.078610
0.028537
0.014575
-0.020902
-0.072760
-0.122349
-0.165523
-0.173522
-0.183203
-0.165085
-0.165517
-0.155443
-0.116554
-0.053179
0.009261
0.034926
0.050772
0.074453
0.067875
0.046930
0.022661
-0.004851
-0.045157
-0.076124
-0.123347
-0.162153
-0.196055
-0.210241
-0.219811
-0.192860
-0.163803
-0.160152
-0.122790
-0.082580
-0.032466
0.024780
0.063489
0.061308
0.046918
0.050578
0.042920
0.025514
-0.015269
-0.057576
-0.106719
-0.161345
-0.212724
-0.224138
-0.227281
-0.207121
-0.176597
-0.144168
-0.092723
-0.051581
-0.002580
0.021718
0.042762
0.059157
0.086142
0.074148
0.035373
-0.005798
-0.019671
-0.058486
-0.091093
-0.134291
-0.176963
-0.207832
-0.221130
-0.201464
-0.175308
-0.135771
-0.107509
-0.071533
-0.018265
0.029919
0.056525
0.073524
0.077304
0.063434
0.035398
0.010198
-0.041091
-0.100338
-0.138674
-0.180053
-0.206005
-0.221249
-0.228001
-0.220696
-0.186067
-0.132004
-0.100358
-0.026360
0.029390
0.090617
0.128785
0.156625
0.177489
0.166934
0.161731
0.138691
0.125146
0.095865
0.058748
0.028711
0.047370
0.054158
0.070749
0.103544
0.162214
0.233883
0.304373
0.393122
0.468697
0.549980
0.623420
0.658631
0.708740
0.744026
0.758450
0.767863
0.783765
0.792661
0.746307
0.678332
0.654600
0.618387
0.606455
0.589822
0.586671
0.588756
0.566087
0.524219
0.486748
0.448944
0.432424
0.411528
0.370648
0.311201
0.266143
0.209752
0.135181
0.073902
0.040898
0.007165
-0.027204
-0.071511
-0.095396
-0.093137
-0.061646
-0.024186
0.009238
0.025958
0.072447
0.120594
0.154589
0.172094
0.196058
0.154547
0.136976
0.095019
0.056328
-0.001869
-0.053982
-0.081354
-0.135439
-0.153785
-0.165496
-0.157836
-0.127420
-0.097133
-0.050252
0.007607
0.051873
0.072299
0.104896
0.118927
0.128358
0.122891
0.102560
0.066037
0.026846
-0.005443
-0.070214
-0.127060
-0.168452
-0.182802
-0.180941
-0.165014
-0.133656
-0.100899
-0.064316
-0.023265
0.022587
0.062385
0.114370
0.123827
0.127926
0.121060
0.107980
0.071229
0.020018
-0.022344
-0.055472
-0.105198
-0.152233
-0.163836
-0.170350
-0.172296
-0.153617
-0.120926
-0.068748
-0.036100
0.022394
0.074117
0.093908
0.111282
0.105288
0.106106
0.120388
0.081850
0.017051
-0.036068
-0.074865
-0.116653
-0.136342
-0.152602
-0.165625
-0.155838
-0.140926
-0.107597
-0.066084
-0.015654
0.029029
0.067945
0.111189
0.130204
0.133892
0.137813
0.117185
0.089190
0.050149
0.019335
-0.040991
-0.078017
-0.103870
-0.120216
-0.136870
-0.145273
-0.090998
-0.062554
-0.000143
0.049488
0.104669
0.144682
0.181430
0.196454
0.204071
0.182953
0.149761
0.126846
0.082203
0.035992
0.002642
-0.051912
-0.077050
-0.073740
-0.093431
-0.073928
-0.060104
-0.027496
0.035534
0.088438
0.136610
0.164686
0.189943
0.206115
0.207768
0.204120
0.183099
0.150090
0.098887
0.037857
-0.007210
-0.050219
-0.049732
-0.057275
-0.066624
-0.066792
-0.049056
-0.024809
0.015704
0.052584
0.104968
0.147171
0.179507
0.208817
0.206934
0.194966
0.178918
0.130684
0.083337
0.026443
-0.025176
-0.054415
-0.082237
-0.105047
-0.124298
-0.121433
-0.087775
-0.050157
-0.016611
0.048263
0.094754
0.117622
0.147314
0.166491
0.162766
0.156544
0.131036
0.082957
0.032659
-0.017531
-0.054365
-0.081558
-0.107364
-0.131660
-0.167452
-0.117946
-0.093303
-0.065039
-0.005752
0.042588
0.079517
0.116141
0.158125
0.176368
0.167893
0.156807
0.123905
0.072486
0.028618
0.015279
-0.032392
-0.082990
-0.122740
-0.140418
-0.135423
-0.134616
-0.128377
-0.090730
-0.064637
-0.017228
0.027271
0.058639
0.097764
0.116741
0.137402
0.116913
0.096170
0.059788
0.010662
-0.022283
-0.059210
-0.099944
-0.131819
-0.149924
-0.170299
-0.157531
-0.139900
-0.113173
-0.071513
-0.013054
0.018399
0.051935
0.082153
0.110506
0.120145
0.102902
0.113169
0.092280
0.032503
-0.032351
-0.100215
-0.133640
-0.158136
-0.182532
-0.183528
-0.176053
-0.162117
-0.135861
-0.083589
-0.023760
0.013104
0.042873
0.059843
0.081929
0.093871
0.097617
0.081306
0.051458
0.005050
-0.047086
-0.104060
-0.130983
-0.161315
-0.195612
-0.220275
-0.217533
-0.177264
-0.121900
-0.074847
-0.030181
0.009659
0.039431
0.089758
0.120521
0.131236
0.128508
0.119376
0.078419
0.023452
-0.025745
-0.085460
-0.121401
-0.155323
-0.178656
-0.181859
-0.166852
-0.155402
-0.125582
-0.083275
-0.033791
0.010754
0.041994
0.080636
0.113800
0.131944
0.130719
0.111422
0.073322
0.048286
0.001942
-0.052858
-0.091056
-0.141765
-0.171133
-0.164682
-0.151356
-0.115517
-0.071761
-0.042883
0.009546
0.053279
0.088652
0.125155
0.146952
0.136204
0.138181
0.119069
0.085552
0.041451
-0.000329
-0.054762
-0.103683
-0.140927
-0.156175
-0.157067
-0.140788
-0.131904
-0.104581
-0.047291
-0.005510
0.037209
0.073182
0.104343
0.117795
0.133319
0.126849
0.108094
0.071385
0.020282
-0.037179
-0.070822
-0.102955
-0.131872
-0.157462
-0.174764
-0.167666
-0.144755
-0.121500
-0.071233
-0.018422
0.014145
0.056843
0.090407
0.112615
0.137991
0.126163
0.095540
0.057579
0.015334
-0.020502
-0.075138
-0.117489
-0.154802
-0.171084
-0.164277
-0.156647
-0.138003
-0.113252
-0.067989
-0.027033
0.004151
0.044904
0.074063
0.089218
0.104709
0.091127
0.068614
0.040253
-0.019280
-0.046730
-0.080282
-0.098467
-0.138377
-0.177282
-0.209728
-0.195840
-0.160053
-0.135471
-0.071685
-0.018179
0.020325
0.054956
0.081930
0.074839
0.072559
0.053219
0.052040
0.025619
-0.018204
-0.074933
-0.124366
-0.151980
-0.182135
-0.200408
-0.192399
-0.163311
-0.137315
-0.107311
-0.071283
-0.016402
0.033178
0.063710
0.082772
0.102146
0.101342
0.119535
0.083556
0.035226
-0.019231
-0.069826
-0.118070
-0.155371
-0.196571
-0.215257
-0.223098
-0.219459
-0.180930
-0.146178
-0.128413
-0.069856
-0.026562
0.015697
0.091503
0.122524
0.123734
0.089682
0.089729
0.043117
0.004461
-0.034291
-0.082773
-0.118756
-0.153360
-0.186506
-0.198538
-0.184269
-0.150042
-0.135620
-0.089166
-0.028730
0.015885
0.026571
0.047994
0.036669
0.063631
0.075305
0.048948
-0.005796
-0.015410
-0.052080
-0.116322
-0.190348
-0.218335
-0.235289
-0.236844
-0.197418
-0.104555
-0.065498
-0.088415
-0.017891
0.025056
0.066184
0.101890
0.139916
0.142086
0.142579
0.123550
0.080958
0.037056
-0.018298
-0.060118
-0.111790
-0.154519
-0.176519
-0.177474
-0.164611
-0.119225
-0.053944
-0.001058
0.036487
0.079224
0.108763
0.116592
0.147968
0.152765
0.138236
0.110725
0.080265
0.043870
0.000548
-0.040378
-0.083202
-0.114225
-0.127039
-0.129088
-0.140381
-0.111015
-0.078671
-0.036474
0.002767
0.052737
0.087777
0.115409
0.138762
0.144115
0.142681
0.121147
0.081323
0.033514
-0.015212
-0.080990
-0.117778
-0.145454
-0.157002
-0.166618
-0.171340
-0.154745
-0.125398
-0.068189
-0.004685
0.019060
0.036359
0.062883
0.101176
0.104383
0.101446
0.082885
0.053857
-0.007786
-0.067429
-0.115167
-0.159817
-0.187853
-0.192860
-0.189521
-0.177411
-0.163161
-0.148570
-0.114236
-0.061689
-0.009029
0.033553
0.058526
0.083963
0.087796
0.081722
0.055439
0.007733
-0.043065
-0.079555
-0.128135
-0.170888
-0.209704
-0.229241
-0.231403
-0.227576
-0.196582
-0.168471
-0.124713
-0.067355
-0.035015
0.003775
0.030830
0.043784
0.036013
0.060221
0.034591
-0.002908
-0.054580
-0.096345
-0.138320
-0.198032
-0.230474
-0.235649
-0.240791
-0.225058
-0.210649
-0.169249
-0.108926
-0.069295
-0.013548
0.009534
0.046965
0.062729
0.085510
0.078874
0.062962
0.025634
-0.042248
-0.068373
-0.089277
-0.117727
-0.143547
-0.172289
-0.208161
-0.230163
-0.213869
-0.163391
-0.108239
-0.076537
-0.005072
0.028774
0.056542
0.070434
0.077372
0.054856
0.044207
-0.016570
-0.063978
-0.091302
-0.148038
-0.181761
-0.213451
-0.198567
-0.164004
-0.176381
-0.172678
-0.153619
-0.101597
-0.033656
0.022342
0.078606
0.159953
0.174755
0.177763
0.188954
0.171927
0.166714
0.161378
0.157321
0.132382
0.104609
0.104694
0.139597
0.170918
0.206138
0.247462
0.322527
0.402173
0.483114
0.576220
0.670205
0.744863
0.784487
0.805548
0.835486
0.861674
0.852104
0.794354
0.767690
0.735933
0.668140
0.634254
0.598508
0.530767
0.469095
0.443446
0.408791
0.385885
0.356608
0.369540
0.355488
0.333060
0.302406
0.299860
0.299623
0.266767
0.228555
0.160660
0.101678
0.046962
0.010831
-0.048906
-0.092098
-0.120948
-0.124386
-0.101673
-0.089060
-0.049828
-0.002947
0.042244
0.073279
0.111872
0.138197
0.158576
0.178035
0.152033
0.119547
0.066291
0.023094
-0.039053
-0.087531
-0.132014
-0.152139
-0.181524
-0.200912
-0.167356
-0.111565
-0.057431
-0.019019
0.031909
0.075003
0.099716
0.116544
0.127002
0.108698
0.080816
0.052599
-0.014009
-0.064027
-0.088204
-0.130293
-0.146028
-0.168886
-0.201563
-0.214999
-0.160552
-0.127401
-0.070844
-0.029703
0.021562
0.026290
0.059032
0.092763
0.133528
0.108712
0.067699
0.039263
0.013459
-0.050246
-0.094580
-0.126178
-0.159548
-0.184118
-0.193999
-0.190952
-0.160914
-0.125398
-0.080795
-0.022216
0.033076
0.075026
0.106531
0.119850
0.129371
0.129024
0.115427
0.083514
0.052235
-0.009918
-0.070621
-0.100647
-0.131277
-0.152711
-0.172823
-0.167103
-0.140762
-0.071612
-0.031884
0.000254
0.040382
0.094819
0.132630
0.150860
0.172531
0.157585
0.123711
0.097298
0.080003
0.051893
0.003704
-0.043756
-0.089887
-0.116066
-0.132749
-0.129722
-0.114123
-0.083857
-0.028206
0.022118
0.072609
0.107503
0.135527
0.146887
0.134048
0.145057
0.133003
0.101740
0.086950
0.039095
0.011625
-0.026467
-0.058954
-0.092984
-0.111093
-0.101853
-0.047022
-0.006751
0.010196
0.020608
0.065071
0.111964
0.157015
0.178680
0.173252
0.182936
0.138434
0.120311
0.075116
0.023049
-0.047780
-0.070016
-0.110994
-0.118771
-0.120112
-0.110976
-0.086433
-0.036826
-0.003094
0.037205
0.076654
0.122449
0.157372
0.172853
0.191343
0.199468
0.175402
0.128247
0.073134
0.031797
-0.029462
-0.073621
-0.120446
-0.123802
-0.157269
-0.135754
-0.113697
-0.077250
-0.017654
0.032599
0.067518
0.109762
0.165653
0.187835
0.183716
0.164768
0.124601
0.062892
0.015678
-0.050721
-0.086417
-0.103772
-0.107370
-0.083891
-0.082679
-0.105162
-0.114367
-0.095932
-0.075788
-0.035657
0.032323
0.036002
0.037882
0.080199
0.074717
0.086002
0.122795
0.099850
0.041192
-0.016216
-0.067086
-0.093113
-0.146993
-0.183593
-0.177151
-0.187891
-0.158599
-0.121244
-0.087634
-0.026000
0.028083
0.072149
0.095964
0.089329
0.098315
0.108455
0.063594
0.035944
0.004957
-0.037675
-0.100578
-0.151019
-0.191024
-0.211588
-0.210728
-0.200082
-0.167952
-0.119867
-0.083041
-0.040142
-0.001683
0.019230
0.036666
0.064019
0.088355
0.072140
0.050578
0.032763
-0.018062
-0.067211
-0.132745
-0.192651
-0.223299
-0.235505
-0.245252
-0.243070
-0.224473
-0.203050
-0.149802
-0.081516
-0.043714
-0.027335
-0.020441
0.021611
0.030805
0.040112
0.022221
-0.017475
-0.040480
-0.063433
-0.103105
-0.118706
-0.116044
-0.163105
-0.202293
-0.190933
-0.175361
-0.138000
-0.068625
-0.035694
-0.000313
0.013517
0.059286
0.086837
0.082396
0.085236
0.055626
0.017473
-0.006948
-0.066701
-0.129082
-0.149964
-0.191661
-0.234751
-0.218797
-0.200360
-0.182068
-0.157642
-0.103950
-0.025496
0.021210
0.063957
0.077557
0.109348
0.102924
0.094774
0.069244
0.037601
-0.022675
-0.054361
-0.101338
-0.156189
-0.192814
-0.204566
-0.193305
-0.187358
-0.184768
-0.138246
-0.093131
-0.052385
-0.020758
0.010214
0.060450
0.082210
0.094893
0.091504
0.060279
0.028866
0.002074
-0.054177
-0.089651
-0.134876
-0.172832
-0.185699
-0.201542
-0.193231
-0.173950
-0.138822
-0.078289
-0.025538
0.036756
0.050352
0.074662
0.070537
0.093035
0.084318
0.075452
0.033453
0.001675
-0.042295
-0.090192
-0.133425
-0.185408
-0.209440
-0.203625
-0.209549
-0.200880
-0.162586
-0.110788
-0.070081
-0.018051
0.029107
0.054158
0.096901
0.108950
0.095107
0.074868
0.052991
0.018985
-0.031646
-0.080708
-0.133164
-0.177022
-0.192090
-0.196310
-0.194083
-0.181531
-0.149041
-0.130909
-0.099642
-0.041640
0.025527
0.053312
0.060959
0.087993
0.075037
0.043968
0.006586
-0.038639
-0.072997
-0.108041
-0.130945
-0.172519
-0.202761
-0.177642
-0.192435
-0.174481
-0.140831
-0.089450
-0.045835
-0.005341
0.035896
0.050124
0.058800
0.072551
0.068094
0.040228
0.028542
-0.016537
-0.052903
-0.094833
-0.123345
-0.169547
-0.214149
-0.218925
-0.213862
-0.146998
-0.119859
-0.088433
-0.048172
-0.005152
0.029717
0.080857
0.095001
0.103360
0.080977
0.057331
0.014474
-0.025187
-0.073212
-0.109176
-0.154662
-0.191338
-0.221577
-0.230968
-0.220820
-0.187359
-0.130095
-0.077444
-0.043606
-0.020312
0.009021
0.037962
0.079086
0.084116
0.058435
0.036281
0.000079
-0.046194
-0.112780
-0.155035
-0.184074
-0.192294
-0.208217
-0.212265
-0.208763
-0.179481
-0.140002
-0.088518
-0.047851
0.012488
0.066589
0.058163
0.090299
0.100877
0.090030
0.071426
0.027271
-0.013322
-0.057240
-0.094485
-0.130801
-0.168523
-0.174421
-0.175165
-0.161845
-0.146498
-0.109049
-0.068054
-0.024885
0.026196
0.062435
0.103694
0.119967
0.110467
0.101111
0.074877
0.047186
0.005237
-0.043204
-0.096922
-0.146954
-0.178527
-0.194901
-0.196320
-0.186205
-0.160373
-0.106176
-0.046355
0.015231
0.062371
0.067435
0.101855
0.140448
0.153777
0.129359
0.087943
0.053602
0.025165
-0.020793
-0.074639
-0.119224
-0.157815
-0.187475
-0.193081
-0.187729
-0.183201
-0.139774
-0.102847
-0.044139
0.002270
0.026345
0.041671
0.054541
0.059488
0.041168
0.019686
-0.013110
-0.057160
-0.083069
-0.135537
-0.176715
-0.228152
-0.249924
-0.252054
-0.231994
-0.181026
-0.121524
-0.071372
-0.033959
0.016733
0.070206
0.106794
0.116081
0.115207
0.110698
0.078466
0.043040
-0.005652
-0.051380
-0.117255
-0.155083
-0.190681
-0.234849
-0.230510
-0.214367
-0.198841
-0.167690
-0.124535
-0.075784
-0.024937
0.007653
0.035719
0.048002
0.052888
0.047496
0.027039
-0.013070
-0.054363
-0.099918
-0.146225
-0.198719
-0.214248
-0.232051
-0.243594
-0.239503
-0.217687
-0.199406
-0.173876
-0.131991
-0.084700
-0.051953
-0.018059
-0.001993
0.007216
-0.005519
-0.024484
-0.064524
-0.098005
-0.127220
-0.164346
-0.188678
-0.212063
-0.257442
-0.284753
-0.291141
-0.255721
-0.199685
-0.139742
-0.112052
-0.069509
-0.003473
0.019779
0.039683
0.020735
0.007094
0.007324
-0.021794
-0.060177
-0.091657
-0.130735
-0.166108
-0.188099
-0.208616
-0.196580
-0.194581
-0.174105
-0.158504
-0.139969
-0.096508
-0.047840
-0.019218
0.030544
0.069467
0.090633
0.089989
0.069027
0.051950
0.041096
0.002790
-0.034506
-0.082475
-0.124452
-0.139379
-0.122879
-0.086702
-0.034438
0.033620
0.115024
0.192684
0.278473
0.341480
0.421729
0.466022
0.499624
0.511942
0.504296
0.508532
0.508427
0.519696
0.543511
0.542494
0.564243
0.562566
0.588114
0.596974
0.589160
0.639165
0.692226
0.715037
0.735456
0.741149
0.763527
0.757926
0.702204
0.609817
0.517232
0.421075
0.334836
0.246848
0.145800
0.048929
0.007151
-0.018122
-0.052019
-0.048791
-0.040476
-0.016188
0.016553
0.058027
0.115212
0.136040
0.145358
0.148838
0.157335
0.162401
0.141052
0.099424
0.057513
-0.015850
-0.082020
-0.119621
-0.132971
-0.145002
-0.159969
-0.171612
-0.142456
-0.094920
-0.048213
-0.004952
0.025088
0.056167
0.088268
0.103945
0.103920
0.086704
0.060582
0.014002
-0.033941
-0.060364
-0.075274
-0.096406
-0.113076
-0.160853
-0.172138
-0.154561
-0.131290
-0.104441
-0.069168
-0.031552
0.019566
0.047062
0.069460
0.094649
0.107841
0.102186
0.088327
0.045811
0.023888
-0.039532
-0.090711
-0.136340
-0.161374
-0.181043
-0.192165
-0.179569
-0.147129
-0.110887
-0.064434
-0.045205
-0.000301
0.032098
0.075071
0.098557
0.096267
0.105461
0.090282
0.044050
0.018197
-0.026977
-0.078111
-0.096405
-0.128926
-0.153676
-0.168344
-0.158372
-0.135661
-0.118354
-0.070224
0.001722
0.041093
0.068670
0.082016
0.118856
0.131993
0.146676
0.117303
0.080250
0.030776
-0.021363
-0.076063
-0.088680
-0.107205
-0.133632
-0.147698
-0.137181
-0.110923
-0.065966
-0.006438
0.040009
0.087102
0.117246
0.141145
0.154660
0.164004
0.146021
0.134710
0.106628
0.072048
0.028286
-0.017017
-0.054645
-0.102665
-0.133307
-0.130001
-0.132711
-0.116589
-0.071710
-0.019576
0.048704
0.097353
0.136172
0.175511
0.212892
0.233973
0.231099
0.208283
0.151602
0.109481
0.068038
0.027691
-0.023307
-0.061135
-0.078351
-0.072555
-0.052255
-0.041430
-0.016133
0.013161
0.085871
0.136242
0.173175
0.207582
0.222094
0.246784
0.221852
0.187250
0.151507
0.115999
0.066922
0.011868
-0.020749
-0.036153
-0.074424
-0.098711
-0.084985
-0.057506
-0.014453
0.013432
0.056130
0.112845
0.156603
0.186385
0.217914
0.214186
0.199694
0.165742
0.117986
0.065703
0.026332
0.004825
-0.026751
-0.084640
-0.128931
-0.146058
-0.117252
-0.077607
-0.032874
0.017991
0.045467
0.088433
0.110826
0.124137
0.149342
0.143504
0.131805
0.115677
0.100733
0.041369
-0.033892
-0.078349
-0.099978
-0.127127
-0.137140
-0.157445
-0.153259
-0.155093
-0.124535
-0.073573
-0.007993
0.036493
0.065184
0.103622
0.116269
0.118067
0.107833
0.069099
0.045418
0.016923
-0.003173
-0.047687
-0.089879
-0.147483
-0.191668
-0.199460
-0.200976
-0.165437
-0.107720
-0.074865
-0.049484
-0.012037
0.022444
0.052465
0.086206
0.125259
0.107907
0.085112
0.050476
0.012591
-0.029129
-0.094679
-0.153903
-0.191087
-0.214979
-0.225640
-0.223197
-0.190765
-0.134447
-0.102474
-0.059822
-0.009766
0.021116
0.049662
0.074995
0.071255
0.062396
0.054977
0.022163
-0.007415
-0.061804
-0.102489
-0.148229
-0.183057
-0.208301
-0.198788
-0.187640
-0.167534
-0.129415
-0.106538
-0.065802
-0.023666
0.001876
0.029459
0.052589
0.071577
0.071454
0.048801
0.030607
0.000434
-0.048006
-0.113936
-0.141926
-0.175517
-0.206935
-0.215277
-0.188578
-0.178639
-0.148271
-0.110235
-0.049043
0.018413
0.047644
0.077446
0.112775
0.089013
0.078113
0.049498
0.004589
-0.035923
-0.087209
-0.132454
-0.149076
-0.183302
-0.191653
-0.191757
-0.178639
-0.145414
-0.111651
-0.064248
-0.018337
0.014702
0.050522
0.077191
0.071466
0.084439
0.092321
0.078205
0.060336
-0.004459
-0.050174
-0.099818
-0.133823
-0.149491
-0.198199
-0.218425
-0.200132
-0.168848
-0.140053
-0.107770
-0.047719
0.007720
0.046446
0.088760
0.119641
0.119966
0.104710
0.070073
0.032286
-0.009496
-0.051295
-0.097947
-0.136453
-0.169176
-0.194525
-0.195230
-0.185088
-0.163221
-0.137118
-0.090731
-0.049165
-0.005297
0.014790
0.059038
0.084822
0.107075
0.104386
0.085270
0.032612
-0.017804
-0.066389
-0.107505
-0.138793
-0.191106
-0.221907
-0.213858
-0.201840
-0.194528
-0.157401
-0.118682
-0.079442
-0.007399
0.054118
0.067469
0.090977
0.104174
0.096528
0.078045
0.045264
0.021216
-0.066452
-0.099229
-0.155682
-0.192453
-0.207628
-0.198854
-0.182316
-0.169405
-0.137526
-0.105510
-0.064430
-0.028694
-0.000823
0.027996
0.057502
0.062436
0.048760
0.048047
0.027311
-0.016668
-0.074285
-0.106462
-0.150960
-0.209934
-0.236114
-0.244880
-0.217246
-0.168055
-0.117247
-0.102910
-0.053261
-0.014324
0.016118
0.042752
0.065452
0.072808
0.061955
0.025060
-0.021716
-0.052791
-0.081484
-0.137424
-0.158863
-0.171221
-0.193580
-0.209869
-0.208453
-0.187290
-0.146503
-0.105539
-0.051859
-0.011331
0.031498
0.035972
0.047205
0.072223
0.051707
0.039732
-0.004948
-0.052304
-0.091072
-0.143864
-0.180530
-0.192860
-0.212098
-0.214520
-0.203047
-0.188794
-0.140690
-0.082641
-0.039665
-0.010894
0.047300
0.052025
0.057206
0.058451
0.065892
0.053070
0.029818
0.006447
-0.028313
-0.076752
-0.112630
-0.151052
-0.191306
-0.208611
-0.205497
-0.197502
-0.155581
-0.128797
-0.074951
-0.005746
0.061517
0.124538
0.110073
0.087814
0.107440
0.080494
0.014072
-0.035003
-0.050025
-0.094880
-0.137461
-0.158187
-0.204032
-0.206509
-0.184988
-0.167146
-0.128696
-0.098592
-0.031050
0.009814
0.051705
0.106092
0.117609
0.117030
0.120778
0.101317
0.066147
0.035083
0.002632
-0.056523
-0.096499
-0.121871
-0.143409
-0.153043
-0.145017
-0.148222
-0.115852
-0.076275
-0.018550
0.010480
0.034872
0.059628
0.085425
0.089249
0.069262
0.039517
-0.000389
-0.030527
-0.065555
-0.103926
-0.144422
-0.179195
-0.210070
-0.211103
-0.180708
-0.151969
-0.114827
-0.086395
-0.057600
-0.028910
-0.009359
0.030509
0.043682
0.066775
0.060212
0.030882
-0.007006
-0.033456
-0.078047
-0.112510
-0.173746
-0.212516
-0.229025
-0.242854
-0.240646
-0.218250
-0.175245
-0.135463
-0.088004
-0.026151
0.010366
0.036426
0.055851
0.048041
0.030127
0.004425
-0.019770
-0.049926
-0.083413
-0.142504
-0.199415
-0.241157
-0.268363
-0.271285
-0.268435
-0.256858
-0.211436
-0.159179
-0.103794
-0.051518
-0.016388
0.006833
0.055219
0.078877
0.052786
0.026924
-0.005033
-0.039848
-0.067987
-0.134536
-0.164255
-0.199101
-0.198713
-0.203724
-0.212822
-0.188593
-0.160344
-0.135082
-0.110582
-0.070387
-0.040861
0.001919
0.012469
0.020422
0.022694
0.019472
0.013587
-0.021427
-0.085907
-0.145487
-0.179927
-0.213033
-0.224425
-0.230401
-0.228591
-0.197947
-0.167871
-0.142023
-0.087107
-0.041820
-0.006180
0.014372
0.034384
0.049022
0.061715
0.025487
-0.004062
-0.035420
-0.067921
-0.099209
-0.129294
-0.149949
-0.151496
-0.146267
-0.128870
-0.085736
-0.031695
0.020537
0.106264
0.186283
0.264194
0.324550
0.373750
0.402934
0.442653
0.455293
0.443445
0.424178
0.403738
0.382063
0.374877
0.381186
0.392951
0.436297
0.489483
0.552671
0.618828
0.655128
0.689140
0.736422
0.756899
0.766199
0.777257
0.777273
0.755023
0.678820
0.561715
0.470077
0.385895
0.279671
0.191319
0.085914
-0.004585
-0.029994
-0.061681
-0.037724
0.011358
0.039296
0.089190
0.128825
0.153778
0.178505
0.200023
0.209556
0.165485
0.125910
0.091849
0.041579
-0.013415
-0.052052
-0.089518
-0.121319
-0.155058
-0.171508
-0.167068
-0.147002
-0.118194
-0.091526
-0.044050
0.032353
0.072769
0.116063
0.153920
0.155143
0.142868
0.119888
0.052274
-0.003217
-0.041421
-0.085012
-0.121482
-0.169070
-0.196605
-0.210672
-0.194288
-0.171883
-0.141200
-0.102105
-0.044645
0.005669
0.033512
0.074512
0.090435
0.095524
0.082118
0.047666
0.012897
-0.000773
-0.025110
-0.101091
-0.147579
-0.159751
-0.190780
-0.204612
-0.190651
-0.163073
-0.116669
-0.074068
-0.028707
0.038356
0.087437
0.099237
0.114689
0.102989
0.104051
0.090555
0.065322
0.032003
-0.029926
-0.070327
-0.100035
-0.135226
-0.169322
-0.177035
-0.167090
-0.141560
-0.113124
-0.086236
-0.054601
0.017915
0.077816
0.117740
0.146883
0.145485
0.114358
0.099475
0.059015
0.039218
-0.011091
-0.062431
-0.104688
-0.131768
-0.165875
-0.155548
-0.147973
-0.107273
-0.067565
-0.034583
0.003427
0.055403
0.099511
0.135425
0.162743
0.161902
0.151740
0.111060
0.087844
0.063321
0.032810
-0.011796
-0.044180
-0.084289
-0.100008
-0.144553
-0.125397
-0.072841
-0.035309
0.001969
0.073302
0.117318
0.147326
0.140567
0.171267
0.179395
0.177512
0.168304
0.129357
0.081831
0.034944
-0.014426
-0.039151
-0.050063
-0.056274
-0.074891
-0.089409
-0.053319
-0.005607
0.039716
0.067299
0.112266
0.144509
0.163278
0.187523
0.212880
0.197053
0.166535
0.124833
0.081721
0.029163
-0.006556
-0.039831
-0.059757
-0.082171
-0.085338
-0.053855
-0.040134
-0.000247
0.020987
0.067827
0.113291
0.154825
0.177577
0.202060
0.200165
0.177818
0.157506
0.115079
0.063078
0.012269
-0.016314
-0.071603
-0.100592
-0.114002
-0.118147
-0.112277
-0.089798
-0.037658
0.000519
0.038773
0.065408
0.098503
0.123061
0.159705
0.159266
0.157470
0.149370
0.108626
0.046698
-0.003690
-0.048858
-0.093481
-0.123284
-0.124783
-0.122271
-0.111663
-0.090303
-0.057503
-0.011323
0.024211
0.052880
0.078054
0.086423
0.108328
0.125548
0.118491
0.092026
0.049006
0.030504
-0.032131
-0.095112
-0.149360
-0.165697
-0.191546
-0.191027
-0.208062
-0.177612
-0.105761
-0.068587
-0.019677
0.020339
0.046907
0.071737
0.119718
0.126367
0.110461
0.104498
0.074223
0.018195
-0.043525
-0.103093
-0.159901
-0.170914
-0.189667
-0.188215
-0.180382
-0.151021
-0.119416
-0.087395
-0.055882
-0.019014
0.043319
0.079207
0.100279
0.102344
0.094759
0.073840
0.041064
-0.000096
-0.059494
-0.098074
-0.118176
-0.160011
-0.162654
-0.176049
-0.178355
-0.180312
-0.171867
-0.109646
-0.045183
0.010030
0.061724
0.084730
0.106323
0.101449
0.096012
0.065851
0.033949
-0.018871
-0.073805
-0.120852
-0.141670
-0.166815
-0.182190
-0.212202
-0.190862
-0.151603
-0.127161
-0.080081
-0.032666
0.012012
0.046163
0.079377
0.098261
0.099121
0.086479
0.083180
0.048344
0.007863
-0.041883
-0.081799
-0.135894
-0.168122
-0.192464
-0.196875
-0.161111
-0.097081
-0.094394
-0.075067
-0.054024
-0.021986
0.025587
0.076819
0.107729
0.114082
0.115503
0.104214
0.037028
-0.028255
-0.083895
-0.119522
-0.141340
-0.112014
-0.137232
-0.157251
-0.164577
-0.143021
-0.090520
-0.048808
-0.024455
0.020666
0.050543
0.072835
0.112382
0.112595
0.095484
0.062433
0.017316
-0.014084
-0.054486
-0.090780
-0.128978
-0.167486
-0.184830
-0.195727
-0.193128
-0.175465
-0.151784
-0.105239
-0.060796
-0.021985
0.059028
0.083667
0.105640
0.152257
0.126615
0.095673
0.047194
0.016714
-0.041991
-0.111663
-0.148305
-0.167533
-0.184260
-0.186050
-0.169961
-0.155973
-0.107502
-0.067289
-0.024700
0.021007
0.047439
0.085651
0.105750
0.119253
0.103722
0.074758
-0.001048
-0.045770
-0.072384
-0.125428
-0.161988
-0.157550
-0.192963
-0.206695
-0.212866
-0.184880
-0.142284
-0.096040
-0.043224
0.011925
0.067326
0.114029
0.135789
0.126258
0.072772
0.066545
0.027692
-0.027300
-0.093356
-0.156399
-0.158199
-0.185646
-0.215645
-0.232301
-0.221224
-0.174291
-0.119171
-0.092335
-0.054587
-0.007392
0.047434
0.073101
0.088195
0.088125
0.085656
0.074661
0.044247
0.005982
-0.050708
-0.105679
-0.147722
-0.189689
-0.206815
-0.210653
-0.205067
-0.187179
-0.153533
-0.134675
-0.086762
-0.033201
-0.000981
0.029748
0.059494
0.056122
0.053580
0.047749
0.007667
-0.048422
-0.117863
-0.133501
-0.151654
-0.191007
-0.245409
-0.239935
-0.240433
-0.212306
-0.151086
-0.112516
-0.055942
-0.008763
0.001753
0.041689
0.061962
0.067969
0.071964
0.069377
0.039885
-0.005830
-0.065057
-0.110524
-0.149263
-0.172168
-0.193927
-0.211225
-0.185192
-0.162743
-0.121168
-0.091623
-0.076336
-0.032844
0.025729
0.058026
0.091250
0.091730
0.083292
0.070095
0.051973
0.030121
-0.031350
-0.080770
-0.108191
-0.139954
-0.173666
-0.198346
-0.178225
-0.155030
-0.114747
-0.075113
-0.039625
0.033325
0.059207
0.077933
0.099303
0.082769
0.064764
0.051324
0.045938
0.002817
-0.041453
-0.078354
-0.116102
-0.136285
-0.150511
-0.142829
-0.153027
-0.163349
-0.140379
-0.072955
-0.014776
0.044724
0.091217
0.109497
0.107467
0.101909
0.085452
0.069036
0.072268
0.040097
-0.043842
-0.100770
-0.128626
-0.159924
-0.200032
-0.205197
-0.189371
-0.163664
-0.132061
-0.103976
-0.079558
-0.017781
0.045734
0.056334
0.071033
0.069199
0.066761
0.049295
0.014707
-0.012914
-0.041064
-0.095767
-0.153401
-0.187881
-0.219074
-0.237965
-0.221578
-0.209240
-0.173530
-0.137607
-0.089355
-0.069984
-0.030674
0.027747
0.038748
0.044040
0.037078
-0.010760
-0.005857
-0.050232
-0.096208
-0.142599
-0.169351
-0.203891
-0.248642
-0.251898
-0.261133
-0.263633
-0.225058
-0.121728
-0.069215
-0.038832
0.006856
0.035154
0.040250
0.031291
0.030841
0.040384
0.038075
-0.014220
-0.064083
-0.127709
-0.193949
-0.233654
-0.217048
-0.213239
-0.218478
-0.225299
-0.192380
-0.149218
-0.085899
-0.037286
-0.020605
-0.000335
0.045502
0.059507
0.047254
0.027565
-0.002439
-0.049182
-0.099861
-0.138615
-0.175900
-0.218252
-0.241214
-0.253091
-0.249943
-0.226112
-0.188167
-0.164388
-0.117082
-0.061925
-0.007313
0.043448
0.041905
0.044315
0.047900
0.019301
-0.025767
-0.066504
-0.125395
-0.168023
-0.219056
-0.246338
-0.248584
-0.271007
-0.264524
-0.240255
-0.194516
-0.118409
-0.050326
-0.007942
0.072675
0.127049
0.137115
0.154570
0.177675
0.161986
0.132289
0.127657
0.101560
0.115343
0.134588
0.114468
0.142614
0.172745
0.215580
0.282379
0.330721
0.407697
0.495893
0.582054
0.712235
0.789751
0.844160
0.864076
0.884599
0.861538
0.828011
0.788010
0.748802
0.682025
0.632799
0.583247
0.549915
0.474767
0.407058
0.345370
0.352176
0.322306
0.308741
0.289294
0.288892
0.268238
0.264982
0.252777
0.248121
0.216677
0.172787
0.114604
0.048799
0.020471
-0.012094
-0.087865
-0.136973
-0.143593
-0.112806
-0.099514
-0.079707
-0.028798
-0.005562
0.040981
0.081433
0.091422
0.115249
0.115056
0.112393
0.085143
0.057978
0.007545
-0.053113
-0.094464
-0.132882
-0.163669
-0.197592
-0.224562
-0.215379
-0.193597
-0.158138
-0.107092
-0.054335
-0.024903
0.020293
0.037389
0.076866
0.077822
0.032651
0.108378
0.066467
0.005881
-0.042971
-0.076513
-0.157194
-0.184613
-0.207063
-0.211246
-0.206025
-0.185589
-0.158384
-0.103617
-0.048620
0.005978
0.034764
0.071790
0.084789
0.089588
0.087864
0.077743
0.024587
-0.019235
-0.058864
-0.106280
-0.149133
-0.197787
-0.218281
-0.234161
-0.217957
-0.165302
-0.127031
-0.086120
-0.031519
0.011008
0.049350
0.086688
0.115609
0.114612
0.106935
0.080705
0.039569
-0.001352
-0.049197
-0.095910
-0.136516
-0.170390
-0.188570
-0.199643
-0.189468
-0.154262
-0.108413
-0.060939
-0.012800
0.034777
0.081227
0.095623
0.120191
0.148776
0.148107
0.125726
0.087960
0.046047
-0.006754
-0.076337
-0.125065
-0.152741
-0.147094
-0.142457
-0.143882
-0.140366
-0.101123
-0.060823
-0.013266
0.036736
0.101160
0.113630
0.124900
0.146692
0.152271
0.130303
0.093201
0.068926
0.015291
-0.038884
-0.066447
-0.062193
-0.071443
-0.073727
-0.083913
-0.056916
-0.031795
0.015665
0.072815
0.101962
0.135995
0.184621
0.201214
0.208332
0.220378
0.174485
0.123142
0.063717
0.049544
0.006012
-0.007536
-0.068473
-0.095049
-0.099423
-0.090415
-0.066642
-0.032182
-0.007772
0.045929
0.106117
0.151961
0.183354
0.207688
0.217149
0.196713
0.174369
0.139186
0.091202
0.049417
0.014033
-0.032833
-0.075888
-0.105588
-0.124475
-0.114111
-0.085079
-0.036394
0.009288
0.046025
0.076017
0.126534
0.159139
0.180441
0.173326
0.168662
0.145231
0.097786
0.045488
-0.005965
-0.040919
-0.084034
-0.117164
-0.126516
-0.125941
-0.130661
-0.107109
-0.071598
-0.029964
0.013132
0.041821
0.077532
0.098709
0.122938
0.123079
0.097917
0.073826
0.033462
0.006702
-0.045185
-0.099643
-0.160059
-0.161076
-0.183496
-0.169381
-0.164832
-0.142305
-0.115781
-0.077968
-0.044433
0.008592
0.072131
0.105023
0.105485
0.088686
0.072521
0.035441
0.008424
-0.031761
-0.068744
-0.103529
-0.138690
-0.154432
-0.182089
-0.198360
-0.197217
-0.186643
-0.147257
-0.092853
-0.048493
-0.014872
0.029242
0.054876
0.051301
0.080174
0.071651
0.054964
0.026983
-0.026113
-0.047076
-0.105478
-0.159008
-0.206315
-0.211668
-0.220410
-0.219354
-0.198279
-0.182113
-0.141864
-0.085319
-0.043163
-0.013562
0.011370
0.034952
0.056787
0.038363
0.011798
-0.001397
-0.030829
-0.078560
-0.103665
-0.118876
-0.136913
-0.193499
-0.215319
-0.239432
-0.214034
-0.161162
-0.118262
-0.069676
-0.022956
0.036198
0.069533
0.107645
0.115507
0.106806
0.092599
0.049144
0.007401
-0.049062
-0.102824
-0.150627
-0.187403
-0.200755
-0.212459
-0.207781
-0.185025
-0.149813
-0.103679
-0.059073
-0.016938
0.011241
0.052991
0.089183
0.081007
0.053743
0.049504
0.046085
-0.005511
-0.070593
-0.101341
-0.138463
-0.180227
-0.208623
-0.210746
-0.210687
-0.184443
-0.142767
-0.111594
-0.073724
-0.028949
0.000538
0.029089
0.055005
0.068227
0.064176
0.036656
-0.005120
-0.038378
-0.086156
-0.115026
-0.139092
-0.142634
-0.179302
-0.205711
-0.224933
-0.197083
-0.147502
-0.099749
-0.048456
-0.005115
0.027741
0.054993
0.078217
0.079098
0.075732
0.057680
0.018074
-0.017681
-0.054200
-0.103488
-0.152879
-0.192605
-0.195729
-0.187282
-0.193320
-0.186371
-0.152004
-0.111205
-0.054463
-0.012639
0.031125
0.064045
0.079188
0.101416
0.106897
0.081722
0.047201
-0.012586
-0.051370
-0.104532
-0.164624
-0.199706
-0.218321
-0.213337
-0.200718
-0.179600
-0.135713
-0.083463
-0.030244
0.005055
0.030082
0.078004
0.078983
0.069304
0.055074
0.036697
0.005595
-0.055792
-0.087819
-0.114022
-0.148005
-0.190722
-0.210921
-0.233461
-0.218006
-0.189493
-0.156763
-0.127762
-0.063095
-0.013696
0.031034
0.076266
0.066162
0.057145
0.032712
0.016767
-0.004978
-0.057778
-0.111771
-0.141824
-0.155900
-0.178682
-0.190090
-0.235653
-0.231585
-0.189711
-0.153685
-0.110316
-0.066983
-0.025744
0.022573
0.062920
0.078868
0.082748
0.069915
0.041718
0.000595
-0.054003
-0.109680
-0.137535
-0.163377
-0.187849
-0.189366
-0.204434
-0.209214
-0.184501
-0.136976
-0.075404
-0.028032
0.007388
0.042199
0.059844
0.039486
0.063968
0.057179
0.022857
-0.014032
-0.024815
-0.061668
-0.082972
-0.121195
-0.155437
-0.190437
-0.196132
-0.207457
-0.184547
-0.151366
-0.107108
-0.045554
-0.014462
0.016115
0.082197
0.128406
0.146620
0.126923
0.095361
0.051529
0.023285
-0.015964
-0.070893
-0.111516
-0.168204
-0.156185
-0.165422
-0.173884
-0.173198
-0.149683
-0.098137
-0.010560
0.053545
0.089592
0.104430
0.119840
0.112236
0.107161
0.088842
0.055611
0.028209
-0.018374
-0.044674
-0.107151
-0.155572
-0.175099
-0.167434
-0.152473
-0.108476
-0.059440
-0.033522
-0.020401
0.042547
0.079021
0.106631
0.119761
0.129765
0.132190
0.085371
0.044925
0.022855
-0.034538
-0.080746
-0.084341
-0.109138
-0.139176
-0.171598
-0.166726
-0.135293
-0.115298
-0.080955
-0.041606
-0.006494
0.041503
0.082912
0.078418
0.098544
0.085210
0.066432
0.018162
-0.041035
-0.094794
-0.155034
-0.184519
-0.193668
-0.214241
-0.222686
-0.219910
-0.192283
-0.159012
-0.124281
-0.077481
-0.026880
0.031095
0.065361
0.090240
0.082891
0.049050
0.021479
-0.012883
-0.046139
-0.104741
-0.152550
-0.203563
-0.233122
-0.253929
-0.261775
-0.239163
-0.208383
-0.177974
-0.135532
-0.080716
-0.035386
0.014029
0.061169
0.093487
0.074787
0.057670
0.042576
0.010356
-0.033718
-0.098741
-0.144792
-0.191199
-0.220147
-0.211260
-0.231195
-0.229064
-0.210833
-0.187258
-0.140238
-0.080519
-0.040007
0.002553
0.029599
0.048657
0.048307
0.032574
0.003398
-0.046470
-0.072797
-0.101287
-0.140457
-0.182996
-0.235100
-0.257196
-0.270656
-0.263338
-0.258476
-0.188128
-0.139498
-0.091804
-0.050198
0.016869
0.056399
0.064358
0.057629
0.053237
0.018888
-0.047957
-0.075242
-0.134113
-0.172794
-0.191724
-0.234073
-0.241992
-0.251372
-0.232876
-0.189209
-0.189580
-0.153122
-0.076650
0.003314
0.027494
0.060284
0.115405
0.118419
0.115455
0.101769
0.088664
0.050386
0.037233
0.027156
0.015019
-0.026672
-0.005788
0.066154
0.098309
0.154512
0.214411
0.279161
0.351494
0.425739
0.507222
0.577796
0.617824
0.676875
0.717414
0.742175
0.743482
0.738192
0.708724
0.690110
0.639275
0.592720
0.576282
0.572020
0.549042
0.543630
0.561530
0.577114
0.562021
0.512472
0.476302
0.422678
0.400079
0.387142
0.323463
0.240864
0.177225
0.112442
0.051750
0.020857
-0.008057
-0.046303
-0.096761
-0.108173
-0.103917
-0.089309
-0.065995
-0.041959
-0.003598
0.028170
0.094099
0.136165
0.158421
0.152706
0.151316
0.100329
0.061468
0.006586
-0.055932
-0.107764
-0.163041
-0.184586
-0.201156
-0.228378
-0.243350
-0.202581
-0.141326
-0.094583
-0.049339
-0.008893
0.028126
0.062134
0.084270
0.096946
0.084834
0.079531
0.037530
-0.007060
-0.060855
-0.102741
-0.140910
-0.185371
-0.197610
-0.208377
-0.210113
-0.177731
-0.149733
-0.086671
-0.029363
0.020993
0.054643
0.081455
0.103889
0.102980
0.104161
0.076708
0.048036
0.004659
-0.042396
-0.090932
-0.141893
-0.168467
-0.165453
-0.162624
-0.166580
-0.139636
-0.123212
-0.078858
-0.028462
0.019469
0.062249
0.085807
0.116082
0.115103
0.102381
0.067327
0.044603
-0.001141
-0.039072
-0.078126
-0.103529
-0.138059
-0.177685
-0.172742
-0.166191
-0.139823
-0.097435
-0.045088
0.002343
0.035489
0.078493
0.097788
0.121605
0.142854
0.122791
0.108257
0.084688
0.041466
-0.026415
-0.058425
-0.087155
-0.132919
-0.129992
-0.134653
-0.142521
-0.116808
-0.113817
-0.088582
-0.028818
0.039327
0.091467
0.111071
0.154295
0.152703
0.150489
0.115218
0.076475
0.053547
0.002189
-0.024942
-0.092389
-0.125235
-0.102127
-0.074377
-0.060883
-0.021013
0.025532
0.053429
0.096226
0.129077
0.159500
0.178167
0.190190
0.198896
0.203808
0.186185
0.168166
0.120518
0.045760
0.004660
-0.020014
-0.040948
-0.086594
-0.079814
-0.062744
-0.018025
-0.000650
0.036737
0.082137
0.127830
0.162079
0.179301
0.214015
0.202965
0.181128
0.202447
0.156719
0.115780
0.067418
0.016024
-0.024229
-0.055143
-0.073502
-0.086515
-0.093168
-0.065001
-0.032685
0.016818
0.054144
0.100230
0.140585
0.182561
0.168674
0.181555
0.163816
0.143361
0.108983
0.072388
0.026920
-0.014744
-0.072622
-0.106118
-0.108446
-0.119174
-0.110365
-0.074803
-0.041749
-0.017621
0.023637
0.068853
0.101424
0.129461
0.155043
0.146952
0.124299
0.073728
0.031643
0.007885
-0.045217
-0.098969
-0.150659
-0.181016
-0.199162
-0.193819
-0.179159
-0.150444
-0.128187
-0.092891
-0.028977
0.028569
0.065449
0.080228
0.103338
0.116590
0.114937
0.093046
0.050404
-0.001491
-0.066408
-0.109768
-0.136743
-0.173068
-0.188416
-0.208311
-0.178836
-0.156872
-0.135121
-0.098896
-0.049666
-0.005435
0.043103
0.063997
0.059949
0.061141
0.057506
0.054553
0.048498
0.007102
-0.054766
-0.096823
-0.156598
-0.192892
-0.229918
-0.242491
-0.240246
-0.190778
-0.168746
-0.136714
-0.103734
-0.046594
0.000146
0.045187
0.064271
0.079529
0.072915
0.052569
0.016496
-0.044724
-0.093600
-0.130233
-0.194363
-0.190599
-0.180616
-0.196735
-0.216584
-0.189161
-0.162058
-0.126598
-0.084026
-0.055104
0.004058
0.034707
0.050327
0.058162
0.031344
0.026194
0.018437
-0.050122
-0.091449
-0.139496
-0.174505
-0.211505
-0.223284
-0.227393
-0.247068
-0.243083
-0.187979
-0.119927
-0.068213
-0.029979
0.002754
0.029395
0.036508
0.060087
0.123620
0.128817
0.064050
-0.011971
-0.034347
-0.074849
-0.141874
-0.191086
-0.203714
-0.226929
-0.215075
-0.186328
-0.149806
-0.105026
-0.055924
-0.005784
0.035893
0.052559
0.076281
0.092619
0.101060
0.071917
0.029373
-0.002975
-0.031645
-0.093199
-0.154536
-0.198135
-0.211803
-0.217988
-0.208629
-0.181757
-0.159150
-0.105783
-0.062839
-0.021363
0.010979
0.037822
0.066531
0.072236
0.058883
0.043906
0.019029
-0.021271
-0.078382
-0.113097
-0.153235
-0.188940
-0.205482
-0.208584
-0.210990
-0.198523
-0.157808
-0.129028
-0.090427
-0.033793
0.010651
0.043536
0.081588
0.084552
0.059588
0.027846
-0.010000
-0.053938
-0.090933
-0.129440
-0.162139
-0.205266
-0.224740
-0.248976
-0.236437
-0.212895
-0.196208
-0.155271
-0.114857
-0.074416
-0.036447
-0.006648
0.017573
0.045559
0.043856
0.030455
0.013251
-0.051553
-0.087983
-0.137908
-0.165414
-0.169056
-0.187187
-0.174511
-0.185928
-0.163876
-0.147239
-0.122504
-0.063606
-0.017537
0.013259
0.038525
0.054936
0.080598
0.086143
0.045744
-0.000800
-0.054827
-0.093862
-0.117083
-0.176667
-0.208652
-0.206248
-0.199929
-0.228610
-0.208479
-0.155410
-0.133809
-0.071503
-0.020146
-0.004412
0.022165
0.054714
0.083728
0.078510
0.050382
0.019281
-0.029078
-0.091666
-0.135030
-0.162650
-0.198810
-0.241879
-0.251133
-0.241504
-0.206519
-0.169426
-0.123313
-0.078658
-0.043060
0.009975
0.057608
0.064791
0.062046
0.043979
0.037310
0.020253
-0.037548
-0.062348
-0.094405
-0.160060
-0.209072
-0.236063
-0.252065
-0.233130
-0.209442
-0.167313
-0.112255
-0.067077
-0.035750
0.000081
0.043450
0.078013
0.093364
0.106074
0.087206
0.075745
0.043810
-0.012348
-0.073106
-0.130875
-0.155722
-0.172822
-0.177330
-0.190688
-0.161657
-0.141187
-0.090472
-0.038889
-0.007591
0.033787
0.072113
0.077324
0.070779
0.084209
0.074070
0.051917
0.016463
-0.021147
-0.048553
-0.078045
-0.125942
-0.159321
-0.164946
-0.164817
-0.143153
-0.113861
-0.069684
-0.027722
0.013293
0.050610
0.091398
0.112534
0.105537
0.093773
0.058164
0.022482
-0.029040
-0.078957
-0.130695
-0.166700
-0.205401
-0.205062
-0.227567
-0.226678
-0.205763
-0.159601
-0.129305
-0.093676
-0.068926
-0.011224
0.001475
0.028472
0.048599
0.074446
0.046040
0.016129
-0.027456
-0.070236
-0.111690
-0.172829
-0.222287
-0.244397
-0.230093
-0.237864
-0.206999
-0.194714
-0.174714
-0.104019
-0.068723
-0.053557
-0.015698
0.037365
0.023178
0.020121
0.014364
0.002494
-0.039690
-0.112565
-0.161414
-0.203077
-0.230825
-0.272137
-0.275620
-0.261549
-0.232071
-0.195215
-0.175417
-0.152288
-0.107955
-0.069049
-0.025852
-0.003501
-0.014403
-0.014083
-0.047262
-0.109254
-0.138845
-0.170828
-0.221391
-0.253007
-0.280561
-0.274524
-0.278687
-0.247313
-0.178145
-0.132869
-0.076588
-0.047660
-0.005996
0.010374
0.038491
0.068263
0.061096
0.060439
0.016548
-0.033642
-0.072674
-0.107313
-0.149309
-0.182414
-0.237468
-0.263621
-0.277058
-0.276857
-0.254200
-0.236269
-0.169000
-0.098298
-0.069719
-0.043222
0.009127
0.023621
0.017501
0.003481
-0.025498
-0.074402
-0.075682
-0.121232
-0.151221
-0.164786
-0.180207
-0.219742
-0.211003
-0.185322
-0.143215
-0.121277
-0.053902
0.012965
0.067754
0.100514
0.143653
0.185578
0.214497
0.228541
0.234937
0.243044
0.242863
0.226508
0.195060
0.177171
0.177384
0.178310
0.195920
0.258039
0.314311
0.378055
0.461951
0.540376
0.581714
0.667209
0.749265
0.782944
0.781893
0.761507
0.737888
0.700161
0.637339
0.581712
0.534543
0.437654
0.333622
0.237073
0.196235
0.148603
0.121253
0.109979
0.093195
0.114221
0.140056
0.166035
0.156661
0.145122
0.137711
0.121533
0.081498
0.047186
-0.000467
-0.032692
-0.066794
-0.123144
-0.170903
-0.204495
-0.192109
-0.180271
-0.165094
-0.134895
-0.065856
-0.043532
-0.027654
0.006498
0.052209
0.075185
0.120612
0.108158
0.072740
0.041428
-0.010603
-0.061519
-0.116366
-0.163410
-0.204775
-0.227311
-0.243900
-0.238349
-0.219884
-0.207062
-0.168320
-0.134846
-0.074275
-0.013980
0.020399
0.073251
0.072831
0.099235
0.067272
0.026596
-0.014863
-0.090852
-0.119083
-0.153452
-0.193097
-0.220648
-0.237186
-0.227624
-0.192444
-0.165443
-0.155310
-0.089717
-0.007978
0.050003
0.098370
0.120155
0.093042
0.091519
0.072523
0.018315
-0.035867
-0.072989
-0.108468
-0.139690
-0.187797
-0.198041
-0.182113
-0.181252
-0.158551
-0.142639
-0.103733
-0.061768
-0.014478
0.030110
0.052106
0.076399
0.092766
0.076646
0.024738
0.008654
-0.035655
-0.064486
-0.070343
-0.095088
-0.129576
-0.140585
-0.153004
-0.157575
-0.140662
-0.114698
-0.063228
-0.037740
-0.012439
0.030647
0.124765
0.136755
0.141043
0.127927
0.089652
0.055841
0.007034
-0.005884
-0.032478
-0.081937
-0.112215
-0.130165
-0.142054
-0.136733
-0.107070
-0.065881
-0.008671
0.028160
0.058675
0.095478
0.151838
0.184222
0.171428
0.171916
0.136951
0.093986
0.070206
0.021336
-0.032485
-0.062828
-0.106499
-0.093121
-0.090921
-0.093469
-0.078679
-0.047050
-0.032919
0.021068
0.076596
0.114910
0.141510
0.174691
0.161667
0.150774
0.150142
0.124014
0.070010
0.023246
-0.019021
-0.057728
-0.084599
-0.106023
-0.073431
-0.063707
-0.056332
-0.029142
0.000692
0.045549
0.080663
0.109169
0.142473
0.142583
0.162218
0.142822
0.115765
0.108990
0.060506
0.039535
-0.017453
-0.074026
-0.121863
-0.134408
-0.138802
-0.156772
-0.136137
-0.083565
-0.035664
0.015032
0.067689
0.099086
0.115315
0.149262
0.148427
0.151617
0.094575
0.076740
0.042473
-0.008587
-0.061730
-0.075872
-0.125315
-0.154023
-0.154089
-0.155486
-0.127989
-0.116142
-0.074555
-0.009345
0.018065
0.047753
0.087391
0.098385
0.125446
0.117900
0.075876
0.037516
-0.016284
-0.073392
-0.122673
-0.143276
-0.199243
-0.241552
-0.232795
-0.219397
-0.144290
-0.112486
-0.069261
-0.039463
-0.006138
0.044003
0.061668
0.089866
0.095498
0.081545
0.057035
0.037941
-0.003756
-0.053228
-0.099299
-0.154074
-0.161303
-0.204081
-0.217691
-0.225169
-0.189619
-0.156584
-0.106954
-0.053502
-0.005282
0.040934
0.060810
0.100899
0.124497
0.092708
0.076766
0.043642
0.010045
-0.062606
-0.117398
-0.158003
-0.191873
-0.200262
-0.217493
-0.213768
-0.190874
-0.141116
-0.111639
-0.065351
-0.019900
0.018954
0.042500
0.065309
0.070399
0.056105
0.050525
0.023551
-0.026269
-0.069305
-0.116661
-0.179929
-0.222588
-0.204336
-0.212185
-0.216079
-0.191702
-0.146027
-0.101093
-0.053349
-0.025023
0.010621
0.052379
0.093072
0.097420
0.057064
0.009037
-0.014606
0.001806
-0.061386
-0.134267
-0.171977
-0.212174
-0.208416
-0.204363
-0.201112
-0.183382
-0.143730
-0.101433
-0.055692
-0.005189
0.042332
0.069308
0.077540
0.074036
0.056119
0.065939
0.004408
-0.042756
-0.076255
-0.115612
-0.157711
-0.170081
-0.182461
-0.190946
-0.198212
-0.216130
-0.190109
-0.125968
-0.040069
0.014480
0.029307
0.033611
0.043024
0.071762
0.104873
0.079428
0.029866
-0.012807
-0.061443
-0.116473
-0.160422
-0.185977
-0.214384
-0.226431
-0.224368
-0.205386
-0.177972
-0.127418
-0.076648
-0.050807
-0.002787
0.039851
0.062109
0.066297
0.060580
0.036426
0.004535
-0.040071
-0.075436
-0.102707
-0.143908
-0.181830
-0.182088
-0.185803
-0.180349
-0.161470
-0.127177
-0.083601
-0.042627
-0.005344
0.039472
0.043921
0.075654
0.082139
0.079186
0.070566
0.041274
0.006385
-0.066722
-0.126771
-0.152365
-0.162322
-0.176809
-0.193593
-0.199978
-0.181659
-0.153186
-0.103527
-0.049457
-0.012820
0.034815
0.055583
0.055331
0.052876
0.060698
0.031689
0.018980
-0.004869
-0.054479
-0.121510
-0.178196
-0.221103
-0.223983
-0.219351
-0.226130
-0.186208
-0.164946
-0.138620
-0.093109
-0.026827
0.009757
0.034474
0.049196
0.060584
0.061588
0.052127
0.017307
-0.029322
-0.081712
-0.124571
-0.175829
-0.204139
-0.221746
-0.243902
-0.229663
-0.207659
-0.161978
-0.128853
-0.075426
-0.050150
0.013753
0.035537
0.046336
0.043444
0.033427
0.010664
-0.018413
-0.026210
-0.064955
-0.110913
-0.153594
-0.188476
-0.202327
-0.204329
-0.187186
-0.163551
-0.151152
-0.115586
-0.072840
-0.022114
0.025416
0.065137
0.087309
0.115324
0.095353
0.057764
0.048650
-0.005845
-0.056215
-0.084245
-0.113750
-0.177782
-0.221686
-0.243590
-0.227962
-0.158368
-0.140364
-0.097955
-0.053403
0.016991
0.066917
0.075551
0.099847
0.129705
0.154079
0.101289
0.043556
-0.004366
-0.060251
-0.107543
-0.134853
-0.155898
-0.156464
-0.143140
-0.142023
-0.104815
-0.087938
-0.087517
-0.049520
0.004823
0.024448
0.070970
0.052655
0.059257
0.080756
0.063235
-0.000212
0.029865
-0.004494
-0.101641
-0.143247
-0.183693
-0.201612
-0.215528
-0.207055
-0.183979
-0.155371
-0.127365
-0.078265
-0.044045
-0.005051
0.059072
0.063755
0.050695
0.035798
-0.018433
-0.040723
-0.083228
-0.139017
-0.189627
-0.227595
-0.256690
-0.295556
-0.292937
-0.272497
-0.238558
-0.208417
-0.184737
-0.149651
-0.085371
-0.033112
0.025184
0.061903
0.072632
0.059950
0.035111
0.000968
-0.040733
-0.087886
-0.155776
-0.189622
-0.227887
-0.251017
-0.265432
-0.272819
-0.252838
-0.205612
-0.150875
-0.107018
-0.064560
-0.022903
0.010085
0.043908
0.048149
0.039944
0.006628
-0.023338
-0.060471
-0.110813
-0.169221
-0.223878
-0.254607
-0.286900
-0.291346
-0.274396
-0.219186
-0.115280
-0.100660
-0.084753
-0.049825
0.009230
0.017761
0.057391
0.086363
0.060112
0.034275
0.005872
-0.043617
-0.106456
-0.143180
-0.168598
-0.212431
-0.253578
-0.248406
-0.239796
-0.198329
-0.168655
-0.132878
-0.093434
-0.072006
-0.054743
-0.010387
0.012284
0.015551
0.006513
-0.006914
-0.041074
-0.081765
-0.113637
-0.115288
-0.115398
-0.141733
-0.146359
-0.124390
-0.123797
-0.113488
-0.051022
0.025431
0.118656
0.185655
0.243012
0.307711
0.356503
0.385226
0.398124
0.398710
0.424109
0.434413
0.420130
0.414168
0.407748
0.412858
0.430024
0.449060
0.488261
0.552483
0.613025
0.686244
0.743703
0.792812
0.833319
0.841350
0.825149
0.824917
0.791488
0.717674
0.656713
0.537719
0.412543
0.248038
0.165047
0.052241
0.004980
-0.053044
-0.068188
-0.058941
-0.019763
0.035543
0.120118
0.140623
0.129916
0.149313
0.175065
0.174803
0.158264
0.132795
0.079770
0.047579
-0.009947
-0.065335
-0.103596
-0.143479
-0.175912
-0.180423
-0.179044
-0.155098
-0.116699
-0.071455
-0.026623
0.019473
0.035303
0.069403
0.083809
0.093381
0.097937
0.057711
0.034783
-0.011917
-0.081195
-0.133209
-0.150061
-0.180214
-0.198920
-0.198803
-0.199894
-0.192366
-0.162922
-0.117741
-0.058643
-0.001798
0.016807
0.063086
0.123948
0.115012
0.072669
0.070908
0.058723
0.008794
-0.066286
-0.120217
-0.152635
-0.180926
-0.181670
-0.180603
-0.175237
-0.157551
-0.134651
-0.091310
-0.032066
0.016677
0.051461
0.075165
0.090634
0.095198
0.083661
0.060956
0.037546
-0.006363
-0.052840
-0.089211
-0.107683
-0.138858
-0.161466
-0.171395
-0.161477
-0.136503
-0.116422
-0.076822
-0.031499
0.019245
0.053942
0.076508
0.096458
0.116522
0.122308
0.099460
0.052634
0.019750
-0.002365
-0.063354
-0.124907
-0.155504
-0.169474
-0.166479
-0.155039
-0.138060
-0.103185
-0.063050
-0.043300
0.032861
0.066808
0.095527
0.123411
0.121244
0.136683
0.134541
0.104628
0.053781
-0.000003
-0.038738
-0.052653
-0.099560
-0.115301
-0.114971
-0.099220
-0.065975
-0.041318
-0.003205
0.030595
0.070704
0.104613
0.131391
0.144879
0.109712
0.167237
0.128046
0.083315
0.042797
0.004558
-0.036256
-0.057743
-0.060955
-0.103684
-0.133959
-0.115912
-0.085659
-0.024802
0.027865
0.076044
0.137872
0.174957
0.196596
0.185884
0.183127
0.165581
0.145515
0.124532
0.070174
0.021925
-0.004882
-0.052802
-0.083910
-0.105444
-0.131330
-0.118263
-0.072276
-0.026857
0.006047
0.051963
0.090421
0.119749
0.156300
0.145918
0.152070
0.136460
0.098461
0.078939
0.046184
0.016651
0.002375
-0.039127
-0.095600
-0.138402
-0.126624
-0.144996
-0.126624
-0.106327
-0.043926
0.007051
0.059839
0.117359
0.151387
0.152246
0.157939
0.129118
0.096910
0.071499
0.020037
-0.037192
-0.088527
-0.143037
-0.111815
-0.147858
-0.163299
-0.182302
-0.174650
-0.138342
-0.079417
-0.035441
-0.006345
0.068135
0.136159
0.177927
0.158068
0.128882
0.095209
0.053924
0.004016
-0.033124
-0.077596
-0.117219
-0.164742
-0.196619
-0.220328
-0.207227
-0.176289
-0.135443
-0.096182
-0.058031
-0.020700
0.021314
0.038488
0.065765
0.075619
0.084636
0.053360
0.004040
-0.046841
-0.095970
-0.148095
-0.164914
-0.190378
-0.211005
-0.231831
-0.250130
-0.207710
-0.162896
-0.110126
-0.083127
-0.011984
0.004987
0.031162
0.063633
0.069785
0.054509
0.029369
-0.021616
-0.054048
-0.082888
-0.125217
-0.146997
-0.196971
-0.198129
-0.203726
-0.214544
-0.184555
-0.146010
-0.108501
-0.061621
-0.022995
-0.004195
0.022295
0.056804
0.069963
0.060990
0.067224
-0.002876
-0.047927
-0.081920
-0.122682
-0.165479
-0.205105
-0.233053
-0.209409
-0.210247
-0.176599
-0.153208
-0.118084
-0.048696
0.013750
0.046278
0.049289
0.063770
0.081425
0.107605
0.071986
0.042137
0.001591
-0.043270
-0.084765
-0.122251
-0.168733
-0.179749
-0.197026
-0.189720
-0.178366
-0.153677
-0.073443
-0.050992
-0.027566
0.011718
0.037412
0.064792
0.091631
0.070182
0.058839
0.014879
-0.041658
-0.098145
-0.148016
-0.177295
-0.191447
-0.211952
-0.212492
-0.199331
-0.161854
-0.128235
-0.116761
-0.067245
-0.017991
0.023640
0.065258
0.101428
0.112696
0.095102
0.080545
0.049173
-0.017172
-0.063802
-0.101519
-0.141656
-0.172930
-0.190110
-0.202164
-0.181109
-0.176228
-0.134662
-0.089237
-0.061619
-0.019303
0.002845
0.037223
0.071107
0.069036
0.054822
0.027186
-0.001274
-0.036412
-0.103378
-0.139212
-0.177686
-0.202624
-0.218569
-0.224743
-0.209475
-0.185253
-0.147295
-0.102977
-0.081075
-0.022880
0.021344
0.057347
0.066292
0.077151
0.090071
0.064073
-0.000565
-0.057083
-0.070956
-0.093591
-0.139343
-0.184048
-0.206921
-0.214294
-0.210358
-0.183201
-0.162878
-0.129155
-0.095621
-0.044625
0.019197
0.050001
0.071449
0.079250
0.047227
0.023200
0.003840
-0.039795
-0.084084
-0.152833
-0.157542
-0.199697
-0.225167
-0.229527
-0.213007
-0.187939
-0.136195
-0.074165
-0.036105
0.000361
0.052602
0.095036
0.109512
0.094727
0.079834
0.044006
0.038899
0.007893
-0.018659
-0.084673
-0.161726
-0.188850
-0.191741
-0.215102
-0.204762
-0.182436
-0.142830
-0.103539
-0.053480
-0.000386
0.047318
0.080489
0.093912
0.126027
0.138171
0.108958
0.063659
0.008811
-0.024119
-0.064241
-0.109072
-0.132366
-0.163071
-0.151347
-0.182217
-0.150505
-0.147245
-0.106916
-0.042190
0.009428
0.042149
0.061082
0.073110
0.062705
0.070605
0.054761
0.031968
0.002755
-0.022550
-0.069926
-0.126494
-0.162113
-0.160726
-0.148141
-0.133476
-0.109299
-0.074025
-0.025760
0.017477
0.062502
0.092416
0.117583
0.137185
0.135891
0.133388
0.106477
0.065331
-0.010532
-0.063596
-0.102383
-0.139829
-0.171215
-0.187326
-0.193718
-0.181571
-0.160593
-0.128739
-0.080209
-0.033905
-0.004159
0.042719
0.078528
0.094520
0.099553
0.091059
0.063586
0.025404
-0.023378
-0.064770
-0.112202
-0.154539
-0.199996
-0.232850
-0.232079
-0.215338
-0.195436
-0.163451
-0.128313
-0.083702
-0.012586
0.004270
0.041209
0.062613
0.060647
0.037518
0.003212
-0.027543
-0.077993
-0.125748
-0.198196
-0.204052
-0.220004
-0.247744
-0.259219
-0.248512
-0.228452
-0.197330
-0.158190
-0.127179
-0.082011
-0.043649
0.004788
0.042630
0.041501
0.007995
-0.021812
-0.053715
-0.093300
-0.158186
-0.189707
-0.228016
-0.247188
-0.250940
-0.246359
-0.241514
-0.213654
-0.176445
-0.148313
-0.096887
-0.043459
-0.007940
0.030807
0.046705
0.064687
0.038353
-0.007010
-0.042247
-0.074243
-0.121979
-0.191216
-0.214970
-0.234748
-0.265385
-0.269086
-0.277246
-0.252505
-0.224409
-0.178440
-0.130209
-0.097418
-0.048861
0.026213
0.060351
0.065847
0.040111
0.011291
-0.039971
-0.100614
-0.153062
-0.204781
-0.246744
-0.236815
-0.228111
-0.204889
-0.166763
-0.164593
-0.120866
-0.055002
-0.003154
0.057697
0.104907
0.160343
0.204771
0.227051
0.226050
0.247192
0.253073
0.222243
0.187724
0.181610
0.168147
0.154639
0.160721
0.200073
0.250000
0.292732
0.345012
0.411545
0.505090
0.580079
0.662805
0.745831
0.811920
0.855687
0.842848
0.809208
0.769212
0.735637
0.686010
0.611305
0.540253
0.488313
0.414442
0.333460
0.271520
0.233655
0.189133
0.173873
0.168521
0.184093
0.181507
0.172854
0.174416
0.179701
0.182455
0.143686
0.095492
0.052842
0.006139
-0.083196
-0.128246
-0.105678
-0.123275
-0.145943
-0.128797
-0.149983
-0.122710
-0.045902
0.009472
0.034503
0.077100
0.102168
0.123201
0.107980
0.066137
0.043767
0.026728
-0.019106
-0.076749
-0.112627
-0.126512
-0.121438
-0.165011
-0.200789
-0.199323
-0.197007
-0.167140
-0.107877
-0.034116
0.005506
0.034041
0.067947
0.104204
0.098047
0.087237
0.052421
0.017450
-0.027478
-0.068712
-0.105437
-0.142481
-0.181924
-0.199451
-0.209989
-0.210384
-0.199961
-0.163279
-0.101173
-0.068635
-0.000462
0.054251
0.084874
0.094907
0.092044
0.060333
0.034023
0.003429
-0.031827
-0.085767
-0.092618
-0.124419
-0.155301
-0.163610
-0.178254
-0.154368
-0.146977
-0.122680
-0.077718
-0.020109
0.023565
0.044856
0.113059
0.147591
0.119302
0.099702
0.079941
0.045378
0.002825
-0.039484
-0.072651
-0.099504
-0.149918
-0.162248
-0.177348
-0.149395
-0.126584
-0.101724
-0.057609
-0.012201
0.022768
0.084603
0.132942
0.171614
0.154892
0.130178
0.120435
0.086740
0.049092
0.014823
-0.023982
-0.061787
-0.120817
-0.132646
-0.146081
-0.142358
-0.124499
-0.089986
-0.031300
0.013633
0.053416
0.091621
0.134607
0.161487
0.172742
0.176700
0.160090
0.128721
0.104548
0.042742
-0.052075
-0.057121
-0.065907
-0.086380
-0.117299
-0.114852
-0.097414
-0.078988
-0.030373
0.026661
0.085293
0.137550
0.182085
0.217093
0.206883
0.200212
0.183141
0.160623
0.120577
0.075387
0.038587
-0.015796
-0.054343
-0.079552
-0.095537
-0.095372
-0.062390
-0.014140
0.013308
0.033759
0.081907
0.119779
0.146934
0.182320
0.195210
0.187975
0.158851
0.133356
0.097870
0.050337
-0.004367
-0.052857
-0.086198
-0.104435
-0.116780
-0.128653
-0.112692
-0.078939
-0.039448
0.027855
0.061303
0.093507
0.121126
0.144031
0.155736
0.168852
0.151500
0.145508
0.106789
0.039660
-0.022049
-0.060993
-0.097168
-0.126431
-0.135107
-0.138982
-0.144073
-0.087844
-0.045675
-0.030846
0.015611
0.060927
0.105913
0.145314
0.149715
0.136530
0.101611
0.093473
0.082383
0.001061
-0.067107
-0.071063
-0.101762
-0.156316
-0.172416
-0.128686
-0.097505
-0.084297
-0.041794
-0.012727
0.010163
0.040098
0.082850
0.115532
0.118273
0.108199
0.079614
0.034205
-0.007738
-0.044545
-0.071624
-0.121266
-0.163806
-0.185891
-0.206883
-0.205445
-0.170650
-0.136840
-0.088145
-0.039117
-0.008693
0.040252
0.075929
0.098414
0.094600
0.083739
0.047281
0.013383
-0.011081
-0.045400
-0.085031
-0.123122
-0.159571
-0.206288
-0.216456
-0.196966
-0.168181
-0.127201
-0.078608
-0.029045
0.023098
0.060468
0.082334
0.109121
0.110015
0.121472
0.088840
0.029891
0.013758
-0.033640
-0.103706
-0.157002
-0.192102
-0.238071
-0.204552
-0.203037
-0.163422
-0.134228
-0.086846
-0.033760
0.005768
0.027849
0.059892
0.077018
0.084530
0.098883
0.074859
0.034719
0.005145
-0.014509
-0.056058
-0.102863
-0.138967
-0.182774
-0.195856
-0.186326
-0.170818
-0.133192
-0.095099
-0.041999
-0.002349
0.054719
0.090772
0.097423
0.101663
0.104519
0.078731
0.042224
-0.025536
-0.052599
-0.111759
-0.143547
-0.181698
-0.181500
-0.177174
-0.152654
-0.126567
-0.073631
-0.028748
0.000043
0.035539
0.065436
0.085619
0.119412
0.130135
0.127273
0.121629
0.098510
0.054823
0.005324
-0.051076
-0.104738
-0.125481
-0.156594
-0.172619
-0.171041
-0.149699
-0.132032
-0.077823
-0.050573
-0.007636
0.052472
0.089573
0.126261
0.127103
0.099348
0.097251
0.061977
0.009639
-0.042126
-0.078609
-0.108375
-0.153241
-0.200708
-0.195351
-0.162050
-0.130070
-0.115245
-0.074487
-0.027850
-0.009226
0.046577
0.101918
0.121615
0.130653
0.108346
0.060326
0.036412
-0.002261
-0.072558
-0.119665
-0.156165
-0.201967
-0.208576
-0.222237
-0.176378
-0.156900
-0.131320
-0.064250
-0.042543
-0.028309
-0.004733
0.044135
0.049330
0.058127
0.085376
0.081636
0.066404
0.040489
-0.027143
-0.070359
-0.125526
-0.156174
-0.181600
-0.182012
-0.172978
-0.136220
-0.125560
-0.101713
-0.049077
0.010478
0.046543
0.068984
0.104973
0.112075
0.125456
0.100894
0.047726
0.006221
-0.044789
-0.082350
-0.103669
-0.155298
-0.202576
-0.200191
-0.201139
-0.167188
-0.094071
-0.020937
-0.011503
0.025966
0.073487
0.098236
0.117377
0.132321
0.126873
0.095358
0.065530
0.016511
-0.039796
-0.083303
-0.076340
-0.120321
-0.157222
-0.153053
-0.140799
-0.124872
-0.095357
-0.057571
-0.000633
0.045153
0.079717
0.106401
0.107248
0.132996
0.125746
0.104650
0.065747
0.033345
-0.016399
-0.066547
-0.105269
-0.138083
-0.159984
-0.155925
-0.123934
-0.087532
-0.071227
-0.054909
-0.007678
0.050024
0.107951
0.129899
0.142753
0.140791
0.122676
0.096693
0.062482
0.029737
-0.013793
-0.056182
-0.087363
-0.112005
-0.127174
-0.129442
-0.146507
-0.114590
-0.071278
-0.017336
0.006156
0.042633
0.083695
0.110028
0.149210
0.133530
0.110168
0.088518
0.040196
-0.003603
-0.058121
-0.098696
-0.151864
-0.187402
-0.195688
-0.206362
-0.191107
-0.158594
-0.124713
-0.065995
-0.012429
0.032911
0.055949
0.069832
0.089535
0.094131
0.077821
0.055481
0.021174
-0.006413
-0.066605
-0.127189
-0.168021
-0.205315
-0.212199
-0.236954
-0.195547
-0.191806
-0.176773
-0.140737
-0.097879
-0.043273
-0.003794
0.045084
0.055918
0.080929
0.077848
0.057289
0.019203
-0.033700
-0.070595
-0.125254
-0.145541
-0.184765
-0.220410
-0.237462
-0.236421
-0.211185
-0.189178
-0.146585
-0.113268
-0.058724
-0.007282
0.021220
0.053738
0.058325
0.026577
0.007804
0.003120
-0.030115
-0.075326
-0.138350
-0.180344
-0.196746
-0.216342
-0.230840
-0.240713
-0.219153
-0.182180
-0.137486
-0.086265
-0.011987
0.024072
0.054908
0.061217
0.060143
0.033874
0.004348
-0.005888
-0.051533
-0.094580
-0.146320
-0.162451
-0.186503
-0.203122
-0.213925
-0.212626
-0.202376
-0.159831
-0.130286
-0.092545
-0.040336
0.019336
0.094585
0.141735
0.157872
0.154024
0.143338
0.126907
0.097213
0.061283
0.020824
-0.032411
-0.037934
-0.029767
-0.007069
0.034955
0.073604
0.115787
0.183387
0.278539
0.359729
0.426275
0.494242
0.537268
0.568720
0.594052
0.628992
0.644441
0.652564
0.652814
0.645638
0.674054
0.681354
0.631934
0.619396
0.625916
0.649037
0.654028
0.657978
0.659517
0.691113
0.693452
0.641003
0.580395
0.517684
0.443962
0.397334
0.306653
0.221076
0.134210
0.064548
0.021232
-0.032388
-0.050410
-0.046693
-0.039330
-0.050669
-0.043248
-0.015192
0.031474
0.084921
0.124774
0.136403
0.135858
0.118939
0.135078
0.120240
0.076778
0.001851
-0.049926
-0.091926
-0.147752
-0.198413
-0.217034
-0.170522
-0.153018
-0.133315
-0.121532
-0.093908
-0.025551
0.012402
0.060646
0.083912
0.101331
0.119705
0.122588
0.103953
0.062552
0.017226
-0.022172
-0.079639
-0.126617
-0.155807
-0.174616
-0.172950
-0.180777
-0.173146
-0.126290
-0.078356
-0.020378
0.036134
0.069817
0.098943
0.106343
0.110246
0.110911
0.085803
0.053443
0.032348
-0.021031
-0.076993
-0.129286
-0.160430
-0.195002
-0.195737
-0.169040
-0.146539
-0.111916
-0.079854
-0.055639
0.004380
0.051128
0.079798
0.100475
0.098893
0.088292
0.081178
0.056404
0.017608
-0.028947
-0.082500
-0.116967
-0.144095
-0.153699
-0.171687
-0.163265
-0.134928
-0.089968
-0.060082
-0.015710
0.028371
0.059310
0.104210
0.137438
0.126262
0.115609
0.107297
0.066378
0.008335
-0.031042
-0.079852
-0.128795
-0.157619
-0.161393
-0.160059
-0.143118
-0.122099
-0.047126
0.011338
0.047980
0.074090
0.138624
0.165101
0.174841
0.170159
0.157674
0.140770
0.122730
0.085281
0.023278
-0.029193
-0.063889
-0.082065
-0.109032
-0.123598
-0.116011
-0.094702
-0.064493
-0.013382
0.032910
0.082923
0.121563
0.159767
0.195879
0.194030
0.190585
0.178736
0.151179
0.119634
0.069373
0.036832
0.003841
-0.028569
-0.057964
-0.076162
-0.066547
-0.033578
-0.006969
0.029136
0.053703
0.075281
0.107874
0.151721
0.178186
0.197750
0.174749
0.132676
0.134383
0.082657
0.039871
0.005522
-0.015379
-0.040849
-0.071692
-0.082687
-0.083918
-0.062741
-0.032465
0.004295
0.036352
0.074000
0.125683
0.167350
0.187801
0.179714
0.174019
0.162373
0.123836
0.081863
0.027100
-0.025887
-0.054530
-0.079996
-0.103708
-0.115496
-0.101680
-0.086077
-0.054906
-0.008223
0.024844
0.057118
0.093472
0.130950
0.136396
0.150403
0.147574
0.122864
0.085853
0.040473
0.008213
-0.025544
-0.087991
-0.138494
-0.166177
-0.154394
-0.148101
-0.127296
-0.112253
-0.051197
-0.009452
0.053086
0.074989
0.102151
0.116042
0.109064
0.099151
0.101582
0.072252
0.048468
0.021326
-0.013576
-0.083077
-0.138357
-0.165599
-0.176908
-0.166487
-0.142344
-0.115981
-0.074804
-0.026455
0.008957
0.042852
0.084198
0.104688
0.086218
0.056014
0.038008
0.025478
-0.000893
-0.046990
-0.099318
-0.147975
-0.183954
-0.185172
-0.194438
-0.174575
-0.159261
-0.106939
-0.076849
-0.050110
0.017027
0.041935
0.069773
0.085247
0.085069
0.075477
0.047070
0.046564
-0.001267
-0.051303
-0.088764
-0.135911
-0.164424
-0.202935
-0.215712
-0.201787
-0.164994
-0.141539
-0.109606
-0.061924
-0.041838
-0.030125
0.043967
0.077120
0.118794
0.120975
0.101728
0.063559
0.033568
-0.011205
-0.066590
-0.117426
-0.158344
-0.178566
-0.183256
-0.173927
-0.148818
-0.108491
-0.055788
-0.020564
0.019270
0.053912
0.097036
0.111378
0.114166
0.099471
0.073741
0.046275
0.000904
-0.049348
-0.110503
-0.121794
-0.131409
-0.161197
-0.177045
-0.172473
-0.150131
-0.111092
-0.089792
-0.049148
0.009142
0.051760
0.092390
0.106312
0.126726
0.125264
0.089039
0.055819
0.005172
-0.034908
-0.094921
-0.134897
-0.162026
-0.152201
-0.166090
-0.190333
-0.178761
-0.132277
-0.061387
-0.031591
0.023839
0.043701
0.102287
0.124531
0.098222
0.080146
0.078673
0.053168
0.018474
-0.038198
-0.096414
-0.140073
-0.154370
-0.173028
-0.186234
-0.185934
-0.165985
-0.123094
-0.086859
-0.052913
-0.014062
0.074547
0.090216
0.096756
0.088979
0.074484
0.068299
0.031420
0.008082
-0.009987
-0.049405
-0.093397
-0.133516
-0.153076
-0.161842
-0.171494
-0.155240
-0.121684
-0.083307
-0.048766
-0.005831
0.036202
0.076614
0.099825
0.091415
0.058430
0.050744
0.018968
-0.029914
-0.087999
-0.125386
-0.166163
-0.204349
-0.211337
-0.219078
-0.210467
-0.166503
-0.153846
-0.121398
-0.077446
-0.020574
0.015925
0.050919
0.057575
0.074661
0.065629
0.043046
0.020686
-0.019963
-0.048469
-0.071746
-0.094177
-0.123451
-0.150158
-0.166227
-0.157399
-0.150280
-0.106037
-0.061693
-0.018819
0.023147
0.043803
0.064159
0.081308
0.095316
0.095582
0.079762
0.041806
-0.034148
-0.039696
-0.065320
-0.117707
-0.152125
-0.164954
-0.166373
-0.169703
-0.144826
-0.117361
-0.061992
-0.008308
0.054150
0.086714
0.125029
0.117356
0.120782
0.133324
0.112547
0.063822
0.014453
-0.021043
-0.053321
-0.082941
-0.117796
-0.159842
-0.182393
-0.171585
-0.147536
-0.117112
-0.066449
-0.036890
0.005024
0.063637
0.100137
0.111151
0.110500
0.113753
0.092045
0.062034
0.029183
0.003744
-0.043703
-0.109503
-0.137703
-0.146736
-0.147062
-0.132821
-0.107494
-0.074553
-0.047693
-0.008301
0.030261
0.059936
0.081667
0.085750
0.084068
0.061600
0.034575
0.017273
-0.004137
-0.032556
-0.076331
-0.140064
-0.183939
-0.222947
-0.226446
-0.206523
-0.170673
-0.128109
-0.055485
0.011153
0.035877
0.067845
0.079769
0.087448
0.077839
0.108551
0.074111
0.034665
0.003871
-0.032955
-0.072702
-0.113389
-0.163810
-0.195820
-0.212799
-0.223744
-0.200979
-0.167747
-0.081934
-0.062006
-0.017244
0.011173
0.040145
0.071045
0.079073
0.078838
0.051938
0.003675
-0.044855
-0.086829
-0.131731
-0.172306
-0.207689
-0.223482
-0.227287
-0.222197
-0.214664
-0.197901
-0.162263
-0.107248
-0.040824
0.006062
0.027967
0.045339
0.041415
0.027234
-0.000276
-0.047917
-0.069479
-0.114209
-0.161708
-0.182435
-0.209384
-0.242974
-0.242135
-0.234502
-0.208706
-0.155439
-0.127143
-0.098212
-0.042809
-0.005870
0.034460
0.053956
0.054606
0.050828
0.026782
-0.027536
-0.069058
-0.117239
-0.192741
-0.230494
-0.268657
-0.282390
-0.271802
-0.247584
-0.230718
-0.186362
-0.127928
-0.082551
-0.035130
-0.004860
0.041022
0.059682
0.062187
0.045815
0.035269
0.011393
-0.013901
-0.047866
-0.089698
-0.109489
-0.140949
-0.161840
-0.155976
-0.130427
-0.062841
-0.019519
0.043311
0.110444
0.173482
0.247690
0.307191
0.358044
0.377875
0.401610
0.405502
0.419547
0.413438
0.414027
0.407226
0.420909
0.424333
0.442421
0.462013
0.528932
0.587761
0.641792
0.736073
0.781517
0.841142
0.886723
0.924388
0.948935
0.942263
0.896578
0.817167
0.786271
0.698915
0.569369
0.436075
0.330484
0.232985
0.167185
0.111748
0.068445
0.063028
0.098893
0.129977
0.154458
0.174884
0.215845
0.248126
0.261796
0.232028
0.194939
0.144584
0.109640
0.062892
0.007209
-0.044281
-0.095257
-0.095042
-0.136707
-0.170991
-0.160374
-0.137700
-0.083729
-0.024688
-0.005646
0.024365
0.065428
0.107063
0.135276
0.137951
0.120094
0.096723
0.051063
-0.009363
-0.022648
-0.058239
-0.106849
-0.152450
-0.218392
-0.226358
-0.194179
-0.165014
-0.130850
-0.094984
-0.045657
0.004016
0.048696
0.078775
0.092372
0.092050
0.070656
0.062989
0.053059
0.003458
-0.048943
-0.097894
-0.146292
-0.182138
-0.175021
-0.183912
-0.170411
-0.144662
-0.118372
-0.088477
-0.053522
-0.014044
0.031294
0.055968
0.068960
0.099744
0.103225
0.070538
0.023528
-0.032320
-0.050222
-0.089871
-0.124484
-0.113860
-0.141656
-0.165754
-0.159082
-0.144805
-0.114204
-0.070691
-0.043912
0.017385
0.066585
0.097070
0.106243
0.101210
0.085534
0.086106
0.053382
0.000096
-0.032826
-0.080858
-0.099552
-0.154164
-0.181614
-0.177888
-0.154402
-0.126295
-0.090462
-0.041275
0.001874
0.050002
0.095077
0.102801
0.115177
0.137585
0.135896
0.117456
0.086745
0.059597
0.008078
-0.043235
-0.070437
-0.110219
-0.132735
-0.130864
-0.130283
-0.104408
-0.061336
-0.024774
0.013813
0.054125
0.109160
0.142541
0.154113
0.152438
0.150747
0.143152
0.121389
0.071959
0.042806
-0.017847
-0.064796
-0.100004
-0.120928
-0.116021
-0.101394
-0.079011
-0.050085
-0.004886
0.037436
0.090743
0.124136
0.153756
0.167372
0.178041
0.165738
0.145427
0.111683
0.078985
0.041344
-0.013738
-0.057587
-0.085602
-0.096936
-0.119876
-0.127409
-0.127386
-0.070246
-0.009780
0.004585
0.044778
0.110539
0.159059
0.191561
0.191305
0.153603
0.117213
0.085675
0.028235
0.001997
-0.026984
-0.043329
-0.072576
-0.093863
-0.113842
-0.133124
-0.141126
-0.093896
-0.051531
0.020622
0.082318
0.114435
0.153261
0.162600
0.164311
0.147580
0.155345
0.116431
0.054495
-0.001502
-0.045427
-0.092605
-0.125130
-0.162700
-0.163999
-0.148649
-0.143818
-0.123563
-0.094212
-0.039140
0.012414
0.070502
0.117219
0.123616
0.116717
0.110857
0.092524
0.051376
0.011573
-0.021085
-0.068205
-0.120313
-0.158988
-0.187359
-0.187535
-0.182538
-0.164554
-0.137745
-0.111159
-0.077798
-0.034950
0.014725
0.058348
0.086422
0.111135
0.107301
0.087117
0.038795
-0.019526
-0.070983
-0.131694
-0.139629
-0.149428
-0.171940
-0.186794
-0.205873
-0.186707
-0.143056
-0.095484
-0.056616
-0.001424
0.037109
0.074732
0.093295
0.110338
0.093607
0.069233
0.041051
-0.010283
-0.069496
-0.127816
-0.165344
-0.198327
-0.222367
-0.228269
-0.201682
-0.174191
-0.146794
-0.114033
-0.064995
-0.020622
0.017784
0.071626
0.080740
0.063849
0.061787
0.050829
0.065592
0.009465
-0.047480
-0.111670
-0.160551
-0.176189
-0.213447
-0.203447
-0.184326
-0.178138
-0.153461
-0.099553
-0.039086
0.016627
0.054827
0.076847
0.077912
0.073629
0.065908
0.108651
0.047516
-0.020088
-0.067755
-0.110527
-0.151156
-0.196670
-0.248058
-0.232148
-0.221271
-0.171530
-0.124619
-0.069926
-0.020143
0.010964
0.047061
0.091721
0.112554
0.115658
0.121287
0.079224
0.053590
0.020010
-0.030884
-0.081522
-0.146696
-0.161333
-0.159377
-0.172124
-0.163959
-0.143903
-0.131359
-0.099219
-0.043885
0.004744
0.035676
0.053058
0.062331
0.072636
0.083401
0.064625
0.027293
-0.011909
-0.045753
-0.103841
-0.152457
-0.173381
-0.188522
-0.217685
-0.197351
-0.150925
-0.128127
-0.085722
-0.042650
0.003161
0.054139
0.071034
0.078085
0.099431
0.103991
0.090986
0.046566
-0.023329
-0.074315
-0.112576
-0.162283
-0.198622
-0.183873
-0.152422
-0.163118
-0.170869
-0.146215
-0.111180
-0.033431
-0.007505
0.017356
0.040917
0.071670
0.075199
0.060070
0.051931
0.051497
-0.003180
-0.031109
-0.089133
-0.143936
-0.165461
-0.207094
-0.202430
-0.190771
-0.194551
-0.164530
-0.113618
-0.081962
-0.015372
0.036528
0.051127
0.078366
0.098677
0.078699
0.045121
0.013237
-0.018952
-0.072494
-0.094360
-0.132807
-0.180212
-0.204312
-0.224837
-0.211332
-0.188159
-0.158445
-0.121615
-0.089330
-0.038630
0.011860
0.045409
0.071972
0.082153
0.066985
0.055775
0.036787
0.001433
-0.029007
-0.061049
-0.118619
-0.155746
-0.169975
-0.186180
-0.164988
-0.141962
-0.105305
-0.060290
-0.033487
0.003951
0.032163
0.061268
0.109446
0.111704
0.093706
0.088459
0.062211
0.030055
-0.030339
-0.094129
-0.196203
-0.211927
-0.206213
-0.202172
-0.191932
-0.150740
-0.115134
-0.066336
-0.012844
0.056621
0.112208
0.124672
0.141680
0.174879
0.156794
0.126599
0.073953
0.038674
-0.013352
-0.057948
-0.083438
-0.133415
-0.139505
-0.155159
-0.131341
-0.096219
-0.061669
-0.018323
-0.007174
0.021149
0.024866
0.053476
0.097621
0.142176
0.128174
0.093996
0.062204
0.020595
-0.021042
-0.056750
-0.116322
-0.179437
-0.196203
-0.216405
-0.227198
-0.185611
-0.149988
-0.107305
-0.060474
-0.021986
-0.007485
0.036593
0.102131
0.117264
0.070975
0.037880
-0.003653
-0.045045
-0.093968
-0.128473
-0.179988
-0.198172
-0.194728
-0.219477
-0.216105
-0.191577
-0.166780
-0.116561
-0.081285
-0.045710
-0.021720
0.007272
0.023516
0.021791
0.000802
-0.006360
-0.039836
-0.066619
-0.098726
-0.138586
-0.165325
-0.200366
-0.219810
-0.231296
-0.235373
-0.223140
-0.185348
-0.142563
-0.095824
-0.045059
-0.006344
0.038984
0.062353
0.063451
0.053801
0.048195
0.019929
-0.016820
-0.067242
-0.136104
-0.197127
-0.217945
-0.234695
-0.233904
-0.235218
-0.232661
-0.195935
-0.144707
-0.092071
-0.012060
0.003724
0.005065
0.006486
0.048837
0.068717
0.040702
-0.001318
-0.052789
-0.095102
-0.118575
-0.176903
-0.226452
-0.244314
-0.238190
-0.237698
-0.224584
-0.186659
-0.153021
-0.089268
-0.069281
-0.037863
0.004063
0.012516
0.016897
-0.002191
-0.014605
-0.026008
-0.033996
-0.074939
-0.109065
-0.113666
-0.136357
-0.149655
-0.145624
-0.104970
-0.075287
-0.040963
0.022192
0.094923
0.155711
0.234856
0.288646
0.331066
0.373197
0.396224
0.430990
0.449126
0.431077
0.419159
0.415159
0.406106
0.415700
0.457414
0.488028
0.508649
0.573924
0.638888
0.703688
0.788929
0.815984
0.832057
0.902266
0.918734
0.899784
0.872421
0.807937
0.718756
0.614807
0.512981
0.405879
0.291134
0.211532
0.135271
0.097058
0.064524
0.038609
0.076559
0.118030
0.116309
0.123673
0.147202
0.179647
0.200027
0.190517
0.172420
0.149877
0.119014
0.063130
0.034058
-0.041530
-0.057937
-0.072687
-0.095357
-0.117393
-0.125756
-0.112765
-0.075356
-0.044776
-0.018629
0.015270
0.044429
0.117742
0.150790
0.138003
0.099182
0.072768
0.043485
0.016511
-0.028113
-0.083218
-0.136161
-0.159036
-0.176246
-0.193936
-0.195027
-0.159786
-0.128968
-0.111958
-0.071476
-0.030994
0.034078
0.061158
0.070576
0.050703
0.064384
0.046566
0.008584
-0.025846
-0.032265
-0.089574
-0.157648
-0.196918
-0.192244
-0.167014
-0.162623
-0.172885
-0.142243
-0.098376
-0.053826
0.000980
0.050793
0.089029
0.093443
0.093795
0.080739
0.044900
0.002628
-0.045553
-0.089448
-0.158607
-0.162507
-0.170093
-0.175293
-0.203627
-0.196220
-0.179988
-0.132505
-0.069329
-0.021131
0.032638
0.054189
0.080956
0.092450
0.108134
0.100090
0.105846
0.089590
0.071642
0.017771
-0.057453
-0.119938
-0.143924
-0.145446
-0.167158
-0.157607
-0.104174
-0.090780
-0.056246
-0.005064
0.027851
0.098279
0.149479
0.168711
0.150384
0.142848
0.152257
0.117972
0.063444
0.029008
-0.050657
-0.110087
-0.139907
-0.140000
-0.133758
-0.100171
-0.080563
-0.031026
0.006124
0.041459
0.075131
0.107640
0.145671
0.158754
0.153044
0.137912
0.141536
0.128400
0.086324
0.041732
0.000085
-0.053280
-0.113277
-0.149735
-0.158787
-0.118025
-0.096763
-0.046504
-0.014048
0.044917
0.089173
0.131981
0.166710
0.171944
0.185283
0.176237
0.177043
0.142106
0.095956
0.052294
-0.004528
-0.067639
-0.105666
-0.107970
-0.099997
-0.096872
-0.082404
-0.054893
-0.038392
-0.012495
0.068169
0.131805
0.157173
0.147996
0.150734
0.145191
0.151349
0.140405
0.120887
0.039416
-0.022580
-0.060750
-0.083245
-0.111746
-0.106856
-0.087245
-0.058198
-0.034908
0.017199
0.060727
0.085924
0.093057
0.123384
0.145390
0.183634
0.147518
0.108999
0.060633
0.032285
0.019210
0.006995
-0.060821
-0.127599
-0.172071
-0.173152
-0.160337
-0.155806
-0.117795
-0.087001
-0.011560
0.049786
0.093859
0.119287
0.127256
0.128133
0.108003
0.083476
0.051420
0.000418
-0.056051
-0.112548
-0.175593
-0.184487
-0.178118
-0.178438
-0.180549
-0.184254
-0.172942
-0.125427
-0.061727
-0.013746
0.020273
0.061364
0.108555
0.110262
0.096972
0.043851
0.029043
0.009373
-0.082302
-0.106345
-0.147691
-0.187879
-0.180260
-0.173761
-0.159703
-0.132683
-0.110356
-0.076334
-0.041559
0.009740
0.046627
0.074690
0.089328
0.084185
0.050670
0.043109
0.015082
-0.011376
-0.061998
-0.126634
-0.108721
-0.146467
-0.188627
-0.223914
-0.200862
-0.172982
-0.091625
-0.047087
-0.027566
0.007521
0.050001
0.078667
0.088703
0.085811
0.089654
0.063703
0.026000
-0.011427
-0.043703
-0.101679
-0.130692
-0.159161
-0.166394
-0.183708
-0.187510
-0.191319
-0.146910
-0.096847
-0.059310
-0.024071
0.026751
0.046264
0.073938
0.092766
0.082038
0.044579
0.005761
-0.034498
-0.090644
-0.168311
-0.177412
-0.198023
-0.212060
-0.230773
-0.257366
-0.226010
-0.168072
-0.120542
-0.051035
0.041811
0.080713
0.095211
0.104469
0.115262
0.121699
0.111729
0.080369
0.024074
-0.027027
-0.086443
-0.147123
-0.176487
-0.192936
-0.182486
-0.176881
-0.132618
-0.100454
-0.084965
-0.065671
-0.019631
0.029538
0.057478
0.070269
0.107723
0.130350
0.100438
0.056283
-0.011799
-0.066429
-0.101635
-0.161591
-0.201501
-0.203666
-0.171357
-0.155266
-0.152024
-0.140919
-0.067200
-0.015093
0.008964
0.049937
0.085192
0.113750
0.108568
0.098841
0.067550
0.009871
-0.020247
-0.043806
-0.096038
-0.146420
-0.191079
-0.207534
-0.208294
-0.207195
-0.192715
-0.140337
-0.090198
-0.055909
-0.012653
0.024476
0.064296
0.082720
0.083235
0.070559
0.044700
-0.004509
-0.043028
-0.089061
-0.129304
-0.167083
-0.193939
-0.211943
-0.210120
-0.183658
-0.181421
-0.141571
-0.088840
-0.044620
-0.000423
0.039936
0.067582
0.094566
0.093181
0.057765
0.034064
0.004445
-0.029111
-0.068566
-0.133762
-0.193440
-0.223609
-0.234113
-0.243676
-0.213862
-0.192660
-0.155716
-0.109417
-0.077599
-0.035832
0.019240
0.053707
0.063545
0.069065
0.064891
0.052905
0.012790
-0.036891
-0.067613
-0.119507
-0.179924
-0.210490
-0.218345
-0.210736
-0.193198
-0.160940
-0.112818
-0.062746
-0.005568
0.021645
0.053839
0.083620
0.107590
0.104810
0.086887
0.082536
0.045669
-0.009609
-0.058094
-0.106843
-0.151700
-0.167284
-0.163075
-0.172477
-0.154450
-0.133217
-0.111772
-0.083992
-0.048230
-0.013394
0.032299
0.068857
0.101546
0.105740
0.090116
0.077184
0.033661
-0.007250
-0.054125
-0.079609
-0.114453
-0.157010
-0.178987
-0.197721
-0.181358
-0.153520
-0.124382
-0.079380
-0.041144
0.011271
0.052685
0.093410
0.113747
0.126988
0.109674
0.098869
0.080070
0.021532
-0.026879
-0.083203
-0.136314
-0.177399
-0.150392
-0.181096
-0.215434
-0.176529
-0.149818
-0.121393
-0.076256
-0.039988
0.002730
0.038541
0.060339
0.060392
0.043902
0.022810
-0.000736
-0.034042
-0.072036
-0.115351
-0.143750
-0.177107
-0.191418
-0.204952
-0.218288
-0.195314
-0.161547
-0.133450
-0.105029
-0.073059
-0.016323
0.013984
0.042452
0.064933
0.050495
0.038145
0.010795
-0.034006
-0.083084
-0.139035
-0.207209
-0.241392
-0.252453
-0.262632
-0.241215
-0.219825
-0.192617
-0.158197
-0.114740
-0.058764
-0.020496
0.006969
0.021624
0.035449
0.026100
0.022509
-0.009189
-0.031104
-0.082116
-0.127200
-0.178867
-0.221816
-0.251475
-0.260495
-0.243255
-0.223064
-0.194548
-0.154041
-0.094875
-0.057840
-0.018063
0.001613
0.021680
0.022240
0.029423
0.025645
-0.009054
-0.058158
-0.099346
-0.146979
-0.196197
-0.233461
-0.257827
-0.267721
-0.243663
-0.230894
-0.198382
-0.149002
-0.086939
-0.039627
0.000675
0.027463
0.071616
0.076150
0.071977
0.046198
-0.002538
-0.081618
-0.160878
-0.181731
-0.215861
-0.269802
-0.283916
-0.286546
-0.256526
-0.229627
-0.195395
-0.146053
-0.072740
0.000508
0.050727
0.104629
0.142944
0.169545
0.153674
0.128220
0.098127
0.080340
0.061929
0.055885
0.014795
0.011496
0.009921
0.034844
0.100558
0.160575
0.228391
0.276261
0.349799
0.459134
0.529791
0.626912
0.696495
0.749158
0.765372
0.793741
0.794760
0.779942
0.737892
0.675649
0.644537
0.593201
0.537322
0.521615
0.504642
0.488155
0.477110
0.444834
0.432319
0.416450
0.394744
0.350427
0.334039
0.294968
0.285870
0.251906
0.245196
0.171633
0.102206
0.046456
-0.004448
-0.048093
-0.072810
-0.095994
-0.100396
-0.094435
-0.067243
-0.038491
0.013124
0.060199
0.090671
0.122588
0.119857
0.122086
0.100876
0.088348
0.049478
-0.003907
-0.052048
-0.116314
-0.169817
-0.200751
-0.224405
-0.217246
-0.226186
-0.198642
-0.154450
-0.111999
-0.067514
-0.024391
0.012753
0.096381
0.070063
0.076909
0.082068
0.050281
0.035915
-0.026356
-0.107841
-0.143713
-0.198978
-0.223826
-0.231395
-0.226642
-0.209982
-0.210459
-0.218866
-0.154384
-0.119639
-0.041101
0.019744
0.053256
0.049420
0.065787
0.059805
0.049034
0.030363
-0.037100
-0.081874
-0.132455
-0.172011
-0.209200
-0.213101
-0.204148
-0.205161
-0.184536
-0.145235
-0.108666
-0.068041
0.002164
0.038504
0.051213
0.070005
0.075456
0.061865
0.034320
-0.002057
0.006696
-0.034362
-0.103592
-0.135340
-0.148349
-0.178028
-0.182732
-0.155801
-0.138842
-0.109329
-0.081784
-0.037775
0.023590
0.076589
0.090976
0.111590
0.110280
0.098533
0.067674
0.031557
-0.011352
-0.049288
-0.082338
-0.108664
-0.151654
-0.178688
-0.203203
-0.190633
-0.168217
-0.122681
-0.078137
-0.009369
0.054459
0.082911
0.083695
0.156570
0.165736
0.148556
0.124104
0.086359
0.042126
-0.027517
-0.075124
-0.118891
-0.134538
-0.159721
-0.161337
-0.138315
-0.100103
-0.072895
-0.030410
0.020779
0.052344
0.090158
0.117934
0.114364
0.122489
0.135894
0.118590
0.082248
0.016534
-0.020760
-0.065561
-0.103180
-0.149580
-0.167219
-0.187654
-0.162885
-0.148478
-0.114762
-0.060428
0.000638
0.061237
0.096996
0.127869
0.140382
0.160350
0.153711
0.133811
0.089864
0.046766
0.012524
-0.048863
-0.098313
-0.122795
-0.139180
-0.156580
-0.154950
-0.134926
-0.071579
-0.025721
0.017679
0.056531
0.109129
0.142541
0.147294
0.160016
0.140891
0.111942
0.072603
0.018530
-0.028362
-0.063296
-0.110641
-0.150889
-0.163497
-0.166526
-0.136070
-0.136678
-0.113442
-0.069382
-0.010980
0.023857
0.060837
0.086849
0.094624
0.107541
0.101032
0.089244
0.065621
0.016722
-0.043464
-0.097980
-0.136678
-0.186177
-0.203030
-0.211478
-0.199683
-0.182233
-0.141268
-0.111968
-0.072938
-0.023658
0.030231
0.062334
0.077711
0.065524
0.068353
0.045279
0.010841
-0.021784
-0.072656
-0.129311
-0.174229
-0.202791
-0.218788
-0.259497
-0.257612
-0.241267
-0.209607
-0.128693
-0.044056
0.029073
0.040716
0.041466
0.050440
0.033555
0.035432
0.032437
-0.002535
-0.036402
-0.059391
-0.092693
-0.151220
-0.199606
-0.209131
-0.185572
-0.166522
-0.142263
-0.114234
-0.056455
-0.043955
-0.034642
0.013637
0.061721
0.081343
0.078060
0.073829
0.048030
0.006726
-0.045951
-0.092550
-0.137606
-0.167893
-0.207238
-0.239421
-0.244382
-0.228425
-0.198746
-0.164158
-0.108305
-0.065965
-0.021932
0.020349
0.064226
0.095624
0.080453
0.043621
0.018561
-0.013076
-0.057272
-0.094237
-0.132302
-0.187499
-0.214423
-0.242896
-0.237233
-0.222264
-0.199252
-0.183393
-0.135236
-0.092538
-0.040801
0.008813
0.065120
0.102083
0.121097
0.104060
0.070162
0.026887
-0.019456
-0.068953
-0.115725
-0.147955
-0.191307
-0.216661
-0.222529
-0.203621
-0.178816
-0.157182
-0.124219
-0.080530
-0.035128
0.003023
0.028175
0.053689
0.059535
0.057671
0.032724
0.010700
-0.030387
-0.070123
-0.104411
-0.148260
-0.173581
-0.204256
-0.207999
-0.199285
-0.179584
-0.133672
-0.089867
-0.045697
-0.000078
0.037830
0.081331
0.083383
0.078428
0.071241
0.057728
0.020281
-0.020001
-0.083258
-0.127740
-0.163174
-0.178532
-0.196927
-0.199446
-0.180004
-0.177929
-0.170717
-0.119930
-0.086911
-0.033342
0.022493
0.030974
0.034441
0.049398
0.046240
0.030911
-0.003566
-0.029411
-0.079479
-0.128745
-0.151975
-0.180683
-0.209676
-0.220226
-0.210698
-0.199881
-0.163163
-0.113729
-0.091543
-0.051211
-0.015288
0.018117
0.064719
0.086639
0.074384
0.050623
0.010354
-0.060931
-0.111696
-0.171979
-0.192895
-0.178264
-0.163972
-0.170598
-0.187050
-0.191794
-0.172563
-0.147729
-0.112584
-0.069774
-0.023161
0.040556
0.073001
0.072058
0.055066
0.028189
-0.006231
-0.041844
-0.077070
-0.110358
-0.158641
-0.213956
-0.241159
-0.226264
-0.202368
-0.209864
-0.167075
-0.130084
-0.077478
-0.046018
-0.007945
0.031087
0.035608
0.054547
0.035114
-0.014754
0.006400
-0.009238
-0.067234
-0.108236
-0.134892
-0.168643
-0.175072
-0.195664
-0.204947
-0.193923
-0.148872
-0.096294
-0.037719
-0.004269
0.028218
0.072520
0.093996
0.092143
0.083409
0.069906
0.044430
-0.000240
-0.074924
-0.095438
-0.140122
-0.180482
-0.188586
-0.174563
-0.173545
-0.177565
-0.125751
-0.084194
-0.026590
0.010611
0.069427
0.065571
0.090271
0.101694
0.082620
0.074078
0.081388
0.041404
-0.035061
-0.088406
-0.101477
-0.107227
-0.124501
-0.154053
-0.173073
-0.163532
-0.132699
-0.097090
-0.077864
-0.027548
0.032606
0.086727
0.106609
0.118396
0.082344
0.088000
0.058844
0.024758
-0.058676
-0.102626
-0.135774
-0.165238
-0.190540
-0.209665
-0.216297
-0.222457
-0.187468
-0.135301
-0.074265
0.003941
0.067986
0.086212
0.073313
0.067734
0.063570
0.032814
0.011880
-0.052072
-0.092260
-0.143868
-0.180216
-0.192879
-0.213873
-0.248406
-0.240647
-0.226193
-0.179668
-0.144380
-0.096877
-0.057121
-0.034871
0.004452
0.017056
0.026335
0.027871
0.002430
-0.024999
-0.071549
-0.121906
-0.168827
-0.216934
-0.245593
-0.255490
-0.266632
-0.260403
-0.241223
-0.197979
-0.179897
-0.127472
-0.059859
-0.014669
0.016630
0.063271
0.088651
0.049200
0.005767
-0.049628
-0.082104
-0.119050
-0.170680
-0.212241
-0.244183
-0.263372
-0.269563
-0.256395
-0.228367
-0.187231
-0.148656
-0.118570
-0.083036
-0.034342
-0.021522
-0.003108
0.051082
0.015947
-0.016453
-0.047675
-0.072462
-0.093289
-0.157524
-0.193146
-0.242083
-0.274763
-0.279121
-0.258477
-0.239553
-0.220775
-0.174344
-0.122144
-0.086913
-0.031746
0.021997
0.038107
0.025706
0.027102
0.020670
-0.000478
-0.045478
-0.090582
-0.121529
-0.146519
-0.170989
-0.180770
-0.176484
-0.153609
-0.120261
-0.086712
-0.037021
0.053565
0.124249
0.182303
0.232622
0.286253
0.326247
0.369057
0.400440
0.396366
0.383130
0.353032
0.326208
0.333698
0.362294
0.402723
0.432257
0.471299
0.520878
0.583440
0.660616
0.705420
0.732956
0.760921
0.777817
0.799222
0.796577
0.779341
0.702617
0.632600
0.554552
0.446148
0.336943
0.217473
0.136973
0.092409
0.053018
0.042214
0.053992
0.089999
0.117301
0.112948
0.141954
0.178700
0.185958
0.162079
0.178363
0.152247
0.131169
0.092169
0.094032
0.039280
-0.037025
-0.117544
-0.167043
-0.189864
-0.183228
-0.183026
-0.149558
-0.109426
-0.085578
-0.046727
-0.024059
0.015409
0.073137
0.101244
0.115369
0.087980
0.079570
0.049090
-0.008995
-0.046180
-0.121256
-0.182432
-0.210217
-0.210532
-0.198094
-0.199283
-0.187371
-0.165757
-0.136879
-0.088670
-0.037295
0.004735
0.045883
0.084866
0.091012
0.060620
0.027311
-0.014528
-0.035211
-0.055300
-0.113394
-0.167850
-0.198760
-0.229628
-0.206851
-0.181405
-0.200552
-0.179501
-0.136115
-0.087321
-0.031642
0.016888
0.068652
0.094011
0.077282
0.049103
0.022581
-0.000706
-0.015772
-0.071975
-0.119254
-0.146456
-0.185001
-0.204614
-0.221650
-0.220271
-0.199239
-0.169172
-0.134273
-0.083712
-0.033800
0.011039
0.027769
0.058577
0.067660
0.054966
0.022848
0.010131
0.005194
-0.001892
-0.092563
-0.199632
-0.214312
-0.221535
-0.209489
-0.173401
-0.140966
-0.119553
-0.100717
-0.042147
-0.002304
0.055282
0.107275
0.148009
0.189964
0.177364
0.151351
0.120760
0.056346
0.004797
-0.045573
-0.086343
-0.117915
-0.136705
-0.134217
-0.146297
-0.136860
-0.109317
-0.050203
0.001819
0.058824
0.096649
0.130111
0.143933
0.151670
0.150227
0.123310
0.087365
0.055902
0.014409
-0.017268
-0.068334
-0.096469
-0.136784
-0.140222
-0.136940
-0.134496
-0.101572
-0.050630
-0.019797
0.021497
0.066104
0.083929
0.096718
0.110257
0.112682
0.102443
0.066712
0.035401
0.000454
-0.038190
-0.092695
-0.120484
-0.131012
-0.099009
-0.096346
-0.069593
-0.036952
0.003127
0.036652
0.067670
0.120716
0.135865
0.155728
0.143455
0.136763
0.130140
0.112637
0.066367
0.022237
-0.031931
-0.065554
-0.112259
-0.144749
-0.149639
-0.164315
-0.134355
-0.102993
-0.065166
-0.025946
0.021496
0.072678
0.104155
0.127588
0.130874
0.113508
0.102267
0.072409
0.022990
-0.027134
-0.075081
-0.119673
-0.155813
-0.167880
-0.150045
-0.140119
-0.116834
-0.074970
-0.055359
-0.019363
0.006170
0.052449
0.076365
0.088386
0.091650
0.075805
0.061300
0.029890
-0.022853
-0.079933
-0.111806
-0.133674
-0.174551
-0.201037
-0.212222
-0.200836
-0.180491
-0.163335
-0.149177
-0.107376
-0.066452
-0.015793
0.025112
0.058058
0.078548
0.069677
0.050623
0.009256
-0.007199
-0.047362
-0.094063
-0.140535
-0.182193
-0.218371
-0.231230
-0.238241
-0.214820
-0.159652
-0.112866
-0.066507
-0.008294
0.033383
0.054321
0.078474
0.078937
0.057366
0.038257
-0.005702
-0.039800
-0.074584
-0.113996
-0.136621
-0.160519
-0.181274
-0.196142
-0.190816
-0.173215
-0.150807
-0.101313
-0.069499
-0.019421
0.032624
0.071521
0.101133
0.099051
0.074574
0.058875
0.026294
-0.010258
-0.059746
-0.094976
-0.145748
-0.187069
-0.213651
-0.205931
-0.213529
-0.213891
-0.198629
-0.171583
-0.106180
-0.032762
0.027923
0.056209
0.058106
0.080990
0.078736
0.054360
0.008105
-0.019826
-0.056409
-0.105463
-0.157535
-0.210518
-0.240548
-0.234632
-0.218776
-0.181638
-0.127600
-0.095190
-0.048791
-0.032003
-0.011154
0.037443
0.098330
0.129035
0.143072
0.096207
0.045940
-0.018254
-0.074453
-0.104951
-0.146684
-0.190046
-0.229733
-0.216626
-0.194996
-0.172273
-0.142092
-0.074935
-0.008284
0.041448
0.083781
0.108911
0.106777
0.084959
0.077806
0.084868
0.066494
-0.002757
-0.053234
-0.107479
-0.156551
-0.192159
-0.207825
-0.198002
-0.178599
-0.169803
-0.137817
-0.106573
-0.077196
-0.047092
0.005191
0.057625
0.086688
0.098026
0.102510
0.074360
0.020746
-0.020791
-0.038130
-0.064283
-0.085456
-0.117868
-0.148728
-0.144193
-0.164744
-0.150919
-0.134916
-0.118229
-0.076174
-0.035438
0.007451
0.017414
0.006362
0.025708
0.047239
0.013987
-0.029888
-0.039475
-0.067511
-0.108853
-0.171255
-0.206881
-0.223045
-0.216097
-0.217144
-0.196872
-0.145432
-0.096391
-0.063940
-0.025412
0.002697
0.017687
0.049108
0.071909
0.093887
0.066789
0.042028
0.024847
-0.010127
-0.070918
-0.119691
-0.170765
-0.193320
-0.207392
-0.214110
-0.186505
-0.161738
-0.104806
-0.063217
-0.015723
0.023087
0.056454
0.066652
0.066337
0.068374
0.054112
0.035143
0.000029
-0.049223
-0.083767
-0.129796
-0.156100
-0.183507
-0.190195
-0.161161
-0.137476
-0.119046
-0.088485
-0.042658
0.007979
0.044379
0.068328
0.092086
0.086123
0.083556
0.074883
0.058600
0.044559
0.009882
-0.049442
-0.113375
-0.142429
-0.155620
-0.169724
-0.181147
-0.170529
-0.126409
-0.082745
-0.034916
-0.004650
0.041282
0.072531
0.079269
0.084702
0.092342
0.088723
0.072878
0.027717
-0.003734
-0.048049
-0.080973
-0.109137
-0.140182
-0.170357
-0.191907
-0.178223
-0.105253
-0.073526
-0.033325
0.014557
0.066919
0.122249
0.167607
0.163487
0.154425
0.129687
0.083622
0.077043
0.031027
-0.032032
-0.096879
-0.153205
-0.181790
-0.180251
-0.170422
-0.160405
-0.121012
-0.088774
-0.045311
-0.000815
0.035873
0.073248
0.106909
0.111474
0.094865
0.094339
0.053263
0.004639
-0.058087
-0.113498
-0.162418
-0.183584
-0.213522
-0.223075
-0.201899
-0.166579
-0.133899
-0.117948
-0.080449
-0.043754
0.009969
0.044726
0.056811
0.056421
0.044041
0.049673
-0.007897
-0.051940
-0.082500
-0.115430
-0.145064
-0.168458
-0.169359
-0.180785
-0.189519
-0.190790
-0.176387
-0.160648
-0.123461
-0.061663
-0.016928
-0.021032
0.035306
0.047210
0.032199
-0.008506
-0.041823
-0.082789
-0.155427
-0.207221
-0.226664
-0.247356
-0.264740
-0.239845
-0.211953
-0.178340
-0.147879
-0.109418
-0.070145
-0.039997
-0.010108
0.033953
0.054439
0.027338
-0.004290
-0.020425
-0.039305
-0.049696
-0.084892
-0.118088
-0.146288
-0.168463
-0.208307
-0.215824
-0.235147
-0.218518
-0.182870
-0.135344
-0.068256
-0.018656
0.025472
0.071012
0.051211
0.056881
0.033771
0.011536
-0.031627
-0.068812
-0.125573
-0.151721
-0.178110
-0.214851
-0.239042
-0.234370
-0.215988
-0.170903
-0.129613
-0.078192
-0.026197
0.035042
0.079679
0.129584
0.164936
0.166884
0.178240
0.179124
0.163636
0.104714
0.090949
0.074428
0.069347
0.073654
0.097936
0.111764
0.151043
0.213123
0.276613
0.315526
0.434175
0.523464
0.589295
0.660204
0.746790
0.780224
0.819975
0.831889
0.807952
0.753643
0.691339
0.659070
0.586296
0.535807
0.464077
0.406206
0.396301
0.384205
0.351429
0.325787
0.324726
0.319480
0.278015
0.291410
0.287810
0.290924
0.280208
0.237581
0.193619
0.170794
0.120909
0.059668
0.014482
-0.038234
-0.073893
-0.096748
-0.098313
-0.086420
-0.057380
-0.025928
0.016073
0.031564
0.045163
0.090179
0.109130
0.121274
0.130661
0.134222
0.118821
0.059390
-0.005925
-0.066411
-0.105074
-0.129086
-0.170978
-0.191356
-0.229132
-0.204465
-0.149575
-0.062904
-0.019473
-0.012138
0.016614
0.076743
0.108888
0.098381
0.089877
0.076421
0.077172
0.074004
0.025519
-0.034501
-0.090427
-0.101349
-0.189434
-0.254916
-0.232964
-0.157882
-0.110913
-0.066877
-0.015945
0.013324
0.048304
0.077518
0.097852
0.097258
0.093413
0.064450
0.020235
-0.020629
-0.048453
-0.073843
-0.126018
-0.167638
-0.184677
-0.185433
-0.157492
-0.139580
-0.115415
-0.090892
-0.044065
0.011567
0.054700
0.094369
0.121303
0.119706
0.108723
0.083638
0.047970
0.017875
-0.018483
-0.052059
-0.087115
-0.135162
-0.184681
-0.212541
-0.194103
-0.157017
-0.122750
-0.065444
-0.013024
0.014761
0.036886
0.140330
0.142542
0.124435
0.128256
0.111975
0.104697
0.069122
-0.007349
-0.061649
-0.103559
-0.142493
-0.157447
-0.145835
-0.122314
-0.078607
-0.044933
-0.014185
0.050298
0.078881
0.103161
0.136133
0.164841
0.131276
0.116047
0.107355
0.081345
0.083477
0.047227
0.008907
-0.036740
-0.085998
-0.100865
-0.067744
-0.067189
-0.069553
-0.037743
0.016896
0.078719
0.123204
0.186657
0.214713
0.193665
0.173050
0.179735
0.163054
0.128747
0.105081
0.063539
0.013958
-0.046200
-0.089051
-0.127073
-0.134447
-0.116541
-0.090920
-0.061313
-0.014766
0.035468
0.097061
0.141276
0.162093
0.180709
0.170359
0.166673
0.166055
0.124342
0.130325
0.105900
0.016030
-0.097137
-0.165956
-0.132308
-0.151574
-0.152205
-0.133462
-0.077729
-0.028200
0.017502
0.075520
0.128768
0.159325
0.182527
0.185666
0.213415
0.164890
0.092367
0.053122
0.005342
-0.021756
-0.084988
-0.121179
-0.109549
-0.095551
-0.094814
-0.107378
-0.072136
-0.041504
0.012811
0.048170
0.075021
0.112405
0.141945
0.145222
0.119089
0.092207
0.064184
0.042917
0.003853
-0.014295
-0.039177
-0.085628
-0.150253
-0.201969
-0.191803
-0.151107
-0.129550
-0.117052
-0.024474
0.046732
0.092083
0.117447
0.111436
0.110228
0.045342
0.056644
0.033282
0.005389
-0.070625
-0.089709
-0.113038
-0.155646
-0.192400
-0.189786
-0.210815
-0.183288
-0.147961
-0.113714
-0.069390
-0.033264
0.016775
0.039122
0.074856
0.111156
0.152869
0.138858
0.108553
0.055106
-0.053940
-0.134565
-0.161006
-0.208292
-0.208835
-0.194014
-0.190465
-0.186688
-0.152174
-0.115816
-0.064324
0.000348
0.045366
0.057704
0.060412
0.077993
0.072152
0.029979
0.043450
0.048644
0.013528
-0.058328
-0.159365
-0.179763
-0.179391
-0.152843
-0.127356
-0.106318
-0.093215
-0.090984
-0.021784
0.008455
0.060446
0.102367
0.115132
0.093554
0.091544
0.077069
0.060069
0.028729
-0.001911
-0.043703
-0.097643
-0.146895
-0.171815
-0.155638
-0.158370
-0.133766
-0.090132
-0.064414
-0.027715
0.018404
0.065072
0.102701
0.130863
0.142214
0.122026
0.085348
0.031972
0.003091
-0.060994
-0.119489
-0.137781
-0.161789
-0.189909
-0.222398
-0.223148
-0.210228
-0.144481
-0.085998
-0.006645
0.051440
0.070351
0.069631
0.089733
0.054223
0.060745
0.072460
0.033583
0.020421
-0.047819
-0.109735
-0.147799
-0.190177
-0.250855
-0.255299
-0.254272
-0.284512
-0.274151
-0.135791
-0.037350
0.013590
0.051970
0.077077
0.118333
0.159880
0.119485
0.100081
0.058081
0.015203
-0.055558
-0.088502
-0.169593
-0.239492
-0.235012
-0.224046
-0.219712
-0.199451
-0.192336
-0.084877
0.049807
0.120223
0.111601
0.124764
0.112909
0.107343
0.099112
0.068337
0.047325
0.028293
-0.003120
-0.078232
-0.122559
-0.145129
-0.160084
-0.165725
-0.172910
-0.144571
-0.108997
-0.070552
-0.018886
0.014628
0.037445
0.090149
0.122828
0.120250
0.110766
0.087703
0.064372
0.026499
-0.018273
-0.068748
-0.115203
-0.191516
-0.223731
-0.232014
-0.217442
-0.196074
-0.145582
-0.112859
-0.075056
-0.027075
0.055934
0.082184
0.077439
0.073396
0.081020
0.069607
0.030173
-0.025783
-0.058573
-0.092430
-0.137204
-0.165462
-0.214401
-0.200238
-0.158735
-0.132184
-0.113674
-0.090384
-0.036635
0.013681
0.061667
0.103712
0.127834
0.135124
0.088937
0.061914
0.022291
0.011213
-0.013679
-0.066435
-0.116950
-0.157042
-0.174767
-0.163277
-0.147531
-0.114888
-0.085055
-0.074758
-0.025725
0.039973
0.114087
0.141454
0.129067
0.119911
0.129810
0.114629
0.060513
0.015328
-0.012390
-0.051822
-0.063085
-0.098069
-0.076920
-0.089285
-0.148927
-0.086768
-0.063340
-0.009239
0.017753
0.065968
0.119181
0.153607
0.126861
0.099458
0.097837
0.109526
0.102633
0.052739
0.012192
-0.049380
-0.111738
-0.186266
-0.220036
-0.229024
-0.192304
-0.142360
-0.124966
-0.046585
-0.010833
0.037227
0.062386
0.085953
0.095287
0.099198
0.084869
0.049231
-0.005981
-0.034141
-0.051741
-0.095784
-0.149539
-0.188047
-0.202592
-0.199209
-0.185115
-0.178176
-0.154524
-0.120444
-0.080530
-0.028977
0.034905
0.058896
0.068157
0.082389
0.095174
0.050270
0.014660
-0.031164
-0.087244
-0.155635
-0.190450
-0.207275
-0.210427
-0.222404
-0.225251
-0.194076
-0.148982
-0.112949
-0.072735
-0.029693
0.006354
0.041892
0.091372
0.089492
0.094766
0.067803
0.012416
-0.023400
-0.069231
-0.107572
-0.139726
-0.183749
-0.199290
-0.214327
-0.237001
-0.219282
-0.173919
-0.138105
-0.093101
-0.060981
-0.020318
0.035875
0.072216
0.067031
0.048753
0.003980
-0.072567
-0.127087
-0.100384
-0.130765
-0.198627
-0.195626
-0.196178
-0.196959
-0.188581
-0.169027
-0.147618
-0.116281
-0.070330
-0.028268
-0.004127
0.050218
0.072372
0.073695
0.065931
0.028214
-0.003683
-0.047933
-0.092511
-0.134080
-0.180420
-0.222685
-0.255235
-0.255678
-0.231162
-0.190416
-0.140836
-0.074527
-0.024927
0.036627
0.095680
0.150257
0.189162
0.194592
0.214645
0.210629
0.177020
0.142052
0.111934
0.086944
0.086382
0.067910
0.056403
0.094157
0.157399
0.222553
0.291627
0.353876
0.428321
0.518402
0.608019
0.679278
0.744801
0.784526
0.796559
0.781930
0.759541
0.708005
0.665377
0.602507
0.544287
0.491260
0.448626
0.410203
0.366550
0.315402
0.301173
0.288257
0.287615
0.297972
0.295390
0.251691
0.257715
0.294566
0.250954
0.218584
0.176133
0.147483
0.111162
0.021947
-0.045023
-0.087115
-0.118560
-0.127392
-0.132981
-0.107254
-0.069051
-0.019356
0.043836
0.095429
0.136961
0.135467
0.107703
0.093521
0.078630
0.073445
0.069670
0.057721
0.016264
-0.043118
-0.097367
-0.152909
-0.171075
-0.165656
-0.157155
-0.131495
-0.116869
-0.112058
-0.055850
-0.013548
0.024598
0.046551
0.075111
0.089235
0.101739
0.095168
0.075712
0.021093
-0.013994
-0.072678
-0.118700
-0.156255
-0.163944
-0.155116
-0.151153
-0.155025
-0.124228
-0.112523
-0.057546
-0.006023
0.031682
0.066040
0.088925
0.084162
0.080253
0.060537
0.042114
0.022359
-0.044725
-0.084861
-0.124027
-0.154422
-0.181495
-0.180473
-0.163605
-0.135549
-0.127139
-0.098171
-0.040709
0.008272
0.060042
0.093201
0.112901
0.107927
0.079610
0.072215
0.089933
0.039097
-0.031943
-0.078844
-0.092965
-0.102071
-0.110353
-0.084964
-0.086330
-0.098994
-0.085377
-0.029492
0.018858
0.053118
0.083511
0.107257
0.130882
0.142707
0.139266
0.126885
0.076184
0.052781
0.036151
0.002773
-0.053489
-0.079397
-0.111758
-0.128282
-0.139292
-0.108142
-0.060435
-0.012732
0.043887
0.076570
0.128513
0.162632
0.187379
0.153098
0.137352
0.133289
0.114450
0.074496
-0.001079
-0.031160
-0.059818
-0.085820
-0.083757
-0.082415
-0.078911
-0.055385
-0.033438
-0.003885
0.045191
0.078225
0.113016
0.146391
0.171619
0.168669
0.165853
0.143901
0.101358
0.081862
0.023714
0.009695
-0.021470
-0.058869
-0.042840
-0.065291
-0.118311
-0.118737
-0.076994
-0.015446
0.040629
0.103559
0.138337
0.164513
0.180774
0.198369
0.194255
0.174674
0.120451
0.083345
0.056454
0.016901
-0.016735
-0.072656
-0.075698
-0.072746
-0.078407
-0.026853
-0.035553
-0.045894
0.030149
0.085997
0.137774
0.146136
0.178104
0.151804
0.154215
0.139459
0.106387
0.080688
0.040689
-0.018090
-0.053289
-0.096158
-0.135554
-0.140005
-0.126715
-0.105643
-0.071304
-0.052943
-0.010831
0.040730
0.091862
0.118855
0.136267
0.140971
0.141088
0.118291
0.079915
0.042185
0.005570
-0.050668
-0.102768
-0.142572
-0.145442
-0.160452
-0.176870
-0.156812
-0.113854
-0.085196
-0.041481
-0.006442
0.034824
0.048126
0.063929
0.051170
0.034861
0.024823
0.011552
0.015058
-0.013456
-0.090903
-0.135195
-0.143309
-0.145289
-0.139372
-0.125640
-0.099658
-0.082756
-0.055359
-0.023687
0.050391
0.090895
0.118326
0.129290
0.110858
0.098318
0.070517
0.030633
-0.001516
-0.049061
-0.086223
-0.121824
-0.163637
-0.198668
-0.188766
-0.161775
-0.151783
-0.112264
-0.067776
-0.033173
0.019336
0.059959
0.089934
0.107745
0.106757
0.098966
0.071990
0.008868
-0.022902
-0.051884
-0.085019
-0.135619
-0.183456
-0.194406
-0.203975
-0.201902
-0.186966
-0.163924
-0.131469
-0.069963
-0.026795
0.024129
0.041009
0.068047
0.087750
0.078655
0.031865
0.012465
0.007840
-0.025497
-0.079547
-0.144076
-0.159028
-0.164889
-0.183938
-0.163158
-0.121196
-0.083857
-0.052691
-0.031731
0.015216
0.076499
0.112695
0.144963
0.151247
0.124023
0.090140
0.050020
0.024203
-0.020807
-0.066775
-0.107101
-0.135895
-0.166742
-0.165214
-0.155410
-0.144474
-0.129157
-0.085084
-0.034370
0.000998
0.044854
0.084587
0.108264
0.108229
0.112953
0.088261
0.057621
0.010168
-0.026208
-0.070017
-0.123858
-0.160737
-0.171398
-0.164505
-0.158674
-0.138343
-0.117330
-0.084817
-0.038198
0.012269
0.041688
0.061543
0.078575
0.079541
0.078512
0.053338
0.032226
-0.006992
-0.069214
-0.127438
-0.159605
-0.194524
-0.237321
-0.230448
-0.202194
-0.161319
-0.129918
-0.065234
-0.015531
0.022124
0.068761
0.094954
0.105203
0.099902
0.089477
0.049236
0.002064
-0.053595
-0.099710
-0.129239
-0.136237
-0.166465
-0.224804
-0.240123
-0.227054
-0.186338
-0.119131
-0.086768
-0.055054
-0.005828
0.049582
0.086156
0.076870
0.078464
0.097834
0.085524
0.049990
0.012106
-0.041318
-0.091646
-0.122164
-0.144410
-0.172697
-0.171791
-0.171786
-0.155491
-0.131176
-0.088821
-0.054886
-0.013335
0.031355
0.056952
0.078806
0.079255
0.076190
0.049677
0.018394
-0.004743
-0.036461
-0.089055
-0.130607
-0.154584
-0.178629
-0.194209
-0.199600
-0.200995
-0.177358
-0.149994
-0.097838
-0.012281
0.041578
0.075840
0.099733
0.091575
0.091805
0.076931
0.047053
0.010911
-0.041149
-0.091464
-0.130638
-0.145267
-0.167679
-0.154731
-0.149068
-0.132045
-0.098157
-0.054700
0.001594
0.040753
0.080530
0.097377
0.114855
0.130534
0.107322
0.071918
0.036430
-0.012410
-0.066353
-0.104513
-0.150178
-0.178166
-0.210842
-0.201243
-0.175992
-0.111930
-0.064950
-0.031275
-0.008507
0.049826
0.103532
0.143495
0.170306
0.179971
0.170842
0.131597
0.089373
0.026282
-0.048105
-0.102069
-0.151470
-0.195810
-0.210059
-0.217607
-0.217845
-0.170638
-0.150204
-0.096661
-0.072652
-0.029664
0.044829
0.078116
0.089696
0.085997
0.093874
0.080554
0.077407
0.033039
-0.015080
-0.073265
-0.106770
-0.144241
-0.180689
-0.171550
-0.164279
-0.146466
-0.157273
-0.155261
-0.067969
-0.042636
-0.005812
0.036272
0.078263
0.086934
0.073978
0.035249
-0.006294
-0.056569
-0.092832
-0.121297
-0.160040
-0.211019
-0.239716
-0.229928
-0.209557
-0.190415
-0.171478
-0.129804
-0.103759
-0.022872
0.044064
0.063519
0.099402
0.075764
0.058677
0.002084
-0.035343
-0.074793
-0.112916
-0.148595
-0.180986
-0.215537
-0.249902
-0.273715
-0.251695
-0.248338
-0.213022
-0.163409
-0.092068
-0.051424
-0.011373
0.010154
0.031030
0.049880
0.044091
-0.022515
-0.025388
-0.062809
-0.101700
-0.139571
-0.170616
-0.195849
-0.215549
-0.215948
-0.209340
-0.197109
-0.178010
-0.129375
-0.082785
-0.066203
-0.030193
0.027630
0.046469
0.039886
0.047210
0.016244
-0.010631
-0.061333
-0.098582
-0.158207
-0.208607
-0.236632
-0.250310
-0.279150
-0.267518
-0.250474
-0.201384
-0.172478
-0.133038
-0.102594
-0.062317
-0.025706
0.025046
0.051440
0.067504
0.087995
0.093467
0.052423
0.050902
0.049485
0.014909
-0.030576
-0.026534
-0.008833
0.033770
0.082319
0.154760
0.242365
0.318227
0.391503
0.474969
0.536033
0.596109
0.643766
0.662167
0.666123
0.669867
0.680053
0.668916
0.640638
0.594443
0.544716
0.520806
0.524863
0.521504
0.518250
0.512422
0.526737
0.511587
0.510092
0.493896
0.455301
0.423088
0.375502
0.350371
0.294539
0.230899
0.152923
0.093895
0.044971
0.004150
-0.048395
-0.084477
-0.085566
-0.072298
-0.064399
-0.041319
-0.018252
0.009576
0.051126
0.098716
0.136044
0.148121
0.140191
0.128230
0.090800
0.048940
0.021501
-0.018442
-0.068698
-0.120916
-0.164622
-0.180912
-0.177851
-0.185864
-0.155524
-0.105351
-0.071322
-0.053098
-0.001163
0.054718
0.093790
0.098617
0.053090
0.037117
0.027518
-0.012788
-0.029601
-0.059000
-0.102638
-0.133893
-0.178948
-0.201712
-0.199698
-0.209462
-0.179275
-0.159910
-0.132228
-0.056985
0.006502
0.043242
0.078505
0.103536
0.100865
0.101818
0.081052
0.037971
0.008421
-0.012186
-0.055882
-0.097555
-0.142203
-0.173276
-0.179305
-0.199488
-0.173842
-0.118826
-0.063716
-0.013619
0.008229
0.034549
0.062826
0.080980
0.085646
0.084058
0.078613
0.039451
0.014791
-0.042827
-0.091125
-0.115246
-0.132731
-0.154385
-0.169165
-0.163397
-0.133117
-0.082335
-0.045047
-0.005241
0.038994
0.070567
0.095853
0.125209
0.144781
0.133349
0.112157
0.076863
0.035030
-0.008763
-0.073009
-0.119982
-0.150090
-0.178404
-0.165102
-0.150386
-0.147587
-0.131999
-0.072277
-0.009810
0.048436
0.111632
0.147107
0.167733
0.171598
0.170849
0.138812
0.115488
0.085781
0.037015
-0.008987
-0.078076
-0.122813
-0.131655
-0.126246
-0.121927
-0.122387
-0.082686
-0.030506
0.001255
0.046816
0.096292
0.137821
0.158097
0.169964
0.161732
0.130927
0.109496
0.070653
0.047032
-0.016687
-0.065969
-0.090584
-0.106414
-0.086898
-0.087511
-0.077343
-0.040443
-0.015302
0.018937
0.064423
0.104843
0.124477
0.153820
0.151202
0.148567
0.131515
0.103309
0.054329
0.015959
-0.027723
-0.084606
-0.106746
-0.113739
-0.134061
-0.122752
-0.111462
-0.077468
-0.044496
0.012664
0.067867
0.115783
0.142097
0.160591
0.164495
0.167003
0.137529
0.091741
0.037982
-0.016283
-0.055523
-0.067211
-0.078137
-0.119324
-0.157439
-0.163216
-0.137538
-0.084577
-0.053259
-0.012582
0.019968
0.062597
0.101877
0.134754
0.131623
0.138517
0.119572
0.081363
0.045083
-0.009732
-0.055652
-0.098823
-0.139498
-0.167953
-0.174790
-0.188388
-0.178981
-0.135229
-0.083445
-0.021394
0.012116
0.068071
0.092250
0.098535
0.085546
0.081863
0.071422
0.054889
0.006631
-0.043371
-0.092437
-0.146022
-0.163077
-0.198122
-0.191721
-0.189360
-0.164375
-0.137426
-0.111309
-0.074492
-0.015797
0.015036
0.034498
0.045419
0.033050
0.038843
0.037575
0.003076
-0.052461
-0.110801
-0.138606
-0.170870
-0.192675
-0.195562
-0.193672
-0.199949
-0.162745
-0.139138
-0.081268
-0.036160
-0.002278
0.024853
0.042115
0.065497
0.067902
0.056025
0.029287
0.015066
-0.020793
-0.061930
-0.101146
-0.137563
-0.176025
-0.203109
-0.195455
-0.196445
-0.180038
-0.141717
-0.100339
-0.059029
-0.011236
0.024331
0.064563
0.076547
0.068051
0.070483
0.042001
0.011207
-0.020294
-0.066123
-0.124012
-0.148421
-0.193643
-0.208707
-0.208679
-0.202224
-0.177297
-0.138095
-0.067410
-0.032237
0.006280
0.044951
0.062275
0.072643
0.080942
0.074994
0.052283
0.006413
-0.033316
-0.075191
-0.125990
-0.170557
-0.202153
-0.210047
-0.206997
-0.194388
-0.160286
-0.125501
-0.089845
-0.053450
0.001081
0.049520
0.094684
0.098121
0.084901
0.067733
0.053946
0.028972
-0.024573
-0.082088
-0.110377
-0.157468
-0.189119
-0.218467
-0.206529
-0.206347
-0.176577
-0.143378
-0.102070
-0.064444
-0.031457
0.026563
0.056639
0.063020
0.078817
0.074680
0.055094
0.026408
-0.017604
-0.067496
-0.140149
-0.177432
-0.198728
-0.216004
-0.223226
-0.221167
-0.209895
-0.194317
-0.153485
-0.086350
-0.017706
0.040803
0.093706
0.109053
0.129430
0.103842
0.067221
0.030384
-0.026376
-0.059477
-0.103886
-0.142520
-0.174181
-0.192954
-0.202014
-0.203405
-0.186456
-0.149179
-0.105476
-0.073040
-0.016451
0.019877
0.045870
0.067705
0.070367
0.062703
0.041333
0.019673
-0.015819
-0.055087
-0.107897
-0.145906
-0.202316
-0.215983
-0.212960
-0.211272
-0.203513
-0.162288
-0.128149
-0.077916
-0.026832
0.005538
0.039694
0.052876
0.049517
0.047015
0.029963
0.000790
-0.043890
-0.068312
-0.119983
-0.160257
-0.201451
-0.230508
-0.223813
-0.216023
-0.200403
-0.158927
-0.122507
-0.087381
-0.040653
0.001086
0.021878
0.045646
0.069952
0.093968
0.074808
0.035385
-0.009044
-0.048088
-0.098585
-0.146940
-0.180459
-0.179608
-0.179129
-0.169101
-0.145818
-0.112245
-0.086317
-0.039561
0.001429
0.034732
0.046237
0.064730
0.059532
0.067108
0.050440
0.026445
-0.013714
-0.041875
-0.085263
-0.122515
-0.152277
-0.172792
-0.167771
-0.142432
-0.117880
-0.082721
-0.054685
-0.043709
0.012882
0.068770
0.121268
0.141235
0.166296
0.154018
0.130909
0.076875
0.014981
-0.034839
-0.078988
-0.114488
-0.150657
-0.175927
-0.186003
-0.193880
-0.180945
-0.151966
-0.121280
-0.056755
0.007033
0.053268
0.082280
0.084742
0.082075
0.066307
0.051773
0.023457
-0.022139
-0.067297
-0.122319
-0.161451
-0.186024
-0.221643
-0.232367
-0.221875
-0.195354
-0.167384
-0.122945
-0.087435
-0.057066
-0.013612
0.004944
0.028210
0.033283
0.006436
-0.004911
-0.027923
-0.071289
-0.114192
-0.146518
-0.178903
-0.209759
-0.227800
-0.243331
-0.245315
-0.219991
-0.189625
-0.136092
-0.096274
-0.064330
-0.033180
0.005843
0.014821
0.011378
0.005569
-0.017927
-0.046621
-0.079593
-0.123592
-0.168208
-0.213804
-0.248838
-0.262161
-0.279100
-0.263172
-0.230962
-0.189193
-0.142391
-0.092306
-0.031634
0.019868
0.046246
0.069354
0.073126
0.059399
0.035907
-0.012653
-0.039894
-0.089449
-0.139145
-0.191962
-0.222691
-0.246977
-0.254567
-0.229901
-0.207281
-0.184200
-0.166976
-0.133936
-0.082316
-0.048158
-0.001261
0.030494
0.018109
0.004462
-0.004455
-0.034026
-0.081206
-0.116820
-0.153822
-0.188228
-0.227271
-0.232592
-0.239677
-0.238156
-0.197862
-0.169293
-0.128967
-0.100749
-0.037604
0.030727
0.071747
0.115786
0.142530
0.154030
0.149732
0.117200
0.082062
0.067467
0.020909
-0.003395
-0.004105
0.003481
0.011287
0.059699
0.124291
0.195919
0.282061
0.354651
0.450657
0.506811
0.564516
0.627123
0.671945
0.700640
0.718574
0.730747
0.704278
0.657316
0.596795
0.563548
0.526433
0.497410
0.462411
0.437866
0.419436
0.396345
0.368261
0.360536
0.363428
0.372120
0.356127
0.339983
0.291786
0.252540
0.213596
0.174840
0.108789
0.063143
0.013318
-0.028033
-0.068003
-0.086981
-0.107796
-0.116677
-0.113931
-0.086697
-0.036136
0.006923
0.044714
0.091513
0.085036
0.087329
0.115581
0.112882
0.075057
0.027493
-0.012414
-0.033017
-0.100573
-0.164658
-0.201025
-0.224265
-0.229657
-0.234333
-0.207483
-0.166505
-0.102636
-0.041674
-0.009140
0.029760
0.063724
0.085596
0.080017
0.062839
0.038404
0.048324
0.029093
-0.027210
-0.088808
-0.128274
-0.166961
-0.199535
-0.194145
-0.188492
-0.162433
-0.144641
-0.115228
-0.074065
-0.001604
0.041856
0.070998
0.087880
0.103214
0.091105
0.073637
0.044682
0.020401
-0.031382
-0.091865
-0.135939
-0.154758
-0.175028
-0.190369
-0.210134
-0.197532
-0.145811
-0.099004
-0.048457
0.009697
0.054764
0.085883
0.089726
0.085850
0.081287
0.056784
0.033343
-0.004590
-0.056545
-0.123132
-0.169929
-0.205003
-0.210444
-0.197663
-0.183718
-0.152874
-0.113933
-0.070653
-0.022992
0.019088
0.079801
0.109256
0.128777
0.124619
0.133719
0.114004
0.095524
0.055680
0.015607
-0.039513
-0.075155
-0.130664
-0.155278
-0.150742
-0.127632
-0.104191
-0.067110
-0.035586
0.007358
0.047200
0.091920
0.127032
0.155025
0.148612
0.143940
0.126573
0.097017
0.060232
0.012213
-0.033309
-0.079320
-0.113803
-0.117104
-0.124581
-0.112863
-0.108780
-0.075575
-0.022628
0.015916
0.058809
0.113733
0.166121
0.186640
0.197777
0.181721
0.153331
0.130403
0.096534
0.044621
-0.014851
-0.083353
-0.102556
-0.126680
-0.140732
-0.124586
-0.092066
-0.056523
-0.019387
0.016356
0.059737
0.098360
0.141277
0.158050
0.162333
0.156126
0.133567
0.090961
0.047665
0.003629
-0.047026
-0.094487
-0.106429
-0.090870
-0.094457
-0.105713
-0.103347
-0.079611
-0.033860
0.017962
0.066690
0.089330
0.126643
0.157222
0.153039
0.154352
0.135826
0.087809
0.045874
0.003419
-0.028887
-0.071984
-0.119946
-0.135302
-0.165441
-0.157990
-0.127896
-0.103732
-0.060442
-0.016005
0.026934
0.090125
0.135775
0.138507
0.157406
0.150555
0.130191
0.080120
0.038593
-0.023959
-0.066470
-0.124936
-0.153297
-0.168674
-0.162629
-0.144138
-0.142527
-0.127478
-0.085125
-0.015073
0.018612
0.057097
0.071800
0.100890
0.090700
0.079169
0.065513
0.025685
-0.032024
-0.061766
-0.097725
-0.140942
-0.187519
-0.212065
-0.221238
-0.188118
-0.153385
-0.129498
-0.096527
-0.059905
-0.020544
0.030008
0.060739
0.077569
0.095203
0.077290
0.066828
0.019415
-0.026277
-0.066270
-0.109614
-0.153956
-0.187775
-0.210392
-0.230869
-0.227965
-0.184698
-0.141362
-0.107217
-0.061759
-0.025967
0.012911
0.055757
0.077303
0.085336
0.074327
0.050164
0.023051
-0.018270
-0.062742
-0.101786
-0.142453
-0.186334
-0.218160
-0.226479
-0.209369
-0.191057
-0.166532
-0.127954
-0.059192
0.016944
0.041958
0.073977
0.100818
0.094844
0.071549
0.041381
0.010806
-0.015995
-0.050939
-0.090702
-0.144777
-0.174631
-0.180408
-0.192786
-0.187550
-0.162816
-0.122188
-0.078556
-0.039135
0.005514
0.030669
0.066344
0.101332
0.092722
0.077494
0.048641
0.017670
-0.026907
-0.081964
-0.116804
-0.150817
-0.195645
-0.237556
-0.225949
-0.200297
-0.171650
-0.143320
-0.094566
-0.037680
0.004671
0.021399
0.038033
0.082650
0.113186
0.107400
0.082657
0.017358
-0.009349
-0.040658
-0.094703
-0.144070
-0.181536
-0.176740
-0.186664
-0.190525
-0.141491
-0.114447
-0.072025
-0.001368
0.047047
0.077749
0.095427
0.100686
0.108006
0.104792
0.076887
0.037497
0.019357
-0.016847
-0.052474
-0.115525
-0.163911
-0.188848
-0.198689
-0.191809
-0.168986
-0.120178
-0.088252
-0.037221
0.008789
0.051956
0.084003
0.086576
0.090683
0.073544
0.052804
0.031032
-0.007228
-0.055819
-0.098030
-0.134520
-0.176852
-0.186597
-0.196771
-0.197277
-0.174324
-0.147587
-0.118507
-0.065757
-0.010240
0.036837
0.065773
0.082116
0.088219
0.082217
0.039879
0.008348
-0.040770
-0.081951
-0.116475
-0.150023
-0.186845
-0.214753
-0.222398
-0.191997
-0.164987
-0.134948
-0.100666
-0.067763
-0.037282
0.022407
0.073120
0.092540
0.081836
0.045381
0.031371
0.010964
-0.033754
-0.080614
-0.124700
-0.172658
-0.181297
-0.187162
-0.191413
-0.178509
-0.165867
-0.127020
-0.077641
-0.035964
0.008730
0.047785
0.084517
0.102327
0.139597
0.142429
0.120780
0.079909
0.045358
0.002215
-0.055673
-0.101316
-0.128520
-0.151407
-0.154940
-0.158934
-0.134802
-0.104047
-0.072225
-0.033213
0.010313
0.062346
0.099264
0.132789
0.140730
0.144666
0.119701
0.078561
0.044731
-0.002922
-0.047970
-0.101862
-0.151325
-0.152887
-0.149830
-0.137441
-0.141447
-0.111027
-0.064664
-0.018134
0.046949
0.073842
0.094006
0.123305
0.126106
0.099523
0.071369
0.039135
-0.001442
-0.057936
-0.098316
-0.115113
-0.142652
-0.159054
-0.182473
-0.182273
-0.172363
-0.163220
-0.117881
-0.056406
-0.021676
-0.000385
0.026572
0.025559
0.038529
0.056599
0.047811
0.022833
-0.029952
-0.079577
-0.117492
-0.179916
-0.226298
-0.238314
-0.231859
-0.235300
-0.208733
-0.181892
-0.156200
-0.109694
-0.061568
-0.025301
0.008462
0.025299
0.015333
-0.001714
-0.017649
-0.043973
-0.075691
-0.122440
-0.160646
-0.190991
-0.211074
-0.231210
-0.212893
-0.208648
-0.193887
-0.160709
-0.112265
-0.062563
-0.033373
0.000701
0.022854
0.028061
0.025252
0.023275
-0.005586
-0.047693
-0.086606
-0.125225
-0.176767
-0.207033
-0.218019
-0.228096
-0.240970
-0.229402
-0.192415
-0.158991
-0.130614
-0.083721
-0.012486
0.056237
0.067295
0.057177
0.061868
0.059761
0.033980
-0.014799
-0.060730
-0.101297
-0.150302
-0.197284
-0.195808
-0.203825
-0.206023
-0.211515
-0.218613
-0.215255
-0.172220
-0.135175
-0.089272
-0.045824
-0.003793
0.021367
0.032777
0.033190
0.036627
0.002647
-0.035357
-0.063921
-0.112430
-0.133602
-0.161313
-0.163610
-0.157629
-0.155995
-0.137499
-0.101955
-0.044805
0.034573
0.101160
0.181364
0.263966
0.309775
0.331191
0.326540
0.348025
0.376840
0.372094
0.340801
0.314863
0.283770
0.295566
0.337338
0.346401
0.371745
0.416919
0.504451
0.591038
0.643886
0.695487
0.764231
0.799822
0.772707
0.766808
0.722760
0.656402
0.559230
0.443024
0.312257
0.191256
0.094317
0.047637
0.025593
0.018964
0.038400
0.050859
0.062940
0.081169
0.107391
0.148647
0.177303
0.183072
0.151278
0.164335
0.189972
0.153585
0.113083
0.055374
-0.018876
-0.098232
-0.166231
-0.183966
-0.198338
-0.210148
-0.206322
-0.169189
-0.101053
-0.021142
0.021315
0.075477
0.067970
0.104271
0.123383
0.118411
0.089516
0.038396
0.006615
-0.048253
-0.086697
-0.090426
-0.090729
-0.110876
-0.151529
-0.188531
-0.205713
-0.173008
-0.150805
-0.149241
-0.130809
-0.083274
-0.069289
-0.048218
-0.022012
-0.011398
-0.036276
-0.066326
-0.073000
-0.070066
-0.069908
-0.110755
-0.159646
-0.226555
-0.227269
-0.208576
-0.160005
-0.102715
-0.062992
-0.061543
-0.023047
0.006440
0.046956
0.059793
0.114970
0.185316
0.160541
0.115349
0.111127
0.113760
0.076253
0.021884
-0.022609
-0.020733
-0.060169
-0.085894
-0.073122
-0.051115
-0.079524
-0.055136
-0.050057
-0.016924
0.036175
0.088296
0.147005
0.166988
0.186823
0.160542
0.125674
0.097991
0.055062
-0.027192
-0.076121
-0.094258
-0.079040
-0.095352
-0.110553
-0.132548
-0.076665
-0.024015
0.014426
0.035135
0.069028
0.102138
0.124834
0.134632
0.110407
0.082338
0.063531
0.051101
0.048380
-0.017320
-0.080373
-0.145877
-0.150500
-0.132486
-0.115266
-0.062388
-0.062032
-0.038330
0.009999
0.092203
0.157185
0.227576
0.254491
0.249201
0.229624
0.243461
0.177317
0.128221
0.093339
0.075401
0.075336
0.027540
-0.009388
-0.022026
-0.025466
0.008386
0.043450
0.070036
0.106903
0.156446
0.204607
0.248998
0.233136
0.225004
0.247432
0.218798
0.171135
0.146311
0.112027
0.068811
0.005223
-0.032494
-0.061897
-0.055900
-0.060238
-0.038384
-0.004815
0.024630
0.071190
0.118895
0.175452
0.206164
0.208908
0.214261
0.212403
0.194334
0.178421
0.105317
0.039336
-0.028581
-0.082168
-0.121952
-0.133482
-0.131011
-0.122660
-0.103567
-0.066116
0.017585
0.074768
0.105178
0.133146
0.144600
0.149845
0.174883
0.189854
0.180321
0.155005
0.116853
0.085891
0.051938
-0.003655
-0.097665
-0.156599
-0.140782
-0.143539
-0.119599
-0.066913
0.007103
0.057652
0.083034
0.087613
0.137222
0.180289
0.199336
0.202542
