-0.016369
0.026153
0.063748
0.087221
0.111353
0.117942
0.103832
0.081729
0.055824
0.007805
-0.035890
-0.090321
-0.133223
-0.176494
-0.206663
-0.211792
-0.187830
-0.162183
-0.146907
-0.107362
-0.046554
0.016800
0.060950
0.092072
0.128138
0.132653
0.117368
0.101388
0.066259
0.011333
-0.028900
-0.082053
-0.131834
-0.168463
-0.194045
-0.210071
-0.189631
-0.164546
-0.130738
-0.094428
-0.049984
-0.014306
0.034670
0.078685
0.093863
0.105631
0.105783
0.089769
0.058003
0.004157
-0.029588
-0.076286
-0.120277
-0.168348
-0.195875
-0.206562
-0.190880
-0.181526
-0.134257
-0.089943
-0.047706
-0.004480
0.024815
0.058021
0.082289
0.090613
0.080604
0.069732
0.049693
0.016110
-0.024255
-0.076388
-0.115834
-0.139446
-0.159620
-0.182253
-0.178259
-0.167779
-0.145426
-0.106738
-0.060160
-0.021419
0.017550
0.035191
0.060207
0.071706
0.056545
0.030638
0.011321
-0.023100
-0.050623
-0.075280
-0.107998
-0.150295
-0.172433
-0.164554
-0.162549
-0.149755
-0.128554
-0.089927
-0.041721
0.005804
0.033724
0.053044
0.072581
0.080652
0.066960
0.038697
0.007099
-0.027216
-0.069778
-0.109738
-0.153723
-0.186029
-0.202526
-0.209432
-0.183296
-0.169395
-0.148895
-0.078152
-0.035385
-0.005859
0.038597
0.065043
0.075017
0.092205
0.074975
0.047937
0.015161
-0.031874
-0.077096
-0.112071
-0.149971
-0.193978
-0.215445
-0.219723
-0.217422
-0.185557
-0.149363
-0.096510
-0.055574
-0.002164
0.041670
0.069599
0.083280
0.085196
0.065251
0.045414
0.014006
-0.039582
-0.076026
-0.104851
-0.146831
-0.190936
-0.222180
-0.224397
-0.218313
-0.200514
-0.166685
-0.131664
-0.073767
0.005943
0.057342
0.083308
0.100719
0.108538
0.095109
0.079492
0.039558
-0.004922
-0.058200
-0.112958
-0.156950
-0.176557
-0.220800
-0.243443
-0.218521
-0.189182
-0.157256
-0.105463
-0.060682
-0.014051
0.031878
0.075979
0.097413
0.099700
0.091763
0.067383
0.036290
0.002511
-0.053695
-0.105474
-0.149066
-0.183796
-0.212118
-0.226716
-0.208136
-0.197498
-0.172823
-0.131469
-0.085615
-0.045823
0.006429
0.047292
0.075286
0.075685
0.076470
0.062442
0.023248
-0.016045
-0.047405
-0.092859
-0.129408
-0.171367
-0.189729
-0.206852
-0.200678
-0.184933
-0.159844
-0.112778
-0.073343
-0.027646
0.012230
0.067994
0.105514
0.105972
0.102832
0.098660
0.075985
0.030413
-0.011223
-0.047735
-0.090877
-0.135292
-0.153748
-0.153525
-0.136006
-0.128041
-0.097780
-0.060419
-0.031534
0.010348
0.046031
0.076441
0.103522
0.106477
0.090701
0.081601
0.052759
0.005407
-0.029566
-0.066242
-0.099184
-0.113583
-0.146370
-0.141294
-0.127732
-0.117276
-0.068476
-0.039158
0.004047
0.067333
0.109226
0.128593
0.136717
0.138153
0.122067
0.091558
0.040019
-0.004197
-0.045887
-0.078735
-0.129152
-0.161810
-0.187629
-0.192159
-0.171115
-0.144490
-0.105032
-0.071557
-0.036604
0.003218
0.042199
0.076889
0.093007
0.095541
0.075868
0.051974
0.020744
-0.031796
-0.082165
-0.118913
-0.163789
-0.188499
-0.203413
-0.214311
-0.197428
-0.184057
-0.157833
-0.118825
-0.069452
-0.016651
0.023247
0.055141
0.094377
0.102955
0.070556
0.050816
0.003120
-0.038110
-0.092312
-0.148193
-0.173617
-0.217161
-0.238226
-0.250310
-0.241683
-0.205105
-0.160044
-0.132804
-0.084527
-0.028116
0.029575
0.052494
0.069223
0.086441
0.079381
0.056372
0.022036
-0.030764
-0.071840
-0.124430
-0.168049
-0.202285
-0.229122
-0.236231
-0.241680
-0.223066
-0.190810
-0.145733
-0.094276
-0.052810
-0.015311
0.029560
0.053476
0.057107
0.044095
0.038738
0.012362
-0.042595
-0.083023
-0.133503
-0.159413
-0.205061
-0.227948
-0.220546
-0.212354
-0.191370
-0.161816
-0.146657
-0.117942
-0.068024
-0.014813
0.019157
0.048903
0.070853
0.063819
0.045362
0.008689
-0.044758
-0.083463
-0.131794
-0.177525
-0.212575
-0.222621
-0.220959
-0.218486
-0.200290
-0.174443
-0.109723
-0.052824
-0.019973
0.026733
0.068997
0.116021
0.138578
0.126496
0.131560
0.115187
0.093788
0.066815
0.036317
0.019270
0.013615
0.016741
0.051377
0.089656
0.148183
0.212167
0.294556
0.368800
0.451070
0.527635
0.586032
0.629387
0.675449
0.705048
0.726809
0.723591
0.709750
0.689739
0.679836
0.661372
0.630900
0.599719
0.590537
0.569414
0.576637
0.592036
0.628854
0.623382
0.604376
0.577614
0.555238
0.516783
0.470229
0.401425
0.321993
0.243602
0.172991
0.119908
0.070451
-0.001443
-0.034519
-0.059783
-0.081107
-0.083707
-0.072970
-0.042004
-0.006378
0.028087
0.087358
0.125833
0.160767
0.179840
0.175122
0.157991
0.132348
0.099533
0.061666
-0.000184
-0.038943
-0.084754
-0.135181
-0.162046
-0.171082
-0.171713
-0.150611
-0.112937
-0.067828
-0.025011
0.021533
0.057681
0.091395
0.115958
0.126483
0.131032
0.109046
0.083206
0.039303
-0.014428
-0.067840
-0.107797
-0.147902
-0.175675
-0.191356
-0.184126
-0.170369
-0.139650
-0.100301
-0.043031
0.004694
0.045886
0.083455
0.098786
0.096694
0.109840
0.101329
0.057800
0.021541
-0.020388
-0.063264
-0.087062
-0.114526
-0.136130
-0.152820
-0.152821
-0.119146
-0.089938
-0.060405
-0.025772
0.015775
0.049323
0.083522
0.097086
0.115330
0.107282
0.080133
0.063136
0.030884
-0.015809
-0.045903
-0.085888
-0.119209
-0.140715
-0.140971
-0.125783
-0.115061
-0.090485
-0.056829
-0.010265
0.031185
0.084038
0.129979
0.151205
0.145464
0.130521
0.106690
0.088887
0.051282
0.012242
-0.041121
-0.078439
-0.118896
-0.133072
-0.120570
-0.098132
-0.064163
-0.032218
0.012331
0.053846
0.107304
0.131349
0.171335
0.186280
0.186676
0.170119
0.149667
0.114501
0.072787
0.034309
-0.021029
-0.062929
-0.089013
-0.102540
-0.101968
-0.080621
-0.048652
-0.004932
0.048073
0.090414
0.127887
0.169085
0.207158
0.232190
0.234626
0.224126
0.193057
0.157518
0.122102
0.073007
0.019611
-0.019534
-0.054219
-0.073077
-0.070001
-0.057271
-0.037048
0.008429
0.045262
0.092806
0.144744
0.185547
0.222189
0.247528
0.257185
0.241799
0.216315
0.179129
0.138643
0.090280
0.031918
-0.010105
-0.047709
-0.069689
-0.080890
-0.073837
-0.056797
-0.020014
0.019802
0.075651
0.142880
0.186553
0.217974
0.232737
0.243854
0.228030
0.193325
0.185941
0.145527
0.098008
0.043379
-0.005861
-0.013731
-0.056865
-0.078198
-0.082161
-0.070970
-0.041618
-0.005086
0.042364
0.082890
0.123738
0.170229
0.196617
0.212711
0.209388
0.186381
0.151376
0.102103
0.050164
0.013999
-0.025804
-0.057880
-0.080829
-0.087501
-0.094336
-0.075075
-0.046227
-0.003766
0.018699
0.058591
0.099817
0.121473
0.137312
0.138163
0.142535
0.131618
0.091891
0.053558
0.019646
-0.037629
-0.072731
-0.110541
-0.146822
-0.151202
-0.135285
-0.105623
-0.080865
-0.045259
-0.025001
0.024900
0.059870
0.086944
0.107159
0.101437
0.084994
0.068692
0.041857
0.004476
-0.033959
-0.075834
-0.115916
-0.135921
-0.158136
-0.163287
-0.149534
-0.128265
-0.103803
-0.066582
-0.033217
0.006960
0.056353
0.089966
0.106111
0.107138
0.097934
0.055092
0.015787
-0.025043
-0.060936
-0.096046
-0.134164
-0.160698
-0.177356
-0.189385
-0.175055
-0.142114
-0.115618
-0.069112
-0.022146
0.013680
0.057335
0.094359
0.112927
0.126291
0.107123
0.084504
0.057479
0.013875
-0.048311
-0.110227
-0.152051
-0.165787
-0.198138
-0.198809
-0.192411
-0.161670
-0.108191
-0.064933
-0.018494
0.028451
0.077843
0.107973
0.133667
0.134170
0.128420
0.097169
0.056390
0.019191
-0.031745
-0.076854
-0.122918
-0.152858
-0.191116
-0.201522
-0.208656
-0.161282
-0.115856
-0.062046
-0.014612
0.019423
0.070209
0.105618
0.119725
0.130455
0.126060
0.106503
0.091040
0.059284
-0.003820
-0.056773
-0.103413
-0.141223
-0.168882
-0.180196
-0.171472
-0.148833
-0.124234
-0.089064
-0.040094
-0.009535
0.052260
0.083082
0.109724
0.128501
0.130550
0.101977
0.080059
0.037365
0.001110
-0.045042
-0.083331
-0.134799
-0.163104
-0.172674
-0.168612
-0.145153
-0.114910
-0.076742
-0.032931
0.017091
0.044562
0.074467
0.101379
0.116993
0.113287
0.097155
0.069488
0.032432
-0.008180
-0.036608
-0.088015
-0.137929
-0.171517
-0.171205
-0.164084
-0.135176
-0.114236
-0.075968
-0.040688
0.006909
0.042175
0.075352
0.099594
0.106093
0.091512
0.069488
0.040503
0.007319
-0.030781
-0.068449
-0.115945
-0.144287
-0.157156
-0.162432
-0.145421
-0.129570
-0.102682
-0.074545
-0.026117
0.009289
0.058924
0.080078
0.104641
0.099263
0.090866
0.054969
0.021925
-0.019779
-0.054371
-0.096408
-0.116599
-0.146329
-0.172177
-0.174478
-0.165138
-0.146681
-0.120539
-0.103712
-0.011285
0.030427
0.071343
0.108433
0.121915
0.116490
0.096160
0.057980
0.023788
-0.023649
-0.067607
-0.106228
-0.150120
-0.174797
-0.194299
-0.199644
-0.188906
-0.158875
-0.119729
-0.083996
-0.033915
0.002725
0.060157
0.099015
0.120106
0.113295
0.094974
0.078349
0.050529
-0.001691
-0.053999
-0.105009
-0.147452
-0.188993
-0.208879
-0.198702
-0.191173
-0.168871
-0.134243
-0.094799
-0.052419
-0.005062
0.046585
0.084348
0.105049
0.113333
0.106310
0.077135
0.049887
0.005470
-0.041237
-0.093921
-0.140852
-0.167979
-0.198976
-0.204545
-0.197244
-0.175015
-0.134636
-0.092170
-0.046476
-0.010810
0.037226
0.078355
0.096809
0.111591
0.116778
0.086666
0.055013
0.014492
-0.038993
-0.082607
-0.126689
-0.165443
-0.194671
-0.195016
-0.200714
-0.171827
-0.135642
-0.108207
-0.065836
-0.026126
0.028941
0.067670
0.085787
0.099309
0.085878
0.070633
0.039950
-0.002971
-0.044449
-0.086450
-0.130190
-0.162734
-0.194800
-0.197638
-0.189472
-0.155939
-0.117290
-0.085630
-0.061769
-0.016502
0.034627
0.066299
0.096308
0.103446
0.084850
0.055958
0.062657
0.022184
-0.040172
-0.067225
-0.109013
-0.148863
-0.182156
-0.187193
-0.177140
-0.156447
-0.124159
-0.083846
-0.044728
-0.004820
0.042444
0.076822
0.106293
0.126499
0.115934
0.095620
0.054792
0.022129
-0.013640
-0.047643
-0.090240
-0.123011
-0.128954
-0.141050
-0.120232
-0.104285
-0.084148
-0.056752
-0.014712
0.033448
0.067310
0.102097
0.118294
0.116232
0.097653
0.088170
0.062359
0.017743
-0.015488
-0.048323
-0.089206
-0.113246
-0.134289
-0.139624
-0.110283
-0.092393
-0.073284
-0.023817
0.025688
0.074514
0.100885
0.135139
0.149160
0.147186
0.132598
0.095745
0.052528
0.009464
-0.039674
-0.079717
-0.121258
-0.150027
-0.165716
-0.171456
-0.151544
-0.123463
-0.094535
-0.064929
-0.016600
0.039907
0.081296
0.100100
0.129338
0.121772
0.098515
0.077431
0.042319
0.006783
-0.057238
-0.106179
-0.152686
-0.180610
-0.197066
-0.200069
-0.200585
-0.174571
-0.133924
-0.098200
-0.051313
-0.003061
0.046096
0.075180
0.094481
0.101905
0.093866
0.060607
0.034038
-0.019145
-0.063766
-0.119533
-0.172781
-0.198889
-0.215849
-0.245107
-0.229552
-0.205002
-0.158815
-0.119655
-0.063334
-0.022690
0.023916
0.055239
0.089495
0.089248
0.080146
0.062059
0.024646
-0.019172
-0.055233
-0.083225
-0.148124
-0.183756
-0.199669
-0.210554
-0.202668
-0.197019
-0.167955
-0.127040
-0.078539
-0.035260
0.004942
0.031134
0.053250
0.069562
0.074857
0.073007
0.029810
-0.001823
-0.062137
-0.105551
-0.149306
-0.175423
-0.194326
-0.208383
-0.205561
-0.189204
-0.161670
-0.122858
-0.081087
-0.046743
0.001220
0.043223
0.059246
0.062962
0.054153
0.032785
-0.003018
-0.034820
-0.074476
-0.110127
-0.149167
-0.186438
-0.209443
-0.212923
-0.207543
-0.181640
-0.137930
-0.099887
-0.049000
-0.004217
0.055954
0.109195
0.153431
0.168100
0.176682
0.161309
0.138331
0.111559
0.087347
0.062507
0.046863
0.044720
0.050532
0.083427
0.113101
0.147965
0.224690
0.295860
0.359587
0.453003
0.519924
0.564413
0.617649
0.656561
0.676213
0.699191
0.703281
0.685129
0.689590
0.649117
0.595672
0.570491
0.558585
0.541962
0.533050
0.548970
0.539646
0.554510
0.528621
0.512340
0.492855
0.458320
0.437414
0.405343
0.342603
0.267599
0.212456
0.140585
0.083480
0.018669
-0.035926
-0.077156
-0.110384
-0.114582
-0.118530
-0.106819
-0.065864
-0.036821
0.028071
0.091953
0.140005
0.168495
0.184041
0.195421
0.182706
0.151974
0.104056
0.049791
-0.005126
-0.059448
-0.109022
-0.140641
-0.156432
-0.170313
-0.174263
-0.147787
-0.105563
-0.067028
-0.027834
0.019797
0.067740
0.115134
0.142564
0.150500
0.141878
0.117363
0.085485
0.044677
-0.004081
-0.058420
-0.106596
-0.142647
-0.168394
-0.167647
-0.167796
-0.162734
-0.128712
-0.108375
-0.034343
0.024970
0.071746
0.097799
0.125924
0.142748
0.139050
0.104241
0.078912
0.033366
-0.011246
-0.047820
-0.091205
-0.129551
-0.144605
-0.148922
-0.143747
-0.124807
-0.102345
-0.069315
-0.024132
0.024625
0.073500
0.097275
0.119367
0.131992
0.132416
0.116656
0.074818
0.036808
-0.005534
-0.049033
-0.085132
-0.110412
-0.128379
-0.133201
-0.124875
-0.102579
-0.066956
-0.035412
0.008387
0.059477
0.108374
0.133635
0.148615
0.147060
0.150003
0.139778
0.106357
0.063644
0.010742
-0.026800
-0.054227
-0.084839
-0.099151
-0.105110
-0.089506
-0.080748
-0.047437
0.016055
0.065932
0.099433
0.127776
0.160279
0.169072
0.176508
0.179137
0.164904
0.124935
0.079911
0.039372
0.007993
-0.020271
-0.047351
-0.074637
-0.079105
-0.063884
-0.044351
-0.014615
0.047273
0.089986
0.150092
0.188227
0.218321
0.236701
0.247128
0.238293
0.205871
0.151093
0.120296
0.073489
0.009235
-0.019826
-0.040631
-0.062996
-0.067172
-0.053746
-0.027714
0.010910
0.055421
0.104370
0.146243
0.201492
0.232769
0.247534
0.253076
0.238921
0.222241
0.187299
0.155612
0.096122
0.052113
0.005754
-0.038266
-0.059510
-0.066692
-0.053941
-0.028606
0.002455
0.048714
0.086400
0.144942
0.196085
0.222953
0.248811
0.267375
0.263068
0.232626
0.185524
0.139507
0.088960
0.036832
-0.008009
-0.049470
-0.068490
-0.074617
-0.083874
-0.058802
-0.032214
-0.000831
0.054801
0.111047
0.143698
0.183277
0.201710
0.214454
0.203025
0.179664
0.149654
0.123161
0.070221
0.005834
-0.029770
-0.064892
-0.096967
-0.112722
-0.119798
-0.078489
-0.057958
-0.027453
0.019004
0.055374
0.083068
0.119665
0.148102
0.162679
0.156722
0.142096
0.105165
0.065459
0.016449
-0.028702
-0.062097
-0.103351
-0.125073
-0.132984
-0.133323
-0.113621
-0.082658
-0.047986
-0.004928
0.039154
0.074080
0.100545
0.116359
0.113384
0.114652
0.083471
0.046032
0.013325
-0.019633
-0.062548
-0.109018
-0.147370
-0.163811
-0.171838
-0.156238
-0.127346
-0.097565
-0.039709
-0.001004
0.029151
0.056489
0.089241
0.105471
0.110799
0.099669
0.068689
0.026761
-0.017423
-0.049250
-0.107985
-0.126739
-0.155482
-0.178458
-0.185679
-0.174115
-0.152390
-0.098621
-0.066253
-0.024879
0.025070
0.056524
0.088743
0.123655
0.118178
0.102500
0.066891
0.029773
-0.009438
-0.044253
-0.094060
-0.144695
-0.157054
-0.166548
-0.168485
-0.165896
-0.149626
-0.109581
-0.074250
-0.020857
0.027197
0.076292
0.106798
0.136683
0.141949
0.123142
0.107647
0.062150
0.013773
-0.038544
-0.096013
-0.134734
-0.166403
-0.190473
-0.194011
-0.180938
-0.150177
-0.118535
-0.081038
-0.024215
0.032285
0.086254
0.117594
0.135683
0.146170
0.135098
0.092373
0.061340
0.018941
-0.021169
-0.076659
-0.108428
-0.150138
-0.166583
-0.178825
-0.174000
-0.158888
-0.111852
-0.075567
-0.039666
0.018219
0.064076
0.098315
0.119740
0.133444
0.129683
0.121704
0.084035
0.037205
-0.008935
-0.063731
-0.106828
-0.154911
-0.185258
-0.190521
-0.187102
-0.162310
-0.134284
-0.101213
-0.074045
-0.015196
0.028860
0.084596
0.117755
0.130481
0.115734
0.101219
0.073729
0.035185
-0.024203
-0.060445
-0.086306
-0.130410
-0.161060
-0.185686
-0.150120
-0.140080
-0.111315
-0.069872
-0.031932
0.004582
0.052107
0.076138
0.099068
0.102574
0.089011
0.074754
0.048257
0.017980
-0.023202
-0.055477
-0.100169
-0.131378
-0.155538
-0.173698
-0.175419
-0.145790
-0.114617
-0.084536
-0.045623
-0.000871
0.037888
0.060651
0.078397
0.090292
0.082150
0.055818
0.007086
-0.036608
-0.059795
-0.100179
-0.136877
-0.156957
-0.188454
-0.185441
-0.172582
-0.144629
-0.111454
-0.063816
-0.023158
0.011754
0.041510
0.073624
0.086203
0.095915
0.087441
0.069360
0.019982
-0.018844
-0.064501
-0.119754
-0.151559
-0.178192
-0.174799
-0.190443
-0.188606
-0.157594
-0.113258
-0.067997
-0.026623
0.026627
0.061672
0.080197
0.089342
0.092260
0.077615
0.062293
0.019870
-0.029468
-0.052264
-0.099314
-0.160576
-0.186631
-0.199797
-0.205189
-0.204128
-0.169165
-0.121142
-0.078315
-0.041661
0.000980
0.044815
0.095016
0.107519
0.114309
0.106662
0.082122
0.039337
0.007675
-0.052777
-0.105810
-0.158986
-0.192110
-0.211150
-0.225342
-0.218267
-0.191080
-0.160368
-0.105598
-0.058695
-0.009887
0.003402
0.048935
0.088901
0.104442
0.104755
0.092472
0.045126
0.013300
-0.026971
-0.073975
-0.120797
-0.164109
-0.191428
-0.206377
-0.199239
-0.171742
-0.134048
-0.092943
-0.031862
0.018756
0.049721
0.085731
0.107614
0.125709
0.120801
0.090066
0.073086
0.035797
-0.003528
-0.053161
-0.087744
-0.130267
-0.157578
-0.178861
-0.170387
-0.152861
-0.118727
-0.073367
-0.024355
0.019259
0.052897
0.086786
0.107450
0.116362
0.106546
0.105032
0.077871
0.046391
0.008254
-0.045262
-0.093508
-0.110060
-0.120444
-0.128183
-0.132945
-0.108150
-0.084597
-0.051996
-0.028076
0.021627
0.065156
0.099109
0.128369
0.145700
0.135834
0.113628
0.077484
0.036594
-0.010557
-0.059259
-0.092394
-0.125993
-0.146645
-0.162784
-0.163946
-0.146007
-0.123056
-0.085320
-0.038530
0.000744
0.030165
0.067655
0.085744
0.083636
0.075990
0.055742
0.017263
-0.020668
-0.056541
-0.098298
-0.132291
-0.173165
-0.189653
-0.211506
-0.194037
-0.158795
-0.132940
-0.092004
-0.044370
-0.020564
0.011012
0.036162
0.049291
0.059628
0.046960
0.030777
-0.007498
-0.052664
-0.105458
-0.149670
-0.183472
-0.206719
-0.224218
-0.217130
-0.200369
-0.173269
-0.142266
-0.101527
-0.057713
-0.014643
0.025214
0.048865
0.074656
0.072555
0.067052
0.036974
-0.006780
-0.058064
-0.101916
-0.145747
-0.183802
-0.231895
-0.252439
-0.258712
-0.248067
-0.203324
-0.158296
-0.105033
-0.046780
-0.001688
0.011561
0.070449
0.080777
0.091999
0.087590
0.063755
0.021224
-0.034722
-0.080978
-0.134495
-0.175734
-0.200787
-0.216853
-0.235900
-0.244237
-0.224167
-0.180248
-0.138035
-0.074893
-0.024568
0.011027
0.043597
0.064524
0.075078
0.056784
0.024482
-0.003814
-0.052268
-0.098034
-0.143529
-0.193170
-0.217818
-0.230489
-0.218634
-0.214732
-0.186759
-0.145121
-0.075618
-0.006897
0.051140
0.104471
0.144711
0.192733
0.211324
0.205083
0.205511
0.188448
0.172558
0.154539
0.138966
0.128819
0.131808
0.131986
0.156192
0.183773
0.226319
0.279594
0.343910
0.407785
0.509000
0.589296
0.645515
0.701088
0.744615
0.782736
0.799156
0.781003
0.748851
0.717734
0.663649
0.600969
0.559956
0.532932
0.502066
0.467256
0.415509
0.376147
0.368452
0.343599
0.331012
0.325446
0.332809
0.291963
0.270359
0.219985
0.172694
0.126504
0.093272
0.035445
-0.016395
-0.060671
-0.081405
-0.112129
-0.125394
-0.115429
-0.088523
-0.052463
-0.011892
0.034728
0.073650
0.097499
0.123620
0.134033
0.130265
0.122494
0.098018
0.062948
0.010464
-0.031633
-0.083883
-0.126023
-0.157259
-0.170239
-0.169115
-0.155056
-0.136526
-0.101732
-0.039786
-0.003724
0.044187
0.082788
0.108543
0.117940
0.120650
0.113723
0.091828
0.043069
0.002755
-0.052443
-0.094132
-0.141539
-0.172014
-0.194274
-0.207267
-0.193703
-0.161081
-0.115568
-0.068179
-0.028176
0.021734
0.065628
0.105437
0.131775
0.131437
0.117316
0.090347
0.063269
0.015967
-0.032105
-0.085498
-0.121758
-0.144099
-0.174966
-0.186777
-0.176438
-0.153591
-0.117524
-0.072576
-0.011166
0.057850
0.090503
0.121671
0.145044
0.159720
0.145893
0.130966
0.097542
0.041767
-0.002341
-0.048615
-0.085753
-0.117857
-0.146829
-0.153019
-0.142350
-0.120261
-0.090164
-0.045073
-0.005741
0.048202
0.090328
0.140040
0.169599
0.170182
0.161165
0.142209
0.109682
0.076358
0.023612
-0.010387
-0.068416
-0.101852
-0.118150
-0.123259
-0.109795
-0.092318
-0.053479
-0.006778
0.029327
0.073215
0.126924
0.151357
0.180820
0.186818
0.181008
0.171192
0.133862
0.110689
0.063407
0.016024
-0.023872
-0.053576
-0.060088
-0.069058
-0.067885
-0.043045
-0.020498
0.013572
0.053731
0.099312
0.147334
0.168704
0.197601
0.209853
0.205177
0.185217
0.155429
0.109486
0.070471
0.024579
-0.008225
-0.025897
-0.035099
-0.049733
-0.045441
-0.025468
-0.003778
0.050770
0.105832
0.150496
0.180539
0.215952
0.243076
0.232247
0.215858
0.196026
0.173505
0.126674
0.078999
0.019308
-0.019693
-0.036673
-0.049308
-0.050721
-0.049268
-0.016094
0.021478
0.069637
0.098713
0.145251
0.185953
0.204814
0.221488
0.224171
0.199845
0.172370
0.131054
0.074860
0.047579
0.003587
-0.045059
-0.071880
-0.088906
-0.097341
-0.087047
-0.060340
-0.031546
0.025961
0.067678
0.116581
0.165091
0.187712
0.199232
0.206513
0.191106
0.157015
0.121247
0.060279
0.021758
-0.035950
-0.082401
-0.128018
-0.146437
-0.150990
-0.141187
-0.115092
-0.080600
-0.036508
0.011808
0.056704
0.108290
0.144461
0.160909
0.160275
0.140428
0.120669
0.082668
0.043543
-0.003429
-0.064701
-0.102919
-0.127016
-0.150570
-0.172331
-0.176650
-0.156000
-0.122265
-0.071295
-0.026818
0.018783
0.058681
0.097258
0.128564
0.138013
0.134563
0.108076
0.061781
0.026365
-0.027225
-0.072300
-0.126580
-0.167331
-0.189804
-0.190408
-0.188661
-0.169267
-0.148111
-0.099704
-0.063686
-0.013339
0.033179
0.067237
0.091070
0.108110
0.102771
0.085478
0.052087
0.011767
-0.031988
-0.076380
-0.118791
-0.153534
-0.180080
-0.198134
-0.198809
-0.169880
-0.137349
-0.104276
-0.037098
0.013528
0.037259
0.064070
0.091406
0.104954
0.103575
0.088595
0.050937
0.017728
-0.025046
-0.074423
-0.110041
-0.149055
-0.167356
-0.176481
-0.192466
-0.170736
-0.140581
-0.094008
-0.045115
-0.010091
0.025555
0.043842
0.080622
0.088973
0.085411
0.072298
0.039982
0.017096
-0.029162
-0.072960
-0.118558
-0.146444
-0.157334
-0.171240
-0.166761
-0.139249
-0.102429
-0.054684
-0.017503
0.015997
0.051850
0.079168
0.097155
0.097732
0.091751
0.070671
0.047290
0.004924
-0.039895
-0.078236
-0.120179
-0.145161
-0.162885
-0.166478
-0.153271
-0.128590
-0.098621
-0.056810
-0.009990
0.032337
0.064666
0.094004
0.112507
0.109354
0.102699
0.085466
0.042664
-0.009821
-0.056015
-0.097980
-0.150810
-0.175798
-0.188735
-0.182761
-0.171265
-0.145049
-0.108944
-0.067191
-0.013621
0.039139
0.074776
0.094207
0.114692
0.130927
0.130809
0.101638
0.056393
0.005002
-0.047950
-0.098543
-0.144115
-0.172245
-0.183031
-0.194741
-0.190968
-0.166331
-0.129499
-0.074732
-0.015013
0.035202
0.070133
0.101421
0.126848
0.137269
0.125541
0.086365
0.043147
0.005132
-0.050031
-0.105115
-0.134910
-0.169518
-0.208721
-0.215103
-0.217362
-0.188109
-0.142353
-0.098395
-0.051194
-0.007594
0.014489
0.050038
0.097161
0.124994
0.115068
0.100111
0.065677
0.029307
-0.003021
-0.060421
-0.126144
-0.166772
-0.171189
-0.180375
-0.185805
-0.166008
-0.139381
-0.102695
-0.059012
-0.014011
0.026630
0.058362
0.092417
0.097884
0.080452
0.071891
0.055762
0.018562
-0.029390
-0.076990
-0.125616
-0.155788
-0.187936
-0.188992
-0.194795
-0.190419
-0.156675
-0.093085
-0.049357
-0.009262
0.026523
0.059079
0.077411
0.099382
0.080091
0.072253
0.046179
-0.003996
-0.058484
-0.086066
-0.131397
-0.151112
-0.180319
-0.182467
-0.184468
-0.161052
-0.143040
-0.104225
-0.055713
-0.010041
0.028821
0.059928
0.081686
0.092621
0.085765
0.055587
0.032632
-0.003914
-0.046093
-0.081935
-0.127127
-0.153487
-0.169899
-0.167547
-0.160622
-0.140570
-0.108577
-0.063899
-0.015934
0.017983
0.059741
0.098526
0.116066
0.120543
0.101196
0.082254
0.053352
0.006321
-0.038613
-0.076291
-0.106284
-0.130116
-0.154605
-0.168774
-0.157046
-0.143673
-0.100285
-0.041926
0.001284
0.053772
0.091829
0.120675
0.128954
0.121267
0.124920
0.100083
0.061946
0.027746
-0.011252
-0.052737
-0.099608
-0.129291
-0.141423
-0.145285
-0.135200
-0.121442
-0.086840
-0.024585
0.011649
0.058462
0.101795
0.137945
0.135059
0.171881
0.152104
0.119134
0.082083
0.033415
-0.021903
-0.066891
-0.119765
-0.166130
-0.189731
-0.194241
-0.186519
-0.163308
-0.116519
-0.065221
-0.020779
0.027883
0.058092
0.091277
0.100952
0.113073
0.109766
0.090338
0.040548
-0.009092
-0.066387
-0.119380
-0.158530
-0.188858
-0.211279
-0.216554
-0.216866
-0.200754
-0.161119
-0.120381
-0.069963
-0.016866
0.023049
0.055546
0.080489
0.089896
0.084711
0.061208
0.031474
-0.012481
-0.065917
-0.111313
-0.163781
-0.198864
-0.221408
-0.224525
-0.214612
-0.194933
-0.169351
-0.138852
-0.099681
-0.054756
-0.016081
0.022327
0.049496
0.043657
0.052670
0.045510
0.020498
-0.030642
-0.081085
-0.126024
-0.155079
-0.192745
-0.211253
-0.217950
-0.205215
-0.189251
-0.146109
-0.117846
-0.081551
-0.035242
0.004884
0.023108
0.056500
0.064840
0.051749
0.033222
0.009139
-0.023251
-0.072572
-0.117836
-0.149958
-0.177336
-0.203296
-0.214660
-0.206173
-0.177934
-0.147667
-0.110588
-0.067765
-0.026200
0.013595
0.035125
0.048210
0.058775
0.045220
0.022638
-0.013058
-0.054206
-0.107211
-0.147957
-0.162514
-0.168707
-0.181849
-0.181554
-0.153350
-0.139959
-0.085759
-0.034251
0.061228
0.120877
0.159125
0.188490
0.215758
0.243130
0.255922
0.250023
0.242782
0.228640
0.206194
0.183321
0.189136
0.200258
0.210267
0.229171
0.271857
0.332048
0.399363
0.474699
0.570557
0.647627
0.728634
0.786688
0.837583
0.855970
0.848297
0.828903
0.809021
0.745986
0.671383
0.614037
0.556432
0.478403
0.400027
0.335548
0.284198
0.252394
0.224308
0.221002
0.228702
0.240290
0.236643
0.235139
0.238295
0.232196
0.214440
0.191508
0.159043
0.113153
0.042630
-0.016245
-0.065666
-0.107928
-0.137810
-0.143030
-0.129186
-0.106997
-0.079889
-0.039695
0.017550
0.058245
0.098854
0.123139
0.147438
0.149140
0.144847
0.119442
0.086355
0.035987
-0.020646
-0.068503
-0.107073
-0.158218
-0.190825
-0.198544
-0.199608
-0.188854
-0.156309
-0.101467
-0.037717
0.014071
0.066767
0.101054
0.125528
0.148302
0.148602
0.117224
0.071475
0.033880
-0.020730
-0.073227
-0.108679
-0.135432
-0.171077
-0.171606
-0.177943
-0.145407
-0.116398
-0.094278
-0.036782
0.004818
0.051161
0.085251
0.113318
0.121808
0.126987
0.109168
0.081956
0.041499
0.001513
-0.053759
-0.102942
-0.129300
-0.135303
-0.137979
-0.139318
-0.125193
-0.091733
-0.057548
-0.008560
0.029888
0.055493
0.113141
0.133804
0.128194
0.120623
0.093883
0.074052
0.039218
-0.013721
-0.058583
-0.083797
-0.107107
-0.120319
-0.123977
-0.120841
-0.107129
-0.063302
-0.025552
0.029757
0.070443
0.103780
0.143197
0.154383
0.153586
0.146920
0.133699
0.101703
0.057889
0.003131
-0.037060
-0.075598
-0.088483
-0.105383
-0.105098
-0.094899
-0.062692
-0.031291
0.005211
0.063884
0.111528
0.151323
0.186599
0.199385
0.191356
0.173389
0.150596
0.117554
0.093578
0.039553
0.001256
-0.040826
-0.074236
-0.084711
-0.091444
-0.068667
-0.038575
-0.001730
0.051404
0.111477
0.151029
0.175497
0.217389
0.238350
0.250629
0.234150
0.209911
0.166150
0.121196
0.071945
0.023906
-0.027961
-0.064167
-0.078908
-0.085638
-0.077274
-0.054881
-0.021563
0.031336
0.086319
0.142243
0.176797
0.221483
0.245984
0.264143
0.256467
0.233730
0.190641
0.153083
0.084495
0.036665
-0.003120
-0.042005
-0.069550
-0.084460
-0.068985
-0.033595
0.003452
0.038773
0.096284
0.134038
0.177160
0.217781
0.231132
0.247480
0.231199
0.207518
0.176417
0.129877
0.076518
0.037424
-0.025986
-0.072774
-0.097277
-0.108544
-0.097583
-0.077225
-0.043443
-0.004889
0.032201
0.079765
0.129582
0.164582
0.186305
0.198354
0.182610
0.154033
0.126690
0.089411
0.046885
0.001037
-0.050203
-0.099158
-0.120918
-0.137734
-0.136695
-0.128121
-0.096870
-0.048522
-0.003021
0.036799
0.079949
0.103939
0.126274
0.134434
0.128384
0.104723
0.073066
0.042697
-0.011808
-0.051581
-0.097462
-0.124098
-0.147763
-0.156494
-0.156120
-0.144066
-0.118424
-0.082218
-0.032393
0.017175
0.043428
0.075954
0.097693
0.106157
0.088794
0.079595
0.063964
0.004982
-0.045026
-0.082445
-0.117176
-0.144203
-0.159696
-0.173622
-0.154759
-0.135274
-0.102352
-0.076577
-0.029003
0.008200
0.050641
0.081609
0.082929
0.080400
0.076452
0.059574
0.028980
-0.003960
-0.056569
-0.101861
-0.139610
-0.169361
-0.180112
-0.177388
-0.161465
-0.141088
-0.111021
-0.069773
-0.030016
0.005418
0.054344
0.080047
0.094942
0.103389
0.093242
0.083861
0.050734
0.001587
-0.043663
-0.096097
-0.123914
-0.163139
-0.183438
-0.175682
-0.172382
-0.149745
-0.111405
-0.056842
-0.003519
0.033880
0.070624
0.085137
0.115476
0.129685
0.109084
0.084248
0.046078
-0.000594
-0.049072
-0.114695
-0.145939
-0.181275
-0.188755
-0.191655
-0.185125
-0.158236
-0.112170
-0.066024
-0.013656
0.051110
0.091527
0.119608
0.142134
0.138266
0.124951
0.102917
0.070274
0.029800
-0.020810
-0.084058
-0.137462
-0.172125
-0.176240
-0.187043
-0.186551
-0.165250
-0.125634
-0.078306
-0.034479
0.020547
0.073451
0.111957
0.120783
0.119663
0.125553
0.112015
0.068083
0.030829
-0.018355
-0.071287
-0.122163
-0.158203
-0.182957
-0.186276
-0.173527
-0.165526
-0.137076
-0.094731
-0.038028
0.001039
0.069902
0.117034
0.134998
0.141275
0.137609
0.119243
0.085600
0.035599
-0.014964
-0.074204
-0.118046
-0.155363
-0.174843
-0.195832
-0.191219
-0.174120
-0.137730
-0.101050
-0.049822
0.002923
0.048157
0.079219
0.101248
0.097088
0.090531
0.083475
0.069884
0.043352
-0.008195
-0.058437
-0.109764
-0.152745
-0.172449
-0.193988
-0.206215
-0.183297
-0.147556
-0.097249
-0.053276
-0.013258
0.031303
0.068543
0.090611
0.097422
0.104508
0.086420
0.059106
0.020130
-0.015569
-0.065307
-0.109238
-0.141323
-0.174014
-0.185050
-0.175748
-0.160646
-0.128132
-0.095013
-0.041377
0.002361
0.043299
0.064917
0.088982
0.099422
0.079888
0.062727
0.041039
0.014952
-0.031240
-0.080970
-0.122359
-0.157549
-0.176908
-0.186510
-0.175837
-0.163277
-0.129723
-0.089359
-0.055613
-0.002774
0.037149
0.067928
0.071165
0.081950
0.075999
0.050607
0.023129
-0.005492
-0.054441
-0.097323
-0.137446
-0.168758
-0.181567
-0.183863
-0.169155
-0.154283
-0.117200
-0.080468
-0.039099
0.006004
0.034941
0.064717
0.079421
0.079202
0.065855
0.041220
0.013123
-0.024857
-0.065619
-0.106919
-0.148539
-0.172676
-0.194886
-0.197032
-0.185512
-0.159562
-0.127770
-0.089347
-0.031535
0.027716
0.064965
0.096053
0.113334
0.123659
0.103935
0.074848
0.036026
-0.004920
-0.046951
-0.089656
-0.125528
-0.153202
-0.150567
-0.151966
-0.152071
-0.147294
-0.110126
-0.052458
-0.003795
0.055229
0.093792
0.123786
0.129130
0.132116
0.127496
0.107174
0.075590
0.034148
-0.013470
-0.068486
-0.124644
-0.138716
-0.152351
-0.159464
-0.168716
-0.145686
-0.085062
-0.042493
0.014433
0.072763
0.112364
0.146807
0.163651
0.168814
0.155763
0.130289
0.099026
0.050797
0.002541
-0.040376
-0.089587
-0.126390
-0.158816
-0.168133
-0.182973
-0.161730
-0.111120
-0.059105
-0.013078
0.029917
0.062252
0.100310
0.130214
0.140259
0.128855
0.111448
0.068466
0.009184
-0.044975
-0.091136
-0.125014
-0.167725
-0.184065
-0.193399
-0.196796
-0.183704
-0.148685
-0.106911
-0.063051
-0.006104
0.040143
0.071823
0.106070
0.104895
0.092196
0.076708
0.044357
0.001454
-0.043461
-0.103704
-0.141524
-0.182684
-0.204147
-0.229557
-0.228045
-0.206377
-0.181335
-0.132464
-0.078754
-0.034351
-0.000540
0.038650
0.068287
0.076720
0.073095
0.049810
0.027487
-0.013721
-0.051545
-0.118554
-0.151294
-0.193078
-0.210632
-0.226995
-0.221855
-0.205940
-0.179957
-0.150827
-0.104012
-0.040931
0.002728
0.034883
0.046468
0.065214
0.055529
0.038456
0.016059
-0.011527
-0.062346
-0.109511
-0.154593
-0.181892
-0.202091
-0.202105
-0.197697
-0.175609
-0.149400
-0.130836
-0.082140
-0.037395
0.008403
0.030617
0.048071
0.062314
0.056252
0.033974
-0.009373
-0.053127
-0.076565
-0.127460
-0.159328
-0.192540
-0.211063
-0.217871
-0.216928
-0.195871
-0.162572
-0.133274
-0.094095
-0.046403
-0.000680
0.041973
0.061613
0.076392
0.076783
0.060557
0.037363
0.006232
-0.023567
-0.034841
-0.061412
-0.075884
-0.086308
-0.074281
-0.053261
-0.012501
0.049997
0.111403
0.179669
0.258002
0.327848
0.400279
0.449854
0.485720
0.512205
0.523662
0.520196
0.508567
0.489489
0.474256
0.500971
0.523660
0.527975
0.552444
0.585762
0.656357
0.717066
0.768455
0.800073
0.862189
0.869890
0.883927
0.887714
0.861150
0.811579
0.739785
0.625512
0.502507
0.389763
0.276838
0.168143
0.089598
0.024652
-0.031331
-0.034036
0.003140
0.032860
0.065643
0.111022
0.151707
0.184879
0.220697
0.231425
0.222737
0.205497
0.177242
0.134196
0.076284
0.029062
-0.034555
-0.087269
-0.119782
-0.139164
-0.150956
-0.140846
-0.114076
-0.086031
-0.049947
0.002832
0.054920
0.082674
0.128976
0.149545
0.154392
0.136705
0.122536
0.094729
0.038574
-0.006727
-0.068125
-0.115038
-0.147599
-0.185051
-0.195555
-0.185580
-0.167522
-0.131234
-0.082499
-0.035070
0.018147
0.062059
0.095424
0.126264
0.133730
0.123988
0.107037
0.073989
0.028172
-0.020977
-0.063247
-0.104349
-0.148008
-0.177627
-0.190025
-0.167789
-0.150479
-0.122864
-0.098116
-0.023551
0.031505
0.064395
0.102131
0.130087
0.139779
0.134564
0.110005
0.084280
0.044903
0.006238
-0.040909
-0.091532
-0.133418
-0.154968
-0.165193
-0.170516
-0.138829
-0.104111
-0.059638
-0.026547
0.021871
0.062311
0.097494
0.121223
0.146540
0.146199
0.131314
0.112643
0.075972
0.033403
-0.013132
-0.047252
-0.077989
-0.103542
-0.099944
-0.107344
-0.096445
-0.072720
-0.030485
0.023987
0.073191
0.091426
0.125622
0.152196
0.165544
0.167604
0.157333
0.130876
0.092501
0.051709
0.005053
-0.028415
-0.054283
-0.076002
-0.076347
-0.067765
-0.045371
-0.023815
0.017698
0.072211
0.113079
0.144553
0.180189
0.204796
0.212235
0.201012
0.182753
0.154872
0.109899
0.068361
0.022928
-0.019996
-0.038213
-0.055818
-0.060569
-0.052102
-0.031846
0.024188
0.055918
0.099685
0.154561
0.189381
0.220266
0.238426
0.233448
0.219009
0.196336
0.163483
0.119158
0.071850
0.030201
-0.000302
-0.038441
-0.065270
-0.044333
-0.027537
0.009533
0.041100
0.078709
0.120182
0.164371
0.195002
0.233939
0.261676
0.252696
0.242500
0.210940
0.168073
0.120932
0.071965
0.016679
-0.027811
-0.058673
-0.087450
-0.087103
-0.082744
-0.054518
-0.012125
0.026369
0.077640
0.132685
0.168323
0.193962
0.220652
0.248642
0.242654
0.212439
0.159007
0.127416
0.083031
0.009648
-0.044691
-0.079491
-0.113091
-0.125213
-0.119090
-0.097470
-0.075362
-0.023363
0.017893
0.090897
0.129942
0.156693
0.196980
0.206952
0.187445
0.160036
0.113638
0.062660
0.012804
-0.034603
-0.090521
-0.126310
-0.151657
-0.161705
-0.165859
-0.138247
-0.094953
-0.052183
-0.012513
0.036373
0.088087
0.112923
0.146845
0.141326
0.135544
0.115741
0.086329
0.046383
-0.004970
-0.069448
-0.124131
-0.171752
-0.170389
-0.177848
-0.183756
-0.156571
-0.120758
-0.098285
-0.064113
-0.011226
0.030958
0.068854
0.118023
0.123351
0.116538
0.093700
0.057996
0.025237
-0.022644
-0.066875
-0.113632
-0.144357
-0.174476
-0.193820
-0.177874
-0.156284
-0.122027
-0.084966
-0.031013
0.015564
0.053729
0.073235
0.104924
0.099353
0.100693
0.076188
0.062403
0.013927
-0.032559
-0.082057
-0.126394
-0.152785
-0.172111
-0.179607
-0.175406
-0.156157
-0.134589
-0.097861
-0.035481
0.005245
0.043091
0.090092
0.127371
0.123467
0.109816
0.087285
0.052605
0.019203
-0.026395
-0.072625
-0.110690
-0.145959
-0.150158
-0.158443
-0.154319
-0.138124
-0.116519
-0.073972
-0.018396
0.029576
0.073014
0.103505
0.118513
0.124883
0.110308
0.077503
0.053253
0.015754
-0.036637
-0.083987
-0.130792
-0.160694
-0.164801
-0.160768
-0.148531
-0.128661
-0.091665
-0.057331
-0.009231
0.042653
0.073179
0.094334
0.125241
0.120768
0.108184
0.070635
0.043085
0.005906
-0.040269
-0.082475
-0.127883
-0.174970
-0.195884
-0.182944
-0.141639
-0.126559
-0.088097
-0.047244
0.000640
0.054237
0.088788
0.109916
0.131212
0.137703
0.127778
0.102499
0.069405
0.025941
-0.043454
-0.093113
-0.144852
-0.186275
-0.198187
-0.181096
-0.170464
-0.146667
-0.103574
-0.046298
-0.006432
0.045718
0.094936
0.103556
0.142206
0.161019
0.142230
0.126692
0.079828
0.017997
-0.038770
-0.085282
-0.115173
-0.161481
-0.178402
-0.189241
-0.194776
-0.172372
-0.135838
-0.095904
-0.041328
0.012149
0.077517
0.112484
0.140036
0.146383
0.142720
0.114827
0.074254
0.021305
-0.034409
-0.087190
-0.135401
-0.165863
-0.183855
-0.185105
-0.185440
-0.166425
-0.144306
-0.103965
-0.054998
-0.001572
0.039714
0.091756
0.110080
0.120244
0.113214
0.096003
0.063333
0.024751
-0.024970
-0.070029
-0.123144
-0.159614
-0.199298
-0.207179
-0.203943
-0.167577
-0.136448
-0.096059
-0.047363
-0.009632
0.045541
0.072078
0.089809
0.094074
0.084490
0.078342
0.059427
0.000392
-0.036129
-0.075004
-0.101314
-0.132222
-0.156832
-0.180706
-0.185427
-0.179724
-0.136012
-0.096516
-0.064477
-0.009400
0.042039
0.069146
0.101532
0.113947
0.106976
0.096616
0.061980
0.013771
-0.031060
-0.076540
-0.121426
-0.160536
-0.186161
-0.190074
-0.183909
-0.155765
-0.131815
-0.072627
-0.041824
-0.001589
0.032063
0.072054
0.094483
0.108516
0.093236
0.076447
0.042812
0.005229
-0.039133
-0.087465
-0.131748
-0.151879
-0.171898
-0.177278
-0.176260
-0.157778
-0.125734
-0.098065
-0.043378
-0.009969
0.038167
0.065230
0.081074
0.085097
0.076972
0.053023
0.056765
0.020958
-0.026507
-0.064813
-0.101067
-0.141866
-0.163505
-0.156972
-0.138809
-0.113577
-0.076211
-0.029082
0.007237
0.047069
0.094269
0.125996
0.146052
0.137347
0.117475
0.091939
0.054976
0.011427
-0.025205
-0.066792
-0.098329
-0.113864
-0.145282
-0.160800
-0.155453
-0.127363
-0.071732
-0.028546
0.009733
0.060608
0.099741
0.124507
0.150613
0.164319
0.142050
0.105532
0.078801
0.039553
-0.005464
-0.050105
-0.094196
-0.122614
-0.136518
-0.137917
-0.114567
-0.092653
-0.071353
-0.031341
0.019516
0.062746
0.101933
0.123776
0.131141
0.150867
0.133266
0.096899
0.048696
0.015121
-0.027817
-0.077283
-0.129384
-0.165927
-0.188963
-0.185365
-0.184644
-0.164459
-0.124105
-0.088597
-0.034771
0.014386
0.057700
0.094841
0.112759
0.119940
0.118011
0.090491
0.061029
0.019360
-0.043838
-0.096735
-0.144799
-0.182410
-0.221746
-0.236947
-0.217386
-0.196440
-0.158325
-0.124213
-0.076061
-0.028410
0.010373
0.058948
0.091246
0.109265
0.110285
0.082250
0.038611
-0.002123
-0.059636
-0.113883
-0.155805
-0.189599
-0.221418
-0.227551
-0.214937
-0.200668
-0.170981
-0.131615
-0.090477
-0.043243
0.021101
0.051852
0.074667
0.082139
0.080261
0.069737
0.031659
-0.005054
-0.054654
-0.097252
-0.156801
-0.186052
-0.209536
-0.222986
-0.219560
-0.203798
-0.160547
-0.130799
-0.082688
-0.029390
0.016533
0.054157
0.072221
0.080763
0.077069
0.057682
0.031685
-0.006890
-0.051057
-0.105040
-0.153656
-0.179106
-0.203915
-0.213737
-0.205511
-0.193472
-0.168048
-0.123948
-0.073231
-0.035653
0.012049
0.024656
0.036600
0.048851
0.043023
0.030451
0.013375
-0.021427
-0.058763
-0.101326
-0.132107
-0.145602
-0.165361
-0.150250
-0.130675
-0.096577
-0.052000
-0.010111
0.054376
0.101424
0.164911
0.218188
0.260213
0.282232
0.293840
0.295973
0.297595
0.292466
0.284098
0.289968
0.269432
0.303770
0.329616
0.359305
0.385860
0.426898
0.502659
0.589937
0.676398
0.746131
0.826843
0.885399
0.939778
0.945779
0.920506
0.891812
0.823253
0.768882
0.717173
0.641994
0.561598
0.480468
0.394373
0.314080
0.263349
0.240062
0.213001
0.211439
0.214182
0.229371
0.260825
0.276599
0.286542
0.289702
0.255359
0.222385
0.174035
0.106426
0.052461
-0.000012
-0.057302
-0.089675
-0.119586
-0.141139
-0.121922
-0.091353
-0.056402
-0.014275
0.019778
0.056777
0.120213
0.162322
0.188041
0.184027
0.164635
0.134200
0.089681
0.042702
-0.009378
-0.061365
-0.121167
-0.149074
-0.170387
-0.180730
-0.171534
-0.142337
-0.105122
-0.056699
-0.018424
0.040190
0.083628
0.121800
0.144045
0.140579
0.123858
0.107267
0.070599
0.025166
-0.024834
-0.071347
-0.117038
-0.142015
-0.181297
-0.193328
-0.181810
-0.161599
-0.129071
-0.081107
-0.039035
0.014831
0.084644
0.115570
0.134478
0.139477
0.130542
0.128048
0.091430
0.057342
0.003434
-0.044230
-0.091035
-0.142096
-0.166387
-0.172223
-0.169569
-0.148648
-0.113650
-0.066416
-0.014793
0.032651
0.084578
0.116938
0.147405
0.156188
0.135825
0.146780
0.122611
0.071226
0.033035
-0.017596
-0.069291
-0.101007
-0.125472
-0.139280
-0.144408
-0.113151
-0.083053
-0.036713
0.011992
0.057419
0.108633
0.151963
0.177230
0.178163
0.164897
0.154739
0.127429
0.081271
0.047376
0.008618
-0.035402
-0.066407
-0.083934
-0.093344
-0.095515
-0.077435
-0.034735
0.001817
0.048032
0.087267
0.134149
0.165043
0.183215
0.196509
0.201499
0.200479
0.163019
0.131693
0.091977
0.051045
-0.003290
-0.024276
-0.053261
-0.065149
-0.054975
-0.042243
-0.017386
0.027010
0.086299
0.138709
0.184144
0.198110
0.217430
0.236060
0.228141
0.213769
0.192236
0.147776
0.105093
0.059362
0.016542
-0.005794
-0.028915
-0.032770
-0.030467
-0.006353
0.027034
0.062309
0.099568
0.135809
0.188280
0.220361
0.234059
0.223731
0.247126
0.230105
0.178988
0.127221
0.087041
0.050878
0.000847
-0.030297
-0.025957
-0.022817
-0.018813
-0.008860
0.016594
0.055415
0.102815
0.142248
0.168897
0.202318
0.220396
0.237167
0.225388
0.189783
0.139873
0.099539
0.063386
0.020321
-0.012605
-0.043398
-0.069711
-0.085220
-0.077469
-0.058132
-0.011336
0.025049
0.065927
0.105320
0.141572
0.181346
0.201616
0.200428
0.177311
0.157538
0.116112
0.066202
0.021381
-0.030122
-0.079926
-0.105832
-0.130650
-0.139479
-0.122389
-0.092670
-0.069517
-0.031380
0.028823
0.069116
0.109708
0.137253
0.164493
0.154393
0.147833
0.127654
0.088203
0.039121
-0.023593
-0.074804
-0.123243
-0.156649
-0.171327
-0.185602
-0.166657
-0.155325
-0.119068
-0.067291
-0.010461
0.041497
0.091972
0.119619
0.138691
0.144754
0.130249
0.102110
0.064745
0.003553
-0.046202
-0.108875
-0.141732
-0.171367
-0.185580
-0.198409
-0.192181
-0.166734
-0.134683
-0.103878
-0.053078
0.009634
0.084245
0.123598
0.121626
0.146046
0.134965
0.122324
0.065414
0.025115
-0.019180
-0.075311
-0.164118
-0.159052
-0.185156
-0.196970
-0.186346
-0.160737
-0.131172
-0.094750
-0.051803
0.007353
0.048938
0.088574
0.104139
0.139820
0.133320
0.109934
0.070216
0.034991
-0.020652
-0.075177
-0.097657
-0.131206
-0.169758
-0.183204
-0.177198
-0.166649
-0.128570
-0.085709
-0.035075
0.009879
0.061791
0.097927
0.113225
0.117333
0.111211
0.097926
0.079105
0.035595
-0.002003
-0.052511
-0.094200
-0.125054
-0.154008
-0.161266
-0.162613
-0.145571
-0.124130
-0.087653
-0.042205
0.004775
0.045931
0.085249
0.106479
0.127705
0.128366
0.106561
0.069101
0.024473
-0.022850
-0.072422
-0.098760
-0.126880
-0.153957
-0.162992
-0.156058
-0.136504
-0.113201
-0.072509
-0.031137
0.006031
0.057854
0.095519
0.112952
0.120479
0.134610
0.106511
0.069587
0.027912
-0.020920
-0.066404
-0.105919
-0.137023
-0.149428
-0.159732
-0.162166
-0.143484
-0.110023
-0.060502
-0.017048
0.020777
0.058267
0.089498
0.104827
0.104232
0.096685
0.079972
0.054509
0.040787
0.008601
-0.052173
-0.086172
-0.121427
-0.153630
-0.157028
-0.154091
-0.126471
-0.095118
-0.061942
-0.016567
0.029375
0.068147
0.102400
0.117194
0.112887
0.099037
0.080961
0.051536
0.002507
-0.026726
-0.069930
-0.120275
-0.148383
-0.170777
-0.173902
-0.167148
-0.139442
-0.106036
-0.068151
-0.027385
0.028454
0.059612
0.090346
0.106012
0.113378
0.099662
0.073679
0.037656
-0.005910
-0.046870
-0.089826
-0.136909
-0.175222
-0.172075
-0.173988
-0.175529
-0.154095
-0.118598
-0.080289
-0.033677
-0.001854
0.060925
0.106362
0.129712
0.144244
0.128895
0.075280
0.025653
-0.007630
-0.055109
-0.123354
-0.150079
-0.195083
-0.199392
-0.189422
-0.176317
-0.167183
-0.123163
-0.074387
-0.018675
0.039820
0.067545
0.115894
0.135765
0.133851
0.125034
0.096222
0.052062
0.003580
-0.042404
-0.092416
-0.142549
-0.183663
-0.205287
-0.209920
-0.202987
-0.184436
-0.140753
-0.090039
-0.037505
0.019684
0.059716
0.103115
0.117724
0.131637
0.121208
0.089315
0.057847
0.013203
-0.033977
-0.093427
-0.136044
-0.170007
-0.198354
-0.208833
-0.198747
-0.177102
-0.145591
-0.103674
-0.053236
-0.002405
0.051575
0.093943
0.112179
0.130647
0.122900
0.095708
0.063556
0.009472
-0.042605
-0.095072
-0.142749
-0.180093
-0.205659
-0.213124
-0.200908
-0.174433
-0.149451
-0.106236
-0.057699
-0.019763
0.030223
0.086924
0.106519
0.104532
0.086748
0.085990
0.058563
0.009285
-0.027765
-0.077562
-0.127615
-0.173921
-0.211512
-0.200143
-0.197255
-0.190332
-0.152406
-0.105352
-0.071822
0.011595
0.052267
0.083177
0.097919
0.108579
0.096720
0.075650
0.051439
0.031325
-0.017503
-0.053466
-0.110780
-0.149962
-0.171852
-0.183225
-0.189901
-0.173141
-0.123571
-0.081767
-0.053083
-0.012881
0.035191
0.081607
0.105300
0.107371
0.102555
0.080009
0.062927
0.027768
-0.027182
-0.052734
-0.089007
-0.123740
-0.145140
-0.151712
-0.138073
-0.128778
-0.088157
-0.054470
-0.009747
0.034565
0.065984
0.105982
0.121459
0.122989
0.108480
0.098222
0.076775
0.032654
-0.008818
-0.055630
-0.079185
-0.126104
-0.153080
-0.160902
-0.160477
-0.136077
-0.085884
-0.035499
0.011567
0.048181
0.095566
0.130316
0.158991
0.154273
0.161111
0.137123
0.103015
0.054487
0.010405
-0.024542
-0.060099
-0.100558
-0.121878
-0.131845
-0.119190
-0.101018
-0.061109
-0.033255
0.012806
0.050083
0.092684
0.112948
0.123807
0.120909
0.112755
0.083967
0.048027
0.010456
-0.037250
-0.088628
-0.125756
-0.165091
-0.182134
-0.186663
-0.173403
-0.148056
-0.109370
-0.066313
-0.021590
0.025741
0.071420
0.096931
0.116435
0.112199
0.093706
0.070010
0.024444
-0.002325
-0.053974
-0.110793
-0.146006
-0.190404
-0.213874
-0.211091
-0.194603
-0.175323
-0.129151
-0.092145
-0.053980
-0.009388
0.033604
0.075656
0.102804
0.106539
0.088683
0.063356
0.041218
-0.016687
-0.064195
-0.110320
-0.149336
-0.197890
-0.222033
-0.236679
-0.223986
-0.190072
-0.153900
-0.115037
-0.061343
-0.016679
0.031491
0.075442
0.097905
0.110435
0.101897
0.077064
0.033757
-0.012719
-0.061531
-0.117040
-0.158348
-0.197891
-0.217142
-0.225573
-0.212399
-0.183839
-0.150548
-0.106204
-0.054288
-0.015041
0.026957
0.074541
0.085013
0.097479
0.088353
0.067198
0.034897
-0.013389
-0.056335
-0.086232
-0.138392
-0.180749
-0.203670
-0.212734
-0.228421
-0.216549
-0.175414
-0.132604
-0.082814
-0.036760
-0.000853
0.028937
0.061300
0.068374
0.065097
0.042101
0.039446
0.005432
-0.030254
-0.062894
-0.097682
-0.122698
-0.123757
-0.135037
-0.127487
-0.088786
-0.048083
0.005243
0.070700
0.138701
0.214568
0.264760
0.300122
0.351060
0.369375
0.388178
0.394736
0.403136
0.387203
0.371795
0.377276
0.379416
0.387742
0.401641
0.456365
0.518854
0.592037
0.658788
0.728882
0.796111
0.852574
0.896784
0.903659
0.920243
0.894841
0.843930
0.786208
0.731262
0.661381
0.553894
0.448047
0.352570
0.278302
0.218322
0.168376
0.138602
0.130890
0.137627
0.170631
0.207807
0.239441
0.250552
0.252563
0.233779
0.213976
0.192114
0.168051
0.100469
0.045176
-0.004751
-0.033030
-0.074397
-0.104282
-0.113544
-0.097380
-0.077792
-0.053306
-0.019821
0.038441
0.083128
0.103246
0.123457
0.139822
0.146797
0.137951
0.107027
0.074101
0.032182
-0.012144
-0.057971
-0.093035
-0.121473
-0.141062
-0.151434
-0.147184
-0.096813
-0.067162
-0.032368
0.018951
0.067793
0.102836
0.129500
0.144783
0.142594
0.132195
0.095012
0.064804
0.014332
-0.033745
-0.074472
-0.108881
-0.141833
-0.152521
-0.163014
-0.154982
-0.127033
-0.083054
-0.041981
0.007609
0.053512
0.102213
0.137167
0.157992
0.165432
0.148330
0.129426
0.089816
0.040568
-0.019481
-0.073627
-0.097395
-0.126944
-0.169731
-0.142075
-0.137373
-0.119992
-0.095963
-0.037939
0.008916
0.067572
0.114093
0.145293
0.174534
0.172579
0.171301
0.140172
0.104519
0.050025
0.021842
-0.017494
-0.073777
-0.117475
-0.138118
-0.144674
-0.130270
-0.101410
-0.073352
-0.030054
0.022515
0.060717
0.114998
0.159144
0.187296
0.207604
0.190219
0.183090
0.155581
0.109364
0.064989
0.028612
-0.023039
-0.075881
-0.096374
-0.097741
-0.096552
-0.074332
-0.041542
0.012600
0.074339
0.113772
0.151981
0.193987
0.208252
0.214353
0.211642
0.210301
0.185620
0.149418
0.084250
0.049483
0.013956
-0.016715
-0.034996
-0.042835
-0.040450
-0.032261
-0.009644
0.031319
0.074776
0.132932
0.181082
0.209142
0.242531
0.249284
0.241864
0.236458
0.215587
0.170676
0.118755
0.073234
0.050322
0.009097
-0.023723
-0.035127
-0.031272
-0.014454
0.020298
0.069436
0.111482
0.150155
0.190358
0.211465
0.220110
0.253354
0.252731
0.229445
0.201144
0.160811
0.123111
0.067930
0.021349
-0.007071
-0.033949
-0.041138
-0.023848
-0.009221
0.023024
0.057539
0.099774
0.154346
0.174533
0.200728
0.231470
0.225049
0.217418
0.184627
0.149843
0.111776
0.072122
0.028783
-0.006265
-0.028656
-0.065698
-0.057049
-0.033712
-0.014680
0.009154
0.051800
0.085892
0.116479
0.144895
0.174681
0.208090
0.200906
0.198809
0.178180
0.123418
0.081410
0.038797
-0.010811
-0.055770
-0.095185
-0.113465
-0.120869
-0.108244
-0.075543
-0.048931
-0.018544
0.015836
0.058814
0.103139
0.144496
0.172443
0.169057
0.167456
0.128609
0.082334
0.034981
-0.019651
-0.060377
-0.088922
-0.123316
-0.140480
-0.150073
-0.135623
-0.123510
-0.096559
-0.051392
0.001772
0.059133
0.103337
0.142770
0.160512
0.145774
0.137837
0.111300
0.074957
0.022167
-0.016935
-0.068905
-0.131277
-0.163658
-0.178277
-0.190934
-0.182755
-0.153284
-0.122881
-0.081022
-0.029686
0.031800
0.076838
0.106549
0.139630
0.145056
0.147193
0.125039
0.096684
0.043361
-0.001998
-0.062003
-0.106247
-0.139422
-0.166718
-0.159708
-0.153961
-0.140410
-0.117489
-0.070975
-0.024514
0.042566
0.080656
0.115132
0.143498
0.159152
0.151539
0.119832
0.082664
0.042397
-0.004518
-0.047214
-0.087091
-0.127254
-0.158605
-0.175501
-0.174814
-0.165111
-0.129147
-0.074784
-0.021278
0.031793
0.069224
0.105070
0.129084
0.143326
0.140581
0.119886
0.101773
0.061880
0.017691
-0.033679
-0.080055
-0.123008
-0.159166
-0.164449
-0.150092
-0.131748
-0.097759
-0.047967
0.001354
0.041317
0.078210
0.120175
0.157585
0.172509
0.167508
0.130853
0.101170
0.058315
0.018494
-0.034763
-0.082052
-0.118505
-0.143967
-0.148491
-0.146463
-0.128464
-0.101315
-0.070549
-0.015387
0.035531
0.077024
0.113836
0.142332
0.140562
0.142625
0.127713
0.099458
0.057831
0.002140
-0.047745
-0.083276
-0.099011
-0.105670
-0.130263
-0.147047
-0.124086
-0.080681
-0.040255
-0.006778
0.039378
0.084296
0.116742
0.133704
0.133129
0.126731
0.110821
0.082012
0.028225
-0.016801
-0.048485
-0.091206
-0.120316
-0.149165
-0.154984
-0.137857
-0.094877
-0.067441
-0.023793
0.007167
0.038769
0.075422
0.098360
0.130239
0.124634
0.119532
0.079944
0.063283
0.033540
-0.016041
-0.053956
-0.093716
-0.117319
-0.142983
-0.151807
-0.139231
-0.114244
-0.081840
-0.034235
-0.000251
0.048673
0.086159
0.113038
0.122126
0.132637
0.129193
0.100506
0.050359
0.006030
-0.034539
-0.068749
-0.102283
-0.140451
-0.161539
-0.167815
-0.150961
-0.122188
-0.094863
-0.051173
0.000100
0.048830
0.090370
0.111950
0.136544
0.138140
0.116258
0.082090
0.046751
0.010658
-0.030838
-0.077591
-0.117566
-0.155868
-0.171139
-0.179474
-0.157582
-0.147541
-0.099984
-0.049559
-0.007163
0.038617
0.086125
0.100139
0.131706
0.142155
0.139931
0.114989
0.073601
0.019442
-0.036041
-0.072018
-0.116007
-0.161834
-0.191496
-0.178190
-0.166205
-0.161902
-0.125440
-0.086316
-0.038272
0.011433
0.065904
0.118413
0.183702
0.162674
0.143809
0.119609
0.061904
0.016567
-0.030602
-0.069776
-0.124388
-0.166160
-0.200872
-0.198567
-0.185863
-0.157658
-0.128726
-0.080575
-0.024185
0.023819
0.077564
0.108681
0.147582
0.155019
0.135068
0.117354
0.069297
0.037536
-0.015405
-0.067409
-0.116052
-0.158683
-0.189937
-0.193951
-0.171310
-0.150655
-0.124202
-0.081771
-0.030742
0.017586
0.064189
0.097588
0.124747
0.143827
0.133291
0.117254
0.078963
0.035144
-0.016827
-0.075161
-0.102249
-0.139669
-0.171275
-0.183285
-0.173088
-0.164922
-0.125514
-0.069347
-0.033384
0.010061
0.046976
0.090671
0.118818
0.128261
0.124621
0.122771
0.076340
0.038816
-0.005971
-0.064124
-0.107687
-0.135404
-0.166141
-0.169240
-0.163338
-0.164872
-0.121457
-0.070947
-0.031176
0.004665
0.044493
0.086467
0.123700
0.135256
0.110549
0.092217
0.058611
0.020713
-0.013703
-0.054008
-0.111428
-0.137868
-0.161874
-0.167475
-0.155830
-0.127602
-0.092073
-0.071202
-0.036348
-0.006581
0.078066
0.114359
0.138072
0.132929
0.122372
0.102182
0.069796
0.032798
-0.013092
-0.043198
-0.070726
-0.093529
-0.112781
-0.123136
-0.118809
-0.096733
-0.058941
-0.026492
0.013260
0.059026
0.093812
0.139079
0.147736
0.152965
0.148380
0.127122
0.093243
0.056569
0.012519
-0.029705
-0.080051
-0.105510
-0.130997
-0.139379
-0.126508
-0.103579
-0.057525
-0.006547
0.042646
0.084929
0.129446
0.156553
0.184756
0.191498
0.176333
0.147247
0.116320
0.078042
0.031228
-0.006946
-0.054903
-0.094107
-0.119950
-0.128830
-0.115596
-0.093550
-0.064675
-0.024403
0.028013
0.066047
0.098185
0.124309
0.161754
0.170214
0.139811
0.117141
0.088815
0.039002
-0.016641
-0.068380
-0.101601
-0.133799
-0.165144
-0.164856
-0.162116
-0.142439
-0.103776
-0.064771
-0.012669
0.040421
0.079305
0.116099
0.138553
0.142505
0.115057
0.094050
0.057688
0.015707
-0.041894
-0.092446
-0.136341
-0.169312
-0.186380
-0.195188
-0.184737
-0.173009
-0.147819
-0.094504
-0.034298
0.023100
0.066392
0.103830
0.126414
0.130386
0.118909
0.105044
0.070282
0.025910
-0.021246
-0.077301
-0.131151
-0.162120
-0.187049
-0.195653
-0.193930
-0.172942
-0.140517
-0.097633
-0.038692
0.006950
0.051398
0.090071
0.116556
0.129334
0.120753
0.106322
0.068455
0.016938
-0.038671
-0.077045
-0.126735
-0.156268
-0.179795
-0.189766
-0.193819
-0.177545
-0.150351
-0.104072
-0.058880
-0.016568
0.036658
0.069397
0.109153
0.136747
0.116938
0.105970
0.063196
0.033038
-0.020763
-0.083978
-0.131373
-0.162516
-0.191971
-0.196331
-0.198362
-0.181247
-0.151457
-0.105510
-0.071558
-0.032230
0.021426
0.059099
0.108441
0.120122
0.128387
0.120943
0.091767
0.060314
0.020080
-0.012550
-0.034896
-0.064342
-0.066550
-0.067565
-0.051205
-0.036304
0.009891
0.072549
0.146495
0.228418
0.293158
0.357654
0.401710
0.462346
0.487350
0.489224
0.500172
0.514418
0.485352
0.463612
0.456157
0.464173
0.483963
0.517407
0.548043
0.593832
0.668077
0.703197
0.730996
0.771297
0.822870
0.845582
0.849743
0.832029
0.794696
0.752111
0.657737
0.539412
0.427060
0.334403
0.263038
0.201165
0.132786
0.054443
0.033782
0.032452
0.051068
0.080249
0.123982
0.159225
0.180145
0.208335
0.217248
0.225471
0.206073
0.187360
0.137560
0.113916
0.060448
0.005414
-0.034475
-0.069417
-0.089279
-0.102148
-0.079936
-0.064032
-0.041889
0.002271
0.036352
0.080110
0.118164
0.134410
0.150212
0.144015
0.130758
0.100627
0.104419
0.066347
0.020499
-0.020482
-0.078657
-0.115141
-0.119878
-0.132226
-0.122850
-0.100239
-0.066708
-0.027510
0.019731
0.074115
0.110979
0.143532
0.160893
0.165272
0.149634
0.127845
0.100328
0.052786
0.007416
-0.044578
-0.090834
-0.115715
-0.132854
-0.141486
-0.121147
-0.096008
-0.062174
-0.022659
0.035147
0.089273
0.117420
0.157446
0.185856
0.182419
0.169946
0.134179
0.102905
0.053823
0.000475
-0.046823
-0.073704
-0.095784
-0.116403
-0.130585
-0.119757
-0.098019
-0.047825
-0.007288
0.038632
0.082283
0.129274
0.172948
0.188464
0.209523
0.203525
0.172796
0.139440
0.085458
0.033482
-0.011875
-0.058691
-0.095017
-0.121154
-0.134602
-0.114922
-0.071543
-0.024720
0.024733
0.077227
0.128733
0.166089
0.200415
0.224100
0.242792
0.234131
0.210230
0.178579
0.136866
0.096161
0.048776
-0.003872
-0.046515
-0.068186
-0.081768
-0.075230
-0.049815
-0.031750
0.047962
0.098581
0.141808
0.187247
0.247081
0.268886
0.275226
0.260702
0.236144
0.195678
0.169607
0.128728
0.082337
0.020448
-0.015420
-0.046290
-0.056557
-0.036800
-0.018339
0.015130
0.060046
0.114796
0.161293
0.217017
0.259414
0.283095
0.298260
0.291229
0.279521
0.238990
0.203946
0.163602
0.112997
0.059946
0.006265
-0.023943
-0.027103
-0.005403
0.011190
0.022677
0.060490
0.114296
0.164465
0.208144
0.245812
0.269438
0.285963
0.280317
0.255810
0.234728
0.200571
0.141349
0.086613
0.054739
0.011815
-0.007378
-0.033643
-0.018837
-0.014682
0.013807
0.057225
0.107714
0.146786
0.178092
0.219739
0.248901
0.257885
0.246858
0.233116
0.212333
0.174277
0.117585
0.059240
0.015677
-0.023399
-0.050607
-0.056792
-0.040231
-0.012204
0.018281
0.038598
0.084235
0.128658
0.141489
0.172782
0.206502
0.218437
0.206401
0.172182
0.138385
0.080091
0.055384
0.020849
-0.014686
-0.040638
-0.072908
-0.089612
-0.073807
-0.056905
-0.019360
0.015725
0.061942
0.104703
0.142573
0.158447
0.168034
0.172408
0.159419
0.139637
0.122491
0.070012
0.014928
-0.027808
-0.069829
-0.098087
-0.113529
-0.130964
-0.119590
-0.104177
-0.059052
-0.019901
0.021976
0.061798
0.096502
0.126462
0.140875
0.154897
0.141683
0.103918
0.062351
0.024590
-0.017508
-0.052305
-0.088549
-0.128660
-0.149623
-0.170125
-0.145009
-0.117660
-0.076509
-0.041000
0.011101
0.063469
0.108857
0.134660
0.151539
0.157218
0.142159
0.114118
0.077581
0.038515
-0.015338
-0.060101
-0.105248
-0.126807
-0.152924
-0.161517
-0.144478
-0.118574
-0.075146
-0.027068
0.016981
0.059882
0.117485
0.149392
0.170184
0.169497
0.156141
0.126122
0.100017
0.052316
0.007243
-0.045141
-0.109478
-0.143014
-0.167320
-0.173152
-0.165783
-0.139655
-0.112742
-0.025654
0.017749
0.056547
0.111928
0.172059
0.173439
0.171829
0.167270
0.163654
0.114112
0.053683
0.006293
-0.044817
-0.086864
-0.129487
-0.154178
-0.170554
-0.157913
-0.130349
-0.100639
-0.049703
0.002043
0.063534
0.111007
0.138858
0.174521
0.193758
0.196757
0.165879
0.122979
0.072502
0.018459
-0.029461
-0.088265
-0.136088
-0.160952
-0.166613
-0.148710
-0.122782
-0.093434
-0.047642
0.000559
0.053783
0.090674
0.129431
0.159408
0.159802
0.162292
0.150661
0.119555
0.083854
0.040591
-0.023353
-0.074812
-0.111967
-0.133318
-0.147482
-0.145476
-0.126481
-0.086877
-0.041673
-0.005919
0.029105
0.078535
0.124278
0.146633
0.156186
0.154369
0.142302
0.103945
0.054181
0.019610
-0.019654
-0.068506
-0.100619
-0.129986
-0.154904
-0.151217
-0.128805
-0.099510
-0.058022
-0.015678
0.029534
0.062222
0.102121
0.131863
0.144209
0.146423
0.134503
0.091920
0.050677
0.007703
-0.047235
-0.100867
-0.108963
-0.114473
-0.146699
-0.146736
-0.128769
-0.096357
-0.038329
-0.008231
0.024454
0.057993
0.105898
0.120781
0.135856
0.149063
0.112646
0.080065
0.037576
-0.002866
-0.040707
-0.075319
-0.104291
-0.128532
-0.138466
-0.144648
-0.120749
-0.082956
-0.030577
-0.001586
0.031277
0.065555
0.100749
0.112788
0.135375
0.124665
0.093158
0.063687
0.030785
-0.008701
-0.070612
-0.118991
-0.145343
-0.154051
-0.165221
-0.164956
-0.131127
-0.071352
-0.021759
0.019493
0.064102
0.092358
0.110580
0.114701
0.113233
0.108733
0.087494
0.062038
0.031676
-0.014390
-0.070567
-0.123709
-0.156744
-0.162198
-0.165832
-0.147035
-0.124821
-0.096439
-0.046244
-0.011643
0.043346
0.078165
0.110886
0.127951
0.139277
0.127582
0.113854
0.076701
0.030509
-0.020178
-0.072753
-0.110879
-0.148163
-0.184942
-0.177183
-0.171486
-0.145656
-0.102499
-0.059067
-0.009879
0.042815
0.076307
0.107138
0.135722
0.140046
0.128182
0.107007
0.081548
0.024469
-0.024199
-0.081303
-0.119877
-0.156236
-0.178103
-0.184017
-0.184202
-0.154977
-0.113332
-0.059274
-0.001101
0.046720
0.085737
0.118435
0.143469
0.147764
0.138000
0.112261
0.077820
0.036556
-0.008676
-0.058519
-0.105169
-0.149812
-0.182378
-0.194379
-0.182744
-0.155561
-0.114164
-0.071238
-0.025155
0.027182
0.080185
0.133554
0.154337
0.163675
0.148003
0.122444
0.089815
0.050499
0.008562
-0.035650
-0.070699
-0.109373
-0.147126
-0.159623
-0.147007
-0.117453
-0.083037
-0.051903
-0.003793
0.056538
0.104042
0.122602
0.159068
0.168598
0.160320
0.143752
0.106181
0.084653
0.038422
-0.019993
-0.074935
-0.119103
-0.109818
-0.123867
-0.133554
-0.118207
-0.086547
-0.035749
0.022087
0.065302
0.097730
0.131643
0.164541
0.173360
0.167659
0.137575
0.121157
0.084624
0.043744
-0.004023
-0.043774
-0.080307
-0.107290
-0.116587
-0.108248
-0.093539
-0.061269
-0.026304
0.005296
0.055761
0.087868
0.118573
0.132083
0.133429
0.142577
0.107687
0.072880
0.032445
-0.011081
-0.056657
-0.100523
-0.136334
-0.145727
-0.147412
-0.122149
-0.109179
-0.081106
-0.048415
-0.004196
0.047398
0.072744
0.094578
0.114854
0.113134
0.098712
0.062408
0.038806
0.011256
-0.028589
-0.078701
-0.119095
-0.143679
-0.156600
-0.169340
-0.167384
-0.138109
-0.113004
-0.071506
-0.025985
0.014258
0.047717
0.084990
0.100812
0.103996
0.085402
0.068059
0.032642
-0.000008
-0.043945
-0.089541
-0.124768
-0.167397
-0.190431
-0.209456
-0.210958
-0.154170
-0.117080
-0.080739
-0.035244
0.014271
0.050995
0.082416
0.111624
0.116675
0.092257
0.064387
0.023197
-0.005609
-0.053427
-0.115027
-0.165336
-0.189010
-0.191785
-0.190427
-0.184309
-0.169660
-0.125065
-0.082628
-0.036243
0.012960
0.056705
0.088389
0.122152
0.132402
0.117590
0.080614
0.051816
0.001653
-0.042312
-0.098552
-0.137967
-0.169532
-0.203037
-0.208407
-0.205032
-0.182760
-0.153059
-0.116022
-0.067788
-0.022514
0.024759
0.064911
0.100437
0.110790
0.115272
0.105416
0.075468
0.045429
0.019404
-0.022376
-0.060874
-0.090396
-0.112822
-0.109331
-0.088472
-0.049434
-0.017637
0.048279
0.122924
0.188045
0.265136
0.337395
0.386937
0.420699
0.455198
0.458469
0.449013
0.439287
0.430603
0.406193
0.388235
0.388383
0.401985
0.428188
0.445499
0.507192
0.570432
0.648453
0.714253
0.764995
0.818967
0.868854
0.877235
0.873803
0.850125
0.808983
0.734410
0.615258
0.502094
0.391631
0.285655
0.212972
0.136664
0.071560
0.035112
0.030659
0.048272
0.060707
0.074583
0.113796
0.147564
0.162009
0.184571
0.189567
0.186629
0.170888
0.128172
0.088887
0.061510
0.022830
-0.026813
-0.061288
-0.082386
-0.095682
-0.108402
-0.087845
-0.073754
-0.023662
0.024901
0.082377
0.123277
0.135818
0.147958
0.145787
0.130283
0.111105
0.065174
0.054282
0.020749
-0.021967
-0.065500
-0.084344
-0.106065
-0.123692
-0.124221
-0.103558
-0.072896
-0.034198
0.005364
0.051672
0.080723
0.109075
0.140268
0.139899
0.136336
0.112603
0.073762
0.047450
-0.004809
-0.056428
-0.094575
-0.123968
-0.134291
-0.134540
-0.128054
-0.104805
-0.079060
-0.037162
0.019667
0.068661
0.099819
0.134369
0.154767
0.161118
0.166201
0.136986
0.081048
0.041622
-0.008393
-0.053907
-0.088469
-0.107359
-0.123796
-0.136620
-0.128819
-0.110692
-0.078824
-0.025557
0.031157
0.084824
0.141558
0.173795
0.193675
0.196150
0.177172
0.146765
0.118487
0.073757
0.016471
-0.024292
-0.057367
-0.094070
-0.111705
-0.122965
-0.113233
-0.080842
-0.038460
0.008564
0.064248
0.114420
0.166708
0.194798
0.221277
0.234933
0.234132
0.212410
0.165234
0.118132
0.059525
0.015255
-0.030046
-0.070059
-0.080375
-0.080508
-0.073355
-0.057168
-0.017966
0.035037
0.072325
0.141122
0.191885
0.225263
0.243907
0.247914
0.257779
0.225620
0.212438
0.171504
0.099046
0.056513
0.006031
-0.023155
-0.043588
-0.046825
-0.036029
-0.019983
0.024087
0.049540
0.096329
0.149746
0.210320
0.246305
0.271030
0.282118
0.280043
0.251614
0.225815
0.169488
0.131671
0.082611
0.026172
-0.008426
-0.030600
-0.039996
-0.043097
-0.022320
0.016594
0.050677
0.096457
0.144237
0.192079
0.231680
0.266770
0.277850
0.279299
0.255431
0.224868
0.188682
0.130947
0.078732
0.023736
-0.016704
-0.038685
-0.021516
-0.027450
-0.015673
0.016491
0.038053
0.085363
0.138076
0.168737
0.217826
0.244991
0.255844
0.257735
0.227638
0.201719
0.166671
0.101986
0.054430
0.008408
-0.021317
-0.054188
-0.067788
-0.064967
-0.045232
-0.006706
0.026196
0.068331
0.109182
0.155233
0.187852
0.195256
0.197132
0.189625
0.165022
0.146168
0.113751
0.073590
0.008794
-0.037828
-0.065853
-0.084313
-0.094745
-0.097485
-0.074956
-0.046974
-0.009824
0.025884
0.063224
0.105682
0.129716
0.152669
0.143374
0.131188
0.107050
0.110607
0.064691
0.019833
-0.034605
-0.070714
-0.094256
-0.106585
-0.120842
-0.124679
-0.105983
-0.071141
-0.037652
0.015228
0.050084
0.088243
0.102450
0.133563
0.148551
0.135191
0.115668
0.073610
0.037212
-0.010649
-0.061951
-0.096214
-0.120229
-0.128760
-0.140414
-0.141039
-0.122663
-0.083717
-0.042571
0.007696
0.050688
0.082066
0.104624
0.122871
0.139270
0.130990
0.114719
0.072534
0.030839
-0.008947
-0.059869
-0.094542
-0.133864
-0.145583
-0.145148
-0.146086
-0.129213
-0.095058
-0.034860
0.021833
0.053349
0.092896
0.114579
0.134861
0.129968
0.115823
0.098130
0.055899
0.019901
-0.026674
-0.077748
-0.087584
-0.114148
-0.129375
-0.138602
-0.139189
-0.115260
-0.073568
-0.031040
0.013594
0.064379
0.114044
0.152842
0.164739
0.167958
0.158479
0.132657
0.098024
0.050980
-0.012234
-0.060938
-0.102440
-0.132934
-0.153267
-0.150935
-0.148872
-0.121869
-0.093705
-0.038200
0.028835
0.056759
0.086850
0.125915
0.153102
0.180544
0.178322
0.141737
0.104477
0.045937
-0.003800
-0.063263
-0.104875
-0.128225
-0.139556
-0.152968
-0.151122
-0.138241
-0.110716
-0.072192
-0.019556
0.037172
0.091336
0.129195
0.159667
0.178031
0.173081
0.164693
0.127988
0.065041
0.018313
-0.036014
-0.091714
-0.134272
-0.151296
-0.166847
-0.169391
-0.140215
-0.109394
-0.065374
-0.010130
0.044913
0.086813
0.122893
0.145146
0.157265
0.163747
0.133875
0.112476
0.064217
0.015115
-0.048431
-0.094526
-0.102129
-0.133597
-0.157057
-0.144862
-0.144700
-0.107287
-0.068154
-0.011525
0.037089
0.078765
0.115430
0.137819
0.151491
0.135858
0.137000
0.103899
0.058123
0.004513
-0.037727
-0.081605
-0.112183
-0.153567
-0.177287
-0.175842
-0.145491
-0.113382
-0.084271
-0.037095
0.010028
0.056103
0.094445
0.128797
0.139101
0.127020
0.109829
0.070775
0.024921
-0.001421
-0.031107
-0.079390
-0.121263
-0.147926
-0.157454
-0.149968
-0.134616
-0.112568
-0.073606
-0.036511
0.023589
0.048866
0.082525
0.104946
0.121481
0.124583
0.108952
0.085358
0.044071
-0.008501
-0.046526
-0.099229
-0.118577
-0.140697
-0.150441
-0.138873
-0.127204
-0.097687
-0.055646
-0.018235
0.023197
0.052516
0.078229
0.106685
0.115043
0.109064
0.091626
0.059621
0.022267
-0.016228
-0.045639
-0.095697
-0.134634
-0.159725
-0.158254
-0.155611
-0.154709
-0.122723
-0.077736
-0.038063
0.012397
0.061027
0.098704
0.102033
0.109495
0.104522
0.086810
0.061093
0.035276
-0.019718
-0.066216
-0.106120
-0.136688
-0.160952
-0.169101
-0.148456
-0.128527
-0.083398
-0.055358
-0.017094
0.030190
0.069732
0.094241
0.100684
0.107287
0.099541
0.067093
0.035448
-0.000073
-0.024239
-0.055950
-0.095314
-0.128346
-0.141721
-0.148950
-0.136192
-0.104634
-0.077966
-0.032312
0.019512
0.056686
0.098195
0.135005
0.145841
0.147967
0.149561
0.142062
0.097224
0.053572
0.014398
-0.019483
-0.065938
-0.112560
-0.132327
-0.137664
-0.126237
-0.116172
-0.067859
-0.024404
0.026316
0.089284
0.127928
0.157731
0.179579
0.172471
0.161259
0.127546
0.113501
0.063945
0.008493
-0.049730
-0.083917
-0.110487
-0.116895
-0.122449
-0.116352
-0.093708
-0.059229
-0.022203
0.049472
0.097887
0.121678
0.160458
0.181784
0.178204
0.169151
0.150299
0.108136
0.049478
-0.001758
-0.047216
-0.091636
-0.127222
-0.151176
-0.164713
-0.161600
-0.141631
-0.100963
-0.061731
-0.007847
0.047755
0.097607
0.120700
0.134302
0.138243
0.142007
0.134079
0.098907
0.060025
0.002119
-0.062844
-0.116737
-0.158665
-0.188956
-0.193510
-0.187519
-0.165121
-0.129682
-0.088161
-0.038183
0.013141
0.065687
0.106876
0.131217
0.129291
0.130663
0.118389
0.076630
0.025545
-0.030497
-0.089028
-0.126403
-0.169575
-0.194001
-0.207816
-0.205880
-0.192043
-0.147213
-0.115025
-0.058365
-0.010049
0.039499
0.077695
0.087019
0.102777
0.086769
0.107883
0.070339
0.030229
-0.019528
-0.068708
-0.116148
-0.160481
-0.183514
-0.203253
-0.186811
-0.167830
-0.153541
-0.118166
-0.089128
-0.044843
0.005803
0.047255
0.081596
0.106359
0.117845
0.106705
0.057536
0.014584
-0.036283
-0.077426
-0.108262
-0.144671
-0.172063
-0.191557
-0.187839
-0.174416
-0.142291
-0.093557
-0.050411
-0.007051
0.026888
0.060620
0.081400
0.085837
0.078706
0.062775
0.034432
-0.011245
-0.063646
-0.107553
-0.150820
-0.168728
-0.173540
-0.184174
-0.169893
-0.145049
-0.087414
-0.038180
0.003929
0.066742
0.114289
0.154966
0.195086
0.209724
0.211450
0.217416
0.212537
0.191258
0.172125
0.153681
0.137747
0.133741
0.143754
0.173737
0.219971
0.265614
0.335748
0.399679
0.479736
0.558338
0.611388
0.678139
0.733211
0.807245
0.821907
0.821675
0.822350
0.808159
0.773824
0.718951
0.687129
0.651916
0.614120
0.596781
0.592905
0.562437
0.531642
0.488834
0.473109
0.465544
0.448728
0.427738
0.396268
0.344874
0.299783
0.262641
0.205953
0.158058
0.119226
0.058030
0.012865
-0.017574
-0.049185
-0.075789
-0.061557
-0.047865
-0.005133
0.032995
0.078371
0.124853
0.161728
0.186868
0.192045
0.186460
0.171799
0.149932
0.114107
0.063677
0.012957
-0.034701
-0.083502
-0.121281
-0.132305
-0.140797
-0.126356
-0.108295
-0.082126
-0.029610
0.023580
0.075204
0.118208
0.140827
0.156196
0.171230
0.158893
0.131605
0.091683
0.035474
-0.000598
-0.046767
-0.103567
-0.139501
-0.158803
-0.157027
-0.144570
-0.128835
-0.090416
-0.054927
-0.002893
0.056358
0.098826
0.144106
0.168238
0.162075
0.149353
0.121567
0.089043
0.042211
-0.001840
-0.050913
-0.085415
-0.123692
-0.150022
-0.156071
-0.152913
-0.144083
-0.118167
-0.035877
0.011179
0.058348
0.105576
0.160843
0.185456
0.204364
0.181118
0.158544
0.119181
0.087319
0.026367
-0.027541
-0.074619
-0.101247
-0.123709
-0.130963
-0.136631
-0.120223
-0.093667
-0.035479
0.020604
0.074176
0.150928
0.188884
0.204792
0.221534
0.210977
0.187631
0.155187
0.111327
0.062818
0.009896
-0.025533
-0.065733
-0.091613
-0.105029
-0.098381
-0.079351
-0.050232
-0.000240
0.047875
0.098899
0.140388
0.173806
0.206978
0.229125
0.231045
0.219993
0.188818
0.149648
0.104151
0.060158
0.022258
-0.031836
-0.055150
-0.066885
-0.064191
-0.035435
-0.011976
0.026643
0.072517
0.139766
0.182519
0.225159
0.244748
0.250829
0.257888
0.249082
0.221016
0.180270
0.137482
0.090779
0.058968
0.013465
-0.023590
-0.042083
-0.023527
0.001196
0.015052
0.052708
0.094701
0.146718
0.185304
0.226438
0.246361
0.261426
0.267238
0.245784
0.229505
0.186943
0.151582
0.096476
0.058705
0.019205
0.003886
-0.011801
-0.022693
-0.014700
0.032915
0.069874
0.107879
0.160260
0.190337
0.223800
0.243073
0.249266
0.240691
0.223412
0.199912
0.162574
0.117786
0.059415
0.017059
-0.022053
-0.047026
-0.049669
-0.046016
-0.020650
0.001582
0.033523
0.073814
0.117368
0.155224
0.181707
0.181548
0.186743
0.189456
0.179293
0.167590
0.134941
0.089515
0.029343
-0.019243
-0.053733
-0.064596
-0.082559
-0.077687
-0.061497
-0.026524
0.019353
0.053980
0.094102
0.134296
0.159535
0.173333
0.161627
0.148822
0.131995
0.103133
0.061256
0.020449
-0.036336
-0.080392
-0.099994
-0.128023
-0.126762
-0.117615
-0.095839
-0.056103
-0.018244
0.010334
0.035150
0.104989
0.134273
0.140065
0.140959
0.124914
0.089495
0.062958
0.023121
-0.022440
-0.074620
-0.110874
-0.139867
-0.161689
-0.167554
-0.153761
-0.122047
-0.095905
-0.057889
-0.000188
0.057174
0.086293
0.118238
0.130806
0.136095
0.125538
0.115733
0.069928
0.024321
-0.017937
-0.073449
-0.118640
-0.145133
-0.178193
-0.178724
-0.178051
-0.152702
-0.104638
-0.050827
-0.000945
0.045303
0.091531
0.126277
0.146200
0.142656
0.136579
0.112559
0.079803
0.023484
-0.011751
-0.066754
-0.117723
-0.153752
-0.174771
-0.184203
-0.173809
-0.160042
-0.112804
-0.062324
-0.008442
0.060750
0.101614
0.142744
0.156603
0.164043
0.161479
0.137328
0.123255
0.070599
-0.005021
-0.058324
-0.100878
-0.141076
-0.163938
-0.163259
-0.169183
-0.155515
-0.124062
-0.077748
-0.015184
0.034761
0.077647
0.113817
0.130559
0.154421
0.148017
0.119656
0.082624
0.057510
0.020493
-0.031010
-0.085076
-0.116461
-0.141134
-0.154999
-0.166498
-0.151917
-0.127798
-0.079141
-0.014289
0.037577
0.080904
0.126672
0.139692
0.136491
0.141411
0.129107
0.105469
0.066407
0.017799
-0.020960
-0.056179
-0.104425
-0.132106
-0.138097
-0.140309
-0.129322
-0.098148
-0.050327
-0.007058
0.039534
0.078915
0.108728
0.134712
0.131431
0.122773
0.115755
0.093757
0.064018
0.015451
-0.022682
-0.066595
-0.109647
-0.132981
-0.134874
-0.137134
-0.122777
-0.107524
-0.059602
-0.021722
0.011020
0.057842
0.084643
0.110367
0.134385
0.125113
0.109954
0.092122
0.051693
0.016006
-0.035135
-0.071374
-0.103839
-0.138802
-0.159828
-0.171701
-0.129793
-0.093326
-0.055345
-0.019609
0.023875
0.066191
0.091416
0.110761
0.125541
0.109546
0.088826
0.053883
0.016257
-0.025506
-0.065801
-0.079369
-0.123836
-0.152448
-0.166739
-0.153397
-0.136439
-0.116095
-0.064330
-0.011053
0.031666
0.062519
0.084737
0.093876
0.096840
0.093014
0.086584
0.058262
0.015188
-0.031883
-0.070594
-0.107612
-0.139556
-0.146360
-0.159049
-0.139617
-0.110193
-0.087365
-0.049419
-0.017864
0.026638
0.065641
0.093231
0.088465
0.100457
0.112037
0.088274
0.079245
0.026127
-0.025066
-0.078409
-0.126031
-0.143560
-0.161641
-0.163429
-0.153400
-0.140135
-0.111082
-0.072030
-0.033415
-0.000802
0.066291
0.106621
0.127420
0.127850
0.110999
0.082574
0.055554
0.007525
-0.035419
-0.088163
-0.131898
-0.167942
-0.178879
-0.178700
-0.163623
-0.158011
-0.128464
-0.087643
-0.056820
0.030195
0.085467
0.121549
0.136484
0.138070
0.099437
0.075664
0.057679
0.014326
-0.004255
-0.066282
-0.141111
-0.190442
-0.215324
-0.212498
-0.198936
-0.160210
-0.086346
-0.039400
-0.000615
0.046232
0.085971
0.124357
0.139013
0.140881
0.134408
0.102635
0.077525
0.006209
-0.005884
-0.007001
-0.045877
-0.101763
-0.133680
-0.132387
-0.146794
-0.149456
-0.116219
-0.063753
-0.011677
0.038670
0.091061
0.116595
0.148993
0.169154
0.189487
0.175934
0.136998
0.080586
0.013290
-0.041667
-0.080449
-0.115408
-0.155258
-0.149254
-0.129670
-0.115609
-0.092705
-0.032381
0.023624
0.078116
0.118882
0.130724
0.151401
0.141220
0.193772
0.196328
0.151897
0.108187
0.048788
0.006805
-0.033508
-0.074389
-0.094876
-0.134105
-0.141580
-0.113338
-0.097444
-0.051174
-0.002222
0.037659
0.057142
0.088871
0.109758
0.129305
0.125287
0.123735
0.108079
0.078046
0.025479
-0.027955
-0.083339
-0.125921
-0.135670
-0.146963
-0.150634
-0.136282
-0.120502
-0.081470
-0.030890
0.015965
0.054173
0.080473
0.101929
0.123288
0.120003
0.096582
0.052103
0.004093
-0.012401
-0.050284
-0.091377
-0.151453
-0.167767
-0.176000
-0.180312
-0.159521
-0.126494
-0.078460
-0.052259
-0.020863
0.010764
0.044393
0.069678
0.084458
0.067471
0.047515
0.028066
-0.023544
-0.075839
-0.109831
-0.145674
-0.167846
-0.176095
-0.198986
-0.192547
-0.172089
-0.126190
-0.080690
-0.033203
0.003996
0.039086
0.058389
0.094164
0.087695
0.090523
0.066951
0.034147
-0.005660
-0.062604
-0.103685
-0.168658
-0.195532
-0.196058
-0.207023
-0.206139
-0.176627
-0.144040
-0.106876
-0.051536
-0.001823
0.046794
0.082277
0.096509
0.096187
0.092987
0.076854
0.029205
-0.023625
-0.062682
-0.110289
-0.149566
-0.176022
-0.205227
-0.212482
-0.201509
-0.182735
-0.157508
-0.103112
-0.050367
-0.002090
0.028635
0.072443
0.097843
0.108702
0.104228
0.087360
0.064334
0.030286
-0.000854
-0.063926
-0.111989
-0.137928
-0.136309
-0.135879
-0.099028
-0.051292
-0.008632
0.034454
0.106555
0.180823
0.265615
0.322795
0.366254
0.409832
0.442087
0.459070
0.478045
0.462550
0.441202
0.432902
0.410338
0.407899
0.411502
0.463502
0.514959
0.566368
0.632108
0.696531
0.770641
0.830444
0.881345
0.914623
0.940626
0.906422
0.861911
0.824480
0.786555
0.714640
0.620763
0.511069
0.397168
0.295455
0.209977
0.130304
0.093762
0.069780
0.066582
0.080815
0.128422
0.185948
0.218535
0.234517
0.232808
0.236379
0.224853
0.203643
0.152579
0.114312
0.076968
0.017878
-0.022324
-0.056221
-0.089397
-0.100491
-0.094228
-0.078516
-0.055686
-0.020551
0.022105
0.060874
0.105281
0.120607
0.130204
0.131862
0.138145
0.140351
0.095433
0.049337
0.009342
-0.034881
-0.081829
-0.112674
-0.125252
-0.126583
-0.119263
-0.114288
-0.093422
-0.066693
-0.012409
0.011775
0.084806
0.124137
0.135096
0.123269
0.105382
0.085561
0.068996
0.034580
-0.009718
-0.065667
-0.101415
-0.135858
-0.148637
-0.150414
-0.153094
-0.111580
-0.080875
-0.043779
-0.004261
0.032939
0.078348
0.097381
0.120650
0.151482
0.177289
0.138915
0.103052
0.050872
-0.006436
-0.073642
-0.104131
-0.132239
-0.143532
-0.149748
-0.136762
-0.114276
-0.069366
-0.023058
0.022606
0.076243
0.116922
0.153379
0.178221
0.193503
0.183419
0.160028
0.107690
0.058176
0.002402
-0.039916
-0.079483
-0.112734
-0.113472
-0.111375
-0.128367
-0.098323
-0.037576
-0.000853
0.036599
0.085617
0.148800
0.179369
0.201203
0.213784
0.209375
0.181773
0.149558
0.105086
0.059856
0.009915
-0.044918
-0.072216
-0.083953
-0.093088
-0.091805
-0.081192
-0.039657
0.020757
0.082217
0.122282
0.167731
0.200026
0.227077
0.240287
0.232797
0.216582
0.184158
0.138198
0.107071
0.046827
0.002854
-0.029314
-0.047102
-0.054482
-0.053974
-0.049976
-0.029081
0.032405
0.104398
0.148347
0.191968
0.227937
0.255662
0.269596
0.284453
0.260660
0.223586
0.186509
0.149266
0.106480
0.066234
0.024255
-0.013096
-0.029142
-0.023539
-0.008178
0.017716
0.047179
0.105508
0.148768
0.188328
0.213919
0.245671
0.265716
0.248226
0.220634
0.216248
0.178014
0.124544
0.087095
0.035290
-0.000976
-0.012143
-0.011468
-0.028891
-0.013323
0.019462
0.057124
0.094378
0.131449
0.171995
0.194547
0.217802
0.237643
0.232850
0.186201
0.159880
0.130382
0.088312
0.029743
0.009478
-0.024241
-0.047011
-0.065743
-0.071965
-0.066013
-0.036679
0.007003
0.037585
0.076164
0.114544
0.188771
0.207058
0.193945
0.173797
0.159533
0.136292
0.094898
0.041808
0.006111
-0.048364
-0.059367
-0.092663
-0.118993
-0.123340
-0.107767
-0.063140
-0.020174
0.038366
0.071118
0.100103
0.130436
0.151307
0.158589
0.142346
0.113182
0.072016
0.038732
-0.000008
-0.050696
-0.085311
-0.114130
-0.134333
-0.145403
-0.141688
-0.108629
-0.078446
-0.059152
0.008034
0.058543
0.083662
0.108128
0.121054
0.124237
0.115723
0.093385
0.045549
0.008846
-0.018150
-0.067478
-0.104120
-0.152751
-0.185119
-0.169431
-0.144504
-0.123690
-0.085812
-0.053162
-0.002108
0.049403
0.083425
0.110758
0.096446
0.105285
0.105161
0.093994
0.055195
0.007023
-0.030811
-0.081346
-0.117112
-0.145660
-0.176318
-0.180930
-0.169563
-0.136904
-0.111871
-0.073241
-0.027665
0.024216
0.074280
0.116448
0.131463
0.145279
0.136329
0.105165
0.070301
0.033483
-0.012610
-0.057132
-0.108074
-0.152267
-0.172143
-0.166158
-0.158018
-0.133860
-0.097111
-0.055407
0.001856
0.049650
0.094930
0.135161
0.151425
0.140719
0.134850
0.112577
0.068415
0.030855
-0.026545
-0.073912
-0.113815
-0.159646
-0.174543
-0.177121
-0.158704
-0.126097
-0.086534
-0.055239
-0.018772
0.037843
0.071302
0.118954
0.144740
0.152698
0.141887
0.107318
0.074128
0.050542
-0.001619
-0.049482
-0.102358
-0.143523
-0.169861
-0.165241
-0.166792
-0.146758
-0.102244
-0.057518
-0.010892
0.041967
0.082465
0.108135
0.141854
0.162850
0.153231
0.130321
0.093926
0.062677
0.005401
-0.045646
-0.096528
-0.130059
-0.161005
-0.173359
-0.171194
-0.152994
-0.112426
-0.081933
-0.039124
0.027745
0.088245
0.113056
0.135460
0.135910
0.133877
0.121478
0.087778
0.048570
0.006843
-0.034007
-0.075749
-0.127541
-0.152386
-0.174736
-0.164674
-0.140083
-0.119082
-0.090045
-0.030984
0.011980
0.058311
0.094414
0.116407
0.110103
0.110628
0.103039
0.079012
0.034422
0.001061
-0.044027
-0.087271
-0.119866
-0.148557
-0.155958
-0.158468
-0.139784
-0.114901
-0.065986
-0.019134
0.012722
0.048671
0.077587
0.101320
0.099842
0.100826
0.090816
0.056040
0.013347
-0.019904
-0.049971
-0.084883
-0.124196
-0.150376
-0.183612
-0.171919
-0.142195
-0.103583
-0.048408
0.005205
0.019407
0.044262
0.083864
0.099988
0.101183
0.108600
0.084729
0.047140
0.015834
-0.033626
-0.073484
-0.115741
-0.148757
-0.153528
-0.167859
-0.160046
-0.135118
-0.096929
-0.062234
-0.023934
0.002448
0.035424
0.079516
0.099719
0.098217
0.090701
0.063161
0.026408
-0.002865
-0.056639
-0.087870
-0.104362
-0.124507
-0.154593
-0.185002
-0.163687
-0.145943
-0.113048
-0.072069
-0.023468
0.019378
0.060667
0.083977
0.095987
0.094789
0.084904
0.063232
0.038997
-0.012236
-0.052445
-0.110440
-0.147023
-0.160287
-0.162977
-0.185762
-0.175279
-0.146543
-0.105618
-0.061147
-0.007523
0.031955
0.053365
0.088125
0.116163
0.123756
0.122149
0.081791
0.047317
0.007943
-0.043391
-0.102729
-0.134180
-0.179789
-0.197747
-0.193548
-0.173822
-0.150255
-0.124691
-0.087541
-0.021264
0.016639
0.065337
0.097701
0.119334
0.119592
0.110609
0.084314
0.051398
0.007628
-0.041990
-0.091326
-0.130230
-0.165880
-0.176613
-0.173019
-0.166344
-0.146850
-0.113431
-0.064046
-0.012826
0.038554
0.091643
0.129269
0.140988
0.162819
0.154865
0.140479
0.095090
0.050903
-0.004896
-0.046075
-0.088116
-0.127169
-0.167304
-0.157882
-0.150284
-0.135616
-0.103566
-0.069242
-0.019381
0.030160
0.073517
0.113065
0.142276
0.148775
0.152698
0.128112
0.104384
0.060673
0.016216
-0.028212
-0.086053
-0.123134
-0.150276
-0.142286
-0.138666
-0.116406
-0.084010
-0.036858
0.004729
0.067112
0.110479
0.144868
0.183234
0.186460
0.175752
0.145890
0.104747
0.056068
-0.008439
-0.050332
-0.089451
-0.139217
-0.161453
-0.178288
-0.170067
-0.152652
-0.113274
-0.073142
-0.031643
0.015653
0.042595
0.079381
0.102182
0.117608
0.122801
0.102767
0.067258
0.028449
-0.011489
-0.044712
-0.097612
-0.143639
-0.190268
-0.201167
-0.204322
-0.184719
-0.154752
-0.110458
-0.066207
-0.020295
0.022631
0.056384
0.075949
0.096413
0.102226
0.078803
0.040491
0.004688
-0.038469
-0.083765
-0.134997
-0.174632
-0.197821
-0.217071
-0.203226
-0.197413
-0.169055
-0.134232
-0.091079
-0.054059
-0.004721
0.030618
0.066095
0.085490
0.087600
0.059492
0.022199
-0.013550
-0.049548
-0.095841
-0.122563
-0.150539
-0.182664
-0.183416
-0.181764
-0.176847
-0.147001
-0.113843
-0.075983
-0.019243
0.016032
0.032064
0.051127
0.049917
0.069703
0.057883
0.011190
-0.016656
-0.050070
-0.089190
-0.112388
-0.137154
-0.181802
-0.197510
-0.193148
-0.168248
-0.141327
-0.115940
-0.076247
-0.016410
0.024307
0.052923
0.059300
0.065916
0.051281
0.037986
0.004793
-0.032224
-0.081032
-0.130561
-0.178786
-0.207543
-0.207118
-0.211185
-0.187693
-0.155320
-0.108037
-0.065751
-0.015686
0.051239
0.105561
0.148012
0.176816
0.198678
0.195406
0.170553
0.160005
0.143438
0.134688
0.114127
0.109426
0.108879
0.116438
0.152553
0.199958
0.263333
0.344754
0.418214
0.488641
0.555650
0.628878
0.704380
0.771347
0.815629
0.836612
0.841794
0.841643
0.812705
0.771595
0.703898
0.664794
0.615565
0.570283
0.550790
0.549405
0.530150
0.500316
0.470935
0.461345
0.464715
0.460061
0.429550
0.397116
0.361096
0.326631
0.293541
0.238012
0.180044
0.123641
0.057724
0.006475
-0.027910
-0.057669
-0.081730
-0.083420
-0.075498
-0.043551
-0.007436
0.039142
0.082396
0.117646
0.152239
0.183081
0.190950
0.173745
0.149834
0.103492
0.076524
0.029377
-0.030677
-0.071128
-0.114078
-0.150208
-0.165716
-0.165608
-0.148162
-0.113937
-0.071868
-0.021235
0.030959
0.077600
0.121803
0.144168
0.150908
0.135948
0.127949
0.088736
0.035002
-0.011793
-0.044413
-0.085999
-0.122208
-0.157261
-0.177432
-0.176567
-0.154045
-0.120628
-0.078276
-0.033197
0.013046
0.063586
0.096873
0.122970
0.150441
0.131826
0.103275
0.090681
0.044117
0.009208
-0.037723
-0.076239
-0.115467
-0.145382
-0.151673
-0.150808
-0.144154
-0.115759
-0.081045
-0.028152
0.034833
0.089716
0.118092
0.133590
0.142479
0.136155
0.122387
0.101780
0.059718
0.015729
-0.028656
-0.080403
-0.101377
-0.108047
-0.125504
-0.115364
-0.105491
-0.081732
-0.041066
0.003589
0.051824
0.091569
0.130935
0.150094
0.169372
0.167225
0.147169
0.114367
0.077525
0.041477
0.000156
-0.027731
-0.059329
-0.087635
-0.083151
-0.083205
-0.074768
-0.035284
0.010784
0.035371
0.075469
0.131967
0.174328
0.192395
0.193081
0.189221
0.180985
0.149873
0.101093
0.066454
0.013818
-0.001690
-0.027218
-0.051504
-0.062532
-0.061146
-0.025320
0.013724
0.074921
0.095795
0.134708
0.173448
0.192754
0.219754
0.225387
0.238530
0.227109
0.187798
0.128089
0.100828
0.051925
0.013647
-0.011319
-0.030811
-0.035297
-0.017569
-0.002464
0.027333
0.063072
0.118273
0.170919
0.203957
0.223691
0.251104
0.245027
0.231914
0.214865
0.186976
0.144470
0.090607
0.047361
0.008582
-0.021207
-0.042468
-0.048249
-0.034291
-0.012276
0.029372
0.066157
0.113576
0.159137
0.202250
0.227839
0.241458
0.254271
0.248885
0.224458
0.189825
0.134343
0.086443
0.029412
-0.010048
-0.051627
-0.069898
-0.079603
-0.073437
-0.039170
-0.015508
0.024152
0.066371
0.127162
0.169846
0.215600
0.231596
0.229186
0.224609
0.195675
0.144937
0.105768
0.066226
0.004074
-0.043609
-0.066912
-0.094390
-0.114397
-0.123596
-0.094438
-0.073894
-0.034445
0.015301
0.060349
0.115536
0.148236
0.176139
0.192655
0.185133
0.146836
0.107125
0.059715
-0.003346
-0.061913
-0.085616
-0.096878
-0.133791
-0.152331
-0.167258
-0.150915
-0.118942
-0.073525
-0.025937
0.032571
0.077516
0.116784
0.128974
0.135224
0.125771
0.117344
0.101369
0.057029
0.014151
-0.045013
-0.090110
-0.126094
-0.157399
-0.167646
-0.167432
-0.151815
-0.111395
-0.075886
-0.037267
0.013777
0.057260
0.081700
0.112278
0.125024
0.117649
0.095105
0.081304
0.044067
0.008218
-0.053701
-0.104538
-0.132918
-0.161302
-0.169706
-0.154704
-0.158421
-0.135722
-0.087676
-0.052147
-0.006467
0.032675
0.077902
0.106044
0.115401
0.107665
0.104229
0.082598
0.037997
0.008340
-0.047902
-0.111121
-0.142444
-0.125823
-0.135827
-0.148873
-0.138937
-0.120819
-0.080092
-0.041428
0.008162
0.036966
0.075233
0.106853
0.113720
0.121319
0.104160
0.068728
0.028415
-0.010089
-0.048484
-0.098729
-0.129436
-0.141415
-0.144123
-0.135152
-0.130430
-0.092900
-0.060188
-0.024211
0.025617
0.060553
0.090672
0.115492
0.121749
0.127180
0.114393
0.056698
0.014841
-0.028512
-0.063495
-0.091764
-0.109946
-0.128944
-0.137397
-0.134809
-0.125084
-0.086859
-0.052476
-0.013846
0.042746
0.081526
0.114482
0.127419
0.126438
0.108880
0.088782
0.052836
0.017042
-0.014279
-0.056761
-0.099240
-0.125358
-0.147262
-0.164728
-0.151891
-0.110523
-0.072453
-0.033223
-0.003679
0.038288
0.071579
0.098730
0.126766
0.143036
0.133648
0.095147
0.064944
0.023338
-0.023774
-0.068064
-0.103872
-0.132085
-0.145804
-0.159676
-0.148519
-0.126173
-0.103359
-0.067230
-0.022749
0.035552
0.086853
0.106961
0.130432
0.131633
0.114827
0.090213
0.052808
0.011911
-0.046196
-0.105772
-0.136966
-0.147971
-0.156886
-0.156247
-0.165290
-0.147467
-0.103976
-0.045231
-0.005496
0.027940
0.070441
0.106083
0.133657
0.141365
0.117008
0.084815
0.045918
0.012387
-0.046386
-0.080085
-0.111917
-0.157051
-0.189829
-0.194130
-0.172927
-0.148721
-0.122769
-0.080098
-0.033204
0.015962
0.072166
0.111840
0.133379
0.134819
0.119691
0.102978
0.068747
0.013817
-0.024915
-0.073195
-0.118771
-0.150610
-0.181123
-0.192154
-0.183068
-0.163372
-0.127324
-0.086296
-0.032452
0.019525
0.055552
0.091999
0.110579
0.111738
0.123467
0.118102
0.069540
0.023626
-0.025546
-0.073506
-0.125418
-0.170356
-0.205449
-0.209033
-0.199964
-0.182290
-0.139809
-0.101729
-0.068776
-0.022040
0.031208
0.060701
0.101000
0.121625
0.134542
0.127688
0.088688
0.025731
-0.024977
-0.073146
-0.115283
-0.154093
-0.170550
-0.194123
-0.192866
-0.171165
-0.141831
-0.097024
-0.052047
-0.014207
0.033778
0.057760
0.092698
0.103855
0.103647
0.086409
0.067831
0.034161
-0.005754
-0.049310
-0.104093
-0.156058
-0.175331
-0.178701
-0.177445
-0.181335
-0.158626
-0.101822
-0.059782
-0.009042
0.029413
0.061018
0.099668
0.107663
0.097862
0.082774
0.050744
0.021896
-0.017396
-0.061282
-0.103858
-0.148097
-0.187439
-0.187982
-0.182570
-0.154373
-0.109948
-0.079555
-0.048729
-0.006395
0.044208
0.083398
0.100229
0.110490
0.092518
0.089403
0.066306
0.023254
-0.017832
-0.055626
-0.099076
-0.129191
-0.142086
-0.150354
-0.160667
-0.134305
-0.099952
-0.053559
-0.012210
0.026517
0.070224
0.102742
0.117025
0.124767
0.105739
0.078563
0.052410
0.011414
-0.011836
-0.046491
-0.083626
-0.116171
-0.143729
-0.145136
-0.137051
-0.108982
-0.082551
-0.049010
-0.010205
0.042447
0.093074
0.131463
0.154986
0.149276
0.135016
0.110502
0.093997
0.054516
0.006519
-0.039848
-0.070782
-0.100292
-0.124601
-0.118269
-0.111871
-0.096801
-0.066020
-0.031869
0.003703
0.040770
0.084382
0.103762
0.130053
0.120089
0.097992
0.085539
0.061301
0.015981
-0.039043
-0.087150
-0.105887
-0.132564
-0.155547
-0.173484
-0.168432
-0.151973
-0.123034
-0.076728
-0.022657
0.012806
0.048780
0.075724
0.106023
0.110506
0.096696
0.052871
0.018431
-0.003462
-0.051624
-0.108750
-0.144898
-0.180125
-0.206646
-0.224984
-0.222343
-0.198661
-0.164937
-0.103167
-0.039709
-0.002219
0.040047
0.077275
0.093953
0.110304
0.107918
0.078431
0.028793
-0.013497
-0.063497
-0.107229
-0.163810
-0.203002
-0.213376
-0.222958
-0.224193
-0.192401
-0.147060
-0.105329
-0.048721
0.000953
0.040789
0.055281
0.080663
0.077992
0.103313
0.069308
0.010738
-0.010410
-0.048198
-0.112789
-0.156744
-0.200790
-0.237119
-0.239680
-0.225823
-0.205383
-0.163062
-0.117947
-0.054972
-0.011815
0.030731
0.075364
0.085561
0.088791
0.085602
0.061954
0.028021
-0.012593
-0.057809
-0.094342
-0.140454
-0.177460
-0.211623
-0.218465
-0.212256
-0.202241
-0.165246
-0.132604
-0.092223
-0.036364
0.015411
0.043573
0.065194
0.088319
0.090223
0.063688
0.034454
-0.002325
-0.043854
-0.076810
-0.113819
-0.136431
-0.154967
-0.177260
-0.181722
-0.117353
-0.070695
-0.016776
0.053510
0.101242
0.163826
0.215120
0.257823
0.293116
0.335323
0.365101
0.368071
0.352313
0.336901
0.326599
0.298483
0.295111
0.297148
0.303373
0.342085
0.398612
0.466397
0.523201
0.624358
0.719790
0.784027
0.814877
0.843321
0.863105
0.866668
0.837290
0.785116
0.731348
0.656158
0.579393
0.472107
0.382172
0.293482
0.209874
0.168180
0.139332
0.130299
0.116417
0.119256
0.140480
0.162871
0.179074
0.182952
0.206638
0.208669
0.185364
0.153012
0.098343
0.049698
0.004817
-0.036779
-0.080927
-0.092617
-0.097470
-0.101696
-0.089596
-0.077046
-0.015535
0.027134
0.053004
0.077764
0.102304
0.124117
0.122027
0.115522
0.095440
0.058214
0.028806
-0.010642
-0.051501
-0.086361
-0.113156
-0.153756
-0.163815
-0.154649
-0.127195
-0.090444
-0.051036
-0.009796
0.020097
0.067130
0.103418
0.110510
0.115120
0.094465
0.078170
0.043292
0.003073
-0.048683
-0.078250
-0.121604
-0.142238
-0.143476
-0.130226
-0.131989
-0.119149
-0.095848
-0.047649
0.013043
0.043908
0.082857
0.102534
0.126801
0.141073
0.121816
0.071372
0.075256
0.027912
-0.021696
-0.065141
-0.108619
-0.143043
-0.151828
-0.163285
-0.152906
-0.121082
-0.094363
-0.050096
0.000786
0.056637
0.107760
0.136065
0.142911
0.164617
0.161708
0.111370
0.073176
0.045830
0.008744
-0.029687
-0.082511
-0.097262
-0.130882
-0.148172
-0.131320
-0.101480
-0.070995
-0.022032
0.036792
0.073704
0.122179
0.161048
0.167480
0.193354
0.182029
0.153963
0.124104
0.082291
0.032903
0.002407
-0.045450
-0.078640
-0.111360
-0.128935
-0.134812
-0.123906
-0.052883
0.005522
0.055489
0.102914
0.155179
0.204058
0.209072
0.216996
0.198974
0.196663
0.191479
0.131428
0.087850
0.034970
-0.010943
-0.054091
-0.074773
-0.086818
-0.067308
-0.042850
-0.013592
0.018997
0.075392
0.115119
0.164139
0.200418
0.228428
0.253306
0.264455
0.236694
0.200710
0.167988
0.117704
0.055070
0.001093
-0.021981
-0.046433
-0.065124
-0.037851
-0.021014
0.006225
0.043438
0.082922
0.121543
0.127299
0.159433
0.223989
0.272708
0.263077
0.229869
0.194105
0.162294
0.115535
0.067073
0.021838
-0.020365
-0.045847
-0.057296
-0.045801
-0.031196
0.000371
0.025767
0.067937
0.107575
0.149962
0.203388
0.222265
0.219624
0.210525
0.198136
0.168855
0.132201
0.098358
0.052142
0.010399
-0.020772
-0.060474
-0.081973
-0.084551
-0.064172
-0.026678
-0.007325
0.039364
0.085192
0.140056
0.166842
0.187435
0.188266
0.177903
0.151489
0.100545
0.060594
0.011031
-0.017431
-0.058992
-0.094696
-0.105514
-0.126650
-0.123729
-0.107188
-0.077623
-0.036291
0.015574
0.056839
0.071365
0.119857
0.138166
0.152584
0.134147
0.110319
0.062604
0.025369
-0.019079
-0.060186
-0.105300
-0.129902
-0.157580
-0.158402
-0.154758
-0.132578
-0.100163
-0.061613
-0.018449
0.031358
0.076560
0.094711
0.107320
0.087011
0.071646
0.070943
0.036149
0.004222
-0.036087
-0.080866
-0.125538
-0.161583
-0.192116
-0.195439
-0.173377
-0.152900
-0.115514
-0.077206
-0.029243
0.011057
0.049576
0.081025
0.100964
0.109863
0.097614
0.065203
0.024993
-0.024277
-0.065966
-0.109049
-0.149966
-0.178190
-0.198635
-0.208432
-0.185861
-0.150652
-0.117858
-0.072131
-0.015348
0.030838
0.066614
0.099877
0.121396
0.113233
0.109595
0.090861
0.060354
0.010860
-0.046305
-0.085249
-0.130063
-0.157466
-0.183956
-0.192397
-0.191089
-0.166570
-0.124723
-0.079850
-0.041873
0.007538
0.042116
0.093098
0.101907
0.120786
0.105387
0.114478
0.075507
0.028027
-0.019578
-0.074362
-0.128673
-0.155911
-0.183096
-0.192039
-0.187012
-0.172920
-0.141997
-0.094124
-0.051212
-0.014383
0.047931
0.085486
0.105019
0.117093
0.121040
0.114701
0.087867
0.038868
-0.021900
-0.075997
-0.121734
-0.154938
-0.177946
-0.189013
-0.175464
-0.164729
-0.134425
-0.082713
-0.051131
0.002108
0.045820
0.074717
0.105090
0.110664
0.114024
0.085018
0.052915
0.021019
-0.007163
-0.050450
-0.092015
-0.139275
-0.173585
-0.178345
-0.185159
-0.179280
-0.136312
-0.095165
-0.061769
-0.020335
0.037133
0.070043
0.099030
0.116814
0.104553
0.088724
0.068668
0.022307
-0.014289
-0.070559
-0.111520
-0.139193
-0.154412
-0.172748
-0.178160
-0.175097
-0.135615
-0.103744
-0.057473
-0.002146
0.025508
0.037920
0.072487
0.086593
0.063852
0.074162
0.059472
0.016689
-0.017984
-0.074042
-0.124443
-0.128415
-0.151612
-0.185789
-0.170305
-0.145419
-0.132130
-0.096165
-0.069749
-0.029414
0.018311
0.065629
0.074985
0.079630
0.085197
0.069728
0.025689
-0.021619
-0.057985
-0.095842
-0.120509
-0.148079
-0.175683
-0.190539
-0.180147
-0.154839
-0.128518
-0.107578
-0.064408
-0.027358
0.008232
0.050634
0.054250
0.067194
0.057041
0.030227
0.008392
-0.030257
-0.072553
-0.114227
-0.142567
-0.169781
-0.190698
-0.189973
-0.187994
-0.151932
-0.126570
-0.092543
-0.060443
-0.017461
0.023139
0.066701
0.078773
0.090855
0.079331
0.053144
0.012627
-0.033288
-0.082128
-0.130625
-0.160080
-0.179840
-0.206286
-0.217886
-0.211696
-0.198339
-0.165701
-0.093257
-0.051483
-0.018420
0.022681
0.054183
0.067864
0.073434
0.080511
0.048730
0.003932
-0.042709
-0.082246
-0.133587
-0.173955
-0.213890
-0.220057
-0.213851
-0.203367
-0.175973
-0.119779
-0.091616
-0.047859
0.002472
0.038394
0.062810
0.084757
0.092083
0.083109
0.064303
0.013358
-0.014058
-0.066142
-0.118191
-0.155148
-0.186500
-0.192090
-0.205500
-0.202689
-0.180348
-0.134772
-0.087071
-0.045865
0.002988
0.061505
0.112153
0.129222
0.109581
0.099530
0.089369
0.064150
0.012766
-0.046253
-0.086773
-0.121456
-0.157946
-0.184314
-0.198458
-0.196688
-0.187644
-0.136248
-0.083937
-0.033098
0.010204
0.046992
0.091501
0.123910
0.132981
0.120690
0.091748
0.062190
0.031972
-0.006862
-0.049403
-0.091270
-0.133969
-0.163227
-0.173421
-0.174490
-0.149913
-0.120137
-0.081734
-0.037026
0.000519
0.043327
0.065819
0.102410
0.120952
0.118128
0.101556
0.065378
0.017512
-0.047391
-0.075023
-0.120876
-0.171628
-0.198806
-0.192780
-0.191766
-0.165106
-0.136410
-0.105516
-0.066080
-0.020022
0.007502
0.043387
0.053745
0.077832
0.074263
0.062681
0.028926
-0.015634
-0.066527
-0.115770
-0.166004
-0.192276
-0.206586
-0.240325
-0.252104
-0.223820
-0.179723
-0.136536
-0.100552
-0.061661
-0.028323
0.001859
0.032796
0.036115
0.033513
0.021428
0.002997
-0.038466
-0.081304
-0.130464
-0.157363
-0.192672
-0.206689
-0.223463
-0.229401
-0.223837
-0.195367
-0.149403
-0.104378
-0.053634
-0.019104
0.021388
0.034720
0.029640
0.028195
0.007844
-0.017159
-0.054144
-0.105888
-0.142811
-0.166008
-0.197536
-0.222240
-0.222135
-0.225733
-0.210742
-0.183142
-0.146976
-0.102990
-0.066674
-0.035872
0.004372
0.028205
0.034120
0.015458
-0.012398
-0.036545
-0.064540
-0.102274
-0.150569
-0.197966
-0.226151
-0.226088
-0.225138
-0.227451
-0.203412
-0.175017
-0.142968
-0.105480
-0.068447
-0.033832
0.004925
0.023077
0.029009
0.016048
-0.008061
-0.040479
-0.077337
-0.120760
-0.170715
-0.195608
-0.207822
-0.214333
-0.216967
-0.196614
-0.156057
-0.107347
-0.048253
-0.000472
0.061391
0.109465
0.162451
0.197208
0.203448
0.207788
0.206558
0.195090
0.188885
0.165325
0.146949
0.134092
0.136464
0.150036
0.172931
0.221576
0.268581
0.334199
0.409106
0.496497
0.568103
0.632890
0.700047
0.775600
0.821679
0.829701
0.815306
0.764840
0.697292
0.644993
0.604008
0.548435
0.479508
0.420137
0.342693
0.280415
0.239374
0.214708
0.207826
0.218244
0.243682
0.241931
0.239077
0.240939
0.225111
0.181356
0.150689
0.102903
0.050975
-0.005486
-0.059574
-0.110617
-0.145214
-0.177208
-0.174498
-0.166608
-0.119602
-0.085847
-0.058526
-0.014317
0.022529
0.060002
0.106839
0.124699
0.122727
0.115640
0.101222
0.058434
0.017650
-0.042962
-0.096094
-0.146563
-0.184809
-0.212923
-0.200780
-0.200271
-0.190009
-0.161457
-0.117967
-0.063686
-0.023133
0.018300
0.054855
0.076687
0.095987
0.110017
0.084788
0.046592
0.008622
-0.036684
-0.090180
-0.149594
-0.192431
-0.213842
-0.201586
-0.209927
-0.188915
-0.167967
-0.128831
-0.080867
-0.033053
0.007336
0.049274
0.079067
0.099079
0.111906
0.091129
0.055442
0.007755
-0.037186
-0.090733
-0.136605
-0.149038
-0.181575
-0.186056
-0.166422
-0.156365
-0.141011
-0.102233
-0.057182
-0.002195
0.043564
0.062894
0.102273
0.110653
0.105892
0.087600
0.063212
0.019951
-0.025484
-0.059980
-0.101791
-0.131898
-0.167102
-0.170736
-0.172974
-0.147089
-0.120208
-0.078622
-0.042586
0.011176
0.045538
0.070754
0.104614
0.125139
0.128911
0.114185
0.085637
0.048937
0.001472
-0.037795
-0.077331
-0.096949
-0.126197
-0.130745
-0.126902
-0.104528
-0.072111
-0.035521
0.009661
0.055524
0.090865
0.122045
0.133742
0.143531
0.143871
0.125971
0.097846
0.048198
0.016353
-0.008072
-0.045075
-0.071451
-0.098154
-0.095589
-0.089072
-0.058306
-0.030397
0.016765
0.065854
0.106209
0.145296
0.172007
0.190247
0.193903
0.179733
0.151405
0.123538
0.087403
0.049436
0.004998
-0.039262
-0.075587
-0.089788
-0.099106
-0.073735
-0.050169
-0.023667
0.033077
0.084924
0.123125
0.155824
0.174209
0.199387
0.183766
0.194782
0.155744
0.133106
0.104556
0.055941
-0.000773
-0.055397
-0.090011
-0.098024
-0.097191
-0.090809
-0.064535
-0.014022
0.027924
0.062251
0.102199
0.144459
0.174397
0.202509
0.199730
0.201890
0.176964
0.125500
0.072799
0.023732
-0.026582
-0.072248
-0.102202
-0.126816
-0.138126
-0.132747
-0.108249
-0.095617
-0.036644
0.011970
0.055271
0.112001
0.153608
0.165551
0.176382
0.168079
0.137165
0.106657
0.048111
-0.005253
-0.053515
-0.093712
-0.137111
-0.167909
-0.168826
-0.168399
-0.159468
-0.125767
-0.070651
-0.020341
0.016318
0.062899
0.098121
0.116197
0.119990
0.110636
0.088495
0.058886
0.013252
-0.029961
-0.093911
-0.143044
-0.177856
-0.214188
-0.205178
-0.195238
-0.181778
-0.159940
-0.117710
-0.065061
-0.013636
0.015334
0.059362
0.084252
0.078282
0.082705
0.073665
0.047811
0.017150
-0.035886
-0.080433
-0.126716
-0.172877
-0.204001
-0.220790
-0.221532
-0.203418
-0.175111
-0.140199
-0.092872
-0.034198
0.005072
0.017420
0.038874
0.050282
0.043825
0.043650
0.026518
-0.021141
-0.062621
-0.099095
-0.145448
-0.178143
-0.200982
-0.210264
-0.204262
-0.190233
-0.154889
-0.120439
-0.078035
-0.037525
0.016121
0.040734
0.054187
0.058630
0.063132
0.044928
0.021843
-0.016601
-0.060554
-0.101448
-0.146564
-0.161461
-0.186819
-0.208627
-0.206272
-0.178722
-0.161393
-0.128038
-0.072992
-0.008311
0.015540
0.037215
0.044724
0.046310
0.042443
0.030835
0.012692
-0.022906
-0.065154
-0.094373
-0.119054
-0.152667
-0.195601
-0.211334
-0.203528
-0.170042
-0.124907
-0.072350
-0.054008
-0.018406
0.014810
0.041676
0.065306
0.060538
0.048477
0.036023
0.022692
-0.012740
-0.065077
-0.110415
-0.151921
-0.173941
-0.183598
-0.190086
-0.172575
-0.153112
-0.124717
-0.079556
-0.047856
-0.006075
0.032157
0.061504
0.077774
0.078749
0.066517
0.041743
0.005097
-0.051040
-0.085162
-0.125209
-0.147100
-0.172578
-0.194198
-0.200529
-0.185498
-0.171538
-0.143158
-0.092362
-0.047003
0.000717
0.038234
0.066336
0.091948
0.088969
0.077145
0.040183
0.002495
-0.030129
-0.072137
-0.131701
-0.173149
-0.206310
-0.221775
-0.225993
-0.210338
-0.195662
-0.134581
-0.076738
-0.054553
-0.008470
0.022152
0.047669
0.080675
0.107142
0.096703
0.061395
0.028522
-0.036448
-0.089973
-0.133752
-0.176734
-0.207024
-0.222362
-0.228649
-0.215593
-0.198442
-0.164032
-0.126129
-0.075502
-0.031363
0.022195
0.064322
0.076643
0.091771
0.094949
0.056882
0.030644
-0.015016
-0.061781
-0.116577
-0.166950
-0.190455
-0.230892
-0.245979
-0.237403
-0.212924
-0.169547
-0.137027
-0.081371
-0.025417
0.015379
0.065671
0.089125
0.077036
0.057143
0.061546
0.025524
-0.020739
-0.077633
-0.117393
-0.154429
-0.200573
-0.224246
-0.252878
-0.262572
-0.226373
-0.182845
-0.131609
-0.088497
-0.044593
-0.003070
0.043589
0.073170
0.072941
0.069894
0.056302
0.016074
-0.023081
-0.074320
-0.114457
-0.163230
-0.190511
-0.210277
-0.225674
-0.222010
-0.221172
-0.197635
-0.163512
-0.122818
-0.068466
-0.014082
0.018317
0.032187
0.061859
0.058813
0.046363
0.021100
-0.024155
-0.069810
-0.110081
-0.157667
-0.184252
-0.200677
-0.207711
-0.213060
-0.194506
-0.176502
-0.128062
-0.090630
-0.045478
-0.009120
0.021070
0.034043
0.059354
0.053993
0.047934
0.015687
-0.022499
-0.059302
-0.093462
-0.140449
-0.162298
-0.187681
-0.191527
-0.198357
-0.188475
-0.146306
-0.115773
-0.080265
-0.033400
0.009503
0.040717
0.077487
0.094601
0.077020
0.079051
0.045330
-0.005752
-0.059457
-0.093550
-0.131960
-0.155628
-0.169709
-0.173248
-0.160215
-0.146296
-0.116296
-0.087174
-0.058996
-0.018119
0.030411
0.063140
0.081586
0.096918
0.091717
0.058142
0.025125
-0.007369
-0.041109
-0.072176
-0.118916
-0.132831
-0.155604
-0.170386
-0.164055
-0.146779
-0.111168
-0.064539
-0.027652
0.004311
0.068589
0.080465
0.083949
0.085162
0.063640
0.064211
0.042735
-0.015853
-0.066664
-0.107726
-0.153476
-0.196359
-0.219523
-0.233182
-0.211453
-0.174808
-0.118212
-0.079079
-0.053257
-0.016388
0.035695
0.057545
0.058077
0.056917
0.042061
0.029467
-0.009971
-0.051243
-0.091714
-0.141218
-0.182300
-0.222087
-0.232603
-0.245165
-0.234521
-0.222159
-0.188786
-0.143231
-0.096544
-0.040165
0.011757
0.039151
0.050355
0.061101
0.035202
0.009787
-0.031246
-0.072540
-0.131218
-0.167950
-0.208639
-0.229446
-0.253333
-0.259032
-0.248811
-0.228672
-0.189462
-0.140371
-0.092907
-0.050040
0.007373
0.034674
0.059031
0.053709
0.035524
0.016254
-0.008704
-0.059594
-0.114775
-0.160101
-0.209342
-0.233899
-0.252810
-0.258831
-0.269264
-0.239045
-0.215633
-0.184266
-0.118334
-0.059823
-0.013359
0.022316
0.051302
0.053244
0.056469
0.032528
-0.003618
-0.050137
-0.105049
-0.167957
-0.191838
-0.222491
-0.251698
-0.256019
-0.253653
-0.236193
-0.201728
-0.153632
-0.106039
-0.059632
-0.019164
0.008142
0.025511
0.033524
0.033357
0.017424
-0.013233
-0.057576
-0.110265
-0.161973
-0.208079
-0.227339
-0.220189
-0.214805
-0.205379
-0.194384
-0.161234
-0.105690
-0.034319
0.028855
0.093394
0.125091
0.160655
0.176231
0.189616
0.205813
0.198754
0.196236
0.181690
0.144208
0.138371
0.144452
0.163022
0.179566
0.223374
0.269317
0.322697
0.388556
0.469193
0.564180
0.652887
0.713022
0.778399
0.815485
0.830094
0.834621
0.812496
0.781720
0.737851
0.665552
0.603124
0.548499
0.493935
0.451911
0.393438
0.347618
0.307470
0.286170
0.280060
0.262586
0.243471
0.235484
0.222709
0.202302
0.194273
0.169967
0.136886
0.100432
0.052461
0.003485
-0.046329
-0.078969
-0.099702
-0.118369
-0.115974
-0.109076
-0.087568
-0.052658
-0.008251
0.029823
0.060934
0.089931
0.112684
0.106409
0.090496
0.069093
0.043818
0.001305
-0.045609
-0.095386
-0.119303
-0.151073
-0.176003
-0.183076
-0.166215
-0.158709
-0.117333
-0.089086
-0.046705
-0.005802
0.043714
0.069218
0.087097
0.081185
0.076012
0.042702
0.008353
-0.040762
-0.084001
-0.136083
-0.172565
-0.193981
-0.214060
-0.205953
-0.211362
-0.186289
-0.133360
-0.098300
-0.044296
0.017424
0.070327
0.092830
0.087858
0.092719
0.071322
0.049254
0.011456
-0.020798
-0.056232
-0.093853
-0.140890
-0.181903
-0.204654
-0.203385
-0.190570
-0.159688
-0.127716
-0.081258
-0.029730
0.020672
0.063530
0.096590
0.119884
0.117627
0.110302
0.091569
0.062200
-0.002383
-0.047758
-0.096088
-0.145790
-0.175486
-0.185318
-0.186997
-0.160161
-0.147106
-0.113142
-0.078437
-0.025120
0.033240
0.077175
0.120207
0.145369
0.151395
0.142530
0.127925
0.092188
0.054106
0.002698
-0.048556
-0.099160
-0.128416
-0.144543
-0.156390
-0.152307
-0.124501
-0.089567
-0.046120
0.004938
0.059592
0.104005
0.143956
0.157420
0.160608
0.178972
0.175218
0.134827
0.082766
0.041177
-0.006489
-0.047163
-0.085098
-0.106210
-0.131833
-0.119215
-0.107609
-0.056061
-0.012443
0.033448
0.070165
0.124742
0.176279
0.203259
0.208727
0.195212
0.173187
0.145133
0.112299
0.068281
0.018299
-0.023932
-0.056576
-0.068138
-0.063670
-0.067139
-0.063819
-0.041381
-0.010463
0.029129
0.084555
0.129853
0.173235
0.198886
0.218074
0.219274
0.194877
0.159841
0.121936
0.076914
0.033026
-0.020913
-0.059638
-0.081648
-0.093308
-0.090043
-0.051015
-0.041196
-0.017260
0.035593
0.090385
0.115762
0.154149
0.166078
0.189825
0.190921
0.170038
0.137169
0.095956
0.045115
-0.001247
-0.037692
-0.069011
-0.088909
-0.106737
-0.105370
-0.100058
-0.066428
-0.034678
0.010572
0.054085
0.087305
0.114439
0.132245
0.126326
0.136254
0.109158
0.079260
0.036705
-0.001296
-0.055216
-0.091577
-0.123624
-0.126457
-0.140781
-0.131697
-0.119276
-0.097506
-0.058428
-0.012838
0.024481
0.055318
0.078683
0.088576
0.080801
0.095623
0.071559
0.035628
-0.007560
-0.054361
-0.095373
-0.133786
-0.174810
-0.189919
-0.197094
-0.181166
-0.151526
-0.120726
-0.085387
-0.043808
0.006989
0.041879
0.058790
0.053704
0.056856
0.055248
0.033130
0.006795
-0.031736
-0.085630
-0.107252
-0.150124
-0.190670
-0.204017
-0.208601
-0.204785
-0.188424
-0.149167
-0.104760
-0.062528
-0.013941
0.023069
0.060336
0.053677
0.066441
0.068638
0.042450
0.004730
-0.039554
-0.088805
-0.130466
-0.168138
-0.203814
-0.229082
-0.234988
-0.218039
-0.191602
-0.160793
-0.117231
-0.066903
-0.004150
0.032116
0.063398
0.072967
0.082926
0.070145
0.044272
0.022086
-0.017492
-0.065337
-0.128696
-0.177933
-0.207725
-0.214670
-0.226332
-0.211045
-0.185577
-0.150539
-0.098040
-0.060856
-0.016681
0.032742
0.066131
0.079597
0.085109
0.081496
0.055229
0.030001
-0.027398
-0.088195
-0.132326
-0.147666
-0.175510
-0.202929
-0.219205
-0.209114
-0.194978
-0.176034
-0.110355
-0.071654
-0.027434
0.024540
0.074717
0.096999
0.103499
0.090845
0.068918
0.046563
0.009007
-0.046308
-0.101613
-0.149455
-0.183325
-0.202326
-0.221689
-0.218433
-0.201851
-0.165836
-0.127994
-0.083165
-0.033252
0.014350
0.067226
0.083095
0.102417
0.085633
0.065016
0.041560
-0.000472
-0.051967
-0.092658
-0.152272
-0.190402
-0.206997
-0.220609
-0.211474
-0.192425
-0.150446
-0.113207
-0.067036
-0.031639
0.009132
0.057248
0.082084
0.094005
0.090374
0.074761
0.049678
0.001819
-0.038025
-0.091442
-0.151304
-0.182296
-0.185063
-0.207258
-0.213057
-0.180829
-0.142799
-0.104430
-0.062436
-0.031984
0.002005
0.037627
0.058150
0.058943
0.043701
0.023559
0.015219
-0.019324
-0.059945
-0.127807
-0.150430
-0.162740
-0.190408
-0.203997
-0.194778
-0.174668
-0.157350
-0.126814
-0.087376
-0.041603
-0.021490
0.022436
0.037366
0.054650
0.041907
0.031134
0.011510
-0.027982
-0.074571
-0.112320
-0.154310
-0.201861
-0.185817
-0.195185
-0.197033
-0.181046
-0.143077
-0.119368
-0.075098
-0.030918
-0.001777
0.024531
0.056937
0.053102
0.037218
0.023194
-0.020185
-0.058747
-0.097227
-0.137791
-0.169182
-0.215706
-0.223695
-0.233808
-0.211522
-0.170855
-0.150870
-0.105526
-0.065069
-0.004771
0.028859
0.048153
0.057467
0.059519
0.056839
0.042811
-0.001992
-0.047662
-0.095000
-0.150361
-0.183996
-0.205720
-0.225690
-0.215777
-0.216546
-0.195873
-0.175823
-0.119215
-0.056999
-0.020012
0.022611
0.051215
0.067797
0.074239
0.054973
0.040457
0.003335
-0.046503
-0.094863
-0.134226
-0.181435
-0.216731
-0.238293
-0.240765
-0.242315
-0.227902
-0.193338
-0.148666
-0.095974
-0.045251
0.019046
0.050191
0.063171
0.072249
0.094287
0.063853
0.017767
-0.027222
-0.078861
-0.132454
-0.175995
-0.209546
-0.226730
-0.249186
-0.243301
-0.228414
-0.190011
-0.146079
-0.105636
-0.048332
0.001653
0.039225
0.062709
0.082699
0.096264
0.047720
0.021177
-0.019162
-0.072834
-0.115562
-0.139440
-0.177475
-0.203987
-0.221009
-0.221433
-0.199541
-0.143450
-0.098797
-0.056051
-0.019709
0.023224
0.072928
0.104403
0.105199
0.108463
0.091274
0.056107
0.015083
-0.024166
-0.091393
-0.122235
-0.166360
-0.174049
-0.173682
-0.184401
-0.175853
-0.155829
-0.117846
-0.067470
-0.015722
0.027094
0.063654
0.095800
0.112337
0.105884
0.098503
0.080470
0.032780
-0.025557
-0.077591
-0.122148
-0.133941
-0.161310
-0.158759
-0.150236
-0.118081
-0.104021
-0.096100
-0.068220
-0.029755
-0.007973
0.048219
0.071346
0.066471
0.058819
0.070453
0.049405
0.000286
-0.056250
-0.103764
-0.144961
-0.181981
-0.180336
-0.185922
-0.199408
-0.190007
-0.157344
-0.130665
-0.079602
-0.029022
0.003184
0.021140
0.022315
0.018846
0.024140
0.015698
-0.005043
-0.032535
-0.075588
-0.130371
-0.172308
-0.199733
-0.216660
-0.213054
-0.206455
-0.190583
-0.166489
-0.146249
-0.105609
-0.061336
-0.017142
0.013477
0.014389
0.006112
0.005518
-0.019237
-0.062416
-0.101326
-0.105770
-0.153414
-0.182670
-0.211288
-0.243936
-0.244347
-0.240298
-0.208043
-0.186343
-0.141441
-0.098806
-0.050881
-0.004196
0.036816
0.044050
0.036487
0.030215
-0.001997
-0.025270
-0.068706
-0.125084
-0.162548
-0.216213
-0.248509
-0.272567
-0.265060
-0.259992
-0.231986
-0.186314
-0.148635
-0.091673
-0.043295
0.015771
0.038361
0.033733
0.037394
0.043897
0.012203
-0.033104
-0.081983
-0.124769
-0.177008
-0.209009
-0.239406
-0.250798
-0.264008
-0.257556
-0.230247
-0.181817
-0.146793
-0.103537
-0.048189
-0.007426
0.023357
0.034396
0.034175
0.025681
-0.007027
-0.037073
-0.081874
-0.119228
-0.138464
-0.174879
-0.183834
-0.204911
-0.193561
-0.171111
-0.154221
-0.110740
-0.047336
0.024352
0.082990
0.156499
0.211926
0.236674
0.254781
0.280776
0.300543
0.304418
0.289271
0.268162
0.264656
0.245121
0.257534
0.274954
0.293541
0.327728
0.387452
0.467960
0.559552
0.639622
0.711329
0.787903
0.863369
0.898869
0.898050
0.888252
0.875537
0.827183
0.759272
0.689893
0.607225
0.539823
0.445723
0.345213
0.290199
0.242112
0.194652
0.169583
0.146887
0.145381
0.166873
0.198659
0.228979
0.246229
0.238129
0.217087
0.181928
0.134369
0.104524
0.065588
-0.002479
-0.064421
-0.101038
-0.128995
-0.144132
-0.152909
-0.142637
-0.105946
-0.062875
-0.015697
0.006436
0.038230
0.073302
0.100969
0.109280
0.098848
0.080342
0.043093
-0.005813
-0.030246
-0.074609
-0.117375
-0.146558
-0.170836
-0.183439
-0.161775
-0.136988
-0.105959
-0.079978
-0.057178
-0.028331
0.016012
0.042795
0.069368
0.080618
0.082386
0.064587
0.031645
-0.021041
-0.062144
-0.111464
-0.134671
-0.158227
-0.189065
-0.193449
-0.178591
-0.148965
-0.133736
-0.100163
-0.053731
-0.010544
0.039759
0.063242
0.069353
0.070358
0.056968
0.044645
0.018604
-0.013431
-0.055446
-0.088973
-0.119988
-0.156564
-0.171442
-0.168431
-0.149479
-0.137747
-0.107004
-0.054126
-0.015534
0.027097
0.056950
0.077074
0.102014
0.086713
0.094239
0.068831
0.034439
-0.012667
-0.057074
-0.112353
-0.129719
-0.148844
-0.175098
-0.160067
-0.149327
-0.103482
-0.072237
-0.018660
0.017664
0.054061
0.099179
0.131577
0.131314
0.133737
0.123547
0.111605
0.085733
0.049658
-0.002679
-0.051456
-0.086883
-0.124386
-0.138803
-0.134507
-0.127185
-0.108539
-0.074988
-0.034570
0.012655
0.080369
0.132168
0.166553
0.186028
0.202488
0.193984
0.168875
0.123535
0.083004
0.037788
-0.009579
-0.046945
-0.074968
-0.096623
-0.104075
-0.104675
-0.079823
-0.042668
0.010683
0.055779
0.097891
0.157783
0.198861
0.232001
0.222401
0.227165
0.203302
0.166885
0.123068
0.078973
0.016848
-0.023705
-0.060479
-0.080238
-0.092523
-0.090901
-0.077253
-0.042382
0.022742
0.071613
0.112621
0.158614
0.205972
0.231951
0.231639
0.234943
0.215932
0.172525
0.142611
0.086349
0.037114
-0.011746
-0.050946
-0.067513
-0.068743
-0.079376
-0.066759
-0.045807
0.000200
0.047416
0.093598
0.137363
0.187198
0.210291
0.193041
0.183638
0.160180
0.149541
0.124615
0.055071
0.020545
-0.033691
-0.061130
-0.096328
-0.111606
-0.100396
-0.096478
-0.063048
-0.022648
0.030958
0.062497
0.092742
0.117623
0.141524
0.132167
0.125054
0.112526
0.086043
0.060514
0.020032
-0.028301
-0.077589
-0.108910
-0.132224
-0.148821
-0.141177
-0.118742
-0.100306
-0.056825
-0.003309
0.035164
0.064744
0.079594
0.078123
0.082667
0.095173
0.089985
0.061198
0.010425
-0.040810
-0.073240
-0.114600
-0.150249
-0.172715
-0.170775
-0.168908
-0.147537
-0.118840
-0.077926
-0.041502
-0.004634
0.024180
0.061892
0.076806
0.078904
0.077017
0.060651
0.028333
-0.013780
-0.067074
-0.114583
-0.155423
-0.181424
-0.197124
-0.187930
-0.191884
-0.164001
-0.135148
-0.103429
-0.061223
-0.013039
0.012931
0.053393
0.082549
0.070508
0.055616
0.036262
0.002210
-0.038829
-0.076169
-0.109773
-0.151044
-0.177854
-0.207537
-0.212546
-0.186738
-0.164903
-0.132208
-0.108775
-0.055736
-0.010118
0.037357
0.078657
0.111966
0.100724
0.091671
0.056947
0.018630
-0.022037
-0.067471
-0.121463
-0.166597
-0.190749
-0.219132
-0.223036
-0.206168
-0.184751
-0.159424
-0.100662
-0.034466
0.017352
0.046422
0.059845
0.085012
0.095432
0.094547
0.071830
0.033171
-0.011776
-0.050893
-0.086028
-0.139335
-0.181676
-0.202195
-0.212116
-0.201291
-0.182956
-0.142623
-0.100084
-0.045644
-0.009022
0.044772
0.079958
0.107691
0.105602
0.092052
0.069248
0.030660
0.002842
-0.026187
-0.083565
-0.129422
-0.156095
-0.188086
-0.205176
-0.202743
-0.184562
-0.168269
-0.110438
-0.059659
-0.010935
0.036834
0.065825
0.085944
0.085954
0.104933
0.093228
0.056101
0.019045
-0.021895
-0.075932
-0.127256
-0.164332
-0.192870
-0.186454
-0.182886
-0.153712
-0.139720
-0.107934
-0.054844
-0.001910
0.051591
0.085732
0.101308
0.103731
0.095447
0.073818
0.039169
0.002239
-0.044027
-0.080262
-0.107710
-0.155823
-0.188631
-0.196249
-0.192487
-0.162716
-0.128171
-0.112947
-0.080120
-0.027013
0.012711
0.050889
0.073768
0.081127
0.065215
0.037331
0.012758
-0.006330
-0.044964
-0.078065
-0.125883
-0.166787
-0.190195
-0.200002
-0.176753
-0.154053
-0.128621
-0.102132
-0.059337
-0.026500
0.015974
0.054639
0.080869
0.090387
0.071575
0.053517
0.021703
-0.031656
-0.081209
-0.117799
-0.145311
-0.171982
-0.182658
-0.175535
-0.173819
-0.156039
-0.135234
-0.089469
-0.058919
-0.025133
0.031749
0.054909
0.059551
0.065254
0.050578
0.027331
-0.009602
-0.024421
-0.073158
-0.125820
-0.146019
-0.177289
-0.203001
-0.199857
-0.200563
-0.161705
-0.128608
-0.096236
-0.049957
-0.008325
0.025682
0.048731
0.060608
0.053776
0.052269
0.048310
0.019779
-0.026350
-0.081428
-0.128344
-0.170149
-0.199846
-0.224913
-0.205467
-0.199750
-0.175254
-0.137683
-0.108048
-0.045423
-0.000580
0.035025
0.071595
0.090052
0.084766
0.066305
0.042014
-0.008523
-0.043395
-0.089256
-0.147918
-0.190298
-0.219173
-0.240349
-0.242443
-0.214768
-0.183140
-0.153251
-0.103245
-0.073688
-0.016162
0.018426
0.062285
0.087172
0.102830
0.098063
0.060798
0.021175
-0.024297
-0.085674
-0.124161
-0.173015
-0.214736
-0.235815
-0.242847
-0.235513
-0.196368
-0.160321
-0.113108
-0.074751
-0.036921
0.011549
0.049576
0.078039
0.082502
0.073303
0.047157
0.010042
-0.040335
-0.097698
-0.126186
-0.158822
-0.196908
-0.232350
-0.246109
-0.243817
-0.217134
-0.185254
-0.142231
-0.072376
-0.018784
0.012112
0.039521
0.090707
0.099961
0.089066
0.059067
0.018513
-0.025911
-0.074859
-0.113712
-0.158636
-0.196249
-0.207095
-0.207974
-0.202106
-0.177227
-0.155174
-0.121576
-0.059006
-0.010596
0.027886
0.055356
0.083392
0.101086
0.092241
0.076871
0.035464
-0.000565
-0.037024
-0.080496
-0.132130
-0.159117
-0.176239
-0.172673
-0.171611
-0.162315
-0.133135
-0.096011
-0.053382
0.003170
0.039209
0.064671
0.082521
0.088660
0.084743
0.068695
0.053401
0.022968
0.003035
-0.052962
-0.094946
-0.126302
-0.142780
-0.156643
-0.152148
-0.137437
-0.116249
-0.071835
-0.036114
0.027041
0.071644
0.086010
0.102244
0.116467
0.106538
0.095016
0.058387
0.013477
-0.049630
-0.076187
-0.115501
-0.155176
-0.180375
-0.177809
-0.168770
-0.147186
-0.123791
-0.098310
-0.064747
-0.026448
0.016895
0.045363
0.072447
0.061911
0.058694
0.031623
0.000408
-0.029893
-0.094184
-0.122084
-0.167837
-0.203992
-0.224150
-0.224114
-0.201466
-0.190737
-0.162455
-0.131181
-0.097849
-0.047543
-0.010888
0.037033
0.046704
0.052445
0.044742
0.025849
-0.013530
-0.061891
-0.107677
-0.144961
-0.196971
-0.218421
-0.222303
-0.228954
-0.220536
-0.205234
-0.168389
-0.123235
-0.082296
-0.038376
-0.001842
0.012017
0.025903
0.048491
0.034770
0.004911
-0.024763
-0.066702
-0.103928
-0.145092
-0.194159
-0.224405
-0.245765
-0.246238
-0.240013
-0.210575
-0.169035
-0.142206
-0.088602
-0.032193
0.001272
0.026034
0.047513
0.065394
0.054795
0.023484
-0.021472
-0.064068
-0.111971
-0.163924
-0.214627
-0.259303
-0.262014
-0.243626
-0.231102
-0.210329
-0.167233
-0.113632
-0.086895
-0.051222
-0.003896
0.031624
0.059537
0.062447
0.045938
0.028089
-0.006263
-0.062669
-0.119387
-0.161490
-0.210627
-0.249191
-0.255491
-0.276968
-0.270858
-0.237511
-0.197460
-0.140331
-0.087557
-0.019920
0.039800
0.086986
0.122676
0.130671
0.136339
0.132679
0.113278
0.072607
0.032377
0.006494
-0.019026
-0.002126
-0.010186
0.002361
0.049501
0.105722
0.174192
0.250141
0.322109
0.413175
0.497964
0.574840
0.633624
0.677612
0.709212
0.735147
0.738371
0.723977
0.697500
0.681643
0.650761
0.614980
0.580666
0.575410
0.549923
0.546874
0.549787
0.577815
0.595423
0.573724
0.549059
0.524445
0.489875
0.448310
0.394661
0.333022
0.256356
0.188529
0.122070
0.068229
0.022804
-0.022070
-0.053628
-0.087941
-0.095065
-0.079904
-0.047973
-0.024067
-0.001889
0.032454
0.080242
0.115955
0.136347
0.131503
0.120628
0.089538
0.071490
0.023632
-0.017270
-0.052399
-0.092565
-0.132779
-0.173094
-0.185504
-0.175503
-0.172016
-0.127730
-0.083800
-0.060367
-0.012187
0.042874
0.071152
0.090743
0.091267
0.078519
0.046281
0.014734
-0.028193
-0.054853
-0.091791
-0.115345
-0.145331
-0.172485
-0.186571
-0.186412
-0.159593
-0.119164
-0.090299
-0.064863
-0.022304
0.033582
0.052515
0.058981
0.076039
0.055939
0.035808
0.028294
-0.011367
-0.054985
-0.100944
-0.135209
-0.160232
-0.182893
-0.183135
-0.172486
-0.158264
-0.126016
-0.087529
-0.037374
0.006960
0.046976
0.071748
0.072491
0.076419
0.066524
0.045392
0.018308
-0.004759
-0.039774
-0.086974
-0.124047
-0.169372
-0.173401
-0.156836
-0.151677
-0.131558
-0.109652
-0.063209
-0.012233
0.035478
0.082458
0.113127
0.118581
0.120211
0.105693
0.083940
0.053208
0.015713
-0.029315
-0.081677
-0.122070
-0.148438
-0.163443
-0.158818
-0.138899
-0.109249
-0.070222
-0.025700
0.020421
0.070187
0.105899
0.143224
0.158297
0.167196
0.152118
0.134056
0.099789
0.046450
0.002476
-0.031013
-0.076519
-0.103328
-0.116835
-0.126106
-0.119019
-0.098891
-0.062854
-0.005693
0.049532
0.110626
0.153177
0.176571
0.194762
0.201609
0.192316
0.165183
0.141024
0.101390
0.045057
-0.012487
-0.052622
-0.080460
-0.104210
-0.102821
-0.090427
-0.069028
-0.031884
0.018870
0.060448
0.102368
0.148725
0.185157
0.207723
0.215877
0.210336
0.189523
0.153949
0.118196
0.072274
0.021068
-0.025360
-0.064264
-0.086273
-0.084197
-0.072378
-0.061553
-0.042467
-0.006649
0.030607
0.085453
0.142349
0.175307
0.196286
0.216723
0.196175
0.167427
0.136765
0.107433
0.055847
0.001417
-0.058353
-0.070473
-0.074374
-0.104162
-0.099183
-0.081781
-0.053641
-0.016261
0.019328
0.067224
0.112759
0.145114
0.164372
0.171685
0.158174
0.143924
0.116102
0.060767
0.023131
-0.011759
-0.055168
-0.097654
-0.133001
-0.159531
-0.161625
-0.139921
-0.110520
-0.074086
-0.036919
0.018072
0.047992
0.079097
0.093318
0.113711
0.120297
0.094383
0.062534
0.028335
-0.040945
-0.093436
-0.133315
-0.145931
-0.152777
-0.169343
-0.176060
-0.166441
-0.142095
-0.102472
-0.066430
-0.023261
0.015637
0.043951
0.054252
0.060617
0.059129
0.040760
0.010891
-0.025258
-0.067292
-0.122757
-0.151656
-0.174655
-0.185203
-0.202000
-0.183270
-0.180652
-0.158936
-0.119356
-0.082222
-0.051059
-0.009422
0.018088
0.033362
0.047239
0.034624
0.012018
-0.016492
-0.055259
-0.093439
-0.131987
-0.156084
-0.188396
-0.229234
-0.234507
-0.219984
-0.173584
-0.136343
-0.107909
-0.064915
-0.035930
-0.008404
0.018531
0.038581
0.059848
0.055305
0.028844
-0.006182
-0.048062
-0.081545
-0.137344
-0.181413
-0.202175
-0.216785
-0.220969
-0.203414
-0.183292
-0.154208
-0.106700
-0.055038
-0.021971
0.012454
0.040043
0.054420
0.046209
0.045100
0.027754
-0.009899
-0.048752
-0.107713
-0.150839
-0.188920
-0.211868
-0.225858
-0.226009
-0.208061
-0.194196
-0.160980
-0.104918
-0.057230
-0.011684
0.013692
0.038719
0.065985
0.070365
0.063276
0.017118
-0.016349
-0.038559
-0.071005
-0.127230
-0.175940
-0.209092
-0.238094
-0.238911
-0.227496
-0.202279
-0.163456
-0.115070
-0.069819
-0.020821
0.025568
0.069696
0.089559
0.102742
0.083620
0.055977
0.016409
-0.049241
-0.092755
-0.143431
-0.176409
-0.213652
-0.227805
-0.235661
-0.226215
-0.200489
-0.154694
-0.120886
-0.073777
-0.026832
0.021065
0.059190
0.062088
0.076897
0.063793
0.053261
0.006322
-0.045928
-0.079286
-0.122271
-0.171904
-0.206766
-0.227646
-0.246103
-0.254208
-0.223587
-0.172368
-0.143890
-0.101488
-0.051577
-0.016787
0.046987
0.070360
0.071957
0.062914
0.052937
0.010169
-0.023875
-0.081815
-0.129882
-0.184498
-0.218999
-0.237282
-0.247808
-0.236806
-0.214930
-0.189931
-0.152188
-0.120264
-0.073712
-0.023493
0.017398
0.040113
0.052735
0.048442
0.029407
-0.002379
-0.049811
-0.096961
-0.135082
-0.177150
-0.201445
-0.231576
-0.244973
-0.247371
-0.232028
-0.193207
-0.154268
-0.107757
-0.050054
-0.022778
0.014766
0.032848
0.040852
0.043998
0.007910
-0.010681
-0.060432
-0.090897
-0.146061
-0.199922
-0.232009
-0.242493
-0.241997
-0.237388
-0.219301
-0.191211
-0.139599
-0.101687
-0.055741
-0.021060
-0.001590
0.021813
0.020208
0.034588
0.010207
-0.025605
-0.063676
-0.105945
-0.149039
-0.178106
-0.206352
-0.227086
-0.233144
-0.231421
-0.211884
-0.187566
-0.149881
-0.124028
-0.067612
-0.004182
0.022024
0.032756
0.035273
0.011860
-0.018109
-0.047029
-0.073446
-0.111803
-0.152752
-0.189736
-0.227629
-0.243941
-0.253634
-0.248014
-0.214727
-0.175321
-0.138500
-0.094893
-0.058483
-0.014705
0.007004
0.024484
0.025600
0.008638
-0.041650
-0.046777
-0.090503
-0.152865
-0.191191
-0.214892
-0.246194
-0.260894
-0.269221
-0.261871
-0.226307
-0.182245
-0.143361
-0.101092
-0.053900
-0.023246
0.014246
0.040540
0.039452
0.024798
-0.000384
-0.032997
-0.080481
-0.127496
-0.176240
-0.212866
-0.243968
-0.266080
-0.270541
-0.259196
-0.222587
-0.184233
-0.155559
-0.108781
-0.058768
-0.015640
0.015209
0.031369
0.045235
0.031961
-0.001075
-0.041985
-0.089851
-0.141034
-0.195439
-0.235270
-0.266439
-0.272862
-0.264071
-0.260912
-0.240612
-0.208648
-0.154295
-0.114712
-0.072156
-0.035073
0.009468
0.053774
0.063706
0.049413
0.020687
-0.015061
-0.053149
-0.097705
-0.144365
-0.184803
-0.232210
-0.261647
-0.270795
-0.259802
-0.213732
-0.187579
-0.136654
-0.078592
-0.027763
-0.001790
0.031903
0.059313
0.066784
0.074357
0.037825
-0.008571
-0.066291
-0.076699
-0.118836
-0.169792
-0.214142
-0.242233
-0.255610
-0.252392
-0.220789
-0.173227
-0.144587
-0.092975
-0.043393
-0.001727
0.046462
0.064214
0.078374
0.070290
0.053894
0.019673
-0.015007
-0.061401
-0.105149
-0.134688
-0.175008
-0.208090
-0.223043
-0.218202
-0.191044
-0.160057
-0.117517
-0.073131
-0.035098
-0.000974
0.020204
0.047014
0.050007
0.045941
0.018780
-0.001432
-0.036514
-0.069104
-0.127570
-0.175979
-0.204976
-0.217279
-0.224369
-0.227450
-0.220674
-0.195416
-0.154431
-0.106092
-0.070958
-0.035946
0.000574
0.019370
0.031338
0.019309
0.003357
-0.029703
-0.070947
-0.116843
-0.151116
-0.194094
-0.231078
-0.251776
-0.259790
-0.265709
-0.248043
-0.213251
-0.167300
-0.122102
-0.093388
-0.064090
-0.036921
-0.024458
-0.006590
-0.005739
-0.031604
-0.063283
-0.092421
-0.136846
-0.188208
-0.225480
-0.256974
-0.271399
-0.276499
-0.280652
-0.244001
