-0.019359
0.017427
0.046190
0.089728
0.120994
0.132103
0.122721
0.070841
0.078465
0.049999
-0.006253
-0.054861
-0.105074
-0.120250
-0.121589
-0.123629
-0.125433
-0.105021
-0.082895
-0.047202
0.012881
0.069089
0.115008
0.126642
0.130283
0.169259
0.191921
0.126858
0.089609
0.050858
0.017000
-0.006896
-0.038793
-0.092703
-0.126088
-0.103243
-0.079651
-0.077687
-0.055263
0.010731
0.067843
0.113663
0.138307
0.149116
0.160143
0.169855
0.182173
0.194331
0.165719
0.118608
0.062780
0.012458
-0.031133
-0.067858
-0.092903
-0.110197
-0.105889
-0.093741
-0.072538
-0.012841
0.041853
0.080632
0.164894
0.187633
0.203496
0.214308
0.219071
0.190537
0.127702
0.081457
0.017656
-0.032530
-0.046355
-0.063261
-0.067361
-0.095794
-0.113647
-0.082411
-0.032472
0.005558
0.046117
0.085003
0.113655
0.151366
0.178633
0.195391
0.195494
0.167868
0.130179
0.076272
0.034785
-0.036216
-0.080707
-0.098211
-0.118751
-0.136569
-0.144691
-0.125822
-0.091235
-0.047259
-0.001514
0.043421
0.093853
0.114988
0.119927
0.104062
0.130346
0.107246
0.083499
0.053017
0.007094
-0.045243
-0.098124
-0.148447
-0.168254
-0.184124
-0.177056
-0.142625
-0.106885
-0.071426
-0.046105
-0.017870
0.043688
0.125473
0.136202
0.105029
0.091444
0.070467
0.042042
-0.004015
-0.038895
-0.095960
-0.139386
-0.163395
-0.193020
-0.209761
-0.226525
-0.181582
-0.149057
-0.098450
-0.064854
-0.021070
0.025236
0.073921
0.100971
0.094053
0.077719
0.076048
0.020171
-0.023472
-0.072639
-0.132498
-0.164461
-0.196551
-0.217053
-0.207237
-0.221766
-0.212732
-0.199599
-0.124587
-0.064449
-0.013454
0.031711
0.046621
0.079730
0.076808
0.072584
0.060124
0.033400
-0.012085
-0.058900
-0.117570
-0.157580
-0.170358
-0.201182
-0.212555
-0.214268
-0.174842
-0.145788
-0.109186
-0.104348
-0.037737
0.033826
0.056822
0.060095
0.053099
0.062729
0.074077
0.054518
-0.042760
-0.088204
-0.100909
-0.137281
-0.165112
-0.182636
-0.201913
-0.185348
-0.169961
-0.155302
-0.087392
-0.014434
-0.008089
0.018312
0.079551
0.104619
0.104613
0.088453
0.070923
0.034045
0.005619
-0.033654
-0.093553
-0.150715
-0.183500
-0.193575
-0.190684
-0.166681
-0.150911
-0.125131
-0.101598
-0.073444
-0.038529
-0.001340
0.070836
0.089320
0.087151
0.090548
0.107574
0.049901
0.042814
-0.007006
-0.085997
-0.139194
-0.176904
-0.208832
-0.229785
-0.213343
-0.161193
-0.130539
-0.119323
-0.056345
0.003322
0.042196
0.080886
0.106510
0.108182
0.096071
0.076433
0.027853
-0.014979
-0.032201
-0.066491
-0.118593
-0.163799
-0.193106
-0.205000
-0.193037
-0.183199
-0.135628
-0.076850
-0.047946
-0.013603
0.040522
0.048144
0.075597
0.111498
0.094685
0.073739
0.036039
-0.001537
-0.048846
-0.106046
-0.152043
-0.185428
-0.219924
-0.221613
-0.194839
-0.183308
-0.152570
-0.111330
-0.065374
-0.032004
0.025701
0.048706
0.102316
0.095277
0.104727
0.090445
0.031209
-0.004484
-0.055740
-0.109746
-0.142660
-0.199428
-0.217345
-0.204803
-0.203404
-0.175733
-0.142673
-0.105049
-0.053642
-0.005452
0.026855
0.066033
0.076139
0.052578
0.053239
0.058960
0.057319
-0.025739
-0.036747
-0.097419
-0.130268
-0.168139
-0.199337
-0.221343
-0.228835
-0.207474
-0.174316
-0.141595
-0.079433
-0.000376
0.032304
0.058375
0.076058
0.075529
0.083066
0.060605
0.029762
-0.023843
-0.087800
-0.134720
-0.158168
-0.200291
-0.218595
-0.237064
-0.231339
-0.191845
-0.159060
-0.138157
-0.086047
-0.029051
0.024819
0.070927
0.088881
0.098370
0.083134
0.054193
0.025311
-0.013630
-0.055265
-0.122798
-0.159832
-0.199520
-0.234610
-0.223409
-0.227005
-0.223150
-0.175378
-0.112311
-0.049681
-0.019947
-0.008260
0.038709
0.061777
0.087208
0.103334
0.065398
0.025434
-0.014876
-0.059483
-0.109302
-0.162956
-0.203634
-0.211568
-0.233966
-0.215035
-0.191410
-0.159830
-0.131019
-0.093017
-0.003234
0.029485
0.043392
0.051016
0.069227
0.058092
0.042061
0.032949
0.006696
-0.041518
-0.104692
-0.157862
-0.197560
-0.227275
-0.240514
-0.224682
-0.178700
-0.158004
-0.131082
-0.089059
-0.053322
-0.001187
0.037089
0.065682
0.096073
0.107657
0.072854
0.023020
-0.036840
-0.094939
-0.129940
-0.148632
-0.203347
-0.219076
-0.233469
-0.182791
-0.173802
-0.149753
-0.116403
-0.086514
-0.032366
0.015337
0.073113
0.098507
0.100491
0.099310
0.078278
0.050250
0.045373
-0.004217
-0.076795
-0.120089
-0.156881
-0.192008
-0.202629
-0.197636
-0.173115
-0.142162
-0.094123
-0.036401
-0.000864
0.029022
0.093034
0.114599
0.109025
0.104753
0.085583
0.048941
-0.007044
-0.030437
-0.071848
-0.107452
-0.139778
-0.169729
-0.190754
-0.173617
-0.135002
-0.096484
-0.070501
0.004611
0.037911
0.068028
0.096692
0.134189
0.157037
0.147545
0.126714
0.094186
0.060040
-0.008996
-0.083839
-0.135402
-0.152573
-0.150268
-0.157236
-0.144310
-0.126057
-0.125906
-0.099232
-0.052495
0.011861
0.038616
0.067875
0.094067
0.105073
0.112099
0.087959
0.044548
-0.003985
-0.051852
-0.114046
-0.171713
-0.194591
-0.226061
-0.238326
-0.208480
-0.186106
-0.170634
-0.113330
-0.054818
-0.009329
0.013267
0.042932
0.061120
0.076061
0.065452
0.036178
0.004108
-0.025776
-0.078282
-0.115892
-0.149236
-0.194605
-0.220615
-0.244192
-0.254672
-0.241753
-0.213056
-0.145264
-0.093709
-0.065103
-0.014288
0.007724
0.055654
0.071551
0.051163
0.029876
0.025019
0.002564
-0.067449
-0.136822
-0.180981
-0.199165
-0.230188
-0.227155
-0.227301
-0.224767
-0.192496
-0.147642
-0.100719
-0.034790
0.027257
0.052468
0.051083
0.080976
0.071365
0.046866
0.028975
-0.025076
-0.075288
-0.128837
-0.176249
-0.230980
-0.226389
-0.255494
-0.237675
-0.193796
-0.149888
-0.127102
-0.111003
-0.031427
0.022322
0.059207
0.078187
0.075592
0.067961
0.059958
0.033705
-0.027790
-0.093112
-0.138716
-0.190909
-0.226343
-0.236138
-0.253922
-0.233881
-0.215502
-0.196440
-0.145669
-0.101921
-0.039019
0.016293
0.090015
0.104476
0.105715
0.106298
0.112702
0.104795
0.099122
0.064759
0.031487
-0.014196
-0.033939
-0.033046
-0.037589
0.004047
0.061828
0.127690
0.207861
0.300258
0.388508
0.467987
0.539305
0.587454
0.641932
0.670466
0.674902
0.678305
0.674498
0.662661
0.649452
0.645461
0.633093
0.596636
0.575369
0.581324
0.585357
0.586396
0.617029
0.662218
0.685434
0.642686
0.606003
0.596856
0.566537
0.493351
0.399251
0.347011
0.254662
0.159765
0.098848
0.050765
0.001689
-0.029116
-0.059211
-0.058777
-0.054346
-0.015345
0.005419
0.041436
0.071365
0.108419
0.136560
0.162209
0.183082
0.178223
0.153253
0.121589
0.065913
0.006121
-0.057312
-0.094719
-0.106914
-0.125994
-0.145214
-0.151961
-0.141745
-0.110691
-0.086464
-0.049521
0.011871
0.040182
0.087314
0.123331
0.138470
0.124356
0.099185
0.076591
0.016546
-0.025254
-0.068211
-0.106269
-0.142880
-0.174275
-0.193252
-0.189529
-0.169738
-0.134543
-0.071073
-0.035647
-0.008142
0.020654
0.065745
0.112250
0.126656
0.114995
0.081375
0.060777
0.035025
-0.012815
-0.065779
-0.092554
-0.137190
-0.172210
-0.208122
-0.221080
-0.188308
-0.121153
-0.040877
-0.003129
0.013814
0.059635
0.098594
0.114173
0.124116
0.112454
0.109277
0.093939
0.055456
-0.010882
-0.087191
-0.101309
-0.140020
-0.155524
-0.169547
-0.149047
-0.142152
-0.092599
-0.036017
0.019298
0.054781
0.096085
0.137109
0.145887
0.150848
0.145183
0.126826
0.097659
0.044597
0.003815
-0.010029
-0.052705
-0.088716
-0.116579
-0.129678
-0.127394
-0.112623
-0.076361
-0.005632
0.046051
0.070493
0.102275
0.152999
0.202717
0.205184
0.174812
0.155572
0.143853
0.100725
0.057215
0.005935
-0.040229
-0.081902
-0.089119
-0.106121
-0.109554
-0.061708
-0.042957
0.000513
0.067829
0.110241
0.153493
0.186436
0.209735
0.223322
0.208535
0.192941
0.174025
0.134462
0.091401
0.032007
-0.007953
-0.049689
-0.069989
-0.085682
-0.087175
-0.064125
-0.033163
0.009126
0.083860
0.166856
0.198332
0.232632
0.235419
0.232819
0.226346
0.203329
0.192711
0.137793
0.081943
0.032796
-0.009084
-0.034815
-0.048159
-0.066867
-0.050795
-0.028407
0.003570
0.035072
0.070506
0.124628
0.166583
0.180269
0.191241
0.223906
0.220648
0.200817
0.198136
0.157477
0.070904
0.013308
-0.009186
-0.071066
-0.079127
-0.079893
-0.072608
-0.061903
-0.030326
-0.011139
0.021225
0.044632
0.122479
0.224498
0.255781
0.242743
0.220771
0.179988
0.149047
0.088520
-0.009348
-0.064893
-0.032969
-0.048517
-0.086280
-0.127758
-0.125593
-0.104302
-0.077965
-0.041045
0.004722
0.044577
0.082383
0.122828
0.140666
0.164431
0.166288
0.133601
0.107274
0.083536
0.031142
-0.019510
-0.083720
-0.134137
-0.163451
-0.177236
-0.187113
-0.164196
-0.119560
-0.073586
-0.025908
0.015295
0.079356
0.113447
0.136485
0.119661
0.111146
0.105441
0.067376
0.017718
0.006035
-0.050397
-0.137344
-0.149009
-0.149526
-0.178314
-0.200897
-0.154111
-0.115719
-0.085625
-0.040450
0.010911
0.049674
0.081721
0.113750
0.127075
0.116738
0.110895
0.086740
0.046872
-0.015613
-0.063909
-0.113096
-0.145296
-0.148234
-0.164636
-0.175441
-0.168140
-0.125829
-0.084985
-0.060800
-0.029210
0.060286
0.117080
0.109622
0.106865
0.116336
0.103841
0.057623
0.027113
-0.019694
-0.049792
-0.058417
-0.103233
-0.144989
-0.160946
-0.179863
-0.159850
-0.113383
-0.075302
-0.021097
0.017064
0.076839
0.101107
0.124517
0.150277
0.141116
0.109385
0.071204
0.035645
-0.002437
-0.067599
-0.111010
-0.148865
-0.159043
-0.170445
-0.159128
-0.131338
-0.114747
-0.080027
-0.010321
0.028906
0.064861
0.103165
0.147200
0.164315
0.128671
0.062910
0.044963
0.038653
0.020727
-0.026054
-0.090529
-0.147861
-0.174594
-0.154496
-0.151938
-0.128217
-0.068084
-0.033554
0.004288
0.039192
0.082333
0.110772
0.118389
0.102002
0.152370
0.140428
0.080902
-0.003840
-0.035552
-0.034537
-0.088218
-0.134319
-0.140094
-0.160137
-0.166580
-0.122039
-0.083809
-0.042210
0.021708
0.075446
0.073317
0.089583
0.103869
0.145919
0.139769
0.085922
0.065888
0.035654
0.009341
-0.056764
-0.111312
-0.145555
-0.173158
-0.191501
-0.185611
-0.165167
-0.135038
-0.070283
-0.010916
0.033265
0.078256
0.111966
0.127293
0.143128
0.153720
0.125665
0.084587
0.043795
-0.010672
-0.065524
-0.112758
-0.128994
-0.175175
-0.207909
-0.213680
-0.161607
-0.126482
-0.111130
-0.053032
0.018759
0.069418
0.080909
0.091323
0.122927
0.127603
0.116507
0.093274
0.059001
-0.038869
-0.106827
-0.121060
-0.122178
-0.162203
-0.174459
-0.168037
-0.157147
-0.113319
-0.078097
-0.042114
0.027992
0.067382
0.084636
0.084617
0.156760
0.139294
0.133203
0.099165
0.032501
-0.067694
-0.127249
-0.117817
-0.143708
-0.162330
-0.189270
-0.194339
-0.168954
-0.140465
-0.102895
-0.050993
0.012127
0.075201
0.102038
0.120037
0.142845
0.134256
0.118267
0.072208
-0.001578
-0.043674
-0.060900
-0.107856
-0.160866
-0.181960
-0.192549
-0.191377
-0.160116
-0.144787
-0.092535
-0.027777
0.022368
0.052621
0.039190
0.057633
0.095532
0.131340
0.106821
0.064077
0.027399
-0.003419
-0.054577
-0.134766
-0.179710
-0.189224
-0.181141
-0.159462
-0.172660
-0.125823
-0.080329
-0.033915
0.014331
0.049218
0.061158
0.107293
0.128674
0.113675
0.096831
0.066552
0.017030
-0.016381
-0.070543
-0.146429
-0.162054
-0.164784
-0.174961
-0.164602
-0.171211
-0.134578
-0.102456
-0.077577
-0.015864
0.049543
0.080410
0.108636
0.127399
0.133367
0.143602
0.063813
-0.016090
-0.044986
-0.088367
-0.129207
-0.160729
-0.231241
-0.258041
-0.208655
-0.144949
-0.112181
-0.087320
-0.041096
0.003346
0.055350
0.088515
0.098310
0.096824
0.112486
0.106882
0.051135
-0.003260
-0.041846
-0.094954
-0.117845
-0.154170
-0.180078
-0.186169
-0.176839
-0.155514
-0.128384
-0.102746
-0.055153
-0.005925
0.042560
0.077708
0.102470
0.100754
0.103255
0.091871
0.079271
0.028594
-0.027768
-0.064249
-0.092010
-0.127375
-0.125745
-0.137783
-0.169952
-0.178690
-0.143955
-0.085923
-0.019603
0.036158
0.092824
0.117410
0.129887
0.134608
0.145111
0.141612
0.115439
0.063435
-0.010454
-0.048651
-0.094430
-0.114423
-0.121215
-0.139666
-0.135666
-0.117449
-0.092452
-0.067261
-0.016721
0.032917
0.098172
0.128852
0.110570
0.150096
0.172585
0.193519
0.120766
0.070281
0.023085
-0.009119
-0.077624
-0.123813
-0.151353
-0.154825
-0.144872
-0.090617
-0.056709
-0.015753
0.022085
0.069644
0.090151
0.124520
0.133303
0.113330
0.126586
0.144782
0.088622
0.043648
-0.014890
-0.063299
-0.148269
-0.170378
-0.157616
-0.148268
-0.152425
-0.168703
-0.148650
-0.089247
-0.005680
0.021392
0.077012
0.107705
0.130241
0.124710
0.132007
0.103225
0.045903
-0.001667
-0.054471
-0.104250
-0.152861
-0.216435
-0.233005
-0.219282
-0.195497
-0.164910
-0.139907
-0.089759
-0.038883
0.001764
0.035860
0.063411
0.067288
0.061483
0.059746
0.062022
0.051427
0.019778
-0.034998
-0.116191
-0.160377
-0.189370
-0.208468
-0.221924
-0.211902
-0.177276
-0.152695
-0.104869
-0.051630
0.001217
0.013417
0.043692
0.086179
0.104328
0.089363
0.061395
0.040005
0.006868
-0.056099
-0.127895
-0.131769
-0.150930
-0.196002
-0.212825
-0.227197
-0.195678
-0.147352
-0.116385
-0.055691
-0.006260
0.051271
0.091216
0.113380
0.092349
0.057395
0.010086
0.030361
0.019072
-0.028921
-0.099260
-0.162010
-0.184218
-0.193253
-0.199618
-0.202840
-0.159676
-0.162216
-0.133532
-0.083740
-0.016528
0.036186
0.056949
0.089107
0.095868
0.087335
0.074865
0.039234
-0.007410
-0.054475
-0.111129
-0.139742
-0.152138
-0.167262
-0.159212
-0.157055
-0.102251
-0.059237
0.014645
0.061558
0.112314
0.208293
0.291875
0.323499
0.353303
0.372001
0.381040
0.385296
0.381960
0.358121
0.379691
0.340226
0.311187
0.330968
0.366974
0.426918
0.459872
0.529030
0.627985
0.720586
0.790942
0.870759
0.905537
0.910383
0.919215
0.890762
0.883034
0.820728
0.741120
0.674758
0.550489
0.435193
0.344598
0.241400
0.175090
0.149084
0.121743
0.115135
0.127879
0.160891
0.177121
0.195788
0.211852
0.260383
0.254788
0.274350
0.236619
0.155122
0.086408
0.082635
0.037424
-0.022949
-0.059561
-0.115971
-0.152380
-0.145426
-0.083225
-0.051190
-0.050877
-0.023364
0.067213
0.131251
0.123573
0.135775
0.158561
0.147999
0.140642
0.119524
0.084956
0.031653
-0.026712
-0.075295
-0.154443
-0.165009
-0.193342
-0.192372
-0.174699
-0.125152
-0.081434
-0.031049
0.046717
0.126149
0.161133
0.156315
0.154756
0.142356
0.103828
0.076678
0.016726
-0.029490
-0.061676
-0.104283
-0.105927
-0.151303
-0.144669
-0.147104
-0.138102
-0.102463
-0.038985
-0.013317
0.038107
0.045195
0.071385
0.124099
0.131365
0.118766
0.141303
0.108724
0.054520
-0.019008
-0.054652
-0.080820
-0.133064
-0.148917
-0.157989
-0.172810
-0.123459
-0.092788
-0.036138
0.015350
0.073130
0.108650
0.134804
0.151519
0.161679
0.146323
0.133162
0.114828
0.068407
0.007474
-0.033251
-0.062087
-0.098061
-0.123927
-0.141346
-0.127697
-0.103237
-0.080125
-0.043716
0.028832
0.091330
0.150426
0.182222
0.202980
0.190202
0.178904
0.150763
0.114876
0.093061
0.047358
-0.005368
-0.041112
-0.057009
-0.060474
-0.089127
-0.089001
-0.057097
-0.022587
0.022253
0.071350
0.115886
0.160198
0.201709
0.207210
0.213051
0.208977
0.186552
0.149281
0.096450
0.085444
0.072978
0.037086
0.000536
-0.016816
-0.044370
-0.059964
-0.035769
0.006843
0.036452
0.076277
0.156993
0.226556
0.254845
0.255535
0.241994
0.230885
0.231420
0.205827
0.162981
0.075865
0.005689
-0.028647
-0.017743
-0.021935
-0.040871
-0.040025
-0.024044
0.005663
0.038791
0.104199
0.158429
0.226863
0.253183
0.281697
0.268828
0.258618
0.216447
0.207749
0.172081
0.121361
0.043538
-0.013201
-0.039098
-0.043348
-0.068024
-0.066413
-0.058055
0.000739
0.060350
0.102879
0.133644
0.176442
0.211524
0.242360
0.261741
0.263967
0.208867
0.167186
0.145601
0.078383
0.004838
-0.025922
-0.062699
-0.086913
-0.105391
-0.118969
-0.076949
-0.026017
0.025230
0.061736
0.131371
0.147811
0.188176
0.210323
0.199979
0.219068
0.212383
0.163527
0.091412
0.023115
-0.007659
-0.049073
-0.088499
-0.125817
-0.119228
-0.106073
-0.108526
-0.085517
-0.046688
0.015629
0.076171
0.110941
0.120480
0.120729
0.152362
0.164838
0.153836
0.149391
0.082526
-0.006638
-0.062403
-0.092377
-0.122419
-0.159355
-0.150210
-0.137628
-0.128198
-0.077033
-0.038261
0.010580
0.062215
0.074923
0.088369
0.130726
0.160087
0.129095
0.121127
0.097436
0.022853
-0.015622
-0.055675
-0.077745
-0.120612
-0.139798
-0.138643
-0.140416
-0.129442
-0.115152
-0.056335
0.007291
0.065991
0.093176
0.089811
0.126861
0.143545
0.132831
0.115713
0.081371
0.028860
0.001950
-0.028183
-0.112503
-0.145055
-0.157121
-0.134087
-0.100592
-0.114627
-0.124889
-0.089990
-0.002242
0.073679
0.106851
0.133360
0.167482
0.157251
0.146300
0.133445
0.094649
0.058809
-0.000509
-0.040694
-0.085264
-0.101679
-0.118069
-0.161688
-0.158970
-0.135280
-0.073416
-0.023040
0.012835
0.053678
0.090392
0.123920
0.152819
0.156740
0.164701
0.121659
0.108922
0.063880
0.015014
-0.034376
-0.066327
-0.097294
-0.125969
-0.167236
-0.165768
-0.122119
-0.039073
0.010877
0.014690
0.034584
0.100212
0.162992
0.184875
0.173117
0.161763
0.135745
0.088315
0.085641
0.030965
-0.030093
-0.070221
-0.098253
-0.134615
-0.126863
-0.129995
-0.100287
-0.078598
-0.031811
0.032880
0.071971
0.100333
0.143329
0.168259
0.147345
0.145268
0.130534
0.104620
0.070058
-0.000621
-0.060256
-0.119344
-0.126959
-0.119013
-0.110769
-0.088572
-0.096193
-0.087463
-0.057908
0.026601
0.060716
0.084330
0.096301
0.132456
0.145710
0.153542
0.143891
0.103989
0.047171
0.004912
-0.035582
-0.086967
-0.128386
-0.155464
-0.145728
-0.130638
-0.093088
-0.082273
-0.064995
-0.010683
0.057275
0.119401
0.145382
0.153877
0.155828
0.160380
0.129954
0.080296
0.040102
0.005103
-0.042623
-0.086326
-0.149222
-0.178382
-0.173041
-0.128717
-0.110948
-0.057923
-0.038812
-0.019979
0.038056
0.094097
0.117845
0.166504
0.161180
0.147990
0.133849
0.118497
0.064264
-0.007281
-0.038824
-0.089599
-0.137345
-0.132745
-0.181787
-0.183264
-0.149207
-0.096608
-0.047091
0.007563
0.036055
0.068027
0.108073
0.154178
0.168671
0.170038
0.138745
0.114683
0.040944
-0.018225
-0.036409
-0.060522
-0.095497
-0.132753
-0.151531
-0.154064
-0.149470
-0.104272
-0.041459
-0.017944
0.034452
0.093489
0.142977
0.134080
0.121103
0.120005
0.107430
0.090297
0.014248
-0.018510
-0.043608
-0.079257
-0.136816
-0.148773
-0.160311
-0.126397
-0.112370
-0.104828
-0.072357
-0.029650
0.024852
0.085461
0.131248
0.173254
0.180874
0.155370
0.111629
0.069564
0.013517
-0.011340
-0.064404
-0.126721
-0.130143
-0.136192
-0.166286
-0.142385
-0.116755
-0.101780
-0.076756
-0.025702
0.024073
0.078674
0.113596
0.153205
0.129032
0.130462
0.114327
0.052320
0.014477
-0.008413
-0.029063
-0.066946
-0.126645
-0.161197
-0.153992
-0.162981
-0.154611
-0.113014
-0.057721
-0.017309
0.026553
0.087140
0.111582
0.131502
0.148430
0.166124
0.154282
0.084051
0.038653
0.003991
-0.054533
-0.090304
-0.118433
-0.173311
-0.187647
-0.181831
-0.160924
-0.135224
-0.072548
-0.002566
0.056384
0.082139
0.090165
0.104898
0.126894
0.155072
0.208930
0.169263
0.071752
0.011665
-0.035115
-0.086612
-0.135953
-0.172039
-0.154481
-0.125303
-0.100892
-0.064221
-0.022333
0.033983
0.069464
0.088537
0.112271
0.175681
0.181278
0.195911
0.167353
0.142288
0.080491
0.023769
-0.000087
-0.070888
-0.105085
-0.145056
-0.130561
-0.111037
-0.095364
-0.067888
-0.034411
0.007790
0.077641
0.120718
0.135522
0.185438
0.185230
0.181677
0.161927
0.140028
0.113963
0.053038
-0.000365
-0.042347
-0.094171
-0.125477
-0.144236
-0.132397
-0.057385
-0.030500
-0.012260
0.009263
0.065194
0.112489
0.134219
0.143104
0.149518
0.157983
0.133369
0.098751
0.049585
0.016777
-0.012235
-0.077318
-0.130046
-0.158585
-0.168727
-0.135524
-0.113589
-0.090856
-0.041215
0.001255
0.024412
0.076204
0.118406
0.150800
0.131408
0.117947
0.130461
0.077398
0.032078
-0.022146
-0.076800
-0.109895
-0.132319
-0.164741
-0.183606
-0.176496
-0.148515
-0.115285
-0.073758
-0.038620
0.005645
0.041834
0.073615
0.095136
0.122833
0.144565
0.098475
0.046609
-0.014333
-0.072246
-0.107499
-0.157477
-0.148080
-0.153089
-0.178647
-0.184113
-0.171256
-0.153727
-0.077009
-0.031634
0.029172
0.080681
0.117666
0.133593
0.128062
0.111476
0.083004
0.052860
0.008916
-0.059872
-0.124695
-0.141040
-0.151218
-0.198566
-0.222208
-0.205467
-0.155540
-0.113215
-0.085282
-0.045648
-0.030474
0.048358
0.113596
0.138488
0.127304
0.110450
0.087886
0.043350
-0.004865
-0.030789
-0.075944
-0.121844
-0.173996
-0.206810
-0.182285
-0.162332
-0.174996
-0.146659
-0.105707
-0.053438
0.002711
0.051134
0.076069
0.117255
0.139471
0.129091
0.121367
0.085586
0.051108
0.002942
-0.030675
-0.043789
-0.061070
-0.084495
-0.067033
-0.036282
0.022250
0.045640
0.113275
0.172540
0.229064
0.332966
0.434040
0.476374
0.495819
0.558577
0.589827
0.586036
0.547670
0.515823
0.512597
0.520731
0.528667
0.537327
0.561108
0.596885
0.644797
0.679476
0.722096
0.785583
0.843313
0.858420
0.885280
0.865732
0.817227
0.811388
0.762534
0.601787
0.496321
0.408923
0.305061
0.196079
0.117518
0.039019
-0.009757
0.007761
0.013503
0.020935
0.055698
0.126088
0.196417
0.250907
0.258883
0.250882
0.251057
0.241471
0.203371
0.163043
0.087318
0.038847
-0.015494
-0.034503
-0.055041
-0.097151
-0.085564
-0.082561
-0.092898
-0.080074
-0.038870
0.005347
0.065316
0.112618
0.144615
0.179031
0.189572
0.186346
0.157079
0.102020
0.065693
0.023808
-0.022309
-0.073443
-0.102047
-0.123443
-0.139177
-0.140109
-0.102765
-0.073088
-0.052199
-0.011425
0.036113
0.077229
0.135170
0.151324
0.168982
0.173112
0.142300
0.096394
0.060840
0.018219
-0.020762
-0.068014
-0.131617
-0.157766
-0.144447
-0.126641
-0.105332
-0.074857
-0.040129
0.002389
0.042889
0.090603
0.129442
0.186135
0.194935
0.188250
0.150139
0.095715
0.066527
0.030215
-0.008327
-0.048210
-0.103846
-0.140793
-0.139489
-0.109314
-0.095049
-0.068144
-0.018614
0.028031
0.083114
0.116296
0.143631
0.164963
0.195001
0.163037
0.153340
0.104917
0.077847
0.044911
0.018655
-0.029955
-0.067875
-0.039258
-0.040343
-0.071095
-0.082925
-0.035613
-0.000135
0.037674
0.089968
0.139031
0.178447
0.186945
0.200707
0.209945
0.190594
0.148834
0.112196
0.065530
0.015183
-0.003119
-0.030285
-0.054818
-0.060237
-0.059196
-0.050071
-0.014421
0.020489
0.085061
0.139712
0.191111
0.212614
0.247577
0.267804
0.246057
0.210300
0.190714
0.162315
0.109644
0.067114
0.002222
-0.025292
-0.011053
-0.014078
-0.014601
0.006024
0.022700
0.067405
0.115424
0.165067
0.205994
0.245897
0.263322
0.263202
0.260680
0.253785
0.223967
0.188385
0.133626
0.061027
0.006947
0.002850
0.000641
-0.044548
-0.046353
0.001499
0.016137
0.102140
0.174513
0.192922
0.224423
0.261472
0.257553
0.251278
0.231642
0.206206
0.197675
0.169894
0.100246
0.071085
0.014458
-0.014922
0.015916
-0.023740
-0.035509
-0.045075
0.006414
0.037780
0.082139
0.137918
0.195203
0.236601
0.271128
0.269010
0.230242
0.199314
0.179805
0.126210
0.069565
0.022026
-0.020507
-0.066695
-0.083652
-0.094508
-0.089259
-0.065997
-0.036764
-0.006745
0.028455
0.098664
0.156837
0.176176
0.178231
0.185918
0.196709
0.184505
0.160389
0.099327
0.041082
-0.004475
-0.061969
-0.106687
-0.140896
-0.134261
-0.130083
-0.115374
-0.071694
-0.024102
0.005712
0.056200
0.099135
0.149847
0.171744
0.154360
0.149115
0.122362
0.108791
0.073561
0.011569
-0.042773
-0.095376
-0.109533
-0.115109
-0.172609
-0.179097
-0.135834
-0.119275
-0.034676
0.050714
0.103192
0.120930
0.135472
0.139431
0.139253
0.128795
0.110442
0.097012
0.051504
-0.013282
-0.061554
-0.099119
-0.147905
-0.184426
-0.182804
-0.157987
-0.115934
-0.120449
-0.091821
-0.036902
0.030400
0.089740
0.111354
0.130811
0.149222
0.150400
0.123075
0.086828
0.053337
-0.017798
-0.056442
-0.088743
-0.157985
-0.189142
-0.188673
-0.175806
-0.138574
-0.096669
-0.010481
0.027157
0.057159
0.118616
0.161922
0.164821
0.164971
0.145622
0.113027
0.080344
0.050954
0.001494
-0.047707
-0.080096
-0.114502
-0.146042
-0.151877
-0.154146
-0.162742
-0.132371
-0.034195
0.054972
0.083031
0.094137
0.145623
0.166099
0.205117
0.192516
0.148225
0.092693
0.028955
-0.025284
-0.059021
-0.097801
-0.139908
-0.171556
-0.133034
-0.126885
-0.129704
-0.111555
-0.066463
-0.009153
0.060040
0.099373
0.101764
0.154737
0.185203
0.162364
0.146187
0.110343
0.081870
0.028815
-0.032819
-0.078497
-0.115277
-0.149311
-0.143863
-0.145884
-0.138476
-0.119762
-0.051194
-0.000235
0.071975
0.086713
0.106510
0.121879
0.142802
0.145868
0.163294
0.150655
0.080382
0.003214
-0.047741
-0.103719
-0.136213
-0.173193
-0.170378
-0.149552
-0.124455
-0.105447
-0.066644
-0.015655
0.031941
0.077388
0.117618
0.137725
0.146334
0.136781
0.105948
0.073850
0.043295
-0.003878
-0.047921
-0.092331
-0.154512
-0.215713
-0.204392
-0.153579
-0.078019
-0.042919
-0.007324
0.035284
0.033498
0.065612
0.107971
0.135188
0.126793
0.123552
0.072590
0.068539
0.049849
0.016314
-0.054971
-0.103642
-0.125099
-0.139612
-0.152088
-0.168866
-0.155420
-0.076314
-0.056458
-0.041959
-0.019118
0.047826
0.094279
0.155564
0.139661
0.120029
0.094498
0.052921
0.004974
-0.036118
-0.076435
-0.129614
-0.174003
-0.176553
-0.157489
-0.150674
-0.135168
-0.096429
-0.055287
-0.004561
0.053507
0.078624
0.099583
0.107533
0.135255
0.144680
0.116560
0.034871
0.004071
-0.020525
-0.094862
-0.144059
-0.175858
-0.160568
-0.158434
-0.159588
-0.134171
-0.113049
-0.085067
-0.037446
0.045615
0.097851
0.113040
0.111413
0.124501
0.146222
0.106967
0.046459
0.012276
-0.030070
-0.086279
-0.116783
-0.168121
-0.192667
-0.208520
-0.186056
-0.166244
-0.113473
-0.052415
-0.016412
0.022317
0.056928
0.109404
0.149752
0.156478
0.125482
0.101465
0.056082
0.003983
-0.035831
-0.090654
-0.137045
-0.166710
-0.189353
-0.192422
-0.164642
-0.149390
-0.113650
-0.062482
-0.021997
-0.001892
0.038933
0.102875
0.113002
0.156994
0.135699
0.087339
0.074020
0.053806
-0.019036
-0.076495
-0.103202
-0.142355
-0.150042
-0.162053
-0.165729
-0.140289
-0.095987
-0.048738
-0.008518
0.042140
0.106351
0.142009
0.152120
0.181103
0.184616
0.130485
0.073461
0.037535
-0.024160
-0.075917
-0.074635
-0.085913
-0.135435
-0.186545
-0.188577
-0.157813
-0.115823
-0.045834
0.007997
0.080891
0.125326
0.178177
0.217156
0.238355
0.191951
0.160881
0.139290
0.084470
0.030423
-0.016979
-0.068128
-0.115030
-0.117788
-0.127582
-0.132731
-0.121531
-0.075088
-0.043841
-0.001570
0.048549
0.093096
0.130627
0.155363
0.155318
0.142197
0.116184
0.076956
0.045858
-0.014461
-0.061738
-0.105375
-0.159862
-0.187617
-0.217993
-0.210302
-0.196875
-0.184921
-0.128565
-0.027426
0.025889
0.039135
0.085677
0.174895
0.191520
0.151942
0.120150
0.068554
0.018330
-0.023686
-0.073857
-0.127103
-0.173311
-0.197734
-0.218804
-0.199413
-0.158991
-0.148369
-0.115733
-0.055910
-0.008795
0.028471
0.063506
0.087225
0.076735
0.081241
0.072694
0.041519
-0.022220
-0.070704
-0.070263
-0.102698
-0.173635
-0.208960
-0.212844
-0.202639
-0.184977
-0.140360
-0.096119
-0.059453
-0.014568
0.034481
0.068059
0.096033
0.093483
0.082309
0.055705
0.040492
0.006206
-0.045373
-0.097350
-0.132982
-0.182368
-0.209391
-0.244277
-0.237338
-0.199722
-0.151706
-0.087406
-0.030965
0.011337
0.039730
0.047862
0.059912
0.067875
0.078765
0.056437
0.035901
0.020209
-0.032131
-0.092437
-0.151965
-0.186376
-0.217193
-0.234103
-0.217754
-0.203888
-0.183331
-0.175869
-0.106637
0.022139
0.044736
0.057046
0.115648
0.130914
0.115393
0.094355
0.061029
0.033980
0.018426
-0.026994
-0.056671
-0.062950
-0.058605
-0.051219
-0.056230
-0.022966
0.034308
0.093329
0.148703
0.218974
0.287461
0.363653
0.415699
0.503035
0.504616
0.481808
0.465360
0.438730
0.438654
0.457496
0.457510
0.423227
0.442457
0.473712
0.490810
0.562028
0.617256
0.654374
0.714734
0.770855
0.780663
0.800355
0.805591
0.779321
0.708193
0.615663
0.531835
0.435013
0.335018
0.286684
0.197749
0.096932
0.029173
-0.014309
-0.045619
-0.071558
-0.033112
-0.015240
0.055043
0.098990
0.170019
0.189636
0.189038
0.183558
0.172696
0.154043
0.124103
0.084121
0.047024
-0.033607
-0.084373
-0.130957
-0.155464
-0.152486
-0.147066
-0.111054
-0.071609
-0.038268
-0.001665
0.036504
0.079336
0.128275
0.144152
0.149597
0.137837
0.108791
0.079484
0.041335
-0.014582
-0.064152
-0.124105
-0.170698
-0.164760
-0.203060
-0.185584
-0.146064
-0.106441
-0.074182
-0.039836
-0.011068
0.079224
0.137677
0.156308
0.149271
0.150397
0.131157
0.089132
0.032150
-0.013686
-0.056376
-0.116905
-0.160097
-0.177456
-0.171530
-0.157267
-0.147063
-0.108001
-0.048981
-0.003375
0.024978
0.067191
0.106065
0.124663
0.138421
0.129429
0.112627
0.087016
0.040433
-0.016136
-0.048570
-0.085786
-0.144837
-0.150018
-0.147565
-0.149605
-0.132621
-0.087457
-0.053627
0.009556
0.064670
0.105048
0.142093
0.145697
0.171659
0.182343
0.152240
0.113495
0.063987
0.009962
-0.034645
-0.077861
-0.094884
-0.124029
-0.147177
-0.099473
-0.070033
-0.064924
-0.022313
0.002050
0.040473
0.117581
0.188114
0.208601
0.217912
0.201474
0.176315
0.134585
0.095874
0.050226
0.006792
-0.035784
-0.060045
-0.053519
-0.076383
-0.099903
-0.087275
-0.037549
-0.005158
0.011591
0.105388
0.191819
0.232654
0.234212
0.248088
0.245071
0.191299
0.153195
0.149479
0.097127
0.039514
0.003005
-0.039786
-0.049452
-0.057848
-0.050514
-0.038413
0.000212
0.048731
0.095846
0.121586
0.167414
0.225422
0.247772
0.260465
0.257284
0.244402
0.203009
0.154005
0.111722
0.064799
0.021908
-0.018399
-0.039615
-0.054657
-0.042112
-0.025637
0.009137
0.057995
0.106689
0.163574
0.192779
0.235719
0.254622
0.248225
0.242002
0.222338
0.189406
0.140787
0.087993
0.037302
-0.011201
-0.049533
-0.063708
-0.073368
-0.050167
-0.028557
0.006651
0.049933
0.081034
0.128155
0.172529
0.190665
0.193280
0.212243
0.227486
0.200931
0.142900
0.116693
0.052034
0.008214
-0.034328
-0.077463
-0.095976
-0.089207
-0.097512
-0.081711
-0.045035
-0.012305
0.023854
0.056886
0.110460
0.162138
0.191453
0.191492
0.227429
0.187572
0.149051
0.067813
-0.008913
-0.087241
-0.069985
-0.069257
-0.094637
-0.148879
-0.141881
-0.112626
-0.083955
-0.047793
0.002767
0.063449
0.102045
0.116207
0.119473
0.114647
0.131864
0.112652
0.072239
0.034894
-0.005171
-0.047263
-0.085539
-0.137393
-0.179873
-0.183017
-0.167503
-0.138462
-0.111816
-0.066456
-0.017770
0.028547
0.062791
0.088369
0.100714
0.108527
0.098553
0.079111
0.053354
0.012035
-0.013944
-0.030363
-0.093088
-0.157691
-0.194824
-0.188853
-0.189361
-0.173764
-0.118685
-0.066143
-0.030261
0.011407
0.049409
0.087090
0.114911
0.118782
0.107823
0.083666
0.042010
0.008409
-0.035938
-0.070614
-0.114583
-0.150998
-0.161992
-0.174368
-0.164006
-0.143927
-0.117484
-0.070732
-0.025175
0.011992
0.062985
0.089652
0.120623
0.145204
0.137552
0.105787
0.062388
0.010485
-0.030471
-0.068316
-0.109817
-0.158601
-0.184715
-0.168826
-0.164848
-0.148099
-0.115744
-0.073145
-0.044132
-0.029048
0.062004
0.131641
0.142758
0.124371
0.138081
0.129213
0.080986
0.028482
-0.006031
-0.049087
-0.104219
-0.143335
-0.181395
-0.184459
-0.178682
-0.140829
-0.097583
-0.079025
-0.024003
0.028044
0.055038
0.089203
0.127412
0.152285
0.132375
0.111171
0.070737
0.014113
-0.023018
-0.059594
-0.088231
-0.142950
-0.171091
-0.185127
-0.166091
-0.147753
-0.126717
-0.066030
-0.011534
0.030556
0.054638
0.093753
0.127862
0.158971
0.139143
0.096026
0.057912
0.015740
-0.032408
-0.073672
-0.106862
-0.138784
-0.160332
-0.181992
-0.163016
-0.150266
-0.124401
-0.076864
-0.032539
0.000341
0.051150
0.097437
0.125250
0.123840
0.124538
0.101816
0.050809
0.013760
-0.034642
-0.080612
-0.135066
-0.170584
-0.170138
-0.171559
-0.160028
-0.154649
-0.129481
-0.097399
-0.025808
0.018857
0.055647
0.062753
0.053648
0.098195
0.124806
0.124395
0.082524
0.023766
-0.005089
-0.063633
-0.120945
-0.153605
-0.182198
-0.201856
-0.194972
-0.179782
-0.151951
-0.070093
0.009815
0.042495
0.046527
0.077226
0.096430
0.110252
0.109960
0.088748
0.046492
0.013360
-0.028812
-0.086193
-0.131600
-0.170435
-0.185564
-0.184529
-0.182668
-0.176197
-0.141667
-0.099827
-0.058984
-0.007052
0.040392
0.076340
0.102698
0.120908
0.119156
0.078643
0.037123
-0.015101
-0.059830
-0.101015
-0.133563
-0.171027
-0.190358
-0.182178
-0.178004
-0.171141
-0.138401
-0.097499
-0.059383
-0.020571
0.021991
0.061706
0.083991
0.102600
0.102136
0.071330
0.031359
-0.009651
-0.038113
-0.062716
-0.112060
-0.153080
-0.167669
-0.181738
-0.170478
-0.153582
-0.114554
-0.072555
-0.024830
0.007119
0.063353
0.125464
0.136156
0.134693
0.124607
0.091889
0.061708
0.056858
0.012796
-0.042889
-0.131944
-0.146720
-0.170747
-0.185548
-0.204300
-0.168457
-0.084752
0.070737
0.087217
0.063945
0.070547
0.120605
0.146247
0.148283
0.122469
0.082637
0.076105
0.046876
-0.009029
-0.050515
-0.110876
-0.146654
-0.139813
-0.145616
-0.129695
-0.117212
-0.102296
-0.054127
0.023288
0.082013
0.132310
0.147353
0.149198
0.160844
0.146898
0.131915
0.081213
0.024036
-0.031355
-0.058358
-0.106264
-0.135350
-0.150719
-0.174039
-0.174264
-0.139068
-0.095406
-0.061787
-0.022492
0.028220
0.061994
0.077889
0.105300
0.114672
0.109978
0.083174
0.041963
0.004557
-0.040350
-0.092665
-0.140368
-0.188778
-0.210923
-0.234423
-0.214454
-0.178760
-0.150361
-0.106886
-0.064885
-0.031628
0.029315
0.069582
0.076849
0.098101
0.088995
0.057023
0.010631
-0.005267
-0.063935
-0.138668
-0.178057
-0.206837
-0.237327
-0.242204
-0.210678
-0.187277
-0.168609
-0.110135
-0.054806
0.001824
0.020720
0.061168
0.089855
0.085048
0.065684
0.024679
-0.016638
0.029559
-0.001609
-0.070739
-0.130580
-0.206490
-0.236532
-0.223950
-0.231928
-0.199673
-0.166103
-0.129247
-0.091034
-0.033357
0.018543
0.055548
0.087048
0.066442
0.068241
0.088148
0.082255
0.007465
-0.073095
-0.127924
-0.167859
-0.201526
-0.245599
-0.252670
-0.216321
-0.198577
-0.175061
-0.124414
-0.108124
-0.041815
0.016422
0.028358
0.069653
0.098276
0.080723
0.039625
-0.001115
-0.027988
-0.069351
-0.112683
-0.145897
-0.170937
-0.186159
-0.189842
-0.172676
-0.137030
-0.074674
-0.009156
0.061585
0.117585
0.183764
0.218539
0.253130
0.278677
0.297600
0.300699
0.302093
0.284284
0.264376
0.259785
0.231438
0.237951
0.244741
0.237731
0.259391
0.308377
0.399074
0.499355
0.592913
0.667712
0.728459
0.811396
0.898847
0.884105
0.860200
0.862473
0.825919
0.745270
0.667011
0.592409
0.527150
0.443042
0.339189
0.271900
0.232276
0.200696
0.181952
0.159583
0.129167
0.180823
0.200079
0.186465
0.197172
0.208990
0.181595
0.153699
0.128286
0.081794
0.016763
-0.029023
-0.056330
-0.110705
-0.154502
-0.180129
-0.143934
-0.105876
-0.063980
-0.029603
0.013277
0.039246
0.086365
0.115122
0.141072
0.158747
0.143921
0.116175
0.066015
0.003829
-0.044487
-0.077511
-0.117304
-0.155382
-0.175520
-0.182039
-0.190636
-0.165628
-0.130734
-0.088860
-0.030521
0.011455
0.058447
0.085096
0.110899
0.105923
0.078952
0.063024
0.071043
0.045999
-0.034127
-0.094125
-0.116143
-0.141512
-0.194123
-0.199078
-0.173078
-0.107767
-0.084056
-0.066739
-0.025700
0.017270
0.066910
0.100601
0.119950
0.128409
0.114747
0.080957
0.047627
0.007150
-0.034020
-0.053851
-0.084786
-0.135143
-0.167449
-0.164375
-0.157943
-0.137120
-0.083708
-0.034259
-0.021865
0.027124
0.078698
0.152986
0.157301
0.150618
0.134982
0.100919
0.075781
0.041634
-0.013559
-0.070123
-0.118270
-0.169727
-0.190457
-0.167277
-0.146834
-0.121976
-0.118193
-0.034085
0.055068
0.115901
0.125531
0.127304
0.146302
0.184591
0.176033
0.158518
0.119757
0.071464
0.020346
-0.037242
-0.084700
-0.106881
-0.127966
-0.146972
-0.127896
-0.099517
-0.062715
-0.013746
0.038457
0.087320
0.136790
0.182090
0.210059
0.221180
0.213716
0.183611
0.157167
0.101215
0.055775
0.015842
-0.051663
-0.089370
-0.109956
-0.109885
-0.108047
-0.089631
-0.050851
0.025874
0.075520
0.123088
0.186569
0.260832
0.303845
0.277540
0.257570
0.221678
0.199807
0.156832
0.094848
0.047024
-0.007066
-0.040287
-0.074756
-0.077105
-0.062160
-0.033318
0.007800
0.049214
0.093157
0.137220
0.185769
0.213329
0.235859
0.255889
0.230159
0.195858
0.178683
0.125127
0.086110
0.040746
-0.013695
-0.025999
-0.058322
-0.086417
-0.089392
-0.058532
-0.022854
0.023749
0.079252
0.132508
0.183096
0.203761
0.214560
0.230923
0.219450
0.195964
0.157275
0.129264
0.081841
0.015829
-0.049739
-0.091189
-0.114755
-0.123665
-0.098767
-0.079078
-0.040424
-0.014161
0.028160
0.076244
0.087599
0.125615
0.197790
0.210523
0.216587
0.165989
0.099232
0.058762
0.033695
-0.010605
-0.072316
-0.140621
-0.148531
-0.159106
-0.146494
-0.122264
-0.087396
-0.050439
0.006595
0.051753
0.100069
0.124684
0.139745
0.150890
0.131040
0.109089
0.072872
0.040189
-0.016986
-0.072965
-0.115915
-0.130298
-0.164676
-0.170003
-0.173366
-0.157158
-0.132051
-0.073700
-0.007730
0.020918
0.069093
0.091958
0.106102
0.114168
0.089266
0.060089
0.030121
0.002909
-0.051967
-0.105107
-0.057233
-0.073540
-0.137780
-0.186914
-0.178050
-0.150689
-0.122428
-0.081815
-0.036715
0.003001
0.054971
0.082978
0.112779
0.119338
0.103721
0.080409
0.050575
0.010584
-0.049980
-0.112743
-0.152564
-0.167116
-0.161927
-0.178341
-0.167382
-0.172413
-0.100215
-0.067118
-0.027378
0.022367
0.063640
0.121889
0.146228
0.130499
0.107464
0.102473
0.053923
0.024599
-0.029712
-0.079238
-0.128174
-0.160478
-0.188491
-0.188447
-0.198542
-0.155569
-0.111645
-0.061763
-0.032943
0.015017
0.062125
0.096706
0.130678
0.135411
0.128728
0.111231
0.088989
0.037786
-0.022201
-0.071446
-0.127285
-0.156268
-0.171611
-0.180352
-0.165445
-0.138236
-0.102684
-0.066546
-0.022436
0.030360
0.076513
0.100139
0.118555
0.122366
0.098878
0.078540
0.039605
-0.000206
-0.020696
-0.061336
-0.114026
-0.153851
-0.176120
-0.185019
-0.180820
-0.174786
-0.118620
-0.053991
-0.034716
0.018154
0.056366
0.096734
0.146912
0.145403
0.152195
0.124256
0.082514
0.049486
0.014765
-0.065962
-0.123943
-0.154626
-0.160946
-0.168093
-0.177410
-0.158960
-0.099902
-0.061751
-0.035946
0.000663
0.045305
0.122305
0.144612
0.148728
0.135275
0.096043
0.059617
0.031245
-0.026966
-0.064713
-0.116370
-0.163479
-0.187160
-0.204864
-0.150935
-0.125267
-0.097127
-0.062702
-0.049513
-0.007795
0.052515
0.074115
0.112375
0.128523
0.120401
0.097750
0.056504
0.035578
-0.038393
-0.085357
-0.130173
-0.161482
-0.185589
-0.188172
-0.176839
-0.156903
-0.134828
-0.092630
-0.052078
-0.000092
0.063610
0.106952
0.122273
0.108988
0.096649
0.068373
0.052116
0.012153
-0.060368
-0.091616
-0.133532
-0.168298
-0.186312
-0.194020
-0.188395
-0.166526
-0.129244
-0.088190
-0.041968
-0.002115
0.053683
0.094020
0.111014
0.113057
0.113241
0.073270
0.035779
0.012538
-0.044798
-0.113760
-0.151201
-0.173253
-0.207382
-0.200973
-0.207586
-0.149487
-0.124703
-0.094427
-0.061053
0.009473
0.095681
0.136331
0.146265
0.141699
0.147145
0.109367
0.056045
0.010185
-0.029039
-0.073172
-0.119180
-0.151274
-0.167591
-0.178697
-0.189798
-0.150675
-0.097555
-0.041732
-0.010658
-0.009681
0.034290
0.116678
0.138994
0.218599
0.175660
0.140092
0.103755
0.062632
0.023877
-0.050168
-0.114685
-0.153810
-0.162354
-0.169384
-0.160438
-0.141137
-0.101495
-0.049894
-0.002152
0.026570
0.051814
0.089626
0.117135
0.124171
0.172051
0.178668
0.149110
0.084634
0.006103
-0.059587
-0.073001
-0.112868
-0.134796
-0.144269
-0.165538
-0.154448
-0.115191
-0.061004
-0.007924
0.035327
0.069952
0.109159
0.127953
0.137377
0.121592
0.086545
0.051457
0.015173
-0.020394
-0.073846
-0.134941
-0.182756
-0.220720
-0.223416
-0.211744
-0.196178
-0.147673
-0.109101
-0.045818
0.014971
0.061904
0.082903
0.072538
0.063659
0.067843
0.050169
0.019892
-0.034765
-0.086202
-0.134699
-0.164210
-0.200276
-0.236025
-0.246112
-0.249706
-0.230594
-0.203203
-0.160580
-0.096939
-0.030641
0.000629
0.029527
0.058221
0.079419
0.069581
0.027309
-0.000345
-0.047715
-0.111186
-0.187226
-0.220440
-0.264192
-0.207105
-0.229183
-0.228057
-0.195229
-0.188024
-0.139627
-0.091281
-0.055086
0.009741
0.033733
0.048468
0.069675
0.075390
0.032249
-0.009336
-0.050672
-0.092236
-0.133952
-0.183957
-0.201652
-0.221471
-0.259756
-0.273060
-0.258241
-0.219718
-0.180760
-0.079118
0.026449
0.069018
0.057331
0.054816
0.046753
0.050644
0.028746
-0.001147
-0.054308
-0.108488
-0.154421
-0.209360
-0.243147
-0.257851
-0.257739
-0.246729
-0.209491
-0.174340
-0.150846
-0.080828
-0.016078
0.036692
0.078854
0.120837
0.146499
0.142079
0.111273
0.101461
0.084168
0.055410
0.004562
-0.013352
-0.025815
-0.025193
-0.019954
0.001008
0.062856
0.157568
0.255552
0.339998
0.418244
0.480259
0.544627
0.576203
0.619052
0.644598
0.673278
0.692442
0.678106
0.654503
0.641675
0.606966
0.572899
0.544421
0.565834
0.573151
0.576251
0.599001
0.609504
0.599502
0.580083
0.550691
0.516419
0.496008
0.457964
0.417692
0.334579
0.229167
0.179577
0.118323
0.030817
-0.057242
-0.075049
-0.099843
-0.137974
-0.132636
-0.100871
-0.068225
-0.013053
0.029925
0.056768
0.116272
0.156325
0.146106
0.130438
0.121659
0.106836
0.070001
0.010459
0.002027
-0.035063
-0.101651
-0.153858
-0.190562
-0.212243
-0.197936
-0.162662
-0.128375
-0.094656
-0.044374
-0.007295
0.028381
0.075686
0.107963
0.130814
0.117532
0.068160
0.033433
-0.008930
-0.062997
-0.109278
-0.158181
-0.205868
-0.218939
-0.225441
-0.222357
-0.171384
-0.108188
-0.068771
-0.034755
-0.003250
0.033439
0.060884
0.116683
0.096486
0.099855
0.074229
0.054109
0.022155
-0.039406
-0.098969
-0.145938
-0.185860
-0.202178
-0.200181
-0.181501
-0.159046
-0.127933
-0.101619
-0.059776
0.008076
0.045180
0.079058
0.102243
0.105885
0.099716
0.088377
0.062619
0.015000
-0.036798
-0.082522
-0.123202
-0.157821
-0.162792
-0.171893
-0.178257
-0.149849
-0.109198
-0.070071
-0.037935
0.013626
0.071501
0.102191
0.121982
0.144804
0.124380
0.113736
0.057507
0.019719
-0.031807
-0.061582
-0.086793
-0.116678
-0.133739
-0.134219
-0.144063
-0.134179
-0.081066
-0.034442
-0.003681
0.040875
0.105779
0.146344
0.163884
0.160579
0.132250
0.111753
0.104415
0.125264
0.070271
-0.016652
-0.061830
-0.076677
-0.097231
-0.121087
-0.124091
-0.097502
-0.055687
-0.012729
0.036460
0.093455
0.139335
0.170360
0.189039
0.186663
0.181567
0.150944
0.098489
0.086435
0.081909
0.044566
-0.012280
-0.029768
-0.057578
-0.079576
-0.078438
-0.056576
-0.017143
0.015726
0.051415
0.108458
0.156098
0.184332
0.202435
0.209622
0.196924
0.149265
0.135119
0.110168
0.054495
0.035847
-0.023758
-0.063175
-0.087205
-0.085011
-0.065805
-0.055772
-0.039728
0.000584
0.055269
0.101133
0.151311
0.187307
0.208077
0.204827
0.197131
0.173123
0.137381
0.075840
0.018093
-0.037443
-0.089296
-0.095015
-0.120159
-0.121254
-0.112543
-0.092126
-0.044791
-0.010235
0.038806
0.074348
0.111250
0.136635
0.166972
0.153110
0.129041
0.117217
0.113509
0.084642
0.044899
-0.042120
-0.089372
-0.130406
-0.162747
-0.169985
-0.168359
-0.133268
-0.121969
-0.083750
-0.031387
0.028578
0.079351
0.129526
0.147908
0.139771
0.116629
0.089458
0.067961
0.003979
-0.060426
-0.103720
-0.166468
-0.202077
-0.230055
-0.230073
-0.196399
-0.167191
-0.133900
-0.096130
-0.032166
0.011397
0.037337
0.067027
0.112120
0.114703
0.100310
0.067086
0.013998
-0.048106
-0.100557
-0.140208
-0.169431
-0.210948
-0.203728
-0.227554
-0.210296
-0.213605
-0.168422
-0.088937
-0.037946
-0.000178
0.064022
0.084141
0.102073
0.093384
0.078544
0.058071
0.035853
-0.016545
-0.076914
-0.110285
-0.163202
-0.206919
-0.213944
-0.213708
-0.206757
-0.196761
-0.166504
-0.128992
-0.073619
-0.019841
0.031595
0.066697
0.087747
0.081740
0.071810
0.064233
0.038547
-0.001570
-0.058220
-0.111626
-0.174734
-0.201253
-0.205853
-0.210568
-0.199502
-0.182367
-0.154186
-0.104086
-0.055498
-0.005949
0.035411
0.049128
0.074285
0.092798
0.087559
0.055995
0.008079
-0.002237
-0.036272
-0.125567
-0.157299
-0.168753
-0.224032
-0.224570
-0.225944
-0.170773
-0.143337
-0.099877
-0.070844
0.032394
0.107709
0.084195
0.078218
0.091249
0.089128
0.077276
0.043227
-0.003438
-0.048621
-0.084182
-0.130685
-0.176533
-0.203141
-0.211736
-0.212015
-0.187856
-0.159778
-0.126295
-0.083365
-0.012532
0.045647
0.097203
0.102146
0.090099
0.089703
0.086866
0.045903
-0.001142
-0.075520
-0.103001
-0.127791
-0.166816
-0.207277
-0.214477
-0.201270
-0.189583
-0.166708
-0.110258
-0.061059
-0.019109
0.020804
0.069231
0.111019
0.103840
0.090270
0.073301
0.035723
-0.014457
-0.045871
-0.099470
-0.152699
-0.193075
-0.228127
-0.224480
-0.210965
-0.188354
-0.153391
-0.099917
-0.059085
-0.021650
0.018531
0.054398
0.101566
0.126132
0.089536
0.045337
0.017710
-0.020300
-0.084429
-0.164972
-0.176316
-0.187330
-0.177193
-0.197416
-0.195203
-0.174200
-0.130745
-0.104685
-0.065861
-0.019518
0.040183
0.071982
0.082942
0.086356
0.076180
0.058941
0.020501
-0.024996
-0.083308
-0.111440
-0.173944
-0.222913
-0.238573
-0.211460
-0.203326
-0.197631
-0.181246
-0.130513
-0.035653
-0.008115
0.020161
0.031865
0.054627
0.067504
0.081659
0.073644
0.023188
-0.025613
-0.070257
-0.125693
-0.165232
-0.198464
-0.246021
-0.253617
-0.232746
-0.202173
-0.165132
-0.125956
-0.084409
-0.035738
0.008547
0.045669
0.062870
0.098502
0.081583
0.044381
0.003278
-0.041051
-0.092097
-0.119517
-0.168829
-0.201888
-0.228876
-0.223164
-0.207183
-0.192200
-0.179390
-0.140087
-0.073357
0.008628
0.082653
0.089515
0.077171
0.084555
0.099117
0.082060
0.040748
0.009089
-0.039806
-0.112045
-0.158301
-0.192172
-0.206414
-0.228307
-0.242024
-0.157941
-0.119148
-0.076674
-0.020265
0.029120
0.068767
0.129010
0.127015
0.140365
0.121602
0.086720
0.045002
-0.005018
-0.032728
-0.087168
-0.130806
-0.178019
-0.197267
-0.183895
-0.171214
-0.154430
-0.107160
-0.071578
-0.001764
0.026898
0.065501
0.088165
0.109878
0.123217
0.127637
0.105627
0.060372
0.052078
-0.002410
-0.060393
-0.142949
-0.173020
-0.184987
-0.178393
-0.175882
-0.173532
-0.148017
-0.087394
-0.027902
0.019721
0.045332
0.063450
0.097153
0.099494
0.096025
0.075431
0.028525
-0.021961
-0.079395
-0.139775
-0.184527
-0.199834
-0.204836
-0.225325
-0.202666
-0.196096
-0.188823
-0.154873
-0.092189
-0.025376
-0.002172
0.001286
0.087013
0.108649
0.081522
0.022180
-0.015745
-0.066916
-0.114068
-0.170486
-0.213854
-0.260564
-0.261242
-0.260371
-0.255229
-0.235271
-0.192119
-0.151535
-0.101886
-0.059860
-0.012391
0.019357
0.038632
0.055420
0.081060
0.055599
0.012442
-0.044610
-0.110545
-0.150621
-0.185708
-0.213714
-0.258088
-0.281421
-0.250960
-0.229649
-0.180496
-0.147042
-0.092939
-0.049308
-0.024550
0.020453
0.054461
0.052765
0.035864
0.021381
-0.016419
-0.067366
-0.119325
-0.175232
-0.207277
-0.219933
-0.251463
-0.264643
-0.256147
-0.236117
-0.211959
-0.155019
-0.105332
-0.050710
-0.020972
0.007916
0.035519
0.051770
0.040099
0.015969
-0.022752
-0.064253
-0.103658
-0.173246
-0.222802
-0.247390
-0.285370
-0.274207
-0.227596
-0.189150
-0.185052
-0.140251
-0.085134
-0.041529
-0.007814
0.053959
0.077888
0.099471
0.092666
0.111216
0.089454
0.070691
0.016533
-0.032407
-0.046532
-0.057193
-0.057095
-0.042953
-0.008709
0.031402
0.094194
0.178239
0.284283
0.378554
0.450618
0.518847
0.584155
0.620472
0.662769
0.662398
0.677960
0.684626
0.660206
0.628603
0.609068
0.609576
0.622331
0.636595
0.624092
0.590558
0.623374
0.660083
0.678983
0.709315
0.696343
0.642717
0.575047
0.519491
0.472810
0.386468
0.308019
0.206184
0.134430
0.066821
0.018321
-0.017631
-0.055557
-0.082160
-0.078174
-0.071789
-0.052788
-0.018047
0.011839
0.037317
0.093157
0.137589
0.150002
0.150000
0.144808
0.127372
0.086143
0.030903
-0.029062
-0.095362
-0.139632
-0.154089
-0.167863
-0.183691
-0.182287
-0.157233
-0.130548
-0.093501
-0.040734
-0.007222
-0.003100
0.077571
0.138225
0.128189
0.082263
0.042761
0.004394
-0.029045
-0.066196
-0.102572
-0.142342
-0.207876
-0.231663
-0.227483
-0.227606
-0.211982
-0.167427
-0.119872
-0.057547
-0.006874
0.040932
0.075288
0.090563
0.097939
0.071973
0.067543
0.031178
-0.033782
-0.093419
-0.136982
-0.158559
-0.186758
-0.205229
-0.197119
-0.184925
-0.167303
-0.136158
-0.099153
-0.074149
0.010744
0.063353
0.076545
0.084112
0.107844
0.099959
0.075706
0.038176
-0.027357
-0.036085
-0.085718
-0.129856
-0.175335
-0.203200
-0.195791
-0.198267
-0.163933
-0.114569
-0.067687
-0.023362
0.025759
0.063252
0.085740
0.100864
0.116758
0.130833
0.126376
0.085579
0.013068
-0.018214
-0.059194
-0.121128
-0.157511
-0.183342
-0.172328
-0.176653
-0.157583
-0.130049
-0.066797
-0.003094
0.059366
0.117899
0.150000
0.165921
0.181555
0.170586
0.152686
0.106721
0.048031
-0.022135
-0.072767
-0.078100
-0.087371
-0.095172
-0.100181
-0.131877
-0.126460
-0.088672
0.021034
0.073035
0.108552
0.152627
0.180962
0.183317
0.199173
0.194993
0.179630
0.151969
0.089508
0.048963
0.007309
-0.030360
-0.055400
-0.086619
-0.129862
-0.113855
-0.076038
-0.028627
0.020381
0.065314
0.115149
0.144057
0.194504
0.224091
0.241444
0.209013
0.173651
0.137011
0.090836
0.041573
-0.022944
-0.057644
-0.092551
-0.095547
-0.088648
-0.081559
-0.080117
-0.060601
-0.027845
0.054456
0.113480
0.144356
0.164903
0.207327
0.219199
0.192668
0.164494
0.116503
0.119356
0.052426
-0.008660
-0.057102
-0.098673
-0.120645
-0.133888
-0.122489
-0.107799
-0.082396
-0.038396
0.031848
0.079715
0.112660
0.138510
0.150760
0.172955
0.162242
0.160041
0.119936
0.067256
0.015502
-0.034724
-0.091873
-0.127115
-0.155175
-0.187912
-0.171244
-0.145069
-0.104309
-0.067753
-0.012751
0.030180
0.068644
0.103932
0.125881
0.123356
0.104696
0.060678
0.047721
0.026289
-0.041749
-0.099428
-0.110793
-0.140917
-0.190075
-0.199834
-0.185382
-0.167227
-0.136168
-0.069152
-0.035220
-0.000206
0.039061
0.087989
0.102252
0.087445
0.097191
0.089195
0.033167
-0.027481
-0.085935
-0.115719
-0.160631
-0.197992
-0.216317
-0.226117
-0.202752
-0.138377
-0.097225
-0.092743
-0.070549
-0.039912
0.001245
0.046834
0.067399
0.115254
0.108082
0.056228
0.009851
-0.025818
-0.053724
-0.126899
-0.165819
-0.197669
-0.223842
-0.235153
-0.211889
-0.185894
-0.169618
-0.133973
-0.081909
-0.019270
0.032487
0.064077
0.093722
0.087500
0.071442
0.086356
0.030181
-0.030248
-0.068494
-0.117959
-0.160685
-0.193296
-0.221645
-0.224085
-0.223985
-0.206020
-0.191087
-0.105728
-0.035162
-0.014756
0.022177
0.043925
0.105035
0.129336
0.106732
0.076190
0.044538
0.004272
-0.044165
-0.098401
-0.141390
-0.179240
-0.218193
-0.224708
-0.212007
-0.189274
-0.142653
-0.078430
-0.028389
-0.004691
0.023509
0.050009
0.070767
0.092281
0.090153
0.079286
0.068957
0.011327
-0.062399
-0.094280
-0.143347
-0.179154
-0.214109
-0.223087
-0.202468
-0.165251
-0.127426
-0.080340
-0.046344
0.000055
0.026958
0.060782
0.111053
0.094728
0.049680
0.006095
0.022342
0.057991
-0.015301
-0.077522
-0.156161
-0.191546
-0.192013
-0.196370
-0.181986
-0.159878
-0.128943
-0.100765
-0.050527
-0.003003
0.039735
0.077507
0.093979
0.105978
0.083518
0.057085
0.031623
-0.001589
-0.046783
-0.097162
-0.136714
-0.185063
-0.217500
-0.219232
-0.212087
-0.189625
-0.130649
-0.072389
-0.074581
-0.038772
0.029677
0.073230
0.079978
0.079335
0.058822
0.032666
0.006475
-0.013957
-0.051183
-0.106219
-0.152019
-0.192254
-0.235448
-0.215922
-0.191099
-0.176597
-0.141957
-0.106144
-0.073088
-0.028720
0.015654
0.042288
0.076856
0.083096
0.048196
0.027090
0.017697
-0.015905
-0.079586
-0.119884
-0.162408
-0.172633
-0.204481
-0.235320
-0.223080
-0.198973
-0.175518
-0.133550
-0.057618
0.010455
0.060750
0.056604
0.069426
0.086844
0.073903
0.032796
-0.005046
-0.048630
-0.082231
-0.117137
-0.147875
-0.200802
-0.217973
-0.215126
-0.200456
-0.181957
-0.157586
-0.092457
-0.063021
-0.009412
0.035940
0.054000
0.071839
0.058909
0.031857
0.036092
0.009379
-0.036714
-0.072725
-0.128437
-0.170156
-0.196027
-0.213349
-0.218129
-0.213248
-0.201860
-0.162200
-0.120397
-0.072295
-0.029368
0.008779
0.057280
0.078710
0.092886
0.083543
0.051716
0.032374
-0.005892
-0.067870
-0.160606
-0.151739
-0.219893
-0.249143
-0.209750
-0.184990
-0.141873
-0.123708
-0.086303
-0.029889
0.031989
0.068406
0.082366
0.102566
0.127677
0.119560
0.086084
0.052227
0.003285
-0.049985
-0.123216
-0.171504
-0.183513
-0.178491
-0.196894
-0.197515
-0.170289
-0.136538
-0.097003
-0.050056
0.032665
0.083464
0.095745
0.114825
0.143009
0.134795
0.105077
0.085277
0.038247
-0.042184
-0.107165
-0.142219
-0.159192
-0.164195
-0.177310
-0.166625
-0.116008
-0.079615
-0.074362
-0.057849
-0.013222
0.040582
0.127543
0.141507
0.146987
0.126694
0.087944
0.047563
-0.002089
-0.067422
-0.139734
-0.159421
-0.181899
-0.204171
-0.215305
-0.209146
-0.194239
-0.172799
-0.115782
-0.051737
-0.013173
0.025012
0.051519
0.069475
0.077367
0.061277
0.020756
-0.005634
-0.027105
-0.070791
-0.120955
-0.174721
-0.220778
-0.244817
-0.240131
-0.224697
-0.220663
-0.186460
-0.140154
-0.097390
-0.060324
-0.008829
0.027160
0.054136
0.056093
0.046837
0.036607
0.006078
-0.070947
-0.127647
-0.200484
-0.236821
-0.277656
-0.266690
-0.224222
-0.219481
-0.220768
-0.182508
-0.148599
-0.088254
-0.047641
0.008698
0.069824
0.074967
0.050163
0.050204
0.026780
-0.025166
-0.050122
-0.095352
-0.171958
-0.231358
-0.212250
-0.229778
-0.249799
-0.268822
-0.245832
-0.206571
-0.163090
-0.096575
-0.053916
-0.017317
0.031751
0.048327
0.047625
0.031020
0.006043
-0.012181
-0.061886
-0.109529
-0.144043
-0.195044
-0.237804
-0.252855
-0.228531
-0.211810
-0.221878
-0.215758
-0.165225
-0.109671
-0.051560
0.001220
0.023471
0.039049
0.041692
0.030605
0.018859
-0.020008
-0.053296
-0.091314
-0.129358
-0.130730
-0.148687
-0.181158
-0.176688
-0.151915
-0.096062
-0.046365
-0.012739
0.054411
0.135098
0.189508
0.253184
0.303609
0.334734
0.367848
0.379527
0.380706
0.394472
0.364383
0.356611
0.332108
0.330883
0.343687
0.399018
0.452430
0.518797
0.599762
0.692536
0.772614
0.804793
0.828362
0.852499
0.860281
0.845719
0.831613
0.782683
0.723977
0.636652
0.511401
0.393470
0.301653
0.222027
0.137195
0.067468
0.021770
0.011825
0.034664
0.057054
0.084378
0.123154
0.170888
0.176677
0.197015
0.173078
0.178980
0.166028
0.114698
0.058306
-0.004112
-0.058260
-0.113012
-0.145054
-0.158502
-0.165091
-0.154292
-0.143706
-0.129937
-0.094523
-0.032046
0.046656
0.082983
0.097602
0.103490
0.108140
0.114083
0.112964
0.065281
-0.008304
-0.088089
-0.128886
-0.157533
-0.191343
-0.206099
-0.214498
-0.219963
-0.185920
-0.159076
-0.127741
-0.064095
-0.010642
0.036924
0.079022
0.098345
0.097715
0.084521
0.054183
0.014572
-0.019289
-0.074264
-0.122309
-0.151278
-0.186390
-0.209932
-0.225323
-0.202282
-0.191574
-0.160849
-0.118463
-0.086170
-0.056030
0.036631
0.096612
0.109539
0.101261
0.112563
0.084686
0.038990
-0.019522
-0.066947
-0.101449
-0.142425
-0.165768
-0.185801
-0.214296
-0.206342
-0.190089
-0.122538
-0.074324
-0.024462
0.034433
0.057960
0.099074
0.127835
0.126449
0.083966
0.050264
0.040938
0.024990
-0.033455
-0.093769
-0.142431
-0.144753
-0.164087
-0.177982
-0.157007
-0.142678
-0.100712
-0.063282
-0.009543
0.047152
0.085250
0.103533
0.135698
0.145922
0.130088
0.101529
0.061414
0.035750
-0.021404
-0.060759
-0.087471
-0.127139
-0.150691
-0.124584
-0.105239
-0.104714
-0.095295
-0.015625
0.039322
0.073939
0.113046
0.132369
0.163002
0.184599
0.170850
0.169132
0.125145
0.070297
0.037320
-0.012633
-0.054962
-0.102894
-0.117797
-0.116806
-0.111365
-0.093926
-0.076317
-0.030167
0.030769
0.095328
0.153653
0.180519
0.195805
0.185536
0.193439
0.229010
0.177331
0.156329
0.065640
-0.027982
-0.072076
-0.094827
-0.106490
-0.099978
-0.081270
-0.071955
-0.049111
-0.012338
0.044361
0.092792
0.132687
0.187203
0.223735
0.213634
0.183193
0.173582
0.159898
0.110238
0.043611
-0.013719
-0.052649
-0.086267
-0.111909
-0.120212
-0.104914
-0.097331
-0.063043
-0.014318
0.045171
0.079533
0.116250
0.143449
0.162648
0.175416
0.177789
0.159516
0.126943
0.061348
0.009108
-0.027072
-0.072176
-0.125956
-0.166136
-0.164786
-0.150122
-0.128184
-0.093871
-0.054463
0.001238
0.037859
0.074251
0.103040
0.119421
0.140126
0.117923
0.085315
0.061496
0.036137
-0.036634
-0.117949
-0.177381
-0.152995
-0.173388
-0.190889
-0.186504
-0.156591
-0.117441
-0.078289
-0.037425
0.024654
0.032511
0.050505
0.086490
0.101237
0.098803
0.073555
0.023780
-0.019715
-0.072716
-0.118997
-0.156608
-0.167114
-0.189532
-0.218612
-0.213176
-0.165131
-0.150621
-0.121226
-0.073865
-0.024897
0.024872
0.057415
0.062189
0.081728
0.111925
0.066454
0.015951
-0.036196
-0.086155
-0.128201
-0.170870
-0.181734
-0.196972
-0.211234
-0.216994
-0.195571
-0.165540
-0.117143
-0.067608
-0.022378
0.024701
0.060214
0.064260
0.064479
0.064473
0.051815
0.012265
-0.038410
-0.085188
-0.127541
-0.169736
-0.194068
-0.221352
-0.208147
-0.205975
-0.196648
-0.169637
-0.116942
-0.081614
-0.049909
0.038475
0.083361
0.080910
0.073430
0.071398
0.040451
0.008262
-0.034044
-0.080764
-0.120828
-0.156435
-0.177739
-0.222109
-0.246584
-0.216271
-0.187177
-0.134459
-0.097676
-0.031193
0.005612
0.021167
0.053686
0.090277
0.089930
0.079420
0.055270
0.014515
-0.034279
-0.066867
-0.091618
-0.142253
-0.183683
-0.196823
-0.203396
-0.196366
-0.175754
-0.156804
-0.129966
-0.089259
-0.027847
0.044438
0.095972
0.113253
0.096128
0.082091
0.044513
0.022886
-0.017018
-0.074796
-0.125999
-0.171990
-0.197366
-0.199977
-0.214983
-0.212226
-0.188552
-0.145825
-0.115538
-0.046638
-0.000222
0.038660
0.072743
0.087323
0.073499
0.059329
0.038613
0.012575
-0.031018
-0.086116
-0.152092
-0.187628
-0.188314
-0.192968
-0.196445
-0.214394
-0.190410
-0.154240
-0.114117
-0.037346
0.024596
0.044077
0.087226
0.076414
0.069511
0.074554
0.055183
0.020869
-0.017462
-0.075487
-0.127768
-0.173697
-0.207558
-0.240464
-0.238221
-0.199300
-0.152162
-0.142858
-0.122145
-0.073162
-0.035863
0.008572
0.072364
0.085207
0.088514
0.062351
0.036528
0.007350
-0.047738
-0.113553
-0.177961
-0.169203
-0.174683
-0.209839
-0.223961
-0.220636
-0.197503
-0.156646
-0.105080
-0.061534
-0.014950
0.016871
0.056723
0.060724
0.067081
0.050379
0.023395
0.002906
-0.035712
-0.093316
-0.155694
-0.186446
-0.225414
-0.236446
-0.252604
-0.247346
-0.228478
-0.191790
-0.137078
-0.052820
-0.005248
0.021779
0.050541
0.064818
0.066935
0.070996
0.034872
-0.000338
-0.033867
-0.094992
-0.162198
-0.203045
-0.231404
-0.230399
-0.216345
-0.213119
-0.207726
-0.174148
-0.120866
-0.066809
-0.029381
0.013839
0.055094
0.082837
0.088428
0.066796
0.045872
0.002465
-0.052162
-0.109634
-0.160563
-0.190379
-0.214853
-0.246213
-0.271225
-0.262089
-0.204993
-0.161119
-0.133432
-0.081766
-0.042904
0.015276
0.055700
0.077949
0.083636
0.070767
0.035985
-0.002051
-0.040031
-0.090021
-0.132754
-0.183334
-0.223703
-0.240334
-0.237785
-0.225750
-0.202825
-0.160943
-0.108608
-0.045897
-0.013376
0.027634
0.073139
0.092685
0.101075
0.099000
0.085391
0.060423
0.020839
-0.046895
-0.101476
-0.138583
-0.184832
-0.231784
-0.223223
-0.208146
-0.238982
-0.181939
-0.134417
-0.063011
0.015626
0.089525
0.101486
0.088102
0.113809
0.135935
0.106272
0.053779
0.003754
-0.043720
-0.056698
-0.078488
-0.145388
-0.197154
-0.194844
-0.173484
-0.145111
-0.113711
-0.069632
-0.023912
-0.003382
0.047157
0.111636
0.121606
0.106603
0.084950
0.064805
0.035852
-0.002978
-0.059688
-0.120333
-0.150382
-0.183994
-0.220393
-0.242936
-0.232353
-0.202347
-0.171893
-0.145293
-0.087184
-0.042063
-0.015307
0.061292
0.089122
0.090894
0.074537
0.038202
-0.010952
-0.033254
-0.087742
-0.140877
-0.193806
-0.242734
-0.252841
-0.256419
-0.254312
-0.249550
-0.214885
-0.171161
-0.110036
-0.054680
-0.019917
0.012649
0.027802
0.028612
0.035834
-0.013728
-0.025303
-0.073515
-0.142790
-0.166311
-0.181429
-0.228715
-0.230250
-0.244415
-0.263472
-0.253201
-0.203094
-0.132780
-0.102024
-0.079691
-0.046772
0.016489
0.053854
0.076831
0.064940
0.024752
-0.040368
-0.074300
-0.123261
-0.175421
-0.200944
-0.233510
-0.261920
-0.250383
-0.239904
-0.244017
-0.218521
-0.183199
-0.125422
-0.086567
-0.034337
0.031981
0.052315
0.060877
0.030707
-0.000772
-0.009930
-0.037849
-0.097477
-0.154885
-0.193125
-0.236875
-0.261717
-0.276496
-0.263026
-0.244464
-0.209120
-0.160342
-0.120916
-0.074183
-0.038304
-0.013519
0.013389
0.013607
0.021465
0.000579
-0.036214
-0.063300
-0.104004
-0.146573
-0.193157
-0.200875
-0.244618
-0.217428
-0.201435
-0.169362
-0.128935
-0.047853
0.013178
0.071453
0.109210
0.156352
0.221094
0.267157
0.261552
0.229871
0.239336
0.267519
0.260680
0.247968
0.226208
0.223465
0.233559
0.261728
0.288228
0.362375
0.463070
0.554796
0.615415
0.706895
0.795608
0.852106
0.857821
0.846893
0.837648
0.796139
0.738890
0.698137
0.642065
0.564453
0.470701
0.367275
0.288581
0.224559
0.165284
0.153690
0.132607
0.127231
0.138381
0.174076
0.191944
0.199968
0.210066
0.222488
0.197056
0.163579
0.110559
0.048217
-0.022223
-0.069793
-0.122775
-0.153723
-0.152583
-0.150594
-0.149341
-0.130494
-0.110885
-0.080109
-0.023150
0.018168
0.075532
0.088919
0.086459
0.076626
0.108951
0.065165
0.039586
-0.018653
-0.080843
-0.126245
-0.165530
-0.193799
-0.199836
-0.212013
-0.221209
-0.201901
-0.150863
-0.096593
-0.047921
-0.017139
0.003845
0.070640
0.072649
0.089436
0.083502
0.062189
0.024569
-0.012873
-0.067383
-0.134157
-0.188315
-0.235802
-0.251799
-0.230358
-0.216376
-0.185744
-0.156880
-0.109212
-0.051890
0.012963
0.057558
0.083500
0.094273
0.075746
0.070181
0.034080
-0.013635
-0.068769
-0.100530
-0.122186
-0.164414
-0.210104
-0.218681
-0.212048
-0.203933
-0.165841
-0.131124
-0.087852
-0.040741
0.017711
0.060059
0.093161
0.097473
0.097995
0.105995
0.089085
0.044484
0.003103
-0.058512
-0.093310
-0.137219
-0.175556
-0.190202
-0.210384
-0.194184
-0.169749
-0.139263
-0.088249
-0.035082
0.023473
0.086789
0.102127
0.113816
0.152678
0.146268
0.118506
0.091340
0.056759
-0.005795
-0.076926
-0.108353
-0.135371
-0.160163
-0.169012
-0.189604
-0.141188
-0.068842
-0.040256
0.015721
0.068162
0.112840
0.123980
0.158189
0.185713
0.200126
0.168123
0.117102
0.061467
0.010406
-0.040691
-0.081071
-0.106748
-0.111137
-0.136989
-0.126012
-0.111818
-0.046967
-0.003317
0.047326
0.093154
0.124879
0.173739
0.197383
0.211310
0.212338
0.182738
0.138542
0.083919
0.043868
-0.009925
-0.045179
-0.089176
-0.108150
-0.130445
-0.089885
-0.081041
-0.061210
-0.019935
0.029523
0.073144
0.115823
0.169249
0.223130
0.232882
0.203444
0.167892
0.141866
0.101185
0.034737
-0.018314
-0.070972
-0.128735
-0.138180
-0.127008
-0.103497
-0.102734
-0.096056
-0.029854
0.037629
0.072742
0.101862
0.158891
0.195945
0.198792
0.168933
0.136719
0.103665
0.055835
0.009902
0.005791
-0.052576
-0.096907
-0.123186
-0.153961
-0.147658
-0.119476
-0.091149
-0.016333
0.020621
0.057777
0.092425
0.110213
0.119191
0.123573
0.118538
0.092447
0.062731
0.025131
-0.006848
-0.060424
-0.112374
-0.140748
-0.166933
-0.194628
-0.168503
-0.140397
-0.146310
-0.131340
-0.073347
0.014476
0.043348
0.059039
0.082645
0.077521
0.082097
0.115768
0.067109
0.029893
-0.031877
-0.096454
-0.147287
-0.174470
-0.175079
-0.191292
-0.198839
-0.190924
-0.167180
-0.128771
-0.063971
-0.011836
0.016695
0.053580
0.079262
0.072115
0.061876
0.054139
0.010265
-0.052011
-0.105222
-0.125899
-0.145179
-0.157594
-0.179959
-0.181312
-0.204158
-0.205479
-0.163094
-0.118601
-0.063800
-0.023845
0.021768
0.030593
0.058150
0.086869
0.082076
0.046623
-0.003611
-0.029760
-0.060725
-0.105801
-0.155968
-0.160903
-0.208139
-0.208489
-0.207863
-0.177001
-0.145862
-0.099170
-0.073769
-0.039937
-0.017124
0.076349
0.077533
0.068907
0.096740
0.088373
0.054581
-0.023061
-0.080005
-0.117928
-0.155346
-0.184958
-0.214485
-0.220175
-0.184420
-0.157236
-0.130952
-0.093074
-0.046026
-0.000766
0.056423
0.101000
0.102605
0.094453
0.098049
0.065998
0.012986
-0.035167
-0.073379
-0.131277
-0.174130
-0.183662
-0.198520
-0.203839
-0.189005
-0.158906
-0.114200
-0.070046
-0.022591
0.010569
0.034650
0.076456
0.096939
0.098770
0.106814
0.068163
0.019951
-0.036407
-0.083381
-0.122560
-0.143368
-0.185960
-0.217621
-0.226919
-0.199622
-0.164241
-0.122844
-0.094519
-0.020447
0.032666
0.038592
0.078982
0.114393
0.116220
0.085621
0.060919
0.012334
-0.020590
-0.080370
-0.125787
-0.159270
-0.180840
-0.220328
-0.217515
-0.203680
-0.180394
-0.149444
-0.100318
-0.051384
0.006530
0.040190
0.068221
0.098368
0.097294
0.087744
0.072285
0.034749
-0.026113
-0.082424
-0.125947
-0.178143
-0.204540
-0.225388
-0.228770
-0.219066
-0.179102
-0.154158
-0.122834
-0.062418
-0.009800
0.073502
0.096014
0.109946
0.109385
0.113644
0.097435
0.025597
-0.047009
-0.087792
-0.128125
-0.164648
-0.205198
-0.210447
-0.237328
-0.234222
-0.192391
-0.169430
-0.116089
-0.038774
0.016672
0.052895
0.067274
0.081052
0.071782
0.078870
0.053469
0.012969
-0.039567
-0.092921
-0.132868
-0.173776
-0.210313
-0.216184
-0.227733
-0.234975
-0.218231
-0.168964
-0.120913
-0.072904
-0.025594
0.014843
0.056788
0.091523
0.098232
0.091113
0.069231
0.051895
0.001402
-0.065970
-0.131365
-0.182605
-0.226100
-0.248888
-0.231215
-0.220076
-0.207354
-0.179207
-0.117702
-0.072800
-0.034076
0.022888
0.061605
0.078565
0.069173
0.072498
0.051539
0.031696
-0.027914
-0.086604
-0.133576
-0.190096
-0.213418
-0.209175
-0.226730
-0.225256
-0.201808
-0.163263
-0.118678
-0.068920
-0.022868
0.019841
0.043466
0.064823
0.074366
0.062328
0.044123
-0.007002
-0.072437
-0.092391
-0.104284
-0.149441
-0.194391
-0.215491
-0.225693
-0.230445
-0.197949
-0.149832
-0.096672
-0.064028
-0.050044
0.018493
0.055239
0.074354
0.090017
0.105172
0.097955
0.058956
0.024274
-0.029609
-0.094088
-0.146248
-0.179416
-0.161314
-0.161801
-0.163990
-0.150754
-0.124103
-0.090275
-0.056885
-0.021202
0.007877
0.068140
0.129380
0.124405
0.102420
0.074308
0.036490
-0.004053
-0.038960
-0.084088
-0.129209
-0.170654
-0.189239
-0.184213
-0.139410
-0.133953
-0.100981
-0.078721
-0.029140
0.048287
0.084825
0.085657
0.105797
0.122485
0.124539
0.115038
0.078867
0.015219
-0.049870
-0.085788
-0.137134
-0.170662
-0.179215
-0.174917
-0.167055
-0.161690
-0.144233
-0.090080
-0.035640
0.010841
0.034182
0.053316
0.072655
0.089614
0.076004
0.052339
0.031137
-0.043704
-0.101670
-0.152362
-0.196494
-0.181986
-0.197675
-0.235053
-0.240074
-0.144738
-0.099581
-0.097822
-0.091464
-0.040694
0.007088
0.036844
0.064244
0.061948
0.054898
0.037185
-0.004234
-0.060401
-0.114475
-0.136745
-0.185192
-0.225483
-0.248930
-0.251640
-0.232523
-0.217104
-0.181016
-0.133321
-0.102555
-0.066606
-0.017996
0.010271
0.024930
0.036169
0.034313
0.033311
0.004668
-0.049965
-0.098638
-0.150044
-0.200981
-0.207873
-0.229648
-0.243148
-0.239729
-0.217822
-0.181179
-0.136595
-0.077693
-0.040517
-0.005432
0.006963
0.019726
0.036958
0.034554
-0.019484
-0.031404
-0.077799
-0.115039
-0.148071
-0.186469
-0.218164
-0.240114
-0.245741
-0.241972
-0.212376
-0.184059
-0.133579
-0.103720
-0.061971
-0.043466
0.028628
0.053914
0.045663
0.035175
0.026127
0.001537
-0.051222
-0.112584
-0.183855
-0.247439
-0.270818
-0.285221
-0.280111
-0.244044
-0.196301
-0.163008
-0.115959
-0.079505
-0.013801
0.029334
0.053062
0.073036
0.098375
0.098577
0.087444
0.065949
0.034607
-0.015643
-0.027081
-0.053637
-0.063336
-0.065328
-0.039725
0.004979
0.060137
0.120532
0.192574
0.275142
0.359475
0.443297
0.526604
0.568057
0.591826
0.614239
0.622364
0.613773
0.619324
0.622324
0.625472
0.609502
0.592912
0.578801
0.563756
0.564255
0.570036
0.583015
0.615891
0.658271
0.665477
0.643768
0.610712
0.554394
0.513408
0.447609
0.353745
0.254381
0.180662
0.126204
0.070877
0.021448
-0.041955
-0.095050
-0.092397
-0.092825
-0.075411
-0.057518
-0.020305
0.028590
0.070250
0.129416
0.157830
0.158228
0.150828
0.145173
0.112069
0.070160
0.023073
-0.035705
-0.095849
-0.148911
-0.182314
-0.187125
-0.191587
-0.192588
-0.185624
-0.147939
-0.082997
-0.043885
0.000600
0.038224
0.069082
0.105758
0.095039
0.072994
0.061537
0.028485
-0.022638
-0.073225
-0.111336
-0.158182
-0.208168
-0.246560
-0.250056
-0.217291
-0.191440
-0.146998
-0.095239
-0.044867
0.011259
0.039113
0.058944
0.078510
0.089808
0.098382
0.092899
0.043224
-0.037597
-0.088567
-0.127556
-0.154862
-0.167663
-0.208564
-0.221069
-0.214509
-0.208441
-0.160318
-0.098530
-0.053199
0.014087
0.032882
0.064312
0.093499
0.123078
0.128029
0.091526
0.040571
-0.009758
-0.062671
-0.097846
-0.142957
-0.181303
-0.196473
-0.195889
-0.191008
-0.164287
-0.124941
-0.079692
-0.021964
0.030107
0.069450
0.106756
0.125100
0.128943
0.124352
0.109773
0.059069
0.030407
-0.011361
-0.048085
-0.085839
-0.143501
-0.167009
-0.180341
-0.146697
-0.132760
-0.078187
-0.040758
-0.028299
0.035506
0.077705
0.115856
0.138834
0.174549
0.174700
0.161546
0.117862
0.070265
0.012304
-0.038961
-0.077040
-0.098673
-0.137435
-0.158343
-0.131455
-0.109972
-0.060650
-0.002895
0.027837
0.078140
0.135217
0.167762
0.197002
0.197257
0.184635
0.184187
0.136287
0.074407
0.053382
0.001496
-0.064052
-0.060434
-0.102624
-0.111620
-0.073153
-0.056684
-0.047750
-0.006081
0.025817
0.077098
0.131353
0.177473
0.190698
0.203184
0.208489
0.175921
0.125346
0.074643
0.056004
0.015482
-0.051098
-0.082762
-0.101450
-0.116038
-0.096626
-0.075327
-0.043854
-0.006874
0.047831
0.075225
0.110414
0.171574
0.229090
0.228010
0.185801
0.144377
0.097184
0.062159
0.051414
-0.012601
-0.075445
-0.079013
-0.101306
-0.111593
-0.105433
-0.095122
-0.063908
-0.015249
0.035878
0.079796
0.114779
0.137315
0.154615
0.157855
0.136464
0.109503
0.083590
0.025882
-0.020654
-0.073445
-0.116603
-0.146357
-0.160057
-0.134605
-0.111920
-0.053446
-0.034591
-0.035197
-0.042189
0.024760
0.064379
0.085518
0.108939
0.123432
0.136023
0.101325
0.050686
-0.008170
-0.059390
-0.108633
-0.140137
-0.177256
-0.169749
-0.168735
-0.178865
-0.167005
-0.138378
-0.088158
-0.041537
0.009332
0.030204
0.030362
0.087503
0.090960
0.060124
0.040560
0.019776
-0.016665
-0.047947
-0.105828
-0.141751
-0.147821
-0.184914
-0.217487
-0.205968
-0.194685
-0.152017
-0.083941
-0.057957
0.009461
0.041996
0.054794
0.089349
0.101375
0.077198
0.049280
0.007413
-0.034881
-0.083837
-0.120532
-0.160010
-0.187365
-0.220465
-0.220657
-0.203027
-0.191473
-0.157787
-0.085792
-0.037866
0.002412
0.044370
0.079375
0.078825
0.086914
0.080926
0.065822
0.045380
0.003898
-0.062816
-0.131496
-0.169303
-0.197959
-0.180815
-0.188142
-0.190487
-0.176333
-0.134494
-0.092884
-0.050303
-0.004044
0.045675
0.079872
0.089198
0.095985
0.104583
0.090486
0.053829
-0.006024
-0.066541
-0.101373
-0.147166
-0.184164
-0.204778
-0.194165
-0.186660
-0.175896
-0.140058
-0.098625
-0.062067
-0.008787
0.036725
0.073626
0.109326
0.112968
0.120785
0.105173
0.053068
-0.016867
-0.049437
-0.088031
-0.152631
-0.176030
-0.203503
-0.213915
-0.221626
-0.199675
-0.150762
-0.101907
-0.043612
0.011455
0.062233
0.085979
0.093270
0.102969
0.085286
0.063158
0.070318
0.018536
-0.038488
-0.090292
-0.127218
-0.177615
-0.165960
-0.195571
-0.200027
-0.187098
-0.159145
-0.111661
-0.071790
-0.025854
0.027752
0.069624
0.094843
0.129252
0.107383
0.059536
0.027262
0.034190
-0.029470
-0.097840
-0.131370
-0.186989
-0.220764
-0.230286
-0.208583
-0.175700
-0.156252
-0.105424
-0.049882
-0.010905
0.039779
0.081885
0.109483
0.102950
0.052798
0.042748
0.040413
-0.015170
-0.054287
-0.101500
-0.128109
-0.166797
-0.196573
-0.200627
-0.195516
-0.179568
-0.162488
-0.086896
-0.046404
-0.006333
0.024213
0.058316
0.075491
0.080839
0.074929
0.050233
0.030303
-0.026037
-0.074087
-0.105114
-0.163107
-0.201210
-0.208026
-0.203159
-0.184892
-0.148985
-0.138864
-0.116673
-0.057087
-0.035177
-0.010668
0.056852
0.075440
0.062907
0.072292
0.036489
0.019985
-0.021806
-0.079451
-0.097751
-0.149556
-0.199073
-0.210554
-0.208727
-0.200137
-0.167188
-0.143724
-0.083398
-0.067010
-0.033134
0.030453
0.060920
0.062133
0.062076
0.048523
0.029924
-0.011310
-0.066052
-0.114880
-0.156848
-0.172663
-0.176643
-0.167465
-0.179472
-0.210036
-0.186651
-0.159290
-0.109617
-0.059761
-0.004698
0.043274
0.069057
0.077673
0.076987
0.061962
0.041140
0.015015
-0.025003
-0.086007
-0.126955
-0.171589
-0.205062
-0.201407
-0.206476
-0.207503
-0.178240
-0.150492
-0.108644
-0.061714
-0.009784
0.035393
0.049939
0.050213
0.048114
0.052035
0.040169
0.017965
-0.023219
-0.076131
-0.118341
-0.155380
-0.204396
-0.221059
-0.237595
-0.233785
-0.197757
-0.148198
-0.100150
-0.050734
0.002845
0.048864
0.064183
0.069587
0.071234
0.077957
0.045979
-0.015719
-0.071943
-0.082662
-0.121762
-0.166411
-0.220924
-0.201156
-0.161069
-0.182161
-0.149412
-0.123024
-0.089861
-0.044050
0.021880
0.061166
0.111970
0.130736
0.121035
0.109528
0.080182
0.035678
-0.019066
-0.060556
-0.112212
-0.155193
-0.181765
-0.179915
-0.183824
-0.188494
-0.170875
-0.096356
-0.065420
-0.021825
0.027729
0.049227
0.076376
0.111765
0.125483
0.126766
0.091727
0.051097
0.009165
-0.027925
-0.082627
-0.114353
-0.150947
-0.168786
-0.162987
-0.148997
-0.127447
-0.099164
-0.055478
-0.018281
0.034699
0.077175
0.119663
0.138096
0.134562
0.129261
0.121859
0.080461
0.022613
-0.043758
-0.091071
-0.133157
-0.175682
-0.196018
-0.196183
-0.188518
-0.179687
-0.158216
-0.123075
-0.073702
-0.032305
0.017936
0.071445
0.108674
0.126175
0.109005
0.071600
0.024742
-0.024895
-0.063498
-0.121410
-0.167877
-0.217733
-0.242294
-0.215982
-0.212679
-0.182129
-0.155108
-0.132416
-0.067103
-0.016576
0.004096
0.017494
0.040810
0.043202
0.040005
0.035347
-0.001136
-0.034541
-0.088197
-0.142479
-0.171709
-0.208908
-0.239018
-0.235328
-0.241196
-0.237649
-0.189510
-0.144820
-0.110573
-0.050652
0.007059
0.027114
0.033580
0.044016
0.033970
0.030106
-0.018557
-0.074656
-0.122480
-0.145983
-0.165685
-0.232224
-0.210147
-0.194623
-0.193388
-0.198600
-0.181967
-0.149655
-0.106282
-0.054888
0.001094
0.027077
0.030787
0.059246
0.043744
0.017265
-0.006863
-0.041300
-0.088040
-0.143706
-0.195510
-0.218677
-0.228519
-0.250704
-0.229122
-0.200854
-0.176737
-0.128689
-0.085310
-0.040687
-0.009008
0.019565
0.026694
0.032369
0.015490
0.000733
-0.027608
-0.074584
-0.106393
-0.170624
-0.212056
-0.234843
-0.249852
-0.241441
-0.218530
-0.163077
-0.100969
-0.031831
0.041531
0.059350
0.110958
0.149953
0.178470
0.180144
0.223687
0.227934
0.182527
0.164697
0.151752
0.110021
0.124898
0.139189
0.144391
0.169981
0.229666
0.288611
0.355704
0.428378
0.513546
0.627850
0.703081
0.765158
0.812859
0.854000
0.872519
0.856314
0.791839
0.736676
0.688848
0.642309
0.576170
0.514704
0.468716
0.403093
0.344590
0.305044
0.293881
0.320793
0.332076
0.300064
0.296630
0.285643
0.259732
0.252819
0.210975
0.187502
0.175866
0.088004
0.027736
-0.012072
-0.046720
-0.093423
-0.125098
-0.127559
-0.121062
-0.082669
-0.061554
-0.031132
0.014726
0.053882
0.091021
0.139356
0.148250
0.124180
0.104379
0.077465
0.048857
0.007008
-0.031654
-0.081546
-0.144924
-0.184414
-0.195011
-0.202236
-0.201842
-0.190721
-0.159337
-0.097698
-0.039660
0.030290
0.074076
0.085518
0.100458
0.099746
0.101024
0.072031
0.032488
-0.023317
-0.071191
-0.125554
-0.163575
-0.188969
-0.210363
-0.222478
-0.168779
-0.144313
-0.124310
-0.088230
-0.050617
-0.005588
0.045035
0.066904
0.100958
0.119172
0.101434
0.088639
0.057695
-0.017245
-0.082901
-0.107896
-0.139239
-0.180062
-0.182915
-0.187353
-0.182167
-0.168030
-0.136263
-0.080320
-0.026102
0.033678
0.060187
0.087290
0.112933
0.119259
0.103669
0.075738
0.043834
0.008867
-0.042831
-0.091384
-0.123306
-0.148972
-0.152425
-0.155526
-0.171039
-0.160074
-0.136025
-0.060113
-0.011720
0.028856
0.076498
0.114087
0.153157
0.172443
0.147800
0.112092
0.084742
0.061487
0.021841
-0.045374
-0.081939
-0.126813
-0.152321
-0.172578
-0.156379
-0.147202
-0.090894
-0.021575
0.024578
0.078341
0.103313
0.148262
0.192094
0.180448
0.176434
0.161000
0.147402
0.073076
0.029392
-0.020054
-0.061366
-0.074921
-0.091846
-0.096092
-0.078949
-0.072562
-0.044659
-0.000912
0.041626
0.114328
0.160828
0.177144
0.199040
0.191654
0.145498
0.162440
0.145722
0.133211
0.078568
0.028711
-0.031454
-0.061738
-0.064807
-0.092017
-0.094241
-0.076051
-0.019532
0.023732
0.060167
0.101722
0.146117
0.181264
0.199617
0.198422
0.192753
0.186306
0.138874
0.089483
0.040889
-0.010132
-0.054628
-0.082625
-0.082898
-0.082283
-0.070824
-0.051716
-0.019018
0.024992
0.061344
0.098933
0.124647
0.152442
0.175084
0.179993
0.162391
0.131933
0.073424
0.068585
0.056929
0.032522
-0.010004
-0.085696
-0.122865
-0.116430
-0.098959
-0.083718
-0.062619
-0.029291
0.026172
0.083739
0.116843
0.137736
0.140194
0.146571
0.140966
0.105150
0.063975
0.020886
-0.006029
-0.060113
-0.110881
-0.127508
-0.137415
-0.158291
-0.159290
-0.142021
-0.101643
-0.085799
-0.019974
0.053905
0.124458
0.126395
0.116430
0.109943
0.090448
0.109538
0.077033
-0.015105
-0.057841
-0.114926
-0.142402
-0.151155
-0.190517
-0.213289
-0.186954
-0.160804
-0.124269
-0.073060
-0.028589
0.029961
0.062672
0.070902
0.087046
0.119925
0.108815
0.063012
0.031610
-0.009735
-0.065977
-0.122476
-0.167918
-0.194406
-0.215686
-0.225477
-0.204452
-0.151539
-0.104437
-0.080600
-0.057187
-0.023196
0.028942
0.061253
0.062398
0.058853
0.074830
0.063810
0.045772
-0.002209
-0.047205
-0.105342
-0.170658
-0.203956
-0.214746
-0.201321
-0.176109
-0.179178
-0.142385
-0.074935
-0.043151
-0.008374
0.053166
0.068406
0.083236
0.083166
0.110507
0.069613
0.068409
0.015036
-0.051628
-0.137992
-0.182314
-0.166153
-0.184066
-0.203907
-0.183082
-0.168480
-0.126296
-0.079208
-0.053660
-0.023239
0.048510
0.104811
0.138063
0.155953
0.127364
0.093141
0.044024
0.013985
-0.028768
-0.088716
-0.128531
-0.165515
-0.198211
-0.177702
-0.162821
-0.164852
-0.132023
-0.107327
-0.063250
0.000295
0.038586
0.065168
0.101947
0.109061
0.092600
0.069972
0.032926
0.012044
-0.030592
-0.108869
-0.146935
-0.180258
-0.186322
-0.153269
-0.170009
-0.182167
-0.121951
-0.091963
-0.044350
0.015849
0.061990
0.098912
0.115067
0.106340
0.091725
0.062993
0.041591
0.032684
-0.007893
-0.090231
-0.144554
-0.179514
-0.181169
-0.190136
-0.202801
-0.177654
-0.141741
-0.097636
-0.066010
-0.018958
0.036670
0.068481
0.087812
0.090293
0.078582
0.064735
0.039926
-0.025793
-0.051393
-0.103993
-0.123853
-0.173117
-0.200143
-0.193112
-0.178555
-0.154356
-0.126564
-0.102242
-0.053451
0.025288
0.066715
0.085949
0.094855
0.104775
0.083220
0.044272
0.020636
-0.018489
-0.060661
-0.100128
-0.166250
-0.204156
-0.185203
-0.204250
-0.192607
-0.181234
-0.149507
-0.123154
-0.072411
0.007755
0.037978
0.074668
0.092111
0.065847
0.036997
0.028337
-0.051574
-0.044442
-0.075275
-0.124373
-0.162423
-0.183494
-0.164893
-0.165620
-0.154896
-0.161193
-0.117528
-0.085603
-0.044835
0.005306
0.035793
0.070714
0.089924
0.091081
0.069138
0.038095
0.003029
-0.042039
-0.084997
-0.111835
-0.164160
-0.212691
-0.239647
-0.259656
-0.229123
-0.143391
-0.136846
-0.120974
-0.089335
0.003649
0.075414
0.095535
0.122242
0.112673
0.076417
0.041805
0.000313
-0.044196
-0.101459
-0.139366
-0.185537
-0.207508
-0.207479
-0.213213
-0.214891
-0.196137
-0.139806
-0.095604
-0.056622
-0.010950
0.028990
0.066502
0.091822
0.127513
0.104000
0.059954
0.016026
-0.026310
-0.082212
-0.127687
-0.150093
-0.216291
-0.240457
-0.247045
-0.234315
-0.198431
-0.140658
-0.087262
-0.032595
0.000633
0.030436
0.066333
0.086787
0.090981
0.078197
0.050930
0.012069
-0.030969
-0.095077
-0.165324
-0.212990
-0.228248
-0.251646
-0.235315
-0.180578
-0.126683
-0.102030
-0.095532
-0.056764
-0.006057
0.049345
0.070722
0.109548
0.111238
0.112713
0.097390
0.054236
-0.009075
-0.053913
-0.075893
-0.132879
-0.167754
-0.194028
-0.210201
-0.187105
-0.162627
-0.099008
-0.061817
-0.014872
0.025985
0.043829
0.061602
0.102120
0.124795
0.119312
0.085094
0.049239
0.032020
-0.029621
-0.089409
-0.124536
-0.160282
-0.154787
-0.192636
-0.191635
-0.158916
-0.110732
-0.054698
0.014869
0.055982
0.091043
0.116815
0.128841
0.126579
0.131499
0.126880
0.082660
0.050885
-0.002845
-0.055766
-0.086931
-0.124431
-0.166297
-0.175203
-0.159140
-0.150635
-0.121957
-0.076485
-0.027399
0.010686
0.010403
0.043305
0.095815
0.088991
0.079054
0.056065
0.031479
0.000912
-0.042705
-0.098368
-0.139703
-0.156916
-0.192214
-0.213833
-0.204598
-0.184566
-0.166053
-0.117012
-0.060505
-0.005900
0.018284
0.038030
0.079091
0.099144
0.082900
0.036577
0.001765
-0.038204
-0.109037
-0.149934
-0.143513
-0.175908
-0.225545
-0.247103
-0.228430
-0.170651
-0.122284
-0.105563
-0.067477
-0.029048
0.017933
0.045302
0.063249
0.053676
0.037636
0.040777
-0.010207
-0.055628
-0.088412
-0.161623
-0.191002
-0.216901
-0.219282
-0.218144
-0.229356
-0.211877
-0.161635
-0.099353
-0.058912
-0.009789
0.025193
0.037720
0.039202
0.019784
0.029754
0.039273
-0.036591
-0.075046
-0.090350
-0.103314
-0.170269
-0.225731
-0.245137
-0.252315
-0.229833
-0.188564
-0.136486
-0.105831
-0.052413
-0.026611
0.000221
0.036273
0.058109
0.034312
0.042257
0.021905
-0.004271
-0.051244
-0.113444
-0.156757
-0.208287
-0.218294
-0.225601
-0.233251
-0.220231
-0.208366
-0.186849
-0.152625
-0.102271
0.002390
0.083537
0.111315
0.106413
0.112613
0.122068
0.100670
0.056786
0.013723
-0.006693
-0.044856
-0.080256
-0.099199
-0.097304
-0.076015
-0.045207
-0.004137
0.068097
0.145187
0.235228
0.327760
0.395937
0.429206
0.464837
0.521332
0.558551
0.560775
0.554417
0.545978
0.540548
0.521535
0.518471
0.517151
0.520076
0.524617
0.544714
0.564930
0.601668
0.623318
0.661914
0.681970
0.696662
0.721290
0.653589
0.586916
0.523048
0.435102
0.337519
0.277760
0.191001
0.081488
0.006985
-0.041065
-0.073761
-0.086579
-0.081273
-0.056652
-0.036917
-0.011130
0.015334
0.066884
0.101275
0.133138
0.156545
0.169160
0.167458
0.160939
0.105100
0.035150
-0.003361
-0.048019
-0.116395
-0.138970
-0.146382
-0.165335
-0.159046
-0.133693
-0.080039
-0.078378
-0.050347
0.011412
0.040953
0.069728
0.104922
0.109425
0.114009
0.094723
0.048332
-0.007951
-0.069086
-0.094757
-0.118047
-0.142909
-0.165461
-0.194636
-0.200075
-0.175835
-0.115432
-0.055303
-0.017589
0.007714
0.028956
0.065000
0.089347
0.095211
0.115150
0.111278
0.048175
0.005353
-0.041153
-0.091852
-0.124329
-0.153813
-0.178239
-0.167228
-0.165907
-0.139835
-0.103704
-0.071390
-0.033177
0.010680
0.041876
0.070680
0.096213
0.114521
0.104306
0.088544
0.056553
0.013343
-0.031765
-0.076746
-0.114261
-0.138615
-0.154505
-0.163175
-0.161105
-0.140733
-0.109288
-0.062068
-0.027968
0.032241
0.092289
0.115098
0.128920
0.136735
0.126955
0.123683
0.092018
0.032550
-0.008278
-0.064760
-0.101151
-0.128073
-0.143160
-0.146324
-0.144989
-0.131004
-0.053432
0.000247
0.033964
0.063999
0.109023
0.133893
0.158885
0.175820
0.157173
0.131404
0.090725
0.076992
0.021711
-0.032045
-0.085097
-0.088552
-0.099175
-0.105124
-0.101538
-0.061498
0.027279
0.074931
0.087903
0.117729
0.144796
0.132492
0.149023
0.185975
0.222622
0.217090
0.152213
0.087843
0.055412
0.015712
-0.021983
-0.050854
-0.070301
-0.082479
-0.071216
-0.057102
-0.016106
0.042949
0.092749
0.146104
0.193903
0.212273
0.208646
0.192155
0.228236
0.186219
0.136056
0.120443
0.087775
0.043628
-0.017884
-0.061077
-0.092954
-0.109531
-0.091348
-0.051947
-0.014855
0.028078
0.083700
0.157241
0.192258
0.207027
0.203801
0.218879
0.197833
0.164845
0.126935
0.088831
0.041408
-0.024762
-0.059692
-0.079868
-0.101677
-0.113529
-0.099454
-0.075380
-0.032580
0.007331
0.048651
0.088867
0.151501
0.189136
0.215410
0.216948
0.196896
0.156837
0.106119
0.065731
0.000869
-0.040144
-0.078641
-0.097040
-0.121878
-0.099876
-0.118371
-0.082095
-0.046485
-0.001341
0.018270
0.037460
0.075761
0.120998
0.181891
0.184099
0.157106
0.125262
0.105044
0.041607
-0.024721
-0.090881
-0.156179
-0.209553
-0.223874
-0.133828
-0.086132
-0.114446
-0.098681
-0.064635
-0.013419
0.029211
0.063911
0.111313
0.123304
0.134002
0.113063
0.079806
0.051822
0.026276
-0.018482
-0.102824
-0.146422
-0.172498
-0.198864
-0.202855
-0.189192
-0.168110
-0.127202
-0.095441
-0.055864
-0.013338
0.036440
0.071390
0.096722
0.096567
0.090548
0.078563
0.041774
-0.004731
-0.045978
-0.087201
-0.126463
-0.156614
-0.173764
-0.194911
-0.193688
-0.168109
-0.137630
-0.113568
-0.051389
-0.008450
0.035175
0.055982
0.084589
0.094988
0.098044
0.072389
0.033538
0.019720
-0.053040
-0.090924
-0.134808
-0.183675
-0.212030
-0.206636
-0.160394
-0.125241
-0.103220
-0.072700
-0.041410
-0.007971
0.064874
0.113207
0.097134
0.063056
0.062449
0.062886
0.049002
0.007521
-0.041824
-0.064294
-0.103724
-0.146048
-0.170958
-0.179699
-0.167360
-0.137886
-0.108953
-0.080919
-0.031700
0.006957
0.048440
0.082996
0.117148
0.125686
0.087920
0.055940
0.003755
-0.035908
-0.045265
-0.066537
-0.094620
-0.142587
-0.158576
-0.164299
-0.165827
-0.155364
-0.117461
-0.073719
-0.031737
0.024717
0.074753
0.087629
0.100038
0.108527
0.101013
0.074112
0.043374
-0.014390
-0.060787
-0.090477
-0.127177
-0.165409
-0.180702
-0.180880
-0.160641
-0.140219
-0.103471
-0.065924
-0.041635
0.010084
0.054571
0.076131
0.097878
0.122018
0.109932
0.068551
0.023751
-0.020728
-0.068961
-0.109002
-0.146710
-0.181937
-0.196071
-0.191341
-0.180754
-0.173342
-0.139967
-0.079340
-0.020628
0.021767
0.063952
0.095269
0.117458
0.106660
0.099985
0.084231
0.031268
-0.030314
-0.074787
-0.118964
-0.168439
-0.157119
-0.161215
-0.146292
-0.178072
-0.171681
-0.142726
-0.091451
-0.056882
-0.023678
0.036441
0.057500
0.074135
0.073447
0.120033
0.100274
0.051415
-0.006826
-0.092246
-0.131981
-0.162105
-0.191556
-0.199657
-0.196930
-0.198912
-0.184163
-0.117686
-0.094093
-0.055376
0.019191
0.071008
0.084247
0.091885
0.106944
0.084724
0.058260
0.018770
-0.009190
-0.053052
-0.111332
-0.169167
-0.201207
-0.222800
-0.219805
-0.216653
-0.184019
-0.148560
-0.109596
-0.068957
-0.025170
0.018526
0.059976
0.081504
0.077204
0.074300
0.059772
0.033643
-0.011630
-0.059745
-0.093158
-0.143862
-0.174328
-0.210100
-0.216993
-0.193602
-0.175340
-0.160464
-0.132057
-0.084626
-0.025615
0.018453
0.064159
0.097620
0.101625
0.085698
0.069606
0.063892
-0.005639
-0.053698
-0.103571
-0.123677
-0.154572
-0.187685
-0.202516
-0.207006
-0.169138
-0.131538
-0.100902
-0.061309
-0.010733
0.037847
0.068981
0.110583
0.116659
0.100085
0.082492
0.060935
0.002079
-0.056239
-0.086382
-0.117185
-0.152456
-0.188225
-0.209121
-0.187059
-0.127973
-0.076329
-0.028508
0.002560
0.036503
0.073950
0.098283
0.102479
0.115241
0.093412
0.062728
0.048812
0.004481
-0.028476
-0.081555
-0.115999
-0.147891
-0.158794
-0.151805
-0.147407
-0.124607
-0.095422
-0.053001
0.004415
0.051129
0.082646
0.111571
0.120876
0.122200
0.106284
0.081687
0.058433
0.044603
-0.015211
-0.071437
-0.114586
-0.151940
-0.173259
-0.168070
-0.148577
-0.113112
-0.083201
-0.056445
-0.039422
-0.009302
0.029962
0.091366
0.106047
0.110927
0.082363
0.036087
0.007372
-0.014414
-0.067027
-0.093118
-0.124031
-0.169942
-0.196138
-0.200145
-0.203074
-0.184307
-0.154159
-0.113236
-0.060204
-0.019395
0.005029
0.044363
0.077479
0.081789
0.105502
0.069326
-0.004157
-0.062428
-0.102284
-0.152988
-0.189259
-0.223050
-0.230973
-0.229992
-0.218981
-0.204444
-0.185511
-0.109528
-0.060513
-0.027120
-0.004364
0.052360
0.078806
0.081503
0.047889
0.012542
-0.013469
-0.046791
-0.100749
-0.155250
-0.208112
-0.251349
-0.263372
-0.263691
-0.204651
-0.191791
-0.181191
-0.127739
-0.070531
-0.030848
-0.009248
0.025760
0.074396
0.084267
0.068518
0.033637
0.003714
-0.021532
-0.076682
-0.134389
-0.194757
-0.231343
-0.249635
-0.274236
-0.247584
-0.180348
-0.146228
-0.119592
-0.082975
-0.030390
0.005989
0.042670
0.066143
0.069848
0.061579
0.021379
-0.024488
-0.057758
-0.103367
-0.148915
-0.197812
-0.231773
-0.245039
-0.246134
-0.233709
-0.206231
-0.168487
-0.116452
-0.059077
-0.008432
0.048024
0.113551
0.153900
0.172920
0.171248
0.151319
0.154698
0.100146
0.042319
0.013504
0.013624
0.013581
0.060748
0.075606
0.111338
0.138552
0.176065
0.238901
0.330011
0.408888
0.464126
0.531320
0.601412
0.646975
0.655893
0.669431
0.688553
0.681386
0.663754
0.617442
0.584623
0.562565
0.544174
0.523924
0.520109
0.523913
0.517166
0.484061
0.460734
0.441668
0.429597
0.411868
0.386744
0.340628
0.303161
0.245099
0.186735
0.110430
0.046009
-0.006094
-0.053316
-0.100549
-0.111415
-0.111380
-0.155710
-0.124799
-0.058023
-0.033680
0.045117
0.076759
0.106027
0.121270
0.140779
0.152479
0.129104
0.095711
0.056692
0.007703
-0.044369
-0.077492
-0.113794
-0.155357
-0.183966
-0.172478
-0.160745
-0.135326
-0.106128
-0.061092
-0.019757
0.018572
0.032282
0.058661
0.055162
0.079473
0.081861
0.064227
0.042328
-0.016180
-0.081582
-0.114451
-0.146574
-0.171235
-0.184495
-0.194508
-0.202539
-0.163596
-0.109632
-0.072112
-0.038841
0.021753
0.057175
0.092318
0.099254
0.097837
0.086949
0.060533
0.027033
-0.004520
-0.034170
-0.095705
-0.153452
-0.189750
-0.199821
-0.198967
-0.178897
-0.145307
-0.113532
-0.083380
-0.017954
0.018785
0.062514
0.095445
0.113394
0.116876
0.114690
0.082742
0.042980
-0.004335
-0.054761
-0.097847
-0.126868
-0.129890
-0.132729
-0.161540
-0.179905
-0.154667
-0.092063
-0.044233
-0.001946
0.037286
0.096537
0.149728
0.159990
0.148535
0.149402
0.123093
0.065047
0.032894
-0.025160
-0.076020
-0.115421
-0.144106
-0.157079
-0.143929
-0.145428
-0.107974
-0.074435
-0.028726
0.032758
0.090246
0.119557
0.144020
0.170074
0.186500
0.167088
0.161757
0.122866
0.065708
0.060370
0.015341
-0.050441
-0.112282
-0.122944
-0.134501
-0.124791
-0.073577
-0.058054
0.012711
0.098571
0.121725
0.129913
0.164749
0.209010
0.218715
0.225800
0.203557
0.159873
0.113866
0.059465
0.005844
-0.029913
-0.062950
-0.072698
-0.082367
-0.072361
-0.042285
-0.020843
0.014244
0.078514
0.118483
0.155002
0.197212
0.213740
0.237671
0.246076
0.209306
0.191694
0.144260
0.062254
-0.003376
-0.036932
-0.090688
-0.126035
-0.115295
-0.065510
-0.038937
-0.011117
0.020338
0.071384
0.107398
0.133731
0.163321
0.184816
0.178108
0.184389
0.169908
0.155538
0.108126
0.064675
0.010853
-0.037384
-0.056771
-0.073363
-0.094891
-0.092422
-0.072577
-0.053930
-0.001864
0.029092
0.061534
0.105081
0.140713
0.170487
0.171108
0.164186
0.135832
0.105469
0.066391
0.019867
-0.033986
-0.087767
-0.122040
-0.128222
-0.123111
-0.125277
-0.120562
-0.103116
-0.069218
-0.017890
0.040867
0.061726
0.102042
0.107410
0.111482
0.109911
0.116227
0.108688
0.037262
-0.039265
-0.081436
-0.121588
-0.126482
-0.152154
-0.174968
-0.167156
-0.146508
-0.120636
-0.081071
-0.015813
0.020557
0.044479
0.077971
0.082899
0.096616
0.100177
0.066860
0.032157
-0.011095
-0.038764
-0.073875
-0.121731
-0.158015
-0.189728
-0.197376
-0.187430
-0.166845
-0.155975
-0.117248
-0.054238
0.030583
0.066027
0.062652
0.080506
0.088629
0.056979
0.021637
0.005185
-0.046639
-0.107782
-0.125750
-0.133310
-0.164438
-0.170777
-0.158562
-0.169604
-0.143074
-0.118021
-0.062115
-0.003524
0.018296
0.057795
0.088032
0.098590
0.093787
0.085094
0.063272
0.035704
-0.025723
-0.066533
-0.118675
-0.142387
-0.170027
-0.203386
-0.198141
-0.152897
-0.137039
-0.128565
-0.095983
-0.064965
0.022490
0.087478
0.117346
0.143168
0.124299
0.082557
0.040412
0.045322
-0.002932
-0.074839
-0.118845
-0.164708
-0.177043
-0.170139
-0.176144
-0.173414
-0.134369
-0.107792
-0.068778
-0.027408
0.014338
0.059006
0.100841
0.126887
0.114715
0.115788
0.077169
0.032083
-0.012486
-0.054198
-0.108622
-0.141921
-0.159278
-0.179812
-0.189895
-0.167790
-0.148308
-0.122531
-0.078704
-0.029670
0.003366
0.052747
0.079863
0.096363
0.107348
0.105972
0.100515
0.074522
0.020413
-0.033152
-0.082505
-0.138399
-0.181305
-0.232141
-0.232009
-0.202013
-0.168354
-0.130430
-0.069838
-0.010451
0.061445
0.065109
0.073712
0.095316
0.120463
0.119654
0.090108
0.050386
0.011961
-0.047851
-0.109079
-0.146597
-0.192199
-0.204368
-0.197089
-0.189168
-0.175026
-0.145324
-0.108359
-0.065860
-0.000203
0.059003
0.097708
0.113507
0.122592
0.108744
0.060648
0.036738
0.015270
-0.043914
-0.099005
-0.150508
-0.177378
-0.208340
-0.223137
-0.228439
-0.183327
-0.128104
-0.078932
-0.045967
-0.031462
0.020157
0.072007
0.087410
0.089193
0.069683
0.069744
0.047585
0.012353
-0.040596
-0.087984
-0.134432
-0.176288
-0.208969
-0.211395
-0.197184
-0.166962
-0.138137
-0.116211
-0.059389
-0.011064
0.035003
0.089260
0.088372
0.076377
0.064432
0.040823
0.031467
-0.020851
-0.047520
-0.075270
-0.134841
-0.187872
-0.202277
-0.209167
-0.199443
-0.170014
-0.144004
-0.106775
-0.067116
-0.035436
0.007972
0.043477
0.074876
0.091932
0.081741
0.059789
0.030229
-0.015937
-0.066378
-0.104472
-0.147186
-0.179292
-0.194435
-0.199690
-0.193540
-0.176808
-0.150644
-0.123059
-0.072562
-0.020179
0.023873
0.063639
0.082065
0.086967
0.070860
0.047412
0.011090
-0.032213
-0.078708
-0.126153
-0.143732
-0.170511
-0.192201
-0.186392
-0.172303
-0.140855
-0.107670
-0.082673
-0.032057
0.006808
0.054835
0.080714
0.085760
0.085160
0.070859
0.065075
0.035206
0.024084
-0.025547
-0.045239
-0.042228
-0.110359
-0.178993
-0.161923
-0.166529
-0.127434
-0.080558
-0.017808
0.002731
0.044095
0.077458
0.096597
0.111643
0.121889
0.115024
0.084702
0.050856
0.010799
-0.013712
-0.045458
-0.086176
-0.104964
-0.126674
-0.148395
-0.140793
-0.109970
-0.060768
-0.017830
0.022409
0.070568
0.103560
0.122406
0.132325
0.135940
0.120544
0.092760
0.061255
0.013818
-0.035956
-0.087868
-0.134211
-0.169468
-0.174480
-0.179062
-0.163012
-0.152341
-0.126621
-0.078565
-0.019661
0.012210
0.044006
0.088998
0.104770
0.088601
0.084942
0.056060
0.018801
-0.036322
-0.110252
-0.155670
-0.185448
-0.211776
-0.223323
-0.211217
-0.188464
-0.164440
-0.146852
-0.102894
-0.064966
-0.026367
0.010531
0.059785
0.089101
0.093735
0.054068
0.013487
-0.020121
-0.054977
-0.097492
-0.138682
-0.195338
-0.246315
-0.261237
-0.274874
-0.226061
-0.141415
-0.107249
-0.039308
-0.054209
-0.045247
0.032659
0.065908
0.065282
0.064323
0.072459
0.030630
-0.002098
-0.058285
-0.097969
-0.146737
-0.183124
-0.224309
-0.231963
-0.239260
-0.235463
-0.197647
-0.169484
-0.128374
-0.095715
-0.012577
0.023339
0.054901
0.068255
0.061107
0.046558
0.006817
-0.017462
-0.031021
-0.065567
-0.117821
-0.181586
-0.208548
-0.235855
-0.246612
-0.246955
-0.216494
-0.180965
-0.134545
-0.100699
-0.043975
0.009325
0.044614
0.055317
0.078366
0.059550
0.034386
-0.001724
-0.039752
-0.099732
-0.149369
-0.179619
-0.187171
-0.204010
-0.212250
-0.188431
-0.157740
-0.115133
-0.065472
-0.006841
0.046217
0.116313
0.179953
0.202724
0.256934
0.249146
0.230085
0.214980
0.207464
0.194567
0.150845
0.155063
0.163867
0.175084
0.188882
0.231716
0.293877
0.355048
0.421240
0.502272
0.612876
0.691283
0.754636
0.802577
0.836662
0.850789
0.823627
0.784414
0.765505
0.733231
0.676052
0.596786
0.513538
0.458547
0.399846
0.321749
0.280412
0.249593
0.238277
0.243103
0.262652
0.231618
0.223665
0.223709
0.216205
0.199027
0.181370
0.156951
0.119606
0.041244
-0.029803
-0.053640
-0.068064
-0.083982
-0.118796
-0.134680
-0.115570
-0.081268
-0.048478
-0.020417
0.048263
0.091243
0.092872
0.116712
0.112196
0.086892
0.094923
0.055228
-0.000833
-0.035214
-0.063855
-0.103005
-0.141753
-0.168401
-0.183348
-0.178723
-0.156724
-0.107996
-0.072842
-0.041223
0.021906
0.049687
0.067596
0.099012
0.101732
0.078945
0.059859
0.039099
0.004895
-0.043131
-0.093746
-0.123541
-0.152509
-0.165747
-0.174274
-0.165759
-0.158085
-0.125936
-0.078261
-0.021140
0.014758
0.052344
0.083375
0.110746
0.104228
0.080220
0.064020
0.021917
-0.018587
-0.074113
-0.102683
-0.154979
-0.178274
-0.150822
-0.140250
-0.124539
-0.101899
-0.054259
-0.025120
0.006910
0.015525
0.060399
0.098311
0.119553
0.107071
0.110254
0.117032
0.058738
0.021876
-0.026002
-0.084635
-0.115221
-0.151254
-0.158813
-0.155633
-0.107656
-0.101232
-0.077653
-0.043059
0.007748
0.074181
0.122735
0.150663
0.158375
0.165096
0.151335
0.101501
0.085803
0.042083
-0.004012
-0.046033
-0.069931
-0.091795
-0.109567
-0.122653
-0.128598
-0.085782
-0.038600
-0.011420
0.042674
0.079690
0.109614
0.172636
0.208509
0.204002
0.158278
0.147250
0.118126
0.106086
0.075226
-0.039819
-0.072469
-0.082105
-0.098100
-0.080970
-0.068589
-0.042582
-0.026491
0.021185
0.084437
0.140541
0.165945
0.193011
0.215728
0.216720
0.223128
0.213474
0.187368
0.138698
0.110273
0.059031
-0.021805
-0.036486
-0.055457
-0.081725
-0.096292
-0.076351
-0.024995
0.043586
0.089320
0.122500
0.173024
0.204299
0.238864
0.243019
0.244232
0.230221
0.179180
0.107005
0.059062
0.021236
-0.004715
-0.035368
-0.071803
-0.077762
-0.086362
-0.057584
-0.027465
0.011660
0.046737
0.101962
0.157937
0.180162
0.186116
0.196372
0.215424
0.196827
0.149194
0.111053
0.062321
0.012799
-0.029969
-0.048324
-0.098903
-0.115082
-0.124949
-0.084196
-0.005523
0.022779
0.039682
0.068695
0.092893
0.135194
0.156618
0.161545
0.167443
0.138926
0.099125
0.047571
0.008466
-0.044173
-0.084442
-0.112510
-0.134626
-0.149140
-0.143124
-0.127078
-0.092445
-0.050267
-0.032732
0.023254
0.071723
0.090051
0.110895
0.118591
0.108117
0.075675
0.041302
0.037848
-0.015445
-0.076703
-0.127839
-0.133598
-0.136963
-0.148639
-0.166612
-0.155124
-0.139731
-0.100943
-0.043884
0.025809
0.050687
0.081454
0.089080
0.103587
0.083459
0.045543
0.033073
0.046420
-0.018979
-0.104604
-0.138635
-0.161711
-0.182596
-0.189719
-0.179299
-0.148739
-0.096215
-0.041589
-0.020458
-0.006443
0.039450
0.075957
0.101446
0.097390
0.067282
0.044332
0.020299
-0.016927
-0.068648
-0.103775
-0.145022
-0.177315
-0.181141
-0.177359
-0.160008
-0.149170
-0.136794
-0.088062
-0.050528
0.003616
0.043121
0.072990
0.104295
0.115270
0.100969
0.074761
0.024878
-0.024998
-0.072535
-0.110112
-0.158436
-0.161089
-0.175344
-0.185134
-0.175287
-0.151929
-0.112193
-0.057214
-0.022941
0.023241
0.058447
0.108795
0.117069
0.096454
0.063091
0.065026
0.056889
0.001158
-0.076277
-0.120476
-0.142587
-0.152864
-0.161823
-0.179968
-0.166136
-0.133561
-0.079843
0.001026
0.018970
0.014087
0.032644
0.085509
0.127019
0.126945
0.103403
0.091808
0.071350
0.014095
-0.062398
-0.110656
-0.132809
-0.165333
-0.182809
-0.185773
-0.169817
-0.159015
-0.137526
-0.109134
-0.039165
0.023056
0.080028
0.100467
0.088943
0.136927
0.126665
0.082787
0.036001
0.008480
-0.035753
-0.091470
-0.128567
-0.161382
-0.190420
-0.199500
-0.187290
-0.165520
-0.149995
-0.102973
-0.033369
0.018392
0.032259
0.060507
0.098430
0.121681
0.120055
0.082447
0.042762
-0.005116
-0.045377
-0.082744
-0.134405
-0.169194
-0.189611
-0.197039
-0.199210
-0.174330
-0.147870
-0.098350
-0.054003
-0.005110
0.036193
0.074980
0.098035
0.102282
0.096670
0.083944
0.043207
-0.009650
-0.063109
-0.071281
-0.121537
-0.181163
-0.208877
-0.209168
-0.221188
-0.172381
-0.107141
-0.076353
-0.069394
-0.026764
0.059805
0.113489
0.087653
0.096960
0.086562
0.064048
0.037490
-0.019170
-0.056642
-0.099134
-0.137348
-0.184190
-0.197296
-0.200269
-0.173579
-0.158522
-0.133329
-0.105072
-0.065998
-0.013787
0.020736
0.061958
0.071240
0.075713
0.066463
0.042410
0.013111
-0.017459
-0.055914
-0.107398
-0.154951
-0.174143
-0.168531
-0.176935
-0.166350
-0.158231
-0.133248
-0.094248
-0.039668
-0.006843
0.034877
0.039774
0.058791
0.066087
0.055468
0.041016
0.005001
-0.034224
-0.076587
-0.100394
-0.139757
-0.167049
-0.181867
-0.187081
-0.169011
-0.143091
-0.118079
-0.086454
-0.056752
-0.006053
0.057985
0.087718
0.104314
0.119434
0.093785
0.059575
0.017467
-0.018615
-0.050509
-0.106154
-0.150123
-0.160766
-0.176167
-0.173624
-0.128929
-0.102617
-0.082024
-0.076106
-0.012266
0.051700
0.061330
0.061377
0.089272
0.109437
0.134128
0.107991
0.059584
0.015933
-0.021133
-0.056272
-0.102827
-0.137181
-0.142290
-0.140125
-0.127486
-0.106310
-0.077321
-0.027367
0.002160
0.041643
0.088703
0.119632
0.139761
0.154113
0.136243
0.084317
0.043023
-0.002632
-0.042728
-0.097078
-0.138175
-0.170142
-0.177212
-0.163543
-0.159769
-0.147392
-0.118178
-0.065809
-0.033952
-0.006569
0.032230
0.072450
0.115679
0.107234
0.080493
0.072110
0.052027
-0.010875
-0.070976
-0.117807
-0.165663
-0.193506
-0.217359
-0.222630
-0.196752
-0.174328
-0.145186
-0.107834
-0.071852
-0.022280
0.018519
0.042249
0.077698
0.104756
0.084926
0.058877
0.006987
-0.058162
-0.085447
-0.140462
-0.199734
-0.256718
-0.285191
-0.277508
-0.203336
-0.151983
-0.138638
-0.122380
-0.059583
-0.040123
0.003137
0.045691
0.048014
0.074835
0.042526
0.043931
-0.002140
-0.050717
-0.099536
-0.151290
-0.198306
-0.227280
-0.251615
-0.236189
-0.231841
-0.220853
-0.164234
-0.139238
-0.118124
-0.066826
-0.003016
0.051646
0.083061
0.079429
0.038988
0.015556
0.005602
-0.044170
-0.088994
-0.131612
-0.181121
-0.230705
-0.249363
-0.238248
-0.226307
-0.208076
-0.169730
-0.133190
-0.076461
-0.045092
0.000877
0.024098
0.054117
0.069668
0.048048
0.023847
0.001626
-0.048590
-0.101318
-0.146720
-0.179174
-0.215622
-0.231319
-0.239891
-0.222355
-0.192281
-0.148828
-0.103804
-0.056523
-0.009952
0.059182
0.129846
0.165017
0.174648
0.166463
0.149196
0.128731
0.105450
0.089320
0.079533
0.058478
0.063873
0.059097
0.060770
0.091995
0.163762
0.234275
0.286808
0.362500
0.471459
0.561076
0.610090
0.623141
0.680170
0.713930
0.746257
0.728995
0.727321
0.701046
0.680873
0.623735
0.593664
0.566171
0.549830
0.536914
0.511834
0.503454
0.479309
0.451854
0.430448
0.407085
0.391515
0.368700
0.324259
0.257263
0.191899
0.142138
0.094449
0.050020
-0.004747
-0.036492
-0.061756
-0.103217
-0.124754
-0.094337
-0.080034
-0.047041
-0.019415
0.010844
0.055193
0.104685
0.134095
0.151187
0.142423
0.120255
0.082203
0.026045
0.001218
-0.042297
-0.089161
-0.131733
-0.169927
-0.147717
-0.148421
-0.162222
-0.173385
-0.143873
-0.057395
0.000333
0.046831
0.080432
0.100335
0.093343
0.076031
0.058654
0.076164
0.053881
-0.017843
-0.096398
-0.127134
-0.157115
-0.174978
-0.206344
-0.208887
-0.192264
-0.160778
-0.115690
-0.061979
-0.010277
0.025471
0.068512
0.086810
0.092513
0.089899
0.074494
0.041854
0.000551
-0.015834
-0.072838
-0.090302
-0.110803
-0.131141
-0.156749
-0.169837
-0.170176
-0.156420
-0.113384
-0.069859
-0.028627
0.033107
0.071781
0.108389
0.120462
0.120469
0.109801
0.093078
0.048611
-0.000670
-0.037655
-0.082277
-0.130086
-0.163339
-0.186520
-0.179263
-0.164329
-0.156803
-0.125553
-0.062031
-0.010242
0.056459
0.105350
0.132328
0.133805
0.127577
0.101640
0.110938
0.077980
0.061236
0.010071
-0.073481
-0.096626
-0.093670
-0.097777
-0.125250
-0.146908
-0.120441
-0.064825
-0.009004
0.038364
0.072734
0.107884
0.142851
0.163616
0.182760
0.172675
0.166701
0.142507
0.102468
0.051144
-0.007245
-0.048335
-0.080212
-0.099966
-0.112494
-0.092783
-0.075449
-0.043657
-0.008411
0.040240
0.104188
0.154577
0.192742
0.207332
0.201672
0.193928
0.175496
0.138457
0.092173
0.057919
0.029779
-0.032085
-0.057588
-0.052827
-0.068971
-0.060582
-0.055919
-0.028934
-0.002866
0.084783
0.131527
0.163624
0.193489
0.196106
0.207774
0.194604
0.196403
0.168351
0.135033
0.086654
0.018779
-0.003246
-0.044837
-0.070355
-0.083881
-0.085250
-0.047037
-0.001155
0.037395
0.066361
0.107481
0.146339
0.164364
0.177517
0.190394
0.191650
0.169389
0.129545
0.093020
0.041570
-0.004626
-0.045324
-0.081994
-0.098384
-0.095351
-0.091896
-0.082458
-0.048154
-0.009489
0.018139
0.060683
0.106472
0.125073
0.134404
0.134024
0.121553
0.130293
0.112585
0.081489
0.019604
-0.056869
-0.076703
-0.087714
-0.104399
-0.122089
-0.135237
-0.119233
-0.100584
-0.060045
-0.018696
0.047389
0.094180
0.104835
0.119500
0.104418
0.098602
0.082150
0.041122
-0.005958
-0.049475
-0.089759
-0.130063
-0.156807
-0.173683
-0.174363
-0.154613
-0.147366
-0.120159
-0.072723
-0.032427
0.003211
0.055396
0.097807
0.094838
0.083002
0.077106
0.058762
0.026051
-0.007283
-0.060378
-0.110388
-0.167428
-0.207715
-0.189831
-0.190764
-0.174387
-0.155258
-0.126908
-0.077796
-0.033417
0.007037
0.036395
0.066528
0.094249
0.111365
0.073421
0.048768
0.014670
-0.025683
-0.074230
-0.122617
-0.167921
-0.207026
-0.212948
-0.210567
-0.202758
-0.188535
-0.140619
-0.098292
-0.049157
-0.009904
0.097868
0.114706
0.081544
0.060727
0.102360
0.111615
0.079850
0.009137
-0.057588
-0.124054
-0.164143
-0.189537
-0.204125
-0.204147
-0.193532
-0.175801
-0.161400
-0.106974
-0.055389
0.013869
0.069039
0.091056
0.108310
0.097798
0.082201
0.073484
0.044403
-0.000647
-0.047199
-0.096441
-0.149960
-0.176967
-0.187996
-0.198285
-0.186004
-0.171005
-0.138146
-0.091202
-0.050699
0.004241
0.041788
0.069481
0.094893
0.111184
0.095325
0.078046
0.055222
0.008815
-0.048390
-0.066016
-0.127801
-0.174405
-0.186567
-0.176300
-0.181612
-0.185315
-0.162108
-0.114398
-0.046062
0.025644
0.070955
0.076862
0.086529
0.091556
0.084282
0.092083
0.054026
0.030308
-0.019992
-0.081128
-0.142445
-0.180517
-0.193024
-0.205094
-0.189535
-0.162251
-0.138628
-0.095112
-0.052793
-0.033671
-0.014999
0.071340
0.092458
0.104777
0.105515
0.093738
0.060391
0.000520
-0.049775
-0.092257
-0.130086
-0.139275
-0.163485
-0.180126
-0.170287
-0.189680
-0.171292
-0.117873
-0.037044
-0.002712
0.024250
0.065505
0.068832
0.078360
0.066640
0.060981
0.056645
0.009928
-0.051829
-0.091969
-0.131223
-0.168472
-0.197909
-0.187632
-0.184940
-0.178836
-0.177922
-0.094612
-0.018167
0.013865
0.033018
0.044431
0.068205
0.065168
0.043580
0.044668
0.021149
-0.031707
-0.071420
-0.105211
-0.136589
-0.174220
-0.205848
-0.207971
-0.196133
-0.177809
-0.138566
-0.106895
-0.072738
-0.024822
0.022153
0.044968
0.075128
0.088773
0.079626
0.047632
0.021274
-0.024677
-0.076570
-0.114823
-0.148944
-0.176464
-0.194663
-0.200371
-0.196485
-0.174120
-0.135774
-0.108686
-0.067141
-0.003503
0.032713
0.054423
0.055962
0.059168
0.065633
0.035718
-0.001179
-0.025155
-0.081685
-0.123402
-0.153615
-0.181910
-0.212261
-0.210705
-0.195895
-0.167995
-0.136144
-0.118072
-0.064753
-0.011353
0.045665
0.069389
0.081152
0.106158
0.087145
0.052295
0.027870
-0.014085
-0.038667
-0.081552
-0.136704
-0.182190
-0.179580
-0.148367
-0.149162
-0.140203
-0.079994
-0.030548
-0.003603
0.017764
0.059667
0.089634
0.104963
0.100943
0.093068
0.080154
0.043543
-0.009567
-0.074370
-0.135953
-0.161878
-0.141937
-0.147358
-0.171268
-0.178583
-0.119755
-0.059407
-0.039761
0.008215
0.037612
0.065940
0.103467
0.133724
0.158277
0.117696
0.073625
0.051298
0.042014
0.018930
-0.037377
-0.103493
-0.161224
-0.171718
-0.178898
-0.178221
-0.157160
-0.108458
-0.063405
-0.023761
0.001909
0.032253
0.053818
0.074479
0.073110
0.072942
0.101230
0.061707
-0.021289
-0.086273
-0.127422
-0.175097
-0.212518
-0.232024
-0.206243
-0.182846
-0.178647
-0.166560
-0.113583
-0.058502
-0.029149
0.024344
0.066861
0.097675
0.070751
0.062556
0.043919
-0.011956
-0.055757
-0.104020
-0.147876
-0.184928
-0.224958
-0.247401
-0.248071
-0.229385
-0.202624
-0.178324
-0.145995
-0.101574
-0.030233
0.015887
0.042503
0.047746
0.052644
0.049128
0.033314
-0.001375
-0.042269
-0.109505
-0.152294
-0.189496
-0.223251
-0.239120
-0.244587
-0.241190
-0.224784
-0.188394
-0.148279
-0.096593
-0.060688
-0.016233
0.025721
0.056210
0.056274
0.023061
0.005889
-0.003057
-0.046432
-0.094442
-0.159264
-0.200969
-0.235946
-0.252555
-0.249261
-0.239644
-0.227291
-0.178680
-0.138411
-0.072896
-0.036730
-0.010254
-0.000031
0.007636
0.022953
0.029057
0.024787
-0.018411
-0.078528
-0.105051
-0.154319
-0.193542
-0.227247
-0.211181
-0.197652
-0.215659
-0.232288
-0.208261
-0.154930
-0.107337
-0.075543
-0.005675
0.055359
0.101586
0.119096
0.130838
0.099763
0.077974
0.079950
0.042746
0.006828
-0.032259
-0.049973
-0.048209
-0.035671
-0.019690
0.017503
0.077041
0.159106
0.229384
0.315043
0.397107
0.469639
0.531115
0.566234
0.597253
0.605905
0.602013
0.602712
0.599022
0.604174
0.603306
0.589718
0.576421
0.575770
0.568858
0.590946
0.591645
0.618762
0.643103
0.660761
0.682220
0.663222
0.593916
0.524275
0.455788
0.393023
0.316962
0.229727
0.148236
0.079723
0.015815
-0.028911
-0.057591
-0.057155
-0.069140
-0.056251
-0.030266
0.004907
0.035650
0.061806
0.084897
0.108106
0.126906
0.129174
0.108377
0.111660
0.067667
0.023710
-0.024050
-0.077731
-0.125552
-0.165078
-0.186236
-0.185061
-0.100963
-0.086413
-0.080569
-0.081009
-0.019777
0.016498
0.039791
0.059238
0.068232
0.081424
0.080012
0.054701
0.012505
-0.028057
-0.070415
-0.109788
-0.156851
-0.189201
-0.187100
-0.200378
-0.194772
-0.180715
-0.134783
-0.097708
-0.055468
0.005308
0.051358
0.085753
0.101221
0.065840
0.063634
0.061915
0.040153
-0.025206
-0.095740
-0.125863
-0.145784
-0.173533
-0.186015
-0.193363
-0.178927
-0.153648
-0.119685
-0.078908
-0.054099
-0.001980
0.066087
0.090941
0.103564
0.101915
0.086871
0.070697
-0.001436
-0.016039
-0.038893
-0.096227
-0.152964
-0.171161
-0.176073
-0.183535
-0.187636
-0.159096
-0.101098
-0.057169
0.004018
0.035397
0.055015
0.100472
0.140357
0.144302
0.104818
0.085265
0.045611
0.008235
-0.034481
-0.078428
-0.112524
-0.149673
-0.165583
-0.162533
-0.146076
-0.114860
-0.064533
-0.054145
0.004910
0.044781
0.118970
0.156567
0.151283
0.176990
0.168491
0.114488
0.087145
0.047929
0.008755
-0.044148
-0.088931
-0.113847
-0.145872
-0.123841
-0.116263
-0.101435
-0.045441
0.006520
0.049130
0.078651
0.129604
0.196005
0.226727
0.208845
0.182659
0.150730
0.134740
0.109166
0.064876
0.006995
-0.029679
-0.089775
-0.099624
-0.108402
-0.078275
-0.053488
-0.016809
0.011212
0.065231
0.113622
0.188571
0.212089
0.216800
0.208012
0.202232
0.188431
0.149672
0.099303
0.062419
0.000248
-0.040912
-0.033430
-0.063312
-0.083690
-0.096866
-0.090331
-0.031095
0.003477
0.037210
0.093649
0.139925
0.186960
0.215443
0.215365
0.194187
0.168615
0.146562
0.098123
0.025881
0.018389
-0.054761
-0.081555
-0.105825
-0.113479
-0.106487
-0.090195
-0.062154
-0.019374
0.024957
0.063337
0.087567
0.124668
0.168261
0.158738
0.126348
0.135007
0.123586
0.056627
0.019052
-0.040453
-0.078179
-0.104452
-0.137490
-0.157883
-0.151816
-0.142791
-0.102900
-0.060515
-0.005374
0.029749
0.062529
0.086397
0.100054
0.101790
0.108861
0.063579
0.065061
0.033798
-0.025572
-0.071960
-0.107897
-0.145620
-0.175816
-0.189729
-0.169972
-0.152690
-0.127775
-0.106735
-0.056201
-0.020259
0.024773
0.066760
0.092463
0.078748
0.081930
0.076677
0.023262
-0.001865
-0.043253
-0.091281
-0.132404
-0.149563
-0.173530
-0.194421
-0.202237
-0.204927
-0.159747
-0.110819
-0.073678
-0.035672
0.019523
0.057482
0.075004
0.064783
0.066175
0.037063
0.010693
-0.031892
-0.070279
-0.093397
-0.130023
-0.176838
-0.220947
-0.217053
-0.200516
-0.168474
-0.148883
-0.109954
-0.068354
-0.015073
0.005815
0.013719
0.053563
0.090156
0.101244
0.070383
-0.000082
-0.036111
-0.070398
-0.083625
-0.127547
-0.180607
-0.198097
-0.172599
-0.201396
-0.165555
-0.134496
-0.117950
-0.090201
-0.047013
0.025939
0.064409
0.056640
0.055023
0.050636
0.040053
0.011512
-0.026826
-0.081036
-0.108232
-0.142473
-0.163775
-0.154927
-0.187044
-0.187201
-0.168380
-0.133853
-0.102856
-0.062565
-0.017196
0.015282
0.069971
0.115508
0.141196
0.123110
0.082862
0.023968
-0.042379
-0.086373
-0.108183
-0.136262
-0.170148
-0.176030
-0.185956
-0.190078
-0.145557
-0.086603
-0.060254
-0.023500
0.018284
0.035972
0.064109
0.095666
0.088936
0.074799
0.039195
0.025428
-0.005353
-0.055371
-0.106453
-0.143670
-0.172933
-0.188356
-0.177096
-0.165384
-0.152905
-0.123694
-0.066413
-0.040554
-0.010472
0.034865
0.070162
0.099732
0.095551
0.059804
0.042524
0.007193
-0.019723
-0.059510
-0.108048
-0.135551
-0.137728
-0.155783
-0.197788
-0.204963
-0.162912
-0.128613
-0.095773
-0.049488
-0.001975
0.042708
0.083935
0.101276
0.107639
0.091269
0.030746
-0.009292
-0.021793
-0.062293
-0.121703
-0.166273
-0.197738
-0.215183
-0.195195
-0.199439
-0.167735
-0.151062
-0.117501
-0.054666
0.003337
0.027156
0.066563
0.105827
0.105176
0.087373
0.054939
-0.022959
-0.020640
-0.046719
-0.118537
-0.167024
-0.178311
-0.185285
-0.205890
-0.197045
-0.146585
-0.117140
-0.092984
-0.077967
-0.019081
0.012646
0.068255
0.076959
0.088224
0.094453
0.061768
0.017886
-0.026395
-0.067827
-0.097439
-0.139320
-0.197387
-0.225176
-0.224984
-0.221262
-0.187976
-0.157991
-0.104789
-0.050219
-0.013511
0.022284
0.043480
0.072560
0.072740
0.061695
0.051367
0.025532
-0.012051
-0.067555
-0.122669
-0.158808
-0.185657
-0.206230
-0.219085
-0.221498
-0.201376
-0.161236
-0.131927
-0.081036
-0.016569
0.036615
0.073221
0.093183
0.090445
0.088432
0.048010
0.004667
-0.018385
-0.070962
-0.136958
-0.192729
-0.196990
-0.193716
-0.212917
-0.233326
-0.190940
-0.121605
-0.085709
-0.066002
-0.026610
0.014707
0.060236
0.094371
0.099957
0.081443
0.052665
0.015631
-0.032930
-0.059744
-0.096765
-0.141836
-0.176419
-0.211705
-0.188165
-0.185719
-0.172138
-0.126289
-0.090797
-0.060181
-0.003349
0.023934
0.085455
0.140474
0.130327
0.115807
0.087689
0.067530
0.032464
-0.022980
-0.088976
-0.113109
-0.141658
-0.172313
-0.168439
-0.149844
-0.142773
-0.115841
-0.078931
-0.043754
0.020845
0.051880
0.086604
0.086115
0.100529
0.114061
0.097841
0.066276
0.057186
0.023142
-0.031357
-0.095744
-0.140513
-0.154995
-0.151054
-0.134561
-0.121421
-0.094503
-0.059563
-0.014602
0.036215
0.065162
0.079610
0.094082
0.106792
0.115711
0.086353
0.042880
0.012205
-0.024683
-0.070321
-0.110143
-0.140241
-0.164111
-0.170033
-0.188350
-0.161667
-0.128367
-0.085757
-0.043996
-0.001623
0.036026
0.060422
0.063806
0.057486
0.048349
0.029400
-0.005001
-0.051253
-0.099377
-0.122969
-0.145946
-0.156866
-0.184575
-0.205975
-0.216469
-0.193652
-0.153514
-0.114631
-0.075996
-0.031624
-0.005211
-0.001444
0.068574
0.081543
0.052484
-0.009146
-0.038672
-0.061695
-0.097990
-0.176375
-0.178283
-0.201384
-0.221808
-0.212118
-0.205033
-0.185179
-0.149808
-0.123735
-0.084473
-0.031491
0.006118
0.023683
0.051997
0.048723
0.039769
0.017432
-0.012216
-0.070939
-0.122437
-0.151746
-0.185255
-0.214575
-0.229492
-0.239547
-0.232627
-0.201796
-0.141367
-0.092059
-0.072073
-0.039178
0.005877
0.048606
0.060739
0.059192
0.042643
0.017444
-0.033678
-0.081722
-0.113324
-0.137683
-0.166292
-0.201310
-0.216799
-0.230357
-0.232071
-0.222086
-0.185736
-0.134793
-0.091182
-0.010237
0.035057
0.027869
0.035537
0.042654
0.040593
0.019966
-0.015586
-0.070259
-0.104874
-0.132456
-0.161180
-0.197584
-0.213199
-0.195981
-0.171143
-0.124007
-0.089263
-0.050301
0.000426
0.080497
0.160734
0.229757
0.250801
0.258895
0.266816
0.276139
0.260554
0.234049
0.221022
0.227955
0.253566
0.260738
0.252126
0.293769
0.336000
0.387810
0.460580
0.560051
0.645995
0.713632
0.810173
0.876315
0.895996
0.901948
0.921919
0.913700
0.844571
0.777404
0.698482
0.620854
0.531775
0.443608
0.329171
0.262862
0.256125
0.216400
0.205781
0.201810
0.203675
0.220528
0.238168
0.261723
0.237363
0.244384
0.243949
0.194222
0.152701
0.111235
0.057619
-0.008052
-0.070988
-0.114347
-0.139382
-0.138674
-0.131286
-0.121091
-0.085602
-0.056294
-0.017957
0.024640
0.060693
0.068063
0.107725
0.143400
0.142284
0.103131
0.054430
0.018660
-0.023984
-0.070351
-0.117997
-0.152402
-0.174005
-0.180522
-0.186615
-0.161122
-0.125827
-0.103622
-0.054328
0.002231
0.045807
0.076604
0.089534
0.092450
0.093898
0.081833
0.037155
0.007206
-0.044747
-0.099640
-0.159635
-0.184555
-0.170781
-0.193338
-0.202305
-0.167810
-0.108538
-0.073522
-0.031830
0.002117
0.036839
0.058474
0.088417
0.117957
0.111310
0.079581
0.039097
-0.013322
-0.062269
-0.088213
-0.119314
-0.151972
-0.161953
-0.162117
-0.146079
-0.149552
-0.117180
-0.086415
-0.039556
0.028076
0.060551
0.084888
0.104117
0.088274
0.058292
0.119077
0.090241
0.020069
-0.011503
-0.063076
-0.111748
-0.140486
-0.134747
-0.146129
-0.169493
-0.112016
-0.061329
-0.052642
-0.016666
0.027884
0.063078
0.074514
0.099871
0.109562
0.135145
0.117788
0.098685
0.065598
0.011603
-0.029915
-0.066713
-0.087754
-0.111134
-0.104063
-0.104285
-0.118822
-0.035942
0.014187
0.060962
0.098734
0.107027
0.129570
0.163119
0.175893
0.153385
0.137518
0.116992
0.073532
0.019125
-0.029900
-0.061260
-0.080424
-0.087631
-0.045082
-0.016981
-0.029760
-0.004610
0.028882
0.059946
0.106716
0.166383
0.214573
0.225352
0.228878
0.198407
0.164798
0.128874
0.092285
0.048004
0.000975
-0.024057
-0.058165
-0.073923
-0.056139
-0.036571
-0.019340
0.013151
0.032086
0.068331
0.132371
0.163265
0.182455
0.191006
0.200693
0.179607
0.166836
0.133644
0.126389
0.090854
0.050460
0.007549
-0.046322
-0.088112
-0.109077
-0.099226
-0.067675
-0.028175
0.029835
0.061935
0.108445
0.162112
0.188282
0.189130
0.201252
0.192449
0.155451
0.121705
0.071064
0.016163
-0.027000
-0.064440
-0.093676
-0.120276
-0.121409
-0.112720
-0.088261
-0.053311
-0.024049
0.031959
0.064966
0.095361
0.120937
0.130037
0.147843
0.140170
0.125234
0.090330
0.053239
-0.004740
-0.068575
-0.115108
-0.144860
-0.161066
-0.143710
-0.131679
-0.122980
-0.122126
-0.083461
-0.032776
0.030912
0.081482
0.098157
0.120930
0.136828
0.127800
0.112843
0.079848
0.008236
-0.058041
-0.087955
-0.121128
-0.160429
-0.195236
-0.188408
-0.178575
-0.165615
-0.152353
-0.112849
-0.057753
0.020353
0.061786
0.081499
0.098952
0.120579
0.113281
0.066862
0.042678
0.014064
-0.040619
-0.102745
-0.145008
-0.174324
-0.204885
-0.214414
-0.194277
-0.182219
-0.157103
-0.086826
-0.032499
0.001225
0.016086
0.040516
0.059525
0.087583
0.122971
0.132690
0.064687
-0.001142
-0.037459
-0.090588
-0.158507
-0.177736
-0.177191
-0.175865
-0.176834
-0.169554
-0.143484
-0.117397
-0.055123
-0.000026
0.022556
0.037323
0.062192
0.078939
0.066151
0.052818
0.049632
0.017260
-0.044653
-0.107878
-0.141085
-0.158448
-0.171462
-0.182021
-0.157062
-0.131717
-0.113238
-0.071174
-0.026720
0.003212
0.026530
0.044603
0.089622
0.105107
0.103260
0.069722
0.023105
-0.002443
-0.053182
-0.082977
-0.107332
-0.150917
-0.197533
-0.187193
-0.179076
-0.140617
-0.086929
-0.045539
-0.012336
0.015754
0.052562
0.093987
0.109868
0.108022
0.080616
0.053647
0.028077
-0.000375
-0.048396
-0.081733
-0.120644
-0.151920
-0.172091
-0.182833
-0.180230
-0.162416
-0.114986
-0.059742
-0.010621
0.020510
0.063507
0.084219
0.092870
0.093162
0.109020
0.088618
0.023711
-0.020499
-0.026523
-0.098050
-0.163938
-0.176606
-0.190969
-0.208289
-0.179658
-0.145537
-0.110318
-0.065799
-0.029807
0.010602
0.054223
0.082568
0.098849
0.102128
0.089894
0.053480
0.025153
-0.025363
-0.075937
-0.138155
-0.144802
-0.174094
-0.198257
-0.205555
-0.182532
-0.151737
-0.113969
-0.073805
-0.029054
-0.000204
0.038136
0.072617
0.091782
0.096436
0.101418
0.074574
0.032696
-0.017817
-0.072177
-0.111377
-0.161341
-0.200611
-0.211389
-0.206127
-0.212260
-0.181141
-0.132267
-0.090898
-0.055035
-0.017042
0.062404
0.089546
0.100460
0.112443
0.121900
0.084714
0.045100
-0.002669
-0.049911
-0.083130
-0.130552
-0.171465
-0.198711
-0.200948
-0.195772
-0.180652
-0.151282
-0.104594
-0.066264
-0.009742
0.054139
0.085150
0.083148
0.080455
0.056939
0.045592
0.001334
-0.029025
-0.054001
-0.098857
-0.146022
-0.186449
-0.199983
-0.217179
-0.204088
-0.181330
-0.167528
-0.127766
-0.052022
-0.027483
0.002464
0.053701
0.073893
0.103560
0.077436
0.015657
0.002944
-0.013582
-0.046478
-0.097089
-0.130879
-0.164853
-0.171649
-0.202425
-0.217039
-0.190312
-0.153065
-0.107236
-0.063456
-0.024494
0.002374
0.037919
0.069324
0.077692
0.056716
0.037525
0.002986
-0.030757
-0.069915
-0.115794
-0.158975
-0.200413
-0.225136
-0.189600
-0.166547
-0.168392
-0.142736
-0.076038
-0.050544
-0.009212
0.026226
0.037513
0.047952
0.052546
0.052240
0.024764
0.007569
-0.005212
-0.064785
-0.099647
-0.140730
-0.177548
-0.205120
-0.216420
-0.191075
-0.161840
-0.137222
-0.096844
-0.043356
-0.025888
0.006163
0.036574
0.036637
0.030720
0.063358
0.069428
0.017598
-0.042720
-0.087800
-0.100125
-0.136642
-0.158355
-0.198596
-0.188028
-0.185919
-0.166091
-0.126050
-0.084266
-0.020486
0.019603
0.051138
0.074887
0.108052
0.123460
0.106627
0.080882
0.056510
0.011323
-0.062278
-0.136477
-0.169590
-0.145089
-0.154430
-0.171187
-0.158059
-0.135287
-0.108261
-0.067609
-0.019261
0.022469
0.071727
0.101150
0.111716
0.088128
0.098995
0.070436
0.044080
0.006322
-0.044243
-0.087870
-0.118398
-0.151042
-0.179181
-0.180869
-0.149199
-0.136424
-0.087383
-0.049950
-0.015074
0.026123
0.080395
0.117700
0.135326
0.135310
0.129324
0.113871
0.070549
-0.000817
-0.065214
-0.056162
-0.106035
-0.147534
-0.187018
-0.190653
-0.193379
-0.185373
-0.145825
-0.104370
-0.043932
-0.002090
0.027357
0.062092
0.085919
0.099313
0.096512
0.061716
0.039548
-0.004187
-0.071201
-0.133888
-0.155893
-0.171483
-0.200795
-0.214351
-0.231711
-0.205209
-0.167843
-0.119944
-0.073006
-0.039764
-0.004764
0.013894
0.036964
0.041747
0.051029
0.030110
0.003226
-0.045349
-0.103139
-0.140764
-0.171929
-0.192420
-0.224787
-0.245459
-0.252676
-0.219173
-0.185906
-0.133181
-0.077669
-0.025521
0.003804
0.017815
0.031013
0.048230
0.041639
0.017031
-0.010779
-0.051915
-0.090441
-0.129385
-0.163611
-0.200495
-0.233418
-0.241416
-0.218938
-0.203876
-0.171298
-0.108630
-0.078913
-0.068291
-0.042775
0.014366
0.053823
0.051142
0.041010
0.016077
-0.011406
-0.053883
-0.100335
-0.143535
-0.176983
-0.206238
-0.219534
-0.242805
-0.232492
-0.190895
-0.155247
-0.132351
-0.090158
-0.064125
-0.031683
0.002461
0.003225
-0.005672
0.008028
0.011073
-0.011398
-0.076438
-0.094188
-0.118867
-0.180881
-0.198601
-0.198730
-0.214052
-0.209156
-0.177390
-0.131154
-0.075477
-0.011587
0.050815
0.095720
0.145813
0.169252
0.181855
0.175409
0.183101
0.183611
0.162109
0.125029
0.097245
0.109644
0.110189
0.124731
0.160160
0.200173
0.276832
0.344284
0.398774
0.482734
0.569018
0.646558
0.745180
0.801972
0.842555
0.848059
0.849743
0.817847
0.771508
0.718233
0.669971
0.623931
0.558746
0.503401
0.480760
0.467119
0.424587
0.401176
0.368452
0.346709
0.343467
0.310768
0.297104
0.284333
0.253639
0.268554
0.241278
0.215537
0.146324
0.075958
0.021407
-0.033506
-0.083050
-0.096856
-0.112319
-0.128386
-0.134500
-0.113487
-0.049984
0.001215
0.054033
0.091872
0.128017
0.114460
0.109545
0.125381
0.099314
0.072251
0.021321
-0.029642
-0.070749
-0.106908
-0.138593
-0.181639
-0.208162
-0.199972
-0.172994
-0.154531
-0.111723
-0.083478
-0.014350
0.044975
0.057116
0.051459
0.072079
0.106935
0.097905
0.048243
-0.013995
-0.052199
-0.084195
-0.117887
-0.151850
-0.177904
-0.205154
-0.211536
-0.202028
-0.156630
-0.097497
-0.048448
-0.007458
0.025848
0.053461
0.065504
0.092138
0.103134
0.093822
0.042163
-0.004548
-0.043934
-0.078977
-0.117031
-0.153392
-0.153376
-0.162335
-0.172040
-0.168300
-0.124944
-0.079483
-0.068145
-0.005264
0.080460
0.071428
0.078382
0.095862
0.090010
0.082282
0.048839
-0.008054
-0.026727
-0.078999
-0.105090
-0.135578
-0.157736
-0.147271
-0.137723
-0.120737
-0.079022
-0.038921
-0.005090
0.018641
0.065449
0.109058
0.106877
0.114501
0.109995
0.086336
0.057026
0.023102
-0.024752
-0.066925
-0.089543
-0.116908
-0.133005
-0.136395
-0.118477
-0.091029
-0.074705
-0.056457
0.025089
0.085297
0.111019
0.141942
0.149864
0.149210
0.143697
0.152173
0.128907
0.071463
0.031748
-0.014962
-0.052229
-0.085842
-0.085883
-0.114186
-0.097391
-0.028586
-0.005723
0.003758
0.049537
0.100791
0.144126
0.182175
0.201419
0.199532
0.185145
0.154851
0.130100
0.084708
0.030828
-0.034472
-0.017168
-0.047954
-0.065100
-0.085326
-0.094802
-0.070844
-0.034877
0.036511
0.074342
0.126988
0.176271
0.222246
0.212795
0.219724
0.209047
0.175257
0.154574
0.120989
0.057809
-0.009871
-0.033791
-0.068441
-0.092708
-0.100974
-0.085671
-0.076420
-0.064871
0.007105
0.059252
0.081794
0.117101
0.162448
0.187852
0.197868
0.209214
0.181321
0.123972
0.077225
0.033718
0.013668
-0.039996
-0.093489
-0.102485
-0.123268
-0.130378
-0.115518
-0.081341
-0.038131
-0.001765
0.038300
0.113563
0.148755
0.164072
0.159252
0.134112
0.103974
0.074439
0.026184
-0.002936
-0.030158
-0.069516
-0.118433
-0.148021
-0.150843
-0.135873
-0.136381
-0.111648
-0.102409
-0.027804
0.049437
0.074685
0.106183
0.092014
0.094062
0.079446
0.073950
0.067823
0.031378
-0.019708
-0.078848
-0.154078
-0.178337
-0.166215
-0.144613
-0.160357
-0.147744
-0.116407
-0.063783
-0.035780
0.005757
0.010565
0.038143
0.060102
0.078154
0.071123
0.051158
0.013931
-0.007096
