0.002401
0.056300
0.114550
0.127168
0.138780
0.147892
0.146833
0.100425
0.055141
0.025205
-0.020834
-0.087420
-0.127346
-0.151703
-0.167937
-0.168458
-0.166460
-0.138668
-0.111413
-0.072155
-0.036616
0.019363
0.071789
0.086080
0.099437
0.091870
0.090708
0.071401
0.045092
-0.007100
-0.068539
-0.095844
-0.140025
-0.175079
-0.202632
-0.186848
-0.191974
-0.172754
-0.129130
-0.077869
-0.035294
0.014305
0.061706
0.090866
0.125957
0.102859
0.098185
0.058172
0.053463
0.003633
-0.047677
-0.065854
-0.116523
-0.164157
-0.170347
-0.166406
-0.181971
-0.175200
-0.122280
-0.072428
-0.026733
0.031784
0.070578
0.102280
0.110765
0.129130
0.144242
0.117243
0.049672
-0.002549
-0.054456
-0.093447
-0.131950
-0.153151
-0.158087
-0.150031
-0.150777
-0.136409
-0.097484
-0.041908
0.019978
0.070142
0.088308
0.121755
0.153670
0.148111
0.152555
0.147124
0.092618
0.042218
-0.009444
-0.041196
-0.070041
-0.085747
-0.062868
-0.085313
-0.120553
-0.108530
-0.057347
-0.018714
0.027390
0.079296
0.129178
0.166216
0.188755
0.196888
0.200091
0.159087
0.128728
0.081650
0.030269
0.000554
-0.030772
-0.069906
-0.089730
-0.080509
-0.076695
-0.078256
-0.014896
0.016005
0.049793
0.113408
0.160789
0.197274
0.226357
0.221714
0.201047
0.181605
0.141649
0.102997
0.060686
0.013202
-0.005122
-0.021388
-0.054417
-0.073998
-0.064043
-0.043108
-0.018004
0.025413
0.077949
0.120436
0.139177
0.183168
0.214578
0.205950
0.198091
0.188413
0.153868
0.114390
0.075218
0.014891
-0.034669
-0.076229
-0.087338
-0.081715
-0.075591
-0.039525
-0.004241
0.041508
0.088929
0.129932
0.179013
0.206459
0.225283
0.227749
0.204561
0.189285
0.158712
0.094860
0.036157
-0.009753
-0.051902
-0.081672
-0.094266
-0.115004
-0.099185
-0.077341
-0.037185
-0.011375
0.043303
0.082890
0.141949
0.173798
0.190297
0.183621
0.171480
0.166180
0.121435
0.071034
-0.003908
-0.051891
-0.100680
-0.133100
-0.150683
-0.155551
-0.163353
-0.152432
-0.107500
-0.060665
0.006423
0.053939
0.076031
0.113615
0.132570
0.143763
0.127971
0.093432
0.058776
0.019351
-0.031838
-0.083265
-0.111461
-0.138931
-0.182010
-0.196503
-0.187851
-0.170462
-0.129406
-0.090224
-0.044986
0.017015
0.062295
0.096390
0.103777
0.075144
0.052444
0.036106
-0.003574
-0.028346
-0.074667
-0.102459
-0.133994
-0.176716
-0.209771
-0.205083
-0.200116
-0.159918
-0.132158
-0.131671
-0.082375
-0.027265
0.027965
0.064371
0.104332
0.096073
0.105398
0.073033
0.023199
-0.012715
-0.054014
-0.106559
-0.130268
-0.175424
-0.185292
-0.195469
-0.198205
-0.185124
-0.126387
-0.086909
-0.028729
0.014932
0.046293
0.078909
0.101563
0.119362
0.114759
0.091112
0.042275
-0.025393
-0.089563
-0.097245
-0.140541
-0.151893
-0.187610
-0.204277
-0.218391
-0.212164
-0.158606
-0.089901
-0.048627
-0.003182
0.033414
0.060387
0.094539
0.095535
0.091402
0.082419
0.044167
0.003987
-0.053678
-0.089740
-0.131692
-0.178210
-0.203714
-0.206935
-0.184215
-0.149981
-0.127007
-0.070954
-0.023025
0.011441
0.055492
0.077558
0.083960
0.117500
0.108509
0.052094
0.034099
0.000151
-0.058636
-0.102936
-0.147178
-0.179393
-0.201035
-0.192608
-0.182139
-0.156676
-0.112078
-0.065767
-0.025117
0.016897
0.045893
0.067901
0.083907
0.118232
0.119588
0.068058
0.017274
-0.020907
-0.054842
-0.095616
-0.134999
-0.152334
-0.174416
-0.176115
-0.163561
-0.161933
-0.136595
-0.095087
-0.052223
0.000073
0.049591
0.092830
0.091279
0.089858
0.090405
0.082836
0.065695
0.010074
-0.043114
-0.104876
-0.151058
-0.190255
-0.217059
-0.237368
-0.235234
-0.192364
-0.137667
-0.083803
-0.050304
-0.015174
0.036385
0.082073
0.097747
0.099088
0.081993
0.058484
0.015653
-0.016852
-0.066142
-0.123342
-0.180870
-0.215328
-0.245971
-0.224313
-0.212031
-0.184027
-0.155392
-0.093765
-0.044020
-0.007571
0.028636
0.060273
0.080550
0.093244
0.068907
0.049185
0.030843
-0.012489
-0.069062
-0.111000
-0.172866
-0.198779
-0.204849
-0.190321
-0.180763
-0.166105
-0.154709
-0.116176
-0.056161
-0.015981
0.027592
0.062905
0.074504
0.069628
0.061761
0.039133
0.020872
-0.022141
-0.071889
-0.099441
-0.139071
-0.189383
-0.217408
-0.236405
-0.224910
-0.193845
-0.134644
-0.086812
-0.055336
-0.026608
0.025368
0.062420
0.108848
0.116233
0.058463
0.025946
-0.001209
-0.034877
-0.083626
-0.129465
-0.180578
-0.201799
-0.216926
-0.221312
-0.209068
-0.182571
-0.150812
-0.105747
-0.067523
-0.024672
0.007281
0.031933
0.057576
0.045009
0.036989
0.031501
0.012423
-0.032443
-0.064515
-0.107280
-0.159087
-0.210505
-0.230089
-0.215139
-0.212899
-0.219583
-0.186381
-0.127121
-0.095423
-0.038825
0.022477
0.079580
0.100503
0.084709
0.063272
0.045217
-0.003206
-0.032869
-0.048386
-0.098778
-0.150763
-0.169057
-0.191451
-0.219721
-0.209381
-0.172700
-0.138515
-0.094945
-0.048256
-0.017987
0.025113
0.044043
0.073299
0.074109
0.082489
0.074271
0.026366
-0.022903
-0.051747
-0.082731
-0.126865
-0.150743
-0.194089
-0.197823
-0.198143
-0.161970
-0.100893
-0.070122
-0.049874
-0.005368
0.044994
0.077383
0.125449
0.120922
0.088052
0.073929
0.035732
-0.039721
-0.065139
-0.101575
-0.160593
-0.173591
-0.180524
-0.184740
-0.190408
-0.174418
-0.133579
-0.067190
-0.000114
0.058358
0.103907
0.113874
0.127552
0.132641
0.134341
0.112402
0.072712
0.037817
0.006174
-0.060267
-0.131959
-0.148326
-0.166245
-0.174656
-0.171053
-0.155203
-0.146363
-0.113259
-0.064848
-0.011942
0.046056
0.069468
0.082187
0.081485
0.069153
0.021325
-0.000938
-0.037407
-0.076561
-0.122889
-0.147901
-0.187009
-0.216093
-0.223442
-0.202484
-0.150985
-0.113275
-0.091453
-0.065579
-0.025088
0.012168
0.026122
0.053773
0.050052
0.052251
0.039089
0.003120
-0.036590
-0.096332
-0.114272
-0.175281
-0.230496
-0.254384
-0.261517
-0.263312
-0.234572
-0.172861
-0.130058
-0.082129
-0.066364
-0.002678
0.034977
0.057450
0.053860
0.053258
0.005200
-0.031584
-0.075885
-0.114820
-0.160049
-0.185786
-0.198225
-0.223693
-0.248738
-0.246962
-0.229488
-0.192366
-0.135624
-0.090206
-0.048224
-0.008515
0.014426
0.042271
0.052860
0.053630
0.016173
-0.030643
-0.075875
-0.112317
-0.150755
-0.203123
-0.224531
-0.245973
-0.247441
-0.225802
-0.197207
-0.176451
-0.145355
-0.078701
-0.059487
-0.015143
0.040584
0.065314
0.056002
0.055348
0.031971
0.006819
-0.078761
-0.097050
-0.143193
-0.214750
-0.257928
-0.264068
-0.275249
-0.268772
-0.239021
-0.184320
-0.136293
-0.110889
-0.070323
0.003401
0.027529
0.054404
0.075065
0.083151
0.085096
0.068923
0.015740
-0.017445
-0.035978
-0.068316
-0.081729
-0.104626
-0.096522
-0.065634
-0.023354
0.022370
0.109963
0.191057
0.261288
0.325452
0.380744
0.425092
0.469936
0.504849
0.518732
0.486696
0.468017
0.459537
0.399936
0.417356
0.439806
0.486296
0.502253
0.516564
0.541654
0.574113
0.615830
0.657015
0.703880
0.723847
0.714779
0.697638
0.630425
0.547665
0.471576
0.379583
0.303536
0.244466
0.123001
0.012019
-0.033137
-0.073167
-0.127553
-0.162875
-0.138372
-0.103348
-0.043403
-0.025388
0.025685
0.088166
0.128584
0.148543
0.138547
0.127645
0.108028
0.069013
0.022902
-0.020418
-0.063919
-0.118054
-0.142610
-0.164644
-0.170284
-0.132095
-0.157799
-0.146762
-0.085906
-0.038754
0.007253
0.064867
0.085983
0.103579
0.106319
0.080994
0.060891
0.023093
-0.051249
-0.095664
-0.110341
-0.163689
-0.195257
-0.180233
-0.205238
-0.189894
-0.172982
-0.142627
-0.107408
-0.061926
-0.013844
0.035938
0.090352
0.113545
0.107416
0.082036
0.074957
0.024283
-0.028635
-0.080274
-0.119979
-0.157503
-0.186165
-0.198843
-0.203083
-0.186739
-0.168640
-0.146193
-0.090559
-0.040492
0.009713
0.040858
0.065809
0.100776
0.120820
0.107904
0.086884
0.043956
-0.025601
-0.042793
-0.080286
-0.139746
-0.178526
-0.181366
-0.185467
-0.166036
-0.135201
-0.115085
-0.067850
-0.016612
0.023507
0.063278
0.103626
0.120745
0.131384
0.108685
0.101767
0.070803
0.023740
-0.024771
-0.073406
-0.116741
-0.149051
-0.148942
-0.148922
-0.161555
-0.140464
-0.076646
-0.030127
0.013980
0.078985
0.123495
0.145666
0.140274
0.149722
0.148439
0.123949
0.098007
0.057371
0.014985
-0.038641
-0.071631
-0.099688
-0.113644
-0.140003
-0.148694
-0.101100
-0.058031
-0.023359
0.020835
0.061852
0.104755
0.142504
0.175575
0.189197
0.178868
0.156904
0.130832
0.100108
0.044171
-0.008305
-0.043918
-0.067539
-0.066326
-0.085606
-0.068349
-0.059579
-0.033134
0.018281
0.039532
0.068078
0.133486
0.187828
0.200496
0.201564
0.181825
0.169436
0.131145
0.087492
0.056112
0.026390
-0.042122
-0.083589
-0.095197
-0.109193
-0.075083
-0.028748
0.021061
0.067789
0.089513
0.108834
0.137033
0.176245
0.179220
0.175707
0.191701
0.158200
0.124465
0.077590
0.031953
-0.009271
-0.060895
-0.085804
-0.105464
-0.107897
-0.104178
-0.082710
-0.055926
-0.006948
0.038016
0.082137
0.114711
0.158739
0.190638
0.206926
0.171426
0.121392
0.085400
0.026240
0.014929
-0.003748
-0.044706
-0.106596
-0.128942
-0.150823
-0.139774
-0.102063
-0.076387
-0.050118
-0.006606
0.036153
0.068425
0.110349
0.127726
0.133628
0.142067
0.086694
0.053455
0.014602
-0.016483
-0.058431
-0.117729
-0.145908
-0.144386
-0.157711
-0.153367
-0.151026
-0.135197
-0.087317
-0.058310
-0.004657
0.046331
0.067021
0.098136
0.094774
0.087907
0.055724
0.018739
-0.020494
-0.065598
-0.123801
-0.142179
-0.171748
-0.191715
-0.194081
-0.187532
-0.169201
-0.142295
-0.093491
-0.053889
-0.002189
0.016555
0.039526
0.043291
0.058343
0.066908
0.041593
-0.005706
-0.055008
-0.066762
-0.105928
-0.148001
-0.182259
-0.188366
-0.216613
-0.209110
-0.182126
-0.144352
-0.094867
-0.070613
-0.046849
0.005570
0.046847
0.077528
0.098641
0.085746
0.050843
0.018394
-0.041662
-0.082360
-0.157888
-0.179076
-0.178605
-0.191134
-0.227521
-0.210600
-0.172386
-0.136278
-0.087839
-0.056026
-0.017827
0.031134
0.066790
0.075555
0.098741
0.100517
0.068925
0.036385
-0.020845
-0.071501
-0.111939
-0.144580
-0.185025
-0.218022
-0.226339
-0.212124
-0.172496
-0.130234
-0.094811
-0.061356
-0.001199
0.035529
0.069791
0.091145
0.097169
0.090950
0.062823
0.023635
-0.010656
-0.058512
-0.110426
-0.150004
-0.186204
-0.196032
-0.183676
-0.190213
-0.185412
-0.141120
-0.097444
-0.067606
-0.019597
0.021945
0.061134
0.069849
0.108167
0.087371
0.051077
0.001618
-0.027710
-0.076675
-0.115823
-0.125721
-0.203714
-0.230142
-0.214411
-0.209062
-0.194681
-0.140040
-0.086258
-0.039049
0.008778
0.040627
0.061242
0.088550
0.109270
0.105688
0.083508
0.022992
-0.020363
-0.098839
-0.114545
-0.130336
-0.162240
-0.204979
-0.212294
-0.209140
-0.185482
-0.155023
-0.107822
-0.066416
-0.017549
0.037170
0.085702
0.075411
0.088766
0.080665
0.075229
0.036989
0.006982
-0.032763
-0.097180
-0.156840
-0.180905
-0.189782
-0.200418
-0.193721
-0.182309
-0.143639
-0.111352
-0.079505
-0.035937
0.020160
0.054138
0.089310
0.095622
0.081342
0.051048
0.018939
-0.021476
-0.080476
-0.130934
-0.162175
-0.173989
-0.218959
-0.232227
-0.217341
-0.196891
-0.167325
-0.122528
-0.062190
-0.009545
0.019097
0.059126
0.081141
0.085356
0.075599
0.043845
-0.004809
-0.056557
-0.087831
-0.125220
-0.161113
-0.180043
-0.204453
-0.216185
-0.201489
-0.174839
-0.130576
-0.099114
-0.092289
-0.024004
0.006861
0.014496
0.035710
0.067795
0.068177
0.039682
0.003016
-0.048270
-0.091662
-0.138521
-0.164084
-0.197707
-0.213455
-0.242485
-0.242493
-0.219222
-0.168602
-0.128250
-0.071612
-0.021066
-0.003431
0.046960
0.061186
0.093532
0.092409
0.080045
0.015549
-0.036900
-0.066749
-0.115128
-0.166125
-0.178098
-0.192636
-0.185062
-0.194059
-0.169613
-0.136078
-0.079696
-0.030543
0.010627
0.032901
0.076403
0.094759
0.096170
0.087601
0.083344
0.045123
0.005376
-0.053724
-0.095122
-0.130866
-0.161815
-0.178364
-0.180927
-0.169594
-0.156033
-0.126189
-0.107358
-0.049765
-0.003772
0.037370
0.062457
0.069218
0.096749
0.093461
0.066138
0.063222
0.046970
0.005104
-0.051752
-0.103076
-0.136906
-0.145389
-0.175320
-0.189270
-0.150806
-0.105362
-0.038904
0.004890
0.043524
0.066194
0.102383
0.127582
0.126093
0.094453
0.081751
0.057093
0.018255
-0.035708
-0.103594
-0.124460
-0.161536
-0.204637
-0.225257
-0.202476
-0.174533
-0.138436
-0.085427
-0.050478
-0.017844
0.035433
0.076265
0.085750
0.060359
0.078231
0.064344
0.020347
-0.038608
-0.094298
-0.172520
-0.178074
-0.204624
-0.221144
-0.245857
-0.211974
-0.174536
-0.107349
-0.062624
-0.027696
0.006951
0.031733
0.023898
0.018181
0.062809
0.055839
0.029450
-0.015827
-0.040723
-0.090463
-0.149145
-0.196409
-0.237291
-0.257823
-0.262501
-0.254173
-0.210351
-0.186628
-0.173465
-0.131657
-0.063614
-0.017784
0.029657
0.052276
0.058623
0.040202
0.013410
-0.029950
-0.050731
-0.107382
-0.174919
-0.208020
-0.220170
-0.234635
-0.241932
-0.240986
-0.203232
-0.174800
-0.146757
-0.146161
-0.076229
-0.016408
0.037157
0.061837
0.059693
0.045714
0.048926
0.002916
-0.056395
-0.105490
-0.144468
-0.157307
-0.194819
-0.214947
-0.209622
-0.233368
-0.249224
-0.178657
-0.124304
-0.077559
-0.045347
-0.032391
0.010911
0.013664
0.047525
0.052925
0.052059
-0.012597
-0.074895
-0.088023
-0.136493
-0.208161
-0.239770
-0.241906
-0.264911
-0.251226
-0.196829
-0.141918
-0.095034
-0.037578
0.014925
0.058954
0.121469
0.158920
0.191324
0.183823
0.155037
0.112287
0.082639
0.066354
0.024562
0.017273
0.014510
0.021992
0.048678
0.080580
0.140951
0.204808
0.282527
0.336607
0.435141
0.502467
0.549205
0.607180
0.660826
0.710601
0.717712
0.754777
0.759468
0.699059
0.623784
0.559916
0.571404
0.580509
0.554748
0.533360
0.534705
0.513876
0.491950
0.469497
0.428875
0.412998
0.420797
0.406860
0.338338
0.297303
0.220052
0.150870
0.083679
0.033485
-0.012628
-0.063596
-0.118501
-0.129322
-0.145225
-0.147845
-0.093152
-0.044639
-0.021451
0.010408
0.020190
0.083171
0.113824
0.130741
0.145742
0.138706
0.115700
0.075897
0.031158
-0.029501
-0.089167
-0.115724
-0.143882
-0.168883
-0.179206
-0.183592
-0.174329
-0.155602
-0.108158
-0.046607
0.009646
0.048984
0.102345
0.130993
0.112860
0.089442
0.074332
0.057451
0.026842
-0.000215
-0.052639
-0.106275
-0.186747
-0.211588
-0.196034
-0.158806
-0.143875
-0.112659
-0.077710
-0.023673
-0.007788
-0.001175
0.065398
0.103064
0.104622
0.095006
0.089279
0.037024
-0.000988
-0.047344
-0.115339
-0.157640
-0.174238
-0.176759
-0.203350
-0.198633
-0.155014
-0.105046
-0.059734
-0.029622
-0.021071
0.043266
0.080331
0.132407
0.145115
0.130366
0.103435
0.074470
0.035429
-0.005103
-0.057257
-0.116227
-0.144471
-0.162987
-0.177817
-0.168588
-0.146817
-0.100159
-0.048857
-0.005790
0.063914
0.104797
0.130449
0.143088
0.171523
0.178144
0.115552
0.070840
0.030992
-0.006370
-0.041478
-0.062832
-0.102774
-0.145248
-0.144510
-0.127313
-0.114118
-0.054086
-0.024797
-0.004305
0.043049
0.108424
0.203256
0.217508
0.178871
0.166749
0.161882
0.164510
0.091220
-0.000443
-0.041933
-0.093375
-0.115622
-0.109030
-0.074566
-0.046190
-0.029688
-0.012182
0.096492
0.124621
0.157964
0.171733
0.188595
0.195275
0.212003
0.205392
0.192675
0.154654
0.120136
0.076253
0.049554
-0.001605
-0.032859
-0.064691
-0.116801
-0.114524
-0.073841
-0.038198
0.024002
0.067184
0.101098
0.152839
0.183194
0.224194
0.212104
0.207833
0.188405
0.161254
0.122120
0.080782
-0.020907
-0.055398
-0.084723
-0.075547
-0.042070
-0.027447
-0.015846
-0.001455
0.040368
0.109251
0.147237
0.163402
0.208152
0.226868
0.239815
0.233100
0.192836
0.116699
0.080437
0.049515
0.006343
-0.033970
-0.064612
-0.109962
-0.124592
-0.103105
-0.076878
-0.045758
0.033047
0.078386
0.113968
0.126848
0.146830
0.154742
0.170826
0.162659
0.142272
0.122627
0.074743
0.022041
-0.034150
-0.079504
-0.100521
-0.109754
-0.105743
-0.074247
-0.050227
-0.026131
-0.017221
0.006272
0.039826
0.098285
0.139813
0.147451
0.165425
0.136536
0.127387
0.088318
0.052185
-0.021634
-0.089585
-0.108509
-0.138093
-0.188607
-0.181045
-0.151613
-0.129699
-0.096470
-0.083638
-0.046989
0.012872
0.063417
0.068757
0.082441
0.181610
0.181551
0.128526
0.056539
-0.016569
-0.055087
-0.121247
-0.153381
-0.156568
-0.183672
-0.178329
-0.160989
-0.157818
-0.130744
-0.074448
-0.030647
0.013335
0.067127
0.093409
0.089861
0.078538
0.039815
0.041268
0.014860
-0.018100
-0.041550
-0.078375
-0.110803
-0.151296
-0.178780
-0.173441
-0.170301
-0.163950
-0.116327
-0.066015
-0.020024
0.023448
0.026891
0.066268
0.083956
0.088497
0.098293
0.074805
0.025015
-0.020127
-0.056527
-0.092279
-0.105400
-0.140671
-0.161741
-0.171883
-0.149669
-0.104435
-0.091453
-0.051686
-0.029005
0.027953
0.071698
0.106220
0.126034
0.129088
0.097717
0.070297
0.044939
-0.000306
-0.046453
-0.078539
-0.106369
-0.149770
-0.169656
-0.162831
-0.143850
-0.137206
-0.102426
-0.089795
-0.040394
0.044026
0.076040
0.086403
0.126886
0.129104
0.140447
0.138656
0.076602
0.001135
-0.045684
-0.087185
-0.116702
-0.128773
-0.174730
-0.189455
-0.153128
-0.121378
-0.105729
-0.094530
-0.056428
0.012829
0.051722
0.098184
0.106522
0.111292
0.093517
0.081834
0.039454
0.011011
-0.028374
-0.077725
-0.140385
-0.165547
-0.165096
-0.178474
-0.156301
-0.136092
-0.124808
-0.094312
-0.056125
0.035460
0.072005
0.116435
0.133386
0.130428
0.117345
0.112213
0.086145
0.051874
-0.031480
-0.104188
-0.110824
-0.106752
-0.103589
-0.171886
-0.191724
-0.172765
-0.125906
-0.081151
0.002952
0.064171
0.094142
0.123169
0.112715
0.115936
0.113387
0.094142
0.044854
0.001037
-0.033988
-0.100774
-0.117400
-0.151206
-0.184159
-0.188134
-0.172110
-0.139372
-0.077434
-0.067033
-0.031905
0.023319
0.069545
0.064306
0.074351
0.084920
0.075901
0.076403
0.048653
0.009699
-0.054496
-0.103181
-0.162039
-0.171360
-0.168734
-0.180878
-0.175081
-0.164256
-0.152778
-0.133735
-0.082553
-0.027582
0.023592
0.080054
0.122723
0.138395
0.156572
0.096780
0.043767
-0.008321
-0.068530
-0.105269
-0.133561
-0.161464
-0.183045
-0.194807
-0.181158
-0.188931
-0.140695
-0.097408
-0.062660
0.002225
0.032568
0.067203
0.109203
0.123548
0.120470
0.095223
0.041834
-0.008188
-0.059651
-0.107033
-0.147384
-0.163360
-0.189853
-0.194412
-0.180742
-0.145765
-0.101890
-0.052978
-0.025796
0.029377
0.062963
0.083534
0.109078
0.120374
0.120826
0.102677
0.052573
0.020400
-0.021735
-0.090094
-0.123347
-0.131749
-0.141044
-0.149198
-0.146908
-0.105663
-0.069347
-0.054458
-0.013573
0.039195
0.068488
0.115951
0.156020
0.136499
0.094843
0.052755
0.031394
0.019425
-0.008369
-0.058748
-0.116321
-0.126538
-0.163270
-0.186333
-0.143316
-0.104110
-0.067557
-0.029151
0.021530
0.057997
0.089240
0.112274
0.146122
0.150511
0.119890
0.115282
0.083116
0.021676
-0.007588
-0.047940
-0.101988
-0.134585
-0.156672
-0.149987
-0.150084
-0.125808
-0.087975
-0.063938
-0.014762
0.036271
0.069179
0.094559
0.097396
0.090092
0.110467
0.086511
0.049086
0.002857
-0.048838
-0.093934
-0.157293
-0.191362
-0.202221
-0.203619
-0.170616
-0.135614
-0.121947
-0.112936
-0.061280
-0.034916
0.011301
0.080623
0.086110
0.079993
0.063781
0.045205
-0.006459
-0.034635
-0.083331
-0.138327
-0.139576
-0.156576
-0.193513
-0.252149
-0.272792
-0.201806
-0.134156
-0.079598
-0.070044
-0.031564
0.006876
0.045984
0.063771
0.065720
0.065430
0.041907
0.017920
-0.028400
-0.080326
-0.136804
-0.167766
-0.182748
-0.198784
-0.210614
-0.195260
-0.181194
-0.145282
-0.126325
-0.078684
-0.070276
-0.003651
0.055241
0.087547
0.089790
0.069496
0.029892
-0.024226
-0.038021
-0.096026
-0.146853
-0.198729
-0.227297
-0.237070
-0.222698
-0.223270
-0.176461
-0.173645
-0.146697
-0.085417
-0.023414
0.007133
0.018750
0.065062
0.092044
0.074351
0.047241
-0.000530
-0.060361
-0.108014
-0.142871
-0.163793
-0.208643
-0.235280
-0.232216
-0.236516
-0.211338
-0.178322
-0.153383
-0.112209
-0.053779
0.040681
0.103173
0.116286
0.089516
0.101667
0.096364
0.061712
0.034771
0.027988
-0.002156
-0.061097
-0.079672
-0.093084
-0.077419
-0.021895
0.051122
0.088391
0.137990
0.193519
0.308134
0.384962
0.441440
0.490021
0.506508
0.536196
0.581804
0.593402
0.590104
0.576426
0.567433
0.568437
0.574219
0.576988
0.573305
0.607443
0.635704
0.657375
0.715321
0.747130
0.762768
0.759829
0.750651
0.737852
0.699908
0.626179
0.561077
0.437829
0.310735
0.204021
0.137659
0.044567
-0.006230
-0.021327
-0.033432
-0.031668
-0.015802
-0.017751
0.006338
0.068257
0.099024
0.144489
0.188025
0.192366
0.184355
0.186906
0.156843
0.098896
0.042845
-0.002023
-0.055674
-0.079244
-0.101683
-0.103761
-0.133325
-0.134432
-0.113488
-0.085036
-0.059128
-0.049979
0.003034
0.054856
0.086892
0.136744
0.132750
0.107474
0.098242
0.063343
-0.011884
-0.083660
-0.119968
-0.088017
-0.134434
-0.164766
-0.166363
-0.169900
-0.175946
-0.124080
-0.075894
-0.049056
0.003821
0.066032
0.089653
0.098537
0.103116
0.103757
0.082582
0.036075
-0.019264
-0.075430
-0.078052
-0.106985
-0.141671
-0.188056
-0.213243
-0.148430
-0.107522
-0.094423
-0.060234
-0.009292
0.007365
0.058801
0.102314
0.142429
0.140728
0.156161
0.106437
0.051188
0.005839
-0.022305
-0.066653
-0.130374
-0.146652
-0.144889
-0.140561
-0.140119
-0.122509
-0.104147
-0.067365
-0.020287
0.054251
0.084913
0.117258
0.148302
0.139462
0.136447
0.108443
0.088592
0.055582
0.000679
-0.036241
-0.064470
-0.080060
-0.104946
-0.130762
-0.135462
-0.114603
-0.062826
-0.000045
0.038928
0.067790
0.103538
0.148702
0.162670
0.168727
0.167992
0.157816
0.132155
0.073768
0.023972
-0.008510
-0.011112
-0.062744
-0.071765
-0.102244
-0.098317
-0.097505
-0.054696
0.003865
0.050772
0.112925
0.123077
0.148853
0.197179
0.205207
0.223117
0.192000
0.160698
0.107611
0.056898
0.031917
-0.027140
-0.058061
-0.062478
-0.070259
-0.062833
-0.066216
-0.018021
0.023580
0.075455
0.120341
0.155537
0.186533
0.196617
0.236195
0.222464
0.176209
0.129858
0.102597
0.106795
0.067702
0.009327
-0.045904
-0.079881
-0.083595
-0.051553
-0.049123
0.001203
0.050771
0.110676
0.155082
0.172315
0.187928
0.223863
0.234216
0.232313
0.208308
0.166889
0.112234
0.059864
0.014868
-0.057424
-0.088806
-0.069235
-0.072871
-0.075328
-0.056186
-0.022411
0.026590
0.057562
0.102291
0.133905
0.169268
0.204477
0.205036
0.167885
0.136631
0.137709
0.097139
0.049264
0.000385
-0.064902
-0.115887
-0.140899
-0.153969
-0.139320
-0.113650
-0.058312
-0.018477
0.051514
0.077420
0.083568
0.087467
0.125883
0.148314
0.148323
0.119016
0.069364
0.026430
-0.020486
-0.070911
-0.116851
-0.137572
-0.160975
-0.160186
-0.138942
-0.119455
-0.090016
-0.067720
-0.038518
0.006398
0.026627
0.043034
0.081500
0.117945
0.107805
0.084259
0.040608
0.005599
-0.044416
-0.090179
-0.118404
-0.141521
-0.163882
-0.156571
-0.168075
-0.178245
-0.160441
-0.116505
-0.044388
0.007258
0.078868
0.122217
0.097770
0.077525
0.108458
0.095979
0.052879
-0.007329
-0.038528
-0.075568
-0.143788
-0.170083
-0.178840
-0.169392
-0.161460
-0.136364
-0.117603
-0.094218
-0.047000
-0.006770
0.045793
0.053654
0.065382
0.113203
0.098349
0.070634
0.014785
-0.045620
-0.064966
-0.095727
-0.155788
-0.166759
-0.149290
-0.141680
-0.142940
-0.158522
-0.119221
-0.085340
-0.027757
0.011754
0.046339
0.073606
0.086986
0.121929
0.089817
0.049045
0.007850
-0.034640
-0.074222
-0.074984
-0.097951
-0.129488
-0.163525
-0.189132
-0.199725
-0.182560
-0.161211
-0.113003
-0.010211
0.030641
0.050907
0.109780
0.125996
0.118485
0.110647
0.110107
0.084176
0.014385
-0.046913
-0.097933
-0.111650
-0.160326
-0.185928
-0.194036
-0.171529
-0.146914
-0.142754
-0.087148
-0.025563
0.014097
0.032361
0.048375
0.174243
0.178964
0.114618
0.048120
0.053065
0.022915
-0.054105
-0.092184
-0.106265
-0.124190
-0.134029
-0.142811
-0.166203
-0.138180
-0.122650
-0.107486
-0.065994
0.003659
0.103571
0.092929
0.087117
0.090920
0.098218
0.089381
0.036214
0.001265
-0.023406
-0.074221
-0.116281
-0.163146
-0.188950
-0.179026
-0.174972
-0.160084
-0.105373
-0.064258
-0.029082
0.007445
0.054856
0.088581
0.094144
0.099403
0.095522
0.074260
0.034480
-0.003206
-0.065406
-0.113481
-0.149943
-0.148397
-0.161531
-0.194707
-0.180416
-0.148269
-0.100570
-0.067921
-0.025037
-0.013101
0.035632
0.081386
0.059897
0.080891
0.092818
0.092405
0.044038
-0.005283
-0.057169
-0.081899
-0.138830
-0.177244
-0.205403
-0.213922
-0.201308
-0.159102
-0.143081
-0.104598
-0.048695
0.002773
0.034914
0.073695
0.087341
0.092713
0.054803
0.006475
0.012526
-0.018644
-0.068979
-0.104915
-0.147627
-0.189787
-0.213470
-0.192351
-0.176695
-0.177935
-0.143831
-0.107376
-0.072812
-0.004141
0.028764
0.054602
0.116483
0.118534
0.103654
0.058106
0.017560
-0.031576
-0.079043
-0.115722
-0.125041
-0.158356
-0.185844
-0.190938
-0.197663
-0.162936
-0.139877
-0.100474
-0.022442
0.004474
0.021873
0.068443
0.110716
0.132036
0.112985
0.035671
-0.002844
-0.023480
-0.065062
-0.096902
-0.104562
-0.160049
-0.192290
-0.199923
-0.189113
-0.165779
-0.118709
-0.083515
0.006217
0.033232
0.037492
0.086116
0.115271
0.148630
0.164723
0.094169
0.042005
0.012521
-0.005904
-0.067386
-0.111773
-0.156265
-0.188897
-0.175434
-0.182803
-0.172859
-0.144454
-0.055443
-0.013143
0.026471
0.066096
0.107958
0.159838
0.152342
0.126427
0.080889
0.060788
0.045068
-0.008700
-0.090638
-0.102148
-0.137471
-0.167391
-0.144210
-0.117169
-0.079211
-0.040611
-0.017826
0.014584
0.032936
0.065920
0.099928
0.124251
0.119244
0.062834
0.021041
0.023162
0.009459
-0.027869
-0.084226
-0.127089
-0.170227
-0.188618
-0.187110
-0.192613
-0.158995
-0.134517
-0.100115
-0.059753
0.004306
0.029885
0.037154
0.061735
0.060049
0.073945
0.035959
0.016432
-0.021424
-0.037544
-0.085778
-0.131570
-0.177547
-0.167033
-0.178388
-0.204152
-0.191502
-0.186791
-0.160622
-0.098374
-0.032377
0.034109
0.047055
0.034990
0.058045
0.029824
-0.004815
-0.026059
-0.033245
-0.074868
-0.126013
-0.178023
-0.207521
-0.226899
-0.231408
-0.224036
-0.223153
-0.212836
-0.161428
-0.070488
-0.023617
0.036378
0.052586
0.050111
0.059168
0.054332
0.027420
0.016036
-0.039257
-0.090534
-0.152593
-0.212434
-0.216177
-0.224974
-0.243132
-0.250936
-0.236487
-0.225844
-0.162446
-0.084248
-0.045476
0.004172
0.034552
0.053768
0.061929
0.079553
0.053207
0.007450
-0.031779
-0.071151
-0.131312
-0.183291
-0.207769
-0.224823
-0.222389
-0.233139
-0.199306
-0.170738
-0.135448
-0.074592
-0.055544
-0.017282
-0.002473
0.022613
0.042088
0.055868
0.057333
0.008965
-0.036118
-0.089530
-0.117562
-0.171643
-0.206198
-0.215006
-0.217101
-0.216421
-0.166128
-0.079493
-0.012483
0.021200
0.062056
0.124402
0.174857
0.185519
0.207431
0.228870
0.220240
0.214600
0.198639
0.174477
0.163603
0.148571
0.154006
0.199032
0.238091
0.264975
0.319612
0.376723
0.467712
0.567613
0.663359
0.748964
0.825884
0.875088
0.875661
0.859885
0.853374
0.825468
0.783696
0.709808
0.633160
0.536631
0.503016
0.491306
0.451858
0.387724
0.332214
0.296838
0.293912
0.280342
0.264402
0.245657
0.254746
0.264670
0.261203
0.250871
0.190625
0.171337
0.125695
0.056758
-0.011731
-0.059918
-0.104748
-0.136446
-0.183904
-0.187601
-0.089187
-0.023658
-0.005019
0.002219
0.045997
0.100903
0.126782
0.124085
0.138911
0.134331
0.090975
0.053696
0.015691
-0.016934
-0.079616
-0.133783
-0.171073
-0.184766
-0.174027
-0.127603
-0.143985
-0.119106
-0.058502
-0.014093
0.006682
0.067455
0.101544
0.106389
0.089434
0.082881
0.063077
0.041063
0.009431
-0.058043
-0.094976
-0.125135
-0.164793
-0.186138
-0.189478
-0.185330
-0.169316
-0.123018
-0.092280
-0.030743
0.023828
0.052346
0.076825
0.135204
0.135967
0.113840
0.092055
0.064136
0.018167
-0.030651
-0.092955
-0.148076
-0.193412
-0.184084
-0.207339
-0.223549
-0.146664
-0.088217
-0.060457
-0.021438
0.017003
0.058944
0.079020
0.102357
0.102251
0.115377
0.109014
0.065638
0.010058
-0.026220
-0.067339
-0.094303
-0.129784
-0.147710
-0.167594
-0.165001
-0.127928
-0.082365
-0.038989
-0.009577
0.042554
0.080097
0.101610
0.126922
0.120572
0.111135
0.106660
0.110416
0.082655
0.018664
-0.016055
-0.053344
-0.077805
-0.107704
-0.128510
-0.132223
-0.098490
-0.115447
-0.016205
0.050755
0.077051
0.120388
0.185216
0.211602
0.189300
0.152405
0.157077
0.121912
0.085191
0.044666
-0.021872
-0.026725
-0.061072
-0.104265
-0.073711
-0.049619
-0.054070
-0.015588
0.032757
0.070866
0.109042
0.165777
0.194788
0.220390
0.248417
0.218406
0.182032
0.151672
0.099397
0.050231
0.032586
-0.007718
-0.050621
-0.070675
-0.084397
-0.094091
-0.061065
-0.017773
0.018592
0.043058
0.110905
0.145937
0.216587
0.228522
0.186083
0.182730
0.189285
0.168451
0.098631
0.069866
0.007311
-0.005566
-0.029630
-0.040220
-0.066025
-0.057619
-0.046961
0.004174
0.034425
0.062115
0.094125
0.134392
0.180283
0.214732
0.208278
0.181205
0.158891
0.117223
0.072948
0.036120
-0.015152
-0.049391
-0.082310
-0.110264
-0.143339
-0.086025
-0.056633
-0.043078
-0.002892
0.031466
0.075881
0.108173
0.142445
0.161720
0.180599
0.157846
0.110922
0.086873
0.094640
0.068356
0.012433
-0.098978
-0.137391
-0.153075
-0.141005
-0.170631
-0.139202
-0.089528
-0.060039
-0.012329
0.024127
0.057127
0.087634
0.096146
0.089960
0.080194
0.078872
0.058390
0.003302
-0.031277
-0.089342
-0.119256
-0.134169
-0.141630
-0.128555
-0.129758
-0.132142
-0.118208
-0.097016
-0.041838
-0.008257
0.058724
0.091047
0.042236
0.076287
0.099965
0.066947
0.020547
-0.009931
-0.030097
-0.078687
-0.122143
-0.146576
-0.180108
-0.209938
-0.221996
-0.194876
-0.196353
-0.135432
-0.046526
0.001940
0.035256
0.101843
0.100666
0.073156
0.049367
0.018520
-0.005341
-0.018576
-0.043708
-0.094400
-0.140944
-0.171779
-0.197496
-0.210451
-0.200859
-0.155724
-0.124047
-0.077928
-0.048923
-0.014922
0.007879
0.067045
0.113640
0.101888
0.084455
0.056926
0.002364
-0.039405
-0.042391
-0.055071
-0.123649
-0.160009
-0.178091
-0.172192
-0.203933
-0.211025
-0.139752
-0.076424
-0.015244
0.042385
0.063232
0.094893
0.115149
0.102882
0.071418
0.068178
0.028031
-0.023055
-0.054325
-0.096650
-0.142033
-0.178806
-0.194920
-0.184668
-0.193921
-0.166019
-0.109816
-0.063567
-0.041349
-0.011806
0.046187
0.090592
0.105063
0.111397
0.089466
0.093190
0.059835
-0.005054
-0.050312
-0.086816
-0.127689
-0.162944
-0.190795
-0.184497
-0.167365
-0.155454
-0.117045
-0.063941
-0.064104
-0.018880
0.045679
0.069357
0.091056
0.096965
0.102229
0.075287
0.054176
-0.005114
-0.069415
-0.113426
-0.107658
-0.124343
-0.167914
-0.184187
-0.192778
-0.169610
-0.124417
-0.118153
-0.074111
-0.038577
0.040614
0.096760
0.127198
0.140170
0.108037
0.075862
0.060789
-0.003119
-0.052932
-0.093559
-0.109841
-0.126572
-0.167767
-0.186346
-0.182491
-0.150199
-0.122723
-0.087299
-0.054440
0.007890
0.068577
0.079282
0.107971
0.095305
0.067016
0.042995
0.022294
-0.001796
-0.037222
-0.078710
-0.133914
-0.172768
-0.195191
-0.196959
-0.177527
-0.140865
-0.112449
-0.075063
-0.054361
-0.018165
0.026247
0.049966
0.078452
0.097584
0.097997
0.080374
0.029129
-0.029751
-0.091131
-0.123858
-0.152964
-0.182937
-0.194620
-0.196460
-0.193788
-0.177454
-0.138016
-0.102465
-0.079990
-0.018955
0.025728
0.043676
0.069829
0.058791
0.032620
0.010068
-0.015042
-0.048029
-0.069571
-0.136372
-0.152373
-0.177646
-0.193836
-0.222786
-0.189154
-0.159030
-0.111990
-0.052882
-0.025725
-0.004772
-0.012283
0.060623
0.084067
0.132395
0.073735
0.051048
0.018776
-0.015876
-0.087161
-0.111898
-0.133429
-0.163535
-0.224004
-0.217527
-0.181443
-0.147629
-0.132276
-0.088863
-0.032450
0.008534
0.052769
0.076216
0.097049
0.116835
0.112232
0.088478
0.048233
0.006747
-0.024111
-0.071928
-0.103435
-0.156204
-0.157562
-0.156018
-0.149703
-0.129718
-0.096036
-0.049985
-0.016351
0.017143
0.046698
0.076929
0.097102
0.107887
0.092323
0.078621
0.038341
-0.000718
-0.051206
-0.077662
-0.114049
-0.124992
-0.140807
-0.154875
-0.165588
-0.172512
-0.134183
-0.065032
-0.011994
0.047085
0.088636
0.116909
0.161733
0.185422
0.176005
0.113402
0.056911
0.023436
-0.013599
-0.075088
-0.094137
-0.143520
-0.174611
-0.177816
-0.145615
-0.155155
-0.143138
-0.084380
-0.037904
-0.017933
0.045174
0.056948
0.069075
0.053804
0.043298
0.029173
0.020399
-0.000862
-0.068291
-0.120351
-0.174760
-0.213176
-0.203366
-0.189386
-0.206278
-0.167410
-0.127485
-0.092736
-0.072499
-0.017814
0.023041
0.049906
0.047372
0.050818
0.047307
0.024198
-0.005952
-0.024845
-0.059677
-0.112727
-0.146086
-0.193898
-0.237504
-0.294922
-0.263176
-0.171096
-0.131490
-0.116206
-0.097384
-0.058491
-0.012261
0.021940
0.022709
0.044685
0.050960
0.015399
-0.049153
-0.100101
-0.134955
-0.143670
-0.189087
-0.220392
-0.252238
-0.263068
-0.237602
-0.214951
-0.183649
-0.135659
-0.083704
-0.034948
0.026211
0.059683
0.063730
0.052861
0.048422
0.029301
0.008959
-0.041921
-0.078747
-0.145046
-0.188553
-0.204633
-0.206327
-0.232512
-0.243495
-0.215502
-0.164607
-0.124886
-0.091385
-0.050432
-0.025067
-0.003273
0.027514
0.034496
0.018562
0.013903
-0.013960
-0.057250
-0.109700
-0.152715
-0.196802
-0.228518
-0.210796
-0.213448
-0.259813
-0.289076
-0.153132
-0.083426
-0.072784
-0.048354
0.002141
0.042321
0.053277
0.064381
0.062391
0.063493
0.059293
0.031795
0.012278
-0.000247
-0.034810
-0.075217
-0.080983
-0.048614
-0.021937
0.007039
0.070466
0.139854
0.202171
0.292573
0.381031
0.442636
0.483678
0.542932
0.574829
0.583866
0.598785
0.580194
0.586588
0.560145
0.565875
0.561452
0.580040
0.600745
0.614207
0.616773
0.656488
0.688744
0.697133
0.715184
0.738104
0.747446
0.683750
0.642311
0.566310
0.457150
0.374031
0.292497
0.203448
0.109865
0.041224
-0.003555
-0.030204
-0.024117
-0.028410
-0.033757
-0.028139
-0.021183
0.053915
0.100047
0.138388
0.160317
0.161205
0.168509
0.130545
0.109350
0.062014
0.023970
-0.014667
-0.069020
-0.107736
-0.117850
-0.179654
-0.181241
-0.156964
-0.141072
-0.110641
-0.062478
-0.024714
-0.000316
0.049095
0.088582
0.096334
0.103172
0.084885
0.061177
0.019912
-0.027189
-0.057141
-0.099957
-0.146171
-0.170461
-0.186204
-0.192018
-0.171961
-0.139214
-0.115365
-0.098755
-0.071193
-0.031347
0.056237
0.083844
0.066632
0.094987
0.097077
0.096709
0.048107
-0.003434
-0.009748
-0.068497
-0.133884
-0.187665
-0.188746
-0.202871
-0.176375
-0.143842
-0.088526
-0.046660
-0.025690
0.018083
0.066996
0.084083
0.089498
0.100223
0.098634
0.096400
0.083702
0.044796
0.010109
-0.049940
-0.112437
-0.148674
-0.169067
-0.182301
-0.147291
-0.129089
-0.103375
-0.049701
-0.021582
0.020900
0.037072
0.059962
0.082095
0.139368
0.137589
0.096925
0.083095
0.037662
-0.035688
-0.049298
-0.111500
-0.145410
-0.138880
-0.156990
-0.143359
-0.084006
-0.042887
-0.047337
-0.024784
0.021120
0.101462
0.124687
0.171218
0.165926
0.155072
0.131468
0.096445
0.088625
0.046206
-0.020581
-0.066601
-0.093405
-0.100301
-0.094043
-0.100199
-0.086131
-0.042846
-0.004238
0.036942
0.105963
0.166224
0.187090
0.214410
0.222841
0.198601
0.160312
0.118340
0.072583
0.059562
0.001782
-0.031149
-0.063609
-0.067727
-0.053673
-0.033330
-0.040569
-0.019955
0.036532
0.091277
0.114547
0.141058
0.165355
0.188476
0.200787
0.215605
0.189132
0.146868
0.115183
0.073257
0.002155
-0.044587
-0.055459
-0.066092
-0.085622
-0.062710
-0.046192
-0.017003
0.015205
0.001729
0.088167
0.121269
0.143216
0.197192
0.232178
0.188113
0.176999
0.156313
0.130104
0.073945
0.010021
-0.052638
-0.079950
-0.082713
-0.111654
-0.114019
-0.084034
-0.032177
0.001526
0.047301
0.053437
0.125915
0.168465
0.193590
0.177448
0.182337
0.144305
0.094068
0.074552
0.039119
-0.019620
-0.068656
-0.098720
-0.134155
-0.145769
-0.116673
-0.096783
-0.086329
-0.036135
0.010799
0.030790
0.064319
0.093599
0.109054
0.112435
0.108889
0.085732
0.034917
0.015434
-0.000307
-0.035774
-0.096269
-0.116194
-0.128850
-0.169174
-0.163110
-0.145697
-0.119634
-0.062118
-0.027248
-0.010921
0.029456
0.052149
0.086302
0.097997
0.084899
0.086496
0.050395
-0.010107
-0.044332
-0.102096
-0.176014
-0.228781
-0.214806
-0.208843
-0.179174
-0.185966
-0.151915
-0.096858
-0.045748
-0.022411
0.016708
0.059697
0.103713
0.118712
0.108140
0.075216
0.019242
-0.031698
-0.073846
-0.123855
-0.174936
-0.205169
-0.239040
-0.196865
-0.146604
-0.155591
-0.147018
-0.108572
-0.038755
0.000568
0.018505
0.078248
0.103195
0.120347
0.113512
0.100037
0.047315
0.008019
-0.051461
-0.107434
-0.154268
-0.199055
-0.227591
-0.208216
-0.196063
-0.185430
-0.152468
-0.095099
-0.042908
-0.000774
0.040430
0.071618
0.085398
0.079684
0.074243
0.067723
0.041659
-0.021335
-0.055534
-0.099112
-0.163064
-0.162032
-0.186738
-0.216480
-0.195862
-0.172689
-0.137908
-0.094629
-0.052244
0.010966
0.064383
0.043641
0.106867
0.126562
0.100067
0.076035
0.033546
-0.006578
-0.071802
-0.118173
-0.148486
-0.180928
-0.208807
-0.204182
-0.176941
-0.151421
-0.142466
-0.113079
-0.050372
0.002106
0.069888
0.102444
0.104689
0.122628
0.121334
0.107378
0.062394
0.009262
-0.033895
-0.056095
-0.152842
-0.160877
-0.190969
-0.209326
-0.166578
-0.124240
-0.106591
-0.096766
-0.067367
-0.000379
0.063294
0.106154
0.122000
0.128437
0.107180
0.060303
0.017672
-0.022156
-0.038140
-0.086605
-0.145804
-0.181138
-0.202241
-0.200153
-0.195773
-0.164598
-0.148907
-0.112153
-0.061433
0.000928
0.046469
0.086457
0.102330
0.079906
0.046721
0.012667
-0.017502
-0.048833
-0.065123
-0.068110
-0.115752
-0.185933
-0.198690
-0.204996
-0.173433
-0.130766
-0.139146
-0.117356
-0.036631
0.009075
0.059106
0.074871
0.051279
0.058704
0.055850
0.039191
0.007970
-0.038910
-0.081042
-0.127571
-0.160100
-0.189026
-0.190459
-0.175086
-0.164566
-0.152527
-0.111529
-0.057695
0.015029
0.034867
0.039109
0.093610
0.125164
0.118892
0.099359
0.046876
0.050368
0.028343
-0.001164
-0.043153
-0.098881
-0.138153
-0.152960
-0.144750
-0.154797
-0.153734
-0.123120
-0.083592
-0.022090
0.021707
0.056457
0.093671
0.112185
0.122003
0.108449
0.080780
0.039193
-0.000408
-0.035098
-0.071964
-0.091241
-0.129742
-0.144958
-0.152419
-0.146663
-0.132262
-0.108487
-0.056081
-0.008071
0.048013
0.076519
0.091091
0.107696
0.107475
0.118747
0.116427
0.078519
0.033363
-0.030966
-0.063142
-0.094938
-0.128212
-0.158368
-0.167054
-0.170105
-0.185019
-0.135371
-0.075088
-0.017740
0.010177
0.015338
0.031384
0.064454
0.068492
0.069117
0.042857
0.020686
-0.006749
-0.071507
-0.110850
-0.143773
-0.178322
-0.198170
-0.222542
-0.211426
-0.165807
-0.138966
-0.138013
-0.097221
-0.035266
-0.029018
0.007800
0.056952
0.042453
0.035170
0.008561
-0.013917
-0.032297
-0.075133
-0.163457
-0.194109
-0.211181
-0.248930
-0.240367
-0.229593
-0.232530
-0.196844
-0.161562
-0.094584
-0.050175
-0.018523
0.018370
0.057575
0.055910
0.020498
0.000114
-0.023095
-0.046395
-0.081533
-0.119029
-0.160201
-0.186107
-0.222436
-0.253687
-0.235416
-0.224381
-0.200542
-0.154256
-0.078394
-0.043918
-0.017749
0.015001
0.024740
0.049408
0.043863
0.019691
-0.028108
-0.053416
-0.077373
-0.121629
-0.190686
-0.245242
-0.264305
-0.260042
-0.243863
-0.240497
-0.199604
-0.145549
-0.067133
0.006527
0.010263
0.004543
0.045787
0.062494
0.027646
0.002786
0.004386
-0.041555
-0.114042
-0.188098
-0.225290
-0.243626
-0.264789
-0.288673
-0.268568
-0.241616
-0.213354
-0.174889
-0.099012
-0.041723
0.038857
0.087805
0.121632
0.111680
0.082167
0.065064
0.074641
0.053508
0.012045
-0.015916
-0.028106
-0.037817
-0.047214
-0.057095
-0.012178
0.054394
0.128947
0.211557
0.299756
0.426122
0.477936
0.520596
0.567015
0.618715
0.653255
0.714836
0.719696
0.681740
0.645504
0.609660
0.609377
0.626284
0.574313
0.565092
0.564905
0.568568
0.604066
0.594528
0.582135
0.610755
0.619980
0.587961
0.513027
0.452090
0.382001
0.333409
0.242473
0.139385
0.109485
0.079492
0.005941
-0.049076
-0.059390
-0.059956
-0.063135
-0.061082
-0.057210
-0.019367
0.037703
0.068818
0.101529
0.121045
0.133245
0.143178
0.132059
0.093474
0.052120
0.009608
-0.041386
-0.089762
-0.122443
-0.170417
-0.194776
-0.176318
-0.179174
-0.156013
-0.116931
-0.087842
-0.047362
-0.002147
0.030845
0.014047
0.062192
0.077070
0.068914
0.039403
0.033250
0.018008
-0.043250
-0.088444
-0.147648
-0.186569
-0.195568
-0.192312
-0.219878
-0.165062
-0.151933
-0.103444
-0.072683
-0.022063
0.027114
0.062229
0.054836
0.066211
0.077202
0.020543
0.000052
-0.012147
-0.033363
-0.063688
-0.156449
-0.184562
-0.204292
-0.241870
-0.231772
-0.178971
-0.124306
-0.071440
-0.026345
0.006894
0.036733
0.081550
0.114670
0.075640
0.107090
0.102942
0.070519
0.048779
-0.004451
-0.075163
-0.122542
-0.147132
-0.170895
-0.172445
-0.158855
-0.138227
-0.095347
-0.063145
-0.023747
0.006523
0.050900
0.092690
0.134960
0.121617
0.117333
0.097403
0.054035
0.008461
-0.011092
-0.040810
-0.072018
-0.084659
-0.123521
-0.176931
-0.200271
-0.158954
-0.118948
-0.068760
0.027586
0.084242
0.095422
0.106087
0.117171
0.118540
0.123153
0.125880
0.077398
0.059575
0.040087
0.012242
-0.057336
-0.128955
-0.162623
-0.152670
-0.124858
-0.090294
-0.029083
-0.007460
0.005997
0.070465
0.106811
0.090124
0.148726
0.175232
0.176076
0.144228
0.104714
0.099725
0.079986
0.008147
-0.041462
0.000486
-0.060321
-0.107419
-0.118326
-0.083919
-0.035620
0.013468
0.061116
0.066931
0.072005
0.110213
0.155337
0.162288
0.164012
0.140380
0.131789
0.097264
0.072983
0.056435
-0.001032
-0.045703
-0.085527
-0.105161
-0.119595
-0.101256
-0.057549
-0.016657
0.038735
0.086055
0.121821
0.161348
0.176467
0.183291
0.163735
0.139903
0.104401
0.071636
0.036643
-0.024420
-0.071999
-0.100426
-0.122292
-0.154693
-0.148676
-0.107357
-0.076644
-0.014270
0.023061
0.047650
0.068054
0.125068
0.152569
0.175648
0.138104
0.100122
0.080379
0.033411
-0.016006
-0.098601
-0.110310
-0.137525
-0.164010
-0.154708
-0.181139
-0.180116
-0.144358
-0.131680
-0.064721
-0.017501
0.041095
0.096840
0.109956
0.127504
0.099628
0.064613
0.047260
0.008790
-0.054421
-0.099983
-0.108202
-0.133931
-0.164721
-0.178021
-0.176850
-0.155596
-0.133603
-0.105524
-0.069473
-0.003750
0.030264
0.052108
0.066698
0.031017
0.028586
0.037989
0.018213
-0.033640
-0.067052
-0.086890
-0.113781
-0.172764
-0.195322
-0.203447
-0.217768
-0.200565
-0.154420
-0.129945
-0.092985
-0.027349
0.021064
0.051765
0.063123
0.071117
0.070035
0.055369
-0.011085
-0.068093
-0.096103
-0.092015
-0.133747
-0.181096
-0.230466
-0.217895
-0.199487
-0.198359
-0.214694
-0.137260
-0.073402
-0.026298
0.028837
0.053738
0.076901
0.102354
0.075540
0.024554
-0.013082
0.002065
-0.046531
-0.103018
-0.168104
-0.211641
-0.185189
-0.180141
-0.209133
-0.183860
-0.161435
-0.107014
-0.061120
-0.019201
0.000126
0.035759
0.068964
0.080565
0.060194
0.044209
-0.026625
-0.042247
-0.091859
-0.081006
-0.132455
-0.187657
-0.229362
-0.209147
-0.210838
-0.187752
-0.143987
-0.123570
-0.092703
-0.018464
0.016749
0.060676
0.094309
0.072298
0.071006
0.060991
0.013756
-0.054086
-0.085649
-0.116738
-0.167268
-0.180932
-0.199867
-0.175922
-0.168073
-0.166807
-0.113501
-0.096872
-0.064913
-0.011226
0.032279
0.057224
0.074517
0.081398
0.107032
0.085235
0.045373
0.014920
-0.047148
-0.115109
-0.173386
-0.227256
-0.183526
-0.191337
-0.172365
-0.164162
-0.154050
-0.132624
-0.032805
0.028435
0.052143
0.068143
0.069871
0.050760
0.061738
0.024480
-0.003563
-0.023099
-0.038188
-0.109315
-0.158034
-0.200753
-0.205785
-0.215521
-0.216874
-0.176917
-0.127295
-0.108834
-0.075863
-0.045566
-0.003212
0.016636
0.009096
0.008341
0.020783
0.020336
0.008672
-0.023903
-0.066699
-0.129053
-0.150980
-0.198706
-0.213041
-0.204774
-0.194057
-0.171539
-0.156640
-0.094555
-0.068213
-0.028695
0.006524
0.036141
0.057193
0.046687
0.038356
0.027818
0.012300
-0.041268
-0.090594
-0.113723
-0.159418
-0.205605
-0.221071
-0.220369
-0.195496
-0.164636
-0.126563
-0.085471
-0.064676
-0.032729
0.009504
0.045259
0.061289
0.054203
0.013502
-0.001631
-0.020124
-0.019464
-0.065195
-0.106411
-0.126673
-0.174052
-0.200296
-0.207073
-0.233560
-0.223809
-0.183654
-0.154553
-0.116959
-0.074238
-0.023775
0.036115
0.057062
0.058394
0.049312
0.032711
-0.011369
-0.039962
-0.087246
-0.123260
-0.160047
-0.187959
-0.215085
-0.208374
-0.201346
-0.189183
-0.187675
-0.152348
-0.077677
-0.024816
0.016535
0.037395
0.037873
0.053145
0.065806
0.059048
0.002751
-0.032054
-0.056485
-0.102657
-0.168035
-0.193719
-0.194369
-0.194284
-0.197171
-0.159183
-0.143314
-0.107090
-0.056929
-0.011122
0.035893
0.096011
0.106907
0.078508
0.066233
0.049233
0.032834
-0.008936
-0.073104
-0.107249
-0.112277
-0.143631
-0.173239
-0.181550
-0.172033
-0.157115
-0.132571
-0.075438
-0.054887
-0.006167
0.021451
0.118588
0.190700
0.163239
0.124858
0.074883
0.043519
0.038089
-0.016992
-0.108504
-0.157377
-0.194415
-0.218647
-0.215455
-0.206021
-0.209805
-0.159722
-0.130329
-0.077188
-0.018081
0.007801
0.019158
0.057897
0.081366
0.065346
0.034262
0.003723
-0.032040
-0.088356
-0.155990
-0.198780
-0.233190
-0.238361
-0.226744
-0.222560
-0.205379
-0.199516
-0.171710
-0.144027
-0.089382
-0.035985
0.000204
0.011566
-0.012819
-0.021030
-0.012877
-0.023202
-0.053952
-0.111914
-0.101733
-0.170513
-0.226324
-0.261920
-0.258855
-0.235523
-0.203895
-0.185663
-0.153617
-0.118117
-0.080998
-0.079769
-0.017187
0.023773
0.008464
0.033400
0.029766
0.019616
-0.050588
-0.116130
-0.177371
-0.204558
-0.241807
-0.263088
-0.258816
-0.252193
-0.242524
-0.212853
-0.182382
-0.137382
-0.075684
-0.020288
0.004676
0.024484
0.030450
0.020614
-0.030589
-0.062016
-0.084746
-0.128953
-0.148362
-0.201427
-0.258331
-0.262732
-0.263225
-0.254537
-0.234009
-0.192586
-0.155207
-0.153318
-0.112580
-0.056837
-0.033719
-0.012243
-0.002764
0.007331
0.000381
-0.024747
-0.084138
-0.107755
-0.159390
-0.202204
-0.262514
-0.298444
-0.282458
-0.287673
-0.241784
-0.207115
-0.180987
-0.150879
-0.095422
-0.013213
-0.011072
0.022902
0.088079
0.105859
0.111327
0.094821
0.059134
-0.003279
-0.044716
-0.084344
-0.053770
-0.047669
-0.042274
-0.036385
0.013608
0.076741
0.178028
0.247848
0.335944
0.399925
0.466928
0.523673
0.543375
0.549599
0.566776
0.581726
0.569100
0.566203
0.549719
0.553746
0.544399
0.520193
0.482137
0.530243
0.564573
0.553574
0.587625
0.607933
0.634218
0.658064
0.608937
0.536975
0.502964
0.469189
0.415391
0.326004
0.214327
0.113442
0.032392
-0.022188
-0.047786
-0.085893
-0.122008
-0.102875
-0.064377
-0.054964
-0.047522
-0.035570
0.023038
0.067664
0.069236
0.103369
0.145436
0.122829
0.071605
0.039635
-0.008982
-0.046783
-0.093816
-0.129503
-0.150500
-0.184713
-0.234069
-0.202916
-0.162575
-0.126549
-0.093546
-0.086807
-0.051941
0.009219
0.049321
0.075954
0.059727
0.042727
0.034136
-0.002119
-0.032600
-0.060574
-0.097969
-0.155555
-0.181369
-0.195798
-0.208293
-0.195033
-0.237505
-0.217348
-0.181684
-0.108943
-0.056782
-0.025038
-0.003988
0.022311
0.078876
0.065529
0.023345
0.006556
-0.035036
-0.084079
-0.102861
-0.137846
-0.197504
-0.237234
-0.188677
-0.148698
-0.176520
-0.214833
-0.167846
-0.089014
-0.048074
0.038806
0.114734
0.142983
0.132716
0.087948
0.081379
0.004889
-0.088154
-0.078939
-0.099096
-0.146140
-0.187299
-0.188746
-0.215199
-0.222446
-0.209775
-0.144702
-0.099865
-0.072819
0.019690
0.090238
0.078827
0.084207
0.058950
0.026163
0.081368
0.062261
0.046541
0.001928
-0.068365
-0.105226
-0.124040
-0.139277
-0.151674
-0.149688
-0.120615
-0.097381
-0.068650
-0.018314
0.024271
0.065885
0.092167
0.115625
0.140658
0.122965
0.082293
0.076831
0.030837
-0.025711
-0.077342
-0.122519
-0.115530
-0.123018
-0.138869
-0.136214
-0.111110
-0.080162
-0.018236
0.061491
0.116309
0.115872
0.092725
0.111612
0.124777
0.103546
0.083436
0.071539
0.075784
0.037863
0.001643
-0.017682
-0.133591
-0.142495
-0.147418
-0.126120
-0.067372
-0.037538
-0.006822
0.016815
0.056995
0.090368
0.129248
0.162988
0.212451
0.179510
0.138445
0.122644
0.108466
0.060029
-0.016968
-0.107193
-0.116656
-0.114156
-0.132961
-0.145706
-0.097706
-0.067395
-0.007317
0.056927
0.093262
0.126804
0.158835
0.194513
0.175661
0.164929
0.162925
0.149371
0.089284
0.017752
-0.064283
-0.091449
-0.102463
-0.065684
-0.115902
-0.120792
-0.093814
-0.089120
-0.049104
0.007663
0.056826
0.093722
0.126513
0.105387
0.102160
0.193310
0.150363
0.098417
0.044010
-0.019512
-0.064917
-0.111676
-0.131417
-0.147896
-0.146952
-0.145768
-0.142263
-0.110607
-0.105126
-0.018224
0.005120
0.056111
0.083266
0.094755
0.110572
0.113137
0.082926
0.060307
0.012462
-0.049230
-0.099060
-0.122207
-0.174691
-0.195790
-0.219442
-0.221034
-0.198695
-0.153305
-0.095700
-0.054720
0.002645
0.067446
0.041080
0.019055
0.052243
0.086496
0.060279
0.029952
-0.027725
-0.108058
-0.141324
-0.191536
-0.215373
-0.208510
-0.199964
-0.183042
-0.142278
-0.124461
-0.072788
-0.064200
-0.045865
0.006730
0.029838
0.045647
0.064817
0.054928
0.023934
0.001084
-0.006390
-0.074987
-0.129135
-0.159637
-0.201996
-0.229834
-0.227981
-0.193384
-0.176158
-0.123692
-0.084747
-0.067362
-0.031822
0.022866
0.058803
0.040277
0.041163
0.096442
0.070977
0.034500
0.006148
-0.044166
-0.114368
-0.167502
-0.170584
-0.188650
-0.212246
-0.179932
-0.128561
-0.135983
-0.131816
-0.109994
-0.042768
0.023255
0.052013
0.068676
0.074447
0.064994
0.063749
0.014049
-0.011545
-0.066838
-0.100798
-0.185855
-0.233109
-0.251866
-0.274984
-0.263948
-0.203005
-0.139397
-0.074846
-0.008616
0.040582
0.064104
0.091046
0.071461
0.083458
0.086776
0.069382
0.035109
-0.018931
-0.054016
-0.091720
-0.147432
-0.179654
-0.197743
-0.194709
-0.184152
-0.176442
-0.157217
-0.129103
-0.066029
0.004500
0.046352
0.070753
0.086796
0.080624
0.089029
0.064058
0.020257
-0.014570
-0.056428
-0.118758
-0.106405
-0.144800
-0.156502
-0.163238
-0.167119
-0.170821
-0.147563
-0.110302
-0.056735
-0.021700
0.027169
0.060911
0.089359
0.084248
0.074937
0.052873
0.037294
-0.022210
-0.063383
-0.103215
-0.142943
-0.176697
-0.185432
-0.186342
-0.202676
-0.184248
-0.140953
-0.109677
-0.089303
-0.052139
0.004558
0.062415
0.061520
0.051491
0.052616
0.037058
0.014155
-0.022715
-0.060726
-0.090411
-0.183407
-0.245422
-0.228298
-0.251426
-0.240992
-0.183908
-0.135401
-0.113118
-0.081994
-0.039575
-0.004110
0.038667
0.057702
0.105068
0.070875
0.040360
-0.005148
-0.049250
-0.093367
-0.134986
-0.177801
-0.194189
-0.255719
-0.199630
-0.209259
-0.163765
-0.113381
-0.094510
-0.069531
-0.034647
0.016500
0.040989
0.067028
0.074213
0.056252
0.028602
0.014469
-0.027492
-0.085279
-0.140258
-0.195944
-0.203630
-0.195354
-0.214115
-0.165908
-0.160297
-0.138395
-0.106850
-0.080440
-0.034073
-0.000672
0.034158
0.052883
0.049153
0.041713
0.050038
0.020122
-0.030696
-0.077932
-0.128777
-0.162942
-0.204513
-0.233865
-0.213765
-0.217680
-0.203945
-0.191063
-0.135890
-0.090479
-0.041032
0.000916
0.040451
0.064134
0.062182
0.067187
0.003163
-0.014899
-0.041765
-0.118019
-0.113145
-0.127502
-0.177571
-0.201875
-0.213964
-0.235181
-0.242761
-0.187273
-0.152106
-0.096557
-0.046287
-0.000446
0.021881
0.008830
0.030675
0.021753
0.007276
0.001410
-0.015982
-0.082571
-0.131612
-0.146175
-0.186754
-0.207803
-0.218575
-0.222508
-0.230370
-0.170612
-0.117495
-0.095322
-0.056929
0.015340
0.087954
0.126702
0.120890
0.095697
0.056281
0.012531
-0.006114
-0.067910
-0.123738
-0.138824
-0.157933
-0.169075
-0.204327
-0.172642
-0.159147
-0.140327
-0.093924
-0.045190
0.000430
0.041835
0.060103
0.084671
0.103350
0.092707
0.055939
0.033248
-0.006296
-0.041034
-0.083529
-0.117682
-0.171525
-0.191203
-0.187293
-0.169497
-0.123638
-0.078201
-0.057809
-0.027404
0.011543
0.025476
0.082474
0.144722
0.126468
0.119538
0.103529
0.069413
0.017615
-0.055880
-0.104490
-0.109532
-0.140508
-0.192516
-0.209562
-0.204279
-0.192603
-0.155463
-0.092819
-0.045943
0.001149
0.032405
0.054446
0.057058
0.079099
0.078519
0.045813
0.012793
-0.032975
-0.091229
-0.130173
-0.163087
-0.202844
-0.215484
-0.244144
-0.231709
-0.197894
-0.146501
-0.089062
-0.078771
-0.078739
-0.014975
0.039917
0.045689
0.061914
0.033001
0.004852
-0.002664
-0.053364
-0.115935
-0.146570
-0.183750
-0.234756
-0.259823
-0.253362
-0.229861
-0.208320
-0.221088
-0.166313
-0.140903
-0.101466
-0.042603
0.010828
0.049776
0.081676
0.056942
0.012943
-0.010120
-0.063649
-0.115900
-0.186162
-0.220415
-0.237624
-0.251184
-0.258652
-0.246346
-0.217424
-0.191621
-0.168426
-0.114550
-0.059618
-0.027872
-0.011181
0.001314
0.045375
0.057242
0.018162
-0.024721
-0.077519
-0.121935
-0.161419
-0.190986
-0.198125
-0.222109
-0.247748
-0.269702
-0.257356
-0.185502
-0.139787
-0.076143
-0.074502
-0.048097
-0.005092
0.021434
0.045563
0.010365
-0.015586
-0.046861
-0.068254
-0.110675
-0.159477
-0.186438
-0.220386
-0.249024
-0.249168
-0.262112
-0.226400
-0.191927
-0.190215
-0.176579
-0.095502
-0.020498
0.038939
0.078176
0.101055
0.071971
0.042956
0.035213
0.016529
0.004846
-0.007312
-0.024954
-0.056979
-0.099801
-0.100437
-0.070690
-0.028443
0.018940
0.095694
0.169830
0.221727
0.282063
0.354480
0.381832
0.424658
0.464245
0.474348
0.483250
0.464358
0.440302
0.420529
0.419046
0.418174
0.442889
0.496918
0.492023
0.493345
0.538118
0.602393
0.632238
0.638258
0.685868
0.708375
0.662890
0.614130
0.526281
0.435503
0.365367
0.294867
0.223904
0.117557
0.008682
-0.060738
-0.086903
-0.109142
-0.114035
-0.096604
-0.092603
-0.048410
-0.003212
0.042555
0.076002
0.101187
0.101153
0.091334
0.099924
0.085677
0.066077
0.036475
-0.020786
-0.062761
-0.092125
-0.150312
-0.200773
-0.220757
-0.171929
-0.166120
-0.152820
-0.095745
-0.065843
-0.037806
0.038421
0.060835
0.070894
0.086846
0.096122
0.072886
0.034903
-0.025063
-0.043390
-0.079567
-0.132165
-0.193763
-0.216364
-0.215263
-0.177530
-0.149782
-0.134047
-0.157859
-0.112854
-0.038126
0.004524
0.045724
0.052192
0.076850
0.063783
0.075952
0.034941
-0.031164
-0.102066
-0.134657
-0.170443
-0.196611
-0.193078
-0.221345
-0.233385
-0.214669
-0.157103
-0.116700
-0.061919
-0.005964
0.049120
0.067832
0.069963
0.063238
0.099588
0.107215
0.052588
0.015546
-0.040516
-0.132742
-0.147080
-0.193710
-0.180979
-0.171400
-0.200565
-0.184519
-0.151930
-0.089279
-0.042290
-0.008920
0.023352
0.076434
0.099243
0.110118
0.112054
0.112963
0.058624
0.015138
-0.050262
-0.060827
-0.104587
-0.175980
-0.222622
-0.234315
-0.178918
-0.123348
-0.050149
-0.025064
-0.024892
0.017553
0.063829
0.107674
0.144281
0.140855
0.127430
0.118167
0.093746
0.083424
-0.016514
-0.030963
-0.101790
-0.153657
-0.122812
-0.123347
-0.151475
-0.119308
-0.091522
-0.044776
-0.017648
0.033028
0.082346
0.122766
0.162124
0.186542
0.162976
0.147179
0.104630
0.061539
0.015832
-0.019535
-0.058659
-0.086570
-0.124810
-0.123678
-0.101706
-0.080595
-0.070923
-0.010597
0.052440
0.078568
0.089017
0.150551
0.174847
0.200055
0.195389
0.157342
0.124644
0.084218
0.025200
-0.016487
-0.047417
-0.069423
-0.089049
-0.118959
-0.118066
-0.083368
-0.060095
-0.060276
-0.034244
0.039687
0.091101
0.118144
0.134666
0.168563
0.204206
0.177142
0.102882
0.047659
0.045230
0.007186
-0.009755
-0.062032
-0.095035
-0.079409
-0.082212
-0.084396
-0.070924
-0.043143
-0.031045
0.044998
0.113792
0.120205
0.137763
0.142289
0.125834
0.092942
0.062944
0.045807
0.005757
-0.036253
-0.061167
-0.087544
-0.118018
-0.132886
-0.131295
-0.117265
-0.080721
-0.041512
-0.004966
0.005111
0.037962
0.076050
0.114798
0.125941
0.097600
0.067463
0.033012
-0.010611
-0.058753
-0.096237
-0.134301
-0.153287
-0.171168
-0.169590
-0.183804
-0.163049
-0.124654
-0.107128
-0.055236
0.007666
0.050997
0.087508
0.079781
0.074529
0.055982
0.002058
-0.043664
-0.099559
-0.120171
-0.120167
-0.133226
-0.121452
-0.141034
-0.154936
-0.148664
-0.168036
-0.149481
-0.144875
-0.084291
-0.044072
-0.050153
0.004554
0.062396
0.070264
0.046261
0.021615
-0.019240
-0.056636
-0.082957
-0.130235
-0.185184
-0.227371
-0.203637
-0.229082
-0.153718
-0.139549
-0.140842
-0.140648
-0.066469
-0.018565
0.003624
0.041493
0.034892
0.033958
0.038039
0.050567
0.024788
-0.039284
-0.070365
-0.112175
-0.152246
-0.172303
-0.183816
-0.220791
-0.225991
-0.237926
-0.183541
-0.118071
-0.115396
-0.050207
0.007061
0.055068
0.084612
0.089337
0.078022
0.029415
-0.020030
-0.039688
-0.057327
-0.105286
-0.152362
-0.163152
-0.195836
-0.232851
-0.220784
-0.214675
-0.187980
-0.164690
-0.121877
-0.052079
0.015155
0.080002
0.081489
0.080853
0.079883
0.062756
0.014819
-0.049453
-0.105646
-0.117588
-0.143356
-0.187355
-0.231808
-0.261055
-0.248773
-0.198714
-0.153111
-0.099171
-0.044433
0.022418
0.039497
0.015264
0.035344
0.093112
0.107509
0.067018
-0.011882
-0.039382
-0.087823
-0.131522
-0.188741
-0.204231
-0.199165
-0.180509
-0.173217
-0.180545
-0.168617
-0.162468
-0.112758
-0.040284
0.018707
0.049465
0.075154
0.116631
0.098417
0.071651
0.011249
-0.038493
-0.088765
-0.121667
-0.161428
-0.204160
-0.213839
-0.207776
-0.192211
-0.180915
-0.166014
-0.117611
-0.056989
-0.007436
0.021380
0.027377
0.053117
0.046845
0.036694
0.051115
0.003976
-0.059940
-0.086169
-0.118546
-0.154201
-0.201751
-0.235966
-0.238520
-0.213385
-0.188217
-0.173489
-0.163442
-0.130661
-0.087209
0.004945
0.048765
0.051539
0.046290
0.046855
0.024874
0.010004
-0.035887
-0.111325
-0.151889
-0.203432
-0.210510
-0.206955
-0.235818
-0.250103
-0.223472
-0.182657
-0.150937
-0.100657
-0.031602
0.003379
0.029685
0.055789
0.053359
0.056288
0.024850
-0.005239
-0.061635
-0.112972
-0.173005
-0.185717
-0.199195
-0.202965
-0.209870
-0.215715
-0.228269
-0.199366
-0.136927
-0.077424
-0.034434
-0.022233
-0.009230
0.037687
0.021633
-0.007686
-0.029687
-0.051063
-0.089933
-0.128509
-0.171733
-0.181370
-0.180298
-0.198812
-0.199860
-0.177719
-0.187607
-0.170963
-0.139938
-0.095596
-0.047078
-0.008794
0.055921
0.062220
0.048630
0.013763
0.036714
0.004742
-0.045640
-0.085498
-0.123665
-0.177365
-0.212326
-0.207721
-0.223411
-0.225934
-0.182675
-0.127018
-0.107562
-0.051670
-0.005869
0.014304
0.045256
0.073028
0.079176
0.088150
0.067467
0.011878
-0.029868
-0.064836
-0.105433
-0.155360
-0.193684
-0.208629
-0.221313
-0.180453
-0.172054
-0.159022
-0.142040
-0.078156
-0.044154
0.000657
0.037515
0.066633
0.079471
0.086702
0.062214
0.012780
0.004630
-0.028791
-0.113469
-0.134037
-0.176658
-0.226021
-0.220770
-0.155688
-0.107063
-0.077964
-0.083663
-0.049119
-0.006842
0.036619
0.061239
0.065927
0.106305
0.108319
0.067165
0.022177
-0.046765
-0.080367
-0.102646
-0.136282
-0.173074
-0.180507
-0.182457
-0.177768
-0.185637
-0.180363
-0.160314
-0.137197
-0.064551
-0.000000
0.008712
0.017974
0.059059
0.040838
0.028995
-0.015925
-0.052420
-0.113446
-0.150030
-0.174694
-0.218757
-0.261180
-0.278943
-0.258233
-0.240915
-0.203184
-0.157251
-0.108407
-0.063929
-0.010004
0.019911
0.045168
0.024806
-0.000609
-0.037309
-0.052922
-0.078027
-0.140864
-0.199133
-0.203631
-0.235949
-0.259771
-0.253302
-0.239178
-0.233612
-0.194785
-0.185496
-0.144239
-0.065253
-0.022919
-0.009980
0.030823
0.025663
0.000988
-0.011721
-0.061598
-0.090517
-0.111851
-0.157470
-0.229791
-0.252682
-0.231140
-0.222397
-0.215652
-0.222221
-0.213074
-0.144504
-0.077147
-0.072790
-0.051833
-0.012459
0.011123
0.026643
0.013666
-0.010401
-0.035717
-0.082911
-0.114800
-0.162024
-0.212794
-0.236285
-0.266583
-0.288863
-0.303159
-0.290172
-0.234774
-0.190939
-0.114946
-0.065211
-0.046076
-0.003497
0.003277
0.009865
-0.001565
-0.031682
-0.075874
-0.113775
-0.152532
-0.154090
-0.196813
-0.207018
-0.196421
-0.196597
-0.177647
-0.163727
-0.128517
-0.085503
-0.043335
-0.000194
0.057914
0.103788
0.141723
0.154458
0.160927
0.171516
0.179280
0.188598
0.155655
0.132725
0.106967
0.109885
0.127617
0.130048
0.167211
0.179598
0.227692
0.295307
0.374461
0.460439
0.556724
0.636912
0.714708
0.774363
0.787566
0.773189
0.732323
0.695902
0.666599
0.586743
0.472613
0.470213
0.476184
0.421189
0.362577
0.301633
0.260139
0.235121
0.237928
0.235989
0.222046
0.219374
0.207100
0.196825
0.152733
0.107681
0.088019
0.043146
-0.017357
-0.049328
-0.089232
-0.142330
-0.156927
-0.134341
-0.118178
-0.129996
-0.124476
-0.104376
-0.080841
-0.007660
0.051826
0.082972
0.094246
0.102474
0.094619
0.099007
0.045456
-0.009837
-0.075389
-0.104548
-0.189051
-0.190460
-0.216734
-0.191154
-0.204370
-0.213758
-0.187249
-0.104802
-0.055037
-0.044393
0.009600
0.060057
0.047858
0.050029
0.047113
0.045757
0.028376
-0.018035
-0.063535
-0.099888
-0.143094
-0.159086
-0.182316
-0.198644
-0.229909
-0.241193
-0.179735
-0.125105
-0.077129
-0.010609
0.037320
0.040993
0.078847
0.097967
0.092748
0.076578
0.035928
-0.007034
-0.047675
-0.082318
-0.129750
-0.157641
-0.173251
-0.181280
-0.185983
-0.181612
-0.126525
-0.099599
-0.058828
-0.025001
-0.001798
0.036669
0.101609
0.100905
0.091033
0.094033
0.062721
0.009905
-0.042231
-0.093307
-0.133777
-0.164046
-0.174070
-0.177602
-0.165300
-0.133596
-0.103285
-0.095728
-0.053114
-0.008416
0.027425
0.072433
0.106401
0.132535
0.138557
0.108801
0.058603
0.031647
0.008565
-0.046562
-0.108382
-0.135831
-0.164175
-0.159585
-0.112404
-0.108692
-0.105204
-0.055476
0.015033
0.036694
0.074600
0.096593
0.105303
0.124336
0.128375
0.118862
0.071903
0.050856
0.022341
-0.013946
-0.067654
-0.103785
-0.129389
-0.141417
-0.115815
-0.090225
-0.053809
-0.023192
0.026752
0.071226
0.115179
0.142283
0.176419
0.187309
0.150484
0.119761
0.123589
0.118468
0.069973
0.031986
-0.039358
-0.075846
-0.142804
-0.155278
-0.104048
-0.061326
-0.042414
-0.002765
0.035464
0.113257
0.147136
0.152121
0.185128
0.181807
0.172317
0.162730
0.130008
0.086898
0.027150
-0.032481
-0.091008
-0.117111
-0.124820
-0.115727
-0.108131
-0.062211
-0.025956
0.002751
0.034339
0.058282
0.097947
0.130874
0.139378
0.166981
0.161868
0.130087
0.094804
0.046912
0.010165
-0.013767
-0.056702
-0.098109
-0.126198
-0.144159
-0.149182
-0.131143
-0.094339
-0.044381
-0.003850
0.016369
0.072801
0.081630
0.086490
0.141911
0.134231
0.117583
0.090902
0.038993
-0.012150
-0.050810
-0.110110
-0.158608
-0.157450
-0.152215
-0.189052
-0.170120
-0.132902
-0.073440
-0.037228
-0.003560
0.033729
0.062716
0.100155
0.125260
0.116681
0.077063
0.026369
-0.009041
-0.060866
-0.114677
-0.157911
-0.189523
-0.189543
-0.191621
-0.185597
-0.167955
-0.161501
-0.120828
-0.061545
-0.051331
-0.015869
0.031767
0.089109
0.116007
0.116004
0.053600
0.024207
-0.007485
-0.062903
-0.119876
-0.177657
-0.210552
-0.212685
-0.181329
-0.194127
-0.190282
-0.175256
-0.118322
-0.056129
-0.020979
0.006868
0.047563
0.083691
0.080103
0.070675
0.050717
0.012124
-0.026974
-0.020331
-0.108691
-0.158305
-0.206931
-0.234155
-0.220735
-0.209433
-0.199594
-0.149181
-0.088173
-0.052845
-0.043612
-0.005674
0.038355
0.025860
0.067437
0.089915
0.084621
0.039203
-0.025972
-0.079308
-0.118752
-0.169626
-0.202547
-0.229329
-0.192341
-0.184508
-0.183726
-0.159360
-0.092824
-0.057595
-0.009251
0.020135
0.043400
0.062400
0.075337
0.073501
0.051173
0.021640
0.017207
-0.024623
-0.074477
-0.127572
-0.167264
-0.201123
-0.230727
-0.236771
-0.215846
-0.171245
-0.123306
-0.053912
-0.006089
0.039494
0.055767
0.071314
0.073096
0.072657
0.057549
0.004113
-0.004206
-0.040976
-0.103321
-0.166435
-0.212841
-0.202833
-0.212561
-0.212461
-0.189077
-0.154186
-0.107775
-0.056500
-0.017761
0.023627
0.056872
0.081813
0.099736
0.083653
0.083000
0.048667
-0.000491
-0.078808
-0.131932
-0.152323
-0.202440
-0.195331
-0.193580
-0.181412
-0.184926
-0.147729
-0.108902
-0.059345
-0.009339
0.024574
0.036394
0.063555
0.080669
0.070078
0.064883
0.039349
-0.027057
-0.067279
-0.116718
-0.176996
-0.194779
-0.187407
-0.197470
-0.208299
-0.217218
-0.208052
-0.171628
-0.060456
0.001632
0.037791
0.066827
0.069194
0.072756
0.063226
0.048218
0.016957
-0.025174
-0.060741
-0.095642
-0.139340
-0.176733
-0.200808
-0.203367
-0.196702
-0.186293
-0.176288
-0.107034
-0.034826
-0.026325
-0.009613
0.028143
0.064205
0.075183
0.055389
0.010026
-0.014530
-0.050410
-0.091307
-0.136117
-0.183888
-0.227605
-0.224751
-0.208917
-0.207175
-0.193784
-0.163174
-0.135980
-0.075856
-0.009907
0.017949
0.040842
0.055723
0.071347
0.067738
0.041331
0.004394
-0.023990
-0.096822
-0.155010
-0.171030
-0.219081
-0.246445
-0.247495
-0.249478
-0.199505
-0.164404
-0.134987
-0.105288
-0.032373
0.003667
0.031011
0.059628
0.057898
0.040274
0.013466
-0.006212
-0.037175
-0.071705
-0.118165
-0.142007
-0.171097
-0.179833
-0.169600
-0.179605
-0.200826
-0.165087
-0.111741
-0.080517
-0.022165
0.022627
0.039245
0.064435
0.095853
0.087189
0.056411
0.021684
-0.001233
-0.047754
-0.089461
-0.122041
-0.172888
-0.209430
-0.210177
-0.204324
-0.166584
-0.121576
-0.088670
-0.076491
-0.026028
0.020502
0.059426
0.052999
0.082142
0.091600
0.053806
0.035752
0.024389
-0.028532
-0.075383
-0.156795
-0.147106
-0.164076
-0.193824
-0.186411
-0.141441
-0.076549
-0.047519
-0.022676
0.022078
0.078105
0.090632
0.101591
0.137378
0.112465
0.079693
0.050078
0.009831
-0.037943
-0.093513
-0.136564
-0.167411
-0.190920
-0.202843
-0.209749
-0.169997
-0.149109
-0.110625
-0.075258
-0.026221
0.007975
0.050708
0.053630
0.060634
0.050802
0.031168
0.015142
-0.029620
-0.090573
-0.131010
-0.180597
-0.205091
-0.252055
-0.238341
-0.245370
-0.225337
-0.198585
-0.170520
-0.130197
-0.062539
-0.003823
0.018091
0.003827
0.024219
0.022815
0.000167
-0.017642
-0.047157
-0.092039
-0.170551
-0.200154
-0.224964
-0.256165
-0.267277
-0.265773
-0.225580
-0.199954
-0.159201
-0.110214
-0.067058
-0.027658
-0.000222
0.010857
0.008253
-0.000212
0.012760
-0.031331
-0.070977
-0.121231
-0.168655
-0.198864
-0.224311
-0.240173
-0.247388
-0.264014
-0.258601
-0.212679
-0.159566
-0.098007
-0.074655
-0.025611
0.003931
0.010269
0.013298
0.026204
0.007989
-0.029943
-0.065261
-0.111612
-0.168629
-0.203021
-0.238846
-0.262277
-0.277658
-0.267315
-0.224434
-0.213704
-0.178861
-0.114174
-0.033974
-0.011667
0.022553
0.029097
0.028885
0.035005
0.019477
-0.017136
-0.081993
-0.146879
-0.176754
-0.207298
-0.233970
-0.261757
-0.286270
-0.269486
-0.242231
-0.232469
-0.177360
-0.114665
-0.050840
0.016232
0.082015
0.130467
0.142404
0.126632
0.111489
0.109219
0.074902
0.031241
0.011333
-0.011777
-0.037193
0.003571
0.041577
0.048146
0.096214
0.158829
0.231386
0.290468
0.383162
0.459350
0.531219
0.579096
0.627673
0.664743
0.724822
0.733512
0.739353
0.710060
0.673408
0.644523
0.585607
0.548889
0.535687
0.520341
0.519143
0.533025
0.539292
0.554495
0.546964
0.517403
0.497192
0.452334
0.417241
0.354970
0.273200
0.182064
0.119044
0.046541
0.028579
-0.018463
-0.047857
-0.084700
-0.107492
-0.099938
-0.079554
-0.059098
-0.025119
-0.013147
-0.002035
0.046823
0.106162
0.151914
0.139648
0.118765
0.088457
0.060832
0.013688
-0.031709
-0.076985
-0.138853
-0.188723
-0.193566
-0.180227
-0.184169
-0.170645
-0.145218
-0.107162
-0.056191
-0.010130
0.008743
0.046764
0.075036
0.085778
0.066153
0.041674
0.016864
-0.013954
-0.061707
-0.112242
-0.136340
-0.166095
-0.207666
-0.226361
-0.236852
-0.187152
-0.153635
-0.118448
-0.076102
-0.030172
-0.001193
0.037561
0.042804
0.045007
0.035999
0.057963
0.025984
-0.034239
-0.048658
-0.096029
-0.147023
-0.162321
-0.204369
-0.234408
-0.233783
-0.178480
-0.145387
-0.117608
-0.074380
-0.015000
0.029314
0.062935
0.082515
0.059671
0.071485
0.071048
0.052159
0.015295
-0.042596
-0.094644
-0.120266
-0.146337
-0.150096
-0.187092
-0.177736
-0.152067
-0.108483
-0.067871
-0.036430
-0.000808
0.041195
0.074495
0.104192
0.132731
0.141931
0.104652
0.071089
0.027890
-0.048043
-0.049458
-0.093626
-0.135046
-0.157632
-0.174755
-0.140715
-0.096344
-0.086021
-0.058392
-0.028502
0.020716
0.065185
0.112316
0.128357
0.131312
0.144694
0.148345
0.114260
0.047911
0.001608
-0.053253
-0.106725
-0.107216
-0.117989
-0.121451
-0.122428
-0.070596
-0.045172
-0.030068
0.028272
0.055649
0.078734
0.132302
0.158441
0.185406
0.184202
0.150688
0.108135
0.065023
0.056806
0.022213
0.006107
-0.050605
-0.105878
-0.114210
-0.108795
-0.082006
-0.043554
0.000245
0.047555
0.077753
0.097123
0.133403
0.175727
0.180826
0.149526
0.155001
0.138722
0.106671
0.044271
-0.003691
-0.054674
-0.082115
-0.091447
-0.097159
-0.100717
-0.076391
-0.047038
-0.021985
0.028307
0.068168
0.116893
0.154624
0.171079
0.185775
0.173155
0.143947
0.097676
0.071661
0.051412
-0.022906
-0.078426
-0.110019
-0.139851
-0.144308
-0.155165
-0.119714
-0.088169
-0.050269
0.001731
0.025246
0.065405
0.108261
0.124389
0.145274
0.167441
0.137949
0.091218
0.040197
-0.022147
-0.062144
-0.098245
-0.133680
-0.151403
-0.166529
-0.151440
-0.123099
-0.092325
-0.057380
-0.008275
0.036955
0.059270
0.083841
0.088210
0.101983
0.083715
0.084413
0.061419
-0.006143
-0.075623
-0.128172
-0.132673
-0.163512
-0.153926
-0.122016
-0.139845
-0.149887
-0.127895
-0.082047
-0.073381
-0.026628
0.042765
0.082721
0.104646
0.075360
0.065629
0.020447
0.006161
-0.013950
-0.072292
-0.145558
-0.172114
-0.189445
-0.198351
-0.202721
-0.213098
-0.223292
-0.172541
-0.101901
-0.051485
0.004049
0.047441
0.084299
0.092366
0.098675
0.090760
0.044083
0.008190
-0.025565
-0.076227
-0.092965
-0.132772
-0.161131
-0.187544
-0.210017
-0.223985
-0.222947
-0.178465
-0.120008
-0.064996
-0.015769
0.013402
0.052305
0.070893
0.073782
0.060678
0.060164
0.016287
-0.014481
-0.045813
-0.099567
-0.143342
-0.197037
-0.218637
-0.232973
-0.224540
-0.225149
-0.169651
-0.108553
-0.051390
-0.000191
0.043688
0.078500
0.096001
0.085422
0.069925
0.056802
0.007008
-0.030330
-0.049080
-0.085469
-0.119127
-0.164017
-0.217192
-0.218803
-0.203982
-0.152404
-0.129666
-0.113331
-0.076775
-0.024125
0.016693
0.073978
0.084572
0.110826
0.095391
0.057518
0.042685
0.011161
-0.049018
-0.096429
-0.122887
-0.201676
-0.205538
-0.220444
-0.213771
-0.187895
-0.141591
-0.077995
-0.035952
0.000030
0.018057
0.067502
0.112329
0.111383
0.082521
0.045492
0.013337
-0.008547
-0.044144
-0.089797
-0.138598
-0.176486
-0.192145
-0.205026
-0.205330
-0.184728
-0.137017
-0.093045
-0.044409
0.021634
0.023251
0.078674
0.117618
0.120685
0.121484
0.069073
0.033166
-0.007711
-0.036011
-0.084041
-0.125007
-0.154161
-0.178535
-0.207850
-0.179934
-0.143905
-0.160708
-0.151618
-0.097437
-0.003892
0.031329
0.076095
0.064560
0.061000
0.079582
0.081177
0.064065
0.030917
-0.069434
-0.128582
-0.167917
-0.199443
-0.225499
-0.233875
-0.216220
-0.182396
-0.146421
-0.089194
-0.036581
-0.006718
0.028163
0.070162
0.081350
0.083132
0.064127
0.055988
0.032468
-0.016971
-0.066775
-0.109589
-0.149021
-0.188591
-0.210699
-0.197880
-0.201200
-0.191866
-0.156200
-0.107267
-0.063054
-0.023982
0.014593
0.037487
0.051701
0.069758
0.057848
0.062445
0.006101
-0.048288
-0.093114
-0.124634
-0.157230
-0.169367
-0.205291
-0.232568
-0.215164
-0.189429
-0.164170
-0.129248
-0.080100
-0.042545
0.008274
0.041138
0.037427
0.040020
0.060103
0.032141
0.010730
-0.025528
-0.061458
-0.126860
-0.156310
-0.189794
-0.195717
-0.180108
-0.189427
-0.164721
-0.139452
-0.118716
-0.060985
-0.016979
0.003147
0.067066
0.095853
0.105642
0.058154
0.060826
0.067295
0.032975
-0.027684
-0.091590
-0.125209
-0.143696
-0.153052
-0.154470
-0.158521
-0.139801
-0.099272
-0.065739
-0.036800
-0.011719
0.054377
0.095022
0.079866
0.108578
0.112648
0.093734
0.053592
0.011564
-0.054750
-0.097380
-0.145815
-0.175956
-0.181309
-0.196523
-0.151680
-0.122335
-0.105490
-0.056992
0.006796
0.062821
0.094329
0.133831
0.133145
0.122168
0.113684
0.124556
0.104742
0.044666
-0.024329
-0.076652
-0.096002
-0.152918
-0.189691
-0.195495
-0.196209
-0.186042
-0.192851
-0.130037
-0.063032
-0.019933
0.028566
0.077708
0.105145
0.118494
0.075569
0.029149
0.016239
-0.002450
-0.035782
-0.079568
-0.130734
-0.157593
-0.199086
-0.193272
-0.206117
-0.211678
-0.200507
-0.177740
-0.079691
-0.026682
0.015712
0.046109
0.052483
0.030205
0.045086
0.029215
0.000451
-0.061812
-0.107090
-0.124588
-0.142428
-0.199972
-0.231217
-0.267950
-0.244966
-0.193705
-0.179523
-0.153491
-0.104910
-0.053333
-0.003818
0.023646
0.063403
0.052898
0.042048
0.018302
-0.013948
-0.050237
-0.101381
-0.135496
-0.175373
-0.204005
-0.226815
-0.266362
-0.259459
-0.219360
-0.217885
-0.178747
-0.120512
-0.063334
-0.032183
0.016992
0.047131
0.061727
0.060703
0.031177
-0.021277
-0.038324
-0.090449
-0.134571
-0.162299
-0.211993
-0.233860
-0.249569
-0.238324
-0.228999
-0.183223
-0.136733
-0.105218
-0.061851
-0.037246
-0.013220
0.006333
0.071685
0.051580
0.003984
-0.017349
-0.070329
-0.134223
-0.170619
-0.169146
-0.167999
-0.214358
-0.222147
-0.231185
-0.220952
-0.184142
-0.145344
-0.115229
-0.059030
-0.009180
0.052034
0.069183
0.084264
0.100524
0.084125
0.070457
0.069340
0.033642
-0.011818
-0.044060
-0.069765
-0.083736
-0.073985
-0.047577
0.002838
0.067074
0.132483
0.215382
0.301133
0.348316
0.408361
0.455003
0.531274
0.560932
0.565292
0.549668
0.532199
0.540717
0.563260
0.559741
0.561114
0.562024
0.591626
0.615170
0.621112
0.634423
0.650266
0.651136
0.669998
0.724269
0.760864
0.725128
0.661634
0.586564
0.509835
0.443821
0.347753
0.229584
0.133279
0.051449
0.000410
-0.019776
-0.052410
-0.065148
-0.064084
-0.000559
0.020474
0.062935
0.094807
0.121123
0.128585
0.143893
0.184958
0.172125
0.121144
0.071833
0.048290
-0.011903
-0.051996
-0.111480
-0.154280
-0.164904
-0.168786
-0.196451
-0.142241
-0.145736
-0.089270
-0.025673
0.032587
0.058730
0.084150
0.078678
0.058900
0.047473
0.046716
0.044622
-0.012112
-0.062452
-0.079983
-0.131240
-0.143938
-0.166659
-0.167721
-0.147010
-0.146928
-0.114502
-0.070460
-0.034880
-0.012298
0.024361
0.081373
0.120791
0.118474
0.099820
0.079478
0.036948
-0.013497
-0.069394
-0.096646
-0.110940
-0.168768
-0.176287
-0.174747
-0.171626
-0.145528
-0.123877
-0.064174
-0.010047
0.009691
0.050961
0.074670
0.131533
0.121005
0.106575
0.092980
0.082041
0.038509
-0.042095
-0.098132
-0.146182
-0.155059
-0.167879
-0.188711
-0.161669
-0.135380
-0.094999
-0.042896
-0.016946
0.015344
0.072427
0.120029
0.145906
0.149945
0.142535
0.115044
0.063097
0.011904
-0.028398
-0.059314
-0.115925
-0.137693
-0.143558
-0.136779
-0.141623
-0.149362
-0.105035
-0.032290
0.031232
0.072490
0.115495
0.127932
0.150667
0.167732
0.169191
0.149572
0.104447
0.060474
0.012193
-0.004555
-0.035260
-0.090238
-0.096578
-0.105652
-0.081123
-0.050597
-0.041139
-0.011453
0.050089
0.126871
0.141018
0.178976
0.183969
0.191753
0.203320
0.165421
0.185705
0.114254
0.047561
0.018092
-0.022491
-0.031963
-0.078470
-0.095575
-0.097812
-0.068174
-0.028862
0.003626
0.029551
0.097457
0.158818
0.213450
0.199850
0.205468
0.199769
0.192173
0.140503
0.110952
0.059145
0.014876
-0.021248
-0.050439
-0.045365
-0.078282
-0.080074
-0.052789
-0.015703
-0.012155
0.009352
0.052491
0.114938
0.152760
0.176181
0.216262
0.206713
0.184689
0.137746
0.096524
0.068045
0.047079
-0.000593
-0.044385
-0.088944
-0.138244
-0.118100
-0.075396
-0.071088
-0.044795
0.020739
0.058847
0.086673
0.151676
0.181769
0.186322
0.206583
0.164460
0.124003
0.098143
0.026764
-0.006400
-0.073186
-0.087821
-0.119282
-0.131273
-0.128642
-0.106923
-0.079250
-0.027318
-0.006237
0.050419
0.094406
0.150220
0.151992
0.132707
0.117631
0.127443
0.079269
0.007448
-0.021838
-0.057708
-0.094629
-0.128766
-0.150744
-0.170489
-0.175207
-0.151126
-0.084190
-0.054879
-0.044806
-0.028617
0.006723
0.064617
0.068400
0.083011
0.076336
0.070273
0.024660
-0.000139
-0.027846
-0.053548
-0.099881
-0.116126
-0.156226
-0.176237
-0.179775
-0.158746
-0.137884
-0.093958
-0.041895
-0.031253
0.018554
0.063588
0.071376
0.083991
0.076526
0.058578
0.038487
0.016087
-0.050954
-0.110153
-0.160026
-0.172203
-0.179366
-0.180784
-0.223813
-0.244115
-0.139196
-0.081007
-0.050420
-0.014757
0.043319
0.103130
0.089331
0.089293
0.063544
0.051872
0.028114
-0.015453
-0.036413
-0.089576
-0.135556
-0.188401
-0.235096
-0.232393
-0.191710
-0.170325
-0.148793
-0.107374
-0.039239
0.007688
0.056726
0.100879
0.111634
0.127637
0.116638
0.083003
0.050871
0.014157
-0.031628
-0.080782
-0.122720
-0.147678
-0.182122
-0.190943
-0.181513
-0.180623
-0.113204
-0.071720
-0.043315
-0.004740
0.077895
0.088025
0.067674
0.071053
0.094904
0.100084
0.058094
-0.005921
-0.034917
-0.035111
-0.076276
-0.147630
-0.165008
-0.215462
-0.215897
-0.176884
-0.171407
-0.106377
-0.064585
-0.001388
0.053522
0.109375
0.141319
0.126729
0.143325
0.106691
0.049429
0.022028
-0.037039
-0.092831
-0.119892
-0.145705
-0.178213
-0.189509
-0.168456
-0.126991
-0.114620
-0.111900
-0.048689
0.002966
0.030375
0.057455
0.077168
0.107974
0.131136
0.099019
0.054661
0.021734
-0.027003
-0.062094
-0.125534
-0.174645
-0.189360
-0.187464
-0.180161
-0.149373
-0.113322
-0.069357
-0.044944
0.002840
0.032406
0.055832
0.093943
0.092409
0.072194
0.079070
0.053067
0.015946
-0.034540
-0.078338
-0.126800
-0.142506
-0.144916
-0.166292
-0.205420
-0.178690
-0.131628
-0.063683
-0.077259
-0.059358
0.020267
0.069202
0.101235
0.078444
0.059835
0.054873
0.039528
-0.014156
-0.010586
-0.068984
-0.149323
-0.166933
-0.200723
-0.225852
-0.197319
-0.171030
-0.137969
-0.106922
-0.084730
-0.053499
0.004923
0.042736
0.050870
0.059991
0.075796
0.060242
0.023551
-0.033756
-0.081376
-0.114812
-0.124669
-0.155261
-0.170497
-0.169284
-0.182026
-0.186030
-0.158650
-0.106676
-0.081492
-0.023969
0.016053
0.060171
0.096169
0.117667
0.111824
0.076178
0.019159
-0.023982
-0.077488
-0.080550
-0.123079
-0.171985
-0.191085
-0.181447
-0.189615
-0.209739
-0.138833
-0.098685
-0.072388
-0.043623
-0.000011
0.021574
0.055195
0.082243
0.075408
0.064234
0.015490
-0.018716
-0.047073
-0.060969
-0.122195
-0.173602
-0.219160
-0.251102
-0.240991
-0.138854
-0.113186
-0.098097
-0.060451
-0.001347
0.056665
0.074386
0.084641
0.078640
0.093558
0.069517
0.034337
0.023478
0.002863
-0.031749
-0.070375
-0.100835
-0.137315
-0.177171
-0.186003
-0.175767
-0.130560
-0.090768
-0.032105
0.025804
0.078143
0.089535
0.111122
0.132745
0.129292
0.107054
0.040993
0.000459
-0.049938
-0.088703
-0.141223
-0.178338
-0.193511
-0.180418
-0.157656
-0.129032
-0.092504
-0.046730
0.006779
0.047186
0.084745
0.109879
0.139526
0.152606
0.149908
0.147195
0.107568
0.045884
-0.006180
-0.050972
-0.107539
-0.126723
-0.156483
-0.178684
-0.189213
-0.169591
-0.129813
-0.102723
-0.026480
0.018861
0.049603
0.072296
0.084572
0.099009
0.102210
0.069320
0.040090
-0.001963
-0.060433
-0.094437
-0.150089
-0.209738
-0.230307
-0.230681
-0.195122
-0.180060
-0.139434
-0.103438
-0.034648
-0.019963
-0.003811
0.028203
0.099759
0.100884
0.082963
0.053828
0.009176
-0.038793
-0.095575
-0.131094
-0.183615
-0.224000
-0.243298
-0.262191
-0.238709
-0.184220
-0.148059
-0.129101
-0.081898
-0.028385
0.006621
0.042566
0.063165
0.069963
0.061452
0.032150
-0.012764
-0.035884
-0.075260
-0.126802
-0.174858
-0.196391
-0.221851
-0.237971
-0.232657
-0.212594
-0.190559
-0.127054
-0.088106
-0.039691
0.000984
0.026060
0.059781
0.071607
0.056984
0.042535
0.018798
-0.014205
-0.083022
-0.145312
-0.168597
-0.209852
-0.251080
-0.239318
-0.224179
-0.171921
-0.168402
-0.134271
-0.075652
-0.039944
-0.023618
0.021859
0.041481
0.065654
0.060243
0.022857
-0.021679
-0.086299
-0.132136
-0.134870
-0.160539
-0.193109
-0.215063
-0.234294
-0.261004
-0.246826
-0.166997
-0.139406
-0.086884
-0.068194
0.006516
0.045577
0.067095
0.067999
0.080545
0.097190
0.073315
0.055163
0.038258
-0.013980
-0.029175
-0.083459
-0.073319
-0.099564
-0.105242
-0.062018
0.019601
0.111534
0.226486
0.305614
0.378106
0.416487
0.437524
0.482319
0.529985
0.567349
0.551819
0.553202
0.530633
0.533999
0.511422
0.532000
0.529773
0.575987
0.583701
0.616624
0.649670
0.697384
0.699098
0.714706
0.731621
0.738004
0.713552
0.676193
0.598981
0.522255
0.459849
0.370534
0.255907
0.131071
0.065391
0.001772
-0.035026
-0.067056
-0.061407
-0.019818
-0.013071
0.005556
0.047740
0.120144
0.142384
0.180403
0.181852
0.165658
0.129448
0.122819
0.114201
0.053073
0.002824
-0.022395
-0.059874
-0.103438
-0.166714
-0.200068
-0.183404
-0.172685
-0.115130
-0.063144
-0.043069
0.015423
0.069082
0.097992
0.122773
0.124111
0.109475
0.080968
0.046223
0.008031
-0.011762
-0.055597
-0.091629
-0.125472
-0.173499
-0.187377
-0.158545
-0.135758
-0.138286
-0.132193
-0.073679
-0.001836
0.034193
0.045816
0.101857
0.126086
0.098629
0.072409
0.042371
0.008236
-0.047422
-0.066056
-0.104632
-0.154587
-0.177998
-0.183006
-0.181140
-0.150549
-0.104354
-0.089390
-0.034136
0.031247
0.094198
0.106918
0.119154
0.106763
0.127803
0.105757
0.082953
0.044659
0.007091
-0.057468
-0.122373
-0.138670
-0.171517
-0.178443
-0.153719
-0.132009
-0.105208
-0.075023
-0.035441
0.015833
0.064585
0.120216
0.133422
0.133904
0.135568
0.123220
0.088057
0.041784
-0.011645
-0.052663
-0.074629
-0.101658
-0.119459
-0.134346
-0.138596
-0.102948
-0.066439
-0.032628
0.030853
0.083463
0.111281
0.149005
0.174648
0.203945
0.178835
0.136337
0.092888
0.053203
0.017130
-0.020713
-0.059961
-0.093081
-0.095476
-0.068993
-0.064438
-0.073260
-0.055518
0.010549
0.064745
0.118443
0.136904
0.177073
0.220625
0.223763
0.224297
0.199970
0.146566
0.101611
0.074410
0.058224
0.031743
-0.043382
-0.097962
-0.073179
-0.042242
-0.078532
-0.044763
0.024058
0.071241
0.127239
0.167157
0.187927
0.206569
0.215445
0.195621
0.194346
0.158884
0.130524
0.079873
0.027028
-0.012157
-0.033102
-0.073783
-0.075339
-0.052115
-0.046437
-0.029188
0.011391
0.058789
0.113852
0.160271
0.182026
0.216229
0.223494
0.191418
0.180173
0.163217
0.126925
0.077929
0.011278
-0.022652
-0.055937
-0.078497
-0.096280
-0.113332
-0.108785
-0.064001
0.018478
0.041596
0.089737
0.152863
0.168743
0.187281
0.195967
0.180025
0.165563
0.129886
0.079675
0.034841
-0.010584
-0.041792
-0.088853
-0.127339
-0.138065
-0.127009
-0.098955
-0.065000
-0.048255
-0.027073
0.021729
0.090472
0.150681
0.211456
0.174346
0.138256
0.157476
0.104771
0.055843
-0.012990
-0.044918
-0.102854
-0.130538
-0.171988
-0.170066
-0.169980
-0.132663
-0.118227
-0.080946
-0.009251
0.001793
0.065683
0.086716
0.100362
0.106179
0.119487
0.115299
0.089287
0.037474
-0.011636
-0.053600
-0.115872
-0.157312
-0.170432
-0.171549
-0.166594
-0.152641
-0.117250
-0.078824
-0.033642
0.015002
0.055886
0.079425
0.090326
0.097240
0.094852
0.080107
0.051664
0.004776
-0.041069
-0.087983
-0.119028
-0.158501
-0.187281
-0.195859
-0.199280
-0.180823
-0.145424
-0.108582
-0.056110
-0.004890
0.038987
0.068740
0.092023
0.095022
0.087251
0.075102
0.037768
-0.005253
-0.035593
-0.087500
-0.164761
-0.188174
-0.218446
-0.246012
-0.233758
-0.191568
-0.131230
-0.098527
-0.066181
-0.022819
0.030744
0.068682
0.112234
0.147322
0.123410
0.063811
0.071852
0.031496
-0.016619
-0.064585
-0.108095
-0.150967
-0.193766
-0.174970
-0.152037
-0.143878
-0.139727
-0.085495
-0.025640
0.014363
0.040397
0.081875
0.102957
0.114201
0.118817
0.100672
0.055313
-0.015227
-0.014981
-0.063690
-0.109206
-0.145948
-0.174412
-0.182394
-0.169010
-0.164486
-0.148983
-0.106004
-0.048477
0.021913
0.059130
0.071131
0.086757
0.119408
0.113062
0.097727
0.054403
0.018998
-0.031910
-0.098305
-0.153696
-0.115134
-0.125439
-0.166926
-0.148607
-0.133600
-0.121529
-0.097803
-0.043145
-0.009398
0.033501
0.089508
0.103803
0.128369
0.108292
0.048826
0.005879
-0.016313
-0.035011
-0.058252
-0.076721
-0.132326
-0.206200
-0.199138
-0.162936
-0.147376
-0.136055
-0.115937
-0.085407
-0.034566
0.001848
0.054392
0.103734
0.118615
0.111465
0.083693
0.046779
-0.013072
-0.029857
-0.049945
-0.087132
-0.140235
-0.163023
-0.168701
-0.158500
-0.152855
-0.139535
-0.090075
-0.065501
-0.030586
0.007823
0.044355
0.090660
0.100707
0.092863
0.080455
0.056122
-0.005624
-0.049067
-0.075590
-0.136861
-0.171286
-0.193368
-0.200014
-0.193376
-0.182243
-0.153387
-0.115415
-0.071828
-0.023198
0.025502
0.056035
0.074348
0.082191
0.077376
0.058207
0.039178
-0.029489
-0.031167
-0.084971
-0.140121
-0.194100
-0.200295
-0.203752
-0.210851
-0.186558
-0.146045
-0.128970
-0.083332
-0.025526
0.018348
0.060615
0.071502
0.082237
0.086221
0.067822
0.024342
-0.005138
-0.024009
-0.101314
-0.177855
-0.246460
-0.229986
-0.213284
-0.195530
-0.188573
-0.149377
-0.119895
-0.072894
-0.030274
0.019099
0.047993
0.080298
0.091466
0.076400
0.046467
0.028941
0.005006
-0.004564
-0.081766
-0.121234
-0.173041
-0.217497
-0.239855
-0.201003
-0.176370
-0.156602
-0.111747
-0.067400
-0.045613
-0.005545
0.075633
0.082409
0.084380
0.090764
0.063801
0.027579
0.018583
-0.035664
-0.099038
-0.162587
-0.181626
-0.200958
-0.219689
-0.164555
-0.137782
-0.105247
-0.083468
-0.052621
-0.021080
0.037566
0.060665
0.069231
0.096611
0.109634
0.084870
0.047954
0.018673
-0.030110
-0.082196
-0.135765
-0.162475
-0.191244
-0.198264
-0.186233
-0.169040
-0.124711
-0.083495
-0.041045
0.006129
0.069522
0.082656
0.130094
0.146388
0.106624
0.085976
0.027210
0.027384
-0.001419
-0.068100
-0.111864
-0.141941
-0.161813
-0.149381
-0.123281
-0.114979
-0.088897
-0.063520
-0.026760
0.026993
0.067770
0.090409
0.111854
0.124413
0.110590
0.093222
0.054049
0.003061
-0.048033
-0.072959
-0.108781
-0.165467
-0.191819
-0.188852
-0.185333
-0.168128
-0.166943
-0.153264
-0.100061
-0.006184
0.055194
0.070697
0.073468
0.105686
0.091493
0.067923
0.048364
0.019179
-0.043905
-0.111789
-0.150339
-0.157785
-0.203499
-0.214499
-0.217412
-0.213764
-0.184376
-0.119324
-0.065034
-0.038192
-0.009079
0.012383
0.039493
0.044580
0.016661
0.031368
0.002104
-0.044307
-0.085716
-0.123204
-0.182846
-0.220886
-0.246850
-0.234856
-0.219205
-0.209732
-0.196519
-0.144368
-0.101350
-0.056411
-0.031507
0.010609
0.043649
0.048240
0.040410
0.012681
-0.023789
-0.021580
-0.081006
-0.144668
-0.196406
-0.183141
-0.192083
-0.223961
-0.197589
-0.201287
-0.172060
-0.117208
-0.115700
-0.098761
-0.041334
0.042722
0.064417
0.087333
0.058742
0.026717
-0.006338
-0.033481
-0.067990
-0.135869
-0.181038
-0.229840
-0.258241
-0.252009
-0.234919
-0.210127
-0.188362
-0.170918
-0.134466
-0.069367
0.010999
0.049893
0.041575
0.051302
0.032391
0.010958
-0.025508
-0.067363
-0.094208
-0.146098
-0.186576
-0.193938
-0.206626
-0.204654
-0.179441
-0.126123
-0.117943
-0.086306
-0.029825
0.040559
0.092794
0.128114
0.171991
0.204401
0.189311
0.186822
0.158882
0.149083
0.115969
0.096870
0.097881
0.104493
0.113750
0.138367
0.147337
0.174392
0.278448
0.361662
0.411095
0.486243
0.562106
0.632995
0.699843
0.722467
0.748721
0.772800
0.722608
0.712211
0.681217
0.636152
0.611592
0.554153
0.487131
0.447681
0.377213
0.337194
0.305386
0.312150
0.290635
0.296155
0.313723
0.278746
0.254606
0.255893
0.228120
0.176408
0.096705
0.043293
0.000171
-0.045522
-0.087598
-0.138170
-0.158961
-0.149996
-0.135454
-0.120256
-0.093777
-0.044106
-0.010852
0.009177
0.032591
0.089911
0.140300
0.121992
0.101703
0.069779
0.056398
0.032294
-0.001330
-0.070220
-0.131340
-0.173749
-0.197472
-0.166410
-0.137454
-0.100301
-0.094190
-0.076703
-0.037931
0.005916
0.032134
0.069960
0.091424
0.114906
0.112659
0.087623
0.036167
-0.014647
-0.028737
-0.090694
-0.120167
-0.160498
-0.188952
-0.186867
-0.180912
-0.177328
-0.133281
-0.079409
-0.051014
-0.010132
0.040250
0.070812
0.099954
0.116535
0.094237
0.048496
0.027287
-0.007118
-0.046064
-0.098627
-0.126192
-0.145967
-0.151412
-0.168878
-0.182081
-0.177725
-0.114477
-0.066876
-0.030978
0.012656
0.058093
0.098803
0.112536
0.118489
0.123657
0.099484
0.059760
0.022848
-0.017602
-0.075195
-0.106798
-0.126422
-0.162033
-0.214385
-0.193533
-0.145379
-0.136084
-0.073764
0.013590
0.092244
0.070092
0.069191
0.119191
0.169937
0.166758
0.111540
0.064827
0.044883
0.023174
-0.012778
-0.053003
-0.092824
-0.115289
-0.120488
-0.110739
-0.129617
-0.094850
-0.025319
0.021955
0.059323
0.107747
0.159762
0.203167
0.195039
0.172132
0.135616
0.124439
0.090598
0.038198
-0.011878
-0.045306
-0.062351
-0.093846
-0.155089
-0.124172
-0.081459
-0.026206
0.014097
0.050084
0.106848
0.161139
0.176635
0.168028
0.168310
0.182443
0.182231
0.183593
0.127025
0.054239
0.026111
0.006097
-0.036907
-0.086710
-0.095633
-0.063673
-0.033007
-0.020733
-0.010309
0.036375
0.101148
0.129700
0.183299
0.215616
0.215251
0.209749
0.204544
0.160150
0.095923
0.053828
0.022561
-0.006700
-0.057481
-0.104684
-0.114111
-0.078390
-0.071479
-0.070390
-0.041331
0.021768
0.070955
0.138940
0.219244
0.216024
0.213741
0.215454
0.166567
0.133197
0.094598
0.038206
-0.001621
-0.037609
-0.091301
-0.105932
-0.123340
-0.131971
-0.114635
-0.060458
0.001236
0.041310
0.061365
0.077489
0.118745
0.135297
0.145162
0.140069
0.113219
0.082429
0.055334
0.012200
-0.039365
-0.066326
-0.097669
-0.143963
-0.151361
-0.163300
-0.103243
-0.100894
-0.062720
-0.007007
0.037797
0.061435
0.094660
0.116225
0.138644
0.148019
0.131151
0.068826
-0.004334
-0.025092
-0.057380
-0.119190
-0.183329
-0.172651
-0.166029
-0.170323
-0.147143
-0.116635
-0.081696
-0.045536
-0.021257
0.023328
0.083378
0.100826
0.131952
0.116370
0.089586
0.048489
0.005257
-0.070274
-0.131553
-0.149233
-0.171757
-0.214764
-0.232587
-0.234467
-0.191579
-0.159401
-0.128347
-0.081317
-0.030416
0.013619
0.055801
0.068906
0.060479
0.092218
0.103371
0.045116
-0.019774
-0.045094
-0.077718
-0.128949
-0.181086
-0.220702
-0.262180
-0.245848
-0.166193
-0.129495
-0.110649
-0.067099
-0.025543
0.022998
0.086863
0.100105
0.092609
0.085403
0.069131
0.035644
0.003533
-0.051484
-0.099275
-0.137773
-0.178096
-0.195912
-0.216548
-0.220204
-0.197256
-0.144344
-0.109983
-0.094144
-0.048393
-0.010109
0.069824
0.109607
0.138721
0.114227
0.079012
0.031868
0.020182
-0.003033
-0.049519
-0.113585
-0.150768
-0.164907
-0.180946
-0.193064
-0.172945
-0.139532
-0.108656
-0.065225
-0.024206
0.017961
0.083900
0.112438
0.120652
0.113331
0.083414
0.042670
0.000174
-0.049284
-0.086211
-0.124386
-0.164591
-0.186608
-0.195639
-0.180501
-0.187982
-0.158201
-0.101708
-0.058118
-0.026392
0.018413
0.059758
0.077537
0.079478
0.090064
0.052897
0.041847
0.007750
-0.033279
-0.085157
-0.130087
-0.188324
-0.208312
-0.192163
-0.177527
-0.159374
-0.123728
-0.084273
-0.041213
0.004492
0.049509
0.101403
0.095268
0.108469
0.080589
0.051501
0.034314
-0.015504
-0.043519
-0.100115
-0.123312
-0.152283
-0.205002
-0.231051
-0.218655
-0.191190
-0.178036
-0.123283
-0.027742
0.000647
0.014245
0.041576
0.067389
0.049852
0.057291
0.048971
0.028720
-0.030107
-0.068225
-0.081301
-0.119923
-0.175744
-0.209669
-0.194660
-0.183544
-0.192213
-0.144478
-0.101736
-0.042415
-0.016473
0.006493
0.056039
0.075592
0.078138
0.084767
0.074431
0.034267
0.023453
-0.022638
-0.086524
-0.196077
-0.271317
-0.236979
-0.226885
-0.207754
-0.180321
-0.164815
-0.149943
-0.079935
-0.024170
0.022039
0.057346
0.068537
0.078695
0.094267
0.072823
0.026124
-0.018976
-0.065144
-0.122811
-0.160357
-0.180555
-0.200580
-0.224700
-0.236067
-0.225933
-0.189462
-0.144218
-0.084238
-0.031932
0.018601
0.042025
0.053832
0.068812
0.051280
0.020349
0.008039
-0.001380
-0.056052
-0.133692
-0.171103
-0.181880
-0.217037
-0.243851
-0.246253
-0.216261
-0.158631
-0.127412
-0.075858
-0.011579
0.041120
0.062152
0.055425
0.041483
0.048754
0.039345
-0.012688
-0.029028
-0.061855
-0.099167
-0.163889
-0.193473
-0.221854
-0.228947
-0.210542
-0.222704
-0.194944
-0.146726
-0.069608
-0.009270
-0.001494
0.043201
0.043728
0.084832
0.113951
0.079569
0.051439
-0.000405
-0.051417
-0.102837
-0.144173
-0.184423
-0.184361
-0.162350
-0.152368
-0.157560
-0.139112
-0.119504
-0.074789
-0.030679
0.019135
0.061925
0.087478
0.092362
0.085835
0.093395
0.049431
0.003597
-0.047836
-0.102203
-0.158549
-0.192168
-0.206417
-0.195867
-0.189226
-0.176518
-0.128864
-0.073731
0.025634
0.070884
0.081304
0.104178
0.121743
0.145939
0.136059
0.122584
0.096730
0.036331
-0.026388
-0.087345
-0.118508
-0.135229
-0.155582
-0.183893
-0.204229
-0.196061
-0.155642
-0.108563
-0.068516
-0.017881
0.023759
0.070445
0.080843
0.087745
0.085965
0.070690
0.038852
0.018480
-0.048138
-0.143443
-0.247825
-0.233351
-0.206508
-0.219925
-0.203820
-0.203093
-0.197417
-0.147630
-0.079174
-0.045645
0.000371
0.047841
0.046299
0.058557
0.064145
0.039867
-0.005656
-0.036716
-0.101428
-0.197721
-0.222213
-0.226531
-0.251905
-0.239129
-0.256481
-0.246799
-0.215882
-0.161485
-0.094957
-0.059894
-0.014264
0.009268
0.026320
0.055808
0.034421
-0.001487
-0.048990
-0.070563
-0.109316
-0.159808
-0.197425
-0.234400
-0.261973
-0.261394
-0.235237
-0.197892
-0.172905
-0.159719
-0.128864
-0.063127
-0.017763
0.029071
0.040448
0.049965
0.047156
0.016257
-0.044091
-0.071786
-0.102716
-0.142831
-0.217695
-0.242735
-0.267560
-0.273079
-0.258612
-0.240717
-0.197428
-0.155252
-0.111603
-0.070643
-0.033633
0.010427
0.042913
0.049146
0.045894
0.036968
-0.016516
-0.053416
-0.079943
-0.143607
-0.197471
-0.238074
-0.247729
-0.263285
-0.262389
-0.244800
-0.192521
-0.174187
-0.134609
-0.079006
-0.040998
0.028202
0.082607
0.103989
0.105410
0.090458
0.056196
0.011437
-0.029564
-0.052173
-0.081180
-0.092180
-0.103022
-0.087805
-0.075877
-0.039334
0.015439
0.098954
0.153421
0.217562
0.316772
0.386655
0.432593
0.479327
0.512131
0.515432
0.496889
0.489194
0.477201
0.468869
0.471400
0.494908
0.502741
0.502436
0.542739
0.571241
0.568295
0.617791
0.658487
0.676287
0.703988
0.704903
0.692710
0.632048
0.546517
0.462914
0.378048
0.298301
0.242094
0.148346
0.055690
-0.033205
-0.084193
-0.109521
-0.111125
-0.096072
-0.085194
-0.051384
0.015644
0.042747
0.056478
0.089255
0.111187
0.085176
0.111771
0.095490
0.067010
0.040016
-0.005236
-0.069750
-0.126561
-0.143294
-0.154249
-0.166046
-0.158063
-0.154400
-0.136031
-0.116919
-0.077162
-0.026362
0.039460
0.071625
0.055064
0.099273
0.110414
0.082648
0.018456
-0.025909
-0.079786
-0.115400
-0.166143
-0.175268
-0.182690
-0.202206
-0.201891
-0.201049
-0.154487
-0.103372
-0.068188
-0.022454
0.007316
0.093161
0.108909
0.102472
0.084430
0.076570
0.010772
-0.026514
-0.052566
-0.113888
-0.193693
-0.205732
-0.201351
-0.205000
-0.188654
-0.168200
-0.144041
-0.077535
-0.036914
-0.012455
0.008393
0.043667
0.077320
0.081336
0.064870
0.071203
0.037408
-0.003590
-0.055968
-0.083466
-0.123925
-0.157358
-0.193853
-0.213319
-0.202351
-0.194012
-0.189708
-0.134454
-0.049762
0.031861
0.063387
0.097979
0.107619
0.122267
0.125680
0.098490
0.065603
0.006118
-0.030719
-0.076886
-0.118841
-0.153100
-0.172247
-0.174903
-0.169373
-0.141923
-0.123344
-0.068107
-0.012277
0.027046
0.084388
0.113005
0.147566
0.155727
0.130311
0.087912
0.099046
0.062782
0.014018
-0.043503
-0.092196
-0.120749
-0.125912
-0.118441
-0.114753
-0.107831
-0.084382
-0.056810
-0.004072
0.045821
0.099606
0.150255
0.161983
0.163737
0.173577
0.159486
0.125141
0.065579
0.022313
0.004030
-0.027445
-0.049697
-0.088221
-0.134006
-0.119053
-0.086346
-0.041479
0.013047
0.098612
0.090786
0.110040
0.150778
0.167452
0.186709
0.208706
0.199004
0.126145
0.073498
0.028993
0.002957
-0.034955
-0.075831
-0.101855
-0.121714
-0.109248
-0.066746
-0.068666
-0.032488
0.041793
0.117016
0.137475
0.197226
0.211474
0.193562
0.168997
0.166863
0.118077
0.063627
0.020410
-0.013036
-0.067966
-0.089996
-0.114383
-0.142124
-0.146486
-0.135296
-0.087169
-0.042372
0.010755
0.054152
0.097652
0.129208
0.130828
0.166418
0.149633
0.121906
0.113314
0.055590
-0.028493
-0.090721
-0.116588
-0.141516
-0.159130
-0.155041
-0.145084
-0.123321
-0.107294
-0.054374
0.004126
0.017461
0.035749
0.046297
0.079302
0.145831
0.135519
0.101563
0.065677
0.003955
-0.048026
-0.075204
-0.106266
-0.133439
-0.178038
-0.196604
-0.187679
-0.179246
-0.158632
-0.119392
-0.056463
-0.006514
0.021680
0.044256
0.071809
0.063035
0.070164
0.051774
0.040524
-0.006092
-0.060182
-0.125980
-0.167818
-0.189681
-0.208288
-0.197598
-0.203339
-0.186382
-0.145197
-0.103065
-0.058853
-0.056845
-0.005755
0.007014
0.042664
0.092682
0.091643
0.037953
-0.003808
-0.017720
-0.058851
-0.106068
-0.137233
-0.186696
-0.224195
-0.234382
-0.265228
-0.264048
-0.175067
-0.105411
-0.099507
-0.054844
-0.014853
0.050885
0.067819
0.071517
0.057537
0.042810
0.002820
-0.022794
-0.052353
-0.078266
-0.139181
-0.204535
-0.227840
-0.244763
-0.201237
-0.178133
-0.156206
-0.126376
-0.090614
-0.057018
0.001740
0.063787
0.115308
0.108295
0.098136
0.069156
0.031310
-0.025119
-0.077873
-0.109879
-0.156408
-0.182026
-0.210015
-0.225035
-0.206318
-0.191621
-0.169506
-0.125355
-0.089638
-0.050195
0.000806
0.062431
0.103414
0.114234
0.097425
0.107421
0.059817
-0.008080
-0.084776
-0.115100
-0.154371
-0.170672
-0.211475
-0.236494
-0.205571
-0.174326
-0.157801
-0.098898
-0.060024
-0.041476
-0.003118
0.075916
0.096157
0.092587
0.099859
0.062954
0.025447
-0.029549
-0.068643
-0.088140
-0.160142
-0.202798
-0.201894
-0.200498
-0.201421
-0.195149
-0.171655
-0.128321
-0.076531
-0.023045
0.044353
0.049468
0.064192
0.091493
0.096567
0.053073
0.013557
0.012791
-0.019266
-0.088476
-0.153682
-0.202380
-0.226502
-0.246983
-0.240767
-0.211758
-0.204677
-0.155331
-0.105116
-0.048499
0.000747
0.054941
0.070663
0.090789
0.075022
0.046293
0.015822
-0.043534
-0.056412
-0.098396
-0.138785
-0.174900
-0.207026
-0.238215
-0.217920
-0.199404
-0.155443
-0.105256
-0.047365
-0.001314
0.038694
0.056059
0.071409
0.084542
0.085662
0.063996
0.043270
0.002694
-0.050068
-0.110426
-0.200665
-0.205641
-0.225791
-0.249251
-0.231263
-0.191697
-0.174396
-0.144977
-0.084395
-0.030589
-0.007805
0.013951
0.033505
0.071087
0.051259
0.005843
0.005067
-0.030916
-0.075880
-0.114610
-0.158704
-0.208835
-0.232842
-0.244746
-0.240604
-0.220250
-0.171666
-0.120832
-0.074752
-0.034980
0.008068
0.082512
0.124079
0.126152
0.056903
0.022896
0.020431
-0.038903
-0.096305
-0.106242
-0.174512
-0.202729
-0.232134
-0.248038
-0.258421
-0.213322
-0.171756
-0.116880
-0.061634
-0.056457
-0.015948
0.020739
0.044962
0.067893
0.063859
0.048758
0.020963
-0.021851
-0.076131
-0.133510
-0.191971
-0.222239
-0.243479
-0.211658
-0.213560
-0.201971
-0.185185
-0.127434
-0.072057
-0.028985
-0.000391
0.036047
0.091324
0.097669
0.095375
0.065263
0.020515
-0.027886
-0.060282
-0.068917
-0.110773
-0.171838
-0.205473
-0.197723
-0.173913
-0.163851
-0.154873
-0.120970
-0.060480
-0.025205
0.026961
0.059388
0.085006
0.100115
0.091211
0.060813
0.025653
-0.026979
-0.080991
-0.113216
-0.154963
-0.164325
-0.198111
-0.222717
-0.204410
-0.158991
-0.118847
-0.096040
-0.064146
-0.054967
0.024892
0.088968
0.143507
0.121111
0.119712
0.102936
0.085492
0.040409
-0.015167
-0.121053
-0.110825
-0.101370
-0.144540
-0.194216
-0.200036
-0.166676
-0.122865
-0.089194
-0.070232
-0.021731
0.021106
0.045820
0.054066
0.057897
0.070705
0.049296
0.012553
-0.009196
-0.060133
-0.130842
-0.175968
-0.208380
-0.241511
-0.256723
-0.247369
-0.217049
-0.188917
-0.126141
-0.060445
-0.023641
0.013927
0.028620
0.038056
0.039018
0.028215
0.007895
0.021946
-0.023995
-0.091845
-0.146561
-0.200694
-0.236796
-0.261127
-0.274855
-0.262778
-0.246127
-0.226691
-0.191006
-0.129234
-0.074695
-0.037029
0.005408
0.028016
0.038159
0.044598
-0.000688
-0.011588
-0.064425
-0.104649
-0.137343
-0.202251
-0.246946
-0.273808
-0.276309
-0.277426
-0.252764
-0.216202
-0.153070
-0.103054
-0.078380
-0.031017
-0.014796
0.005455
0.025209
0.019355
-0.011678
-0.024629
-0.073361
-0.129482
-0.158604
-0.164856
-0.210362
-0.252572
-0.278847
-0.251140
-0.249777
-0.206677
-0.159899
-0.112021
-0.070134
-0.027203
0.015192
0.037349
0.049027
0.040500
0.004280
-0.032258
-0.098467
-0.119420
-0.163602
-0.203913
-0.240417
-0.285121
-0.309085
-0.305345
-0.272109
-0.250122
-0.181876
-0.082972
0.014889
0.042902
0.073846
0.067314
0.107233
0.120431
0.108739
0.083632
0.052627
0.028048
-0.031805
-0.083396
-0.084464
-0.103287
-0.068801
-0.031608
0.002367
0.062453
0.118679
0.188737
0.273039
0.353676
0.436811
0.513744
0.546880
0.508443
0.532788
0.538921
0.504848
0.486265
0.480654
0.512823
0.501256
0.517557
0.551909
0.542036
0.561432
0.601398
0.612977
0.641760
0.694450
0.703763
0.722642
0.700337
0.631376
0.511597
0.445429
0.393846
0.282766
0.172605
0.099149
0.020386
-0.046841
-0.112665
-0.128411
-0.104802
-0.090865
-0.074324
-0.043874
0.003067
0.050032
0.100194
0.135395
0.136196
0.138267
0.101494
0.075532
0.051140
0.005132
-0.025029
-0.072097
-0.103833
-0.138686
-0.156255
-0.178353
-0.179913
-0.153485
-0.131402
-0.107813
-0.084229
-0.034495
0.041157
0.084809
0.084380
0.099605
0.124659
0.120317
0.064317
-0.006405
-0.068570
-0.118317
-0.166451
-0.170724
-0.195024
-0.198191
-0.199019
-0.174915
-0.137735
-0.092831
-0.063294
-0.021549
0.042593
0.080195
0.108180
0.100987
0.084202
0.061020
0.030012
-0.023974
-0.072872
-0.123996
-0.171771
-0.207420
-0.223880
-0.240501
-0.211161
-0.176025
-0.120730
-0.083541
-0.048239
-0.003526
0.042708
0.070195
0.087517
0.079488
0.107942
0.067629
0.062135
0.022802
-0.026591
-0.064210
-0.091252
-0.163686
-0.191476
-0.200820
-0.186936
-0.181082
-0.117574
-0.075560
-0.037192
0.010773
0.056235
0.057404
0.087638
0.111658
0.107301
0.093095
0.092262
0.071038
-0.001267
-0.047710
-0.116204
-0.131362
-0.139887
-0.152335
-0.138298
-0.130359
-0.109973
-0.068788
-0.011873
0.011114
0.057198
0.110010
0.153119
0.172579
0.169306
0.167821
0.139385
0.073060
0.007796
-0.041420
-0.089077
-0.125222
-0.136960
-0.125585
-0.096155
-0.062115
-0.039394
-0.002949
0.059551
0.094736
0.108243
0.141356
0.168843
0.194471
0.208050
0.173759
0.138837
0.112798
0.070118
0.022990
-0.027674
-0.068968
-0.085649
-0.089667
-0.078368
-0.065826
-0.030310
0.006524
0.047043
0.121687
0.168896
0.165976
0.202317
0.207801
0.192059
0.202394
0.142190
0.095518
0.040533
-0.023271
-0.038811
-0.046319
-0.071625
-0.103644
-0.112951
-0.094688
-0.047488
0.007354
0.056073
0.097633
0.134825
0.184654
0.214475
0.194382
0.179406
0.170769
0.137731
0.077375
0.026622
-0.016891
-0.049652
-0.081864
-0.126101
-0.137671
-0.087850
-0.059995
-0.046175
-0.031466
0.026190
0.064778
0.103517
0.152388
0.163664
0.143828
0.150504
0.161408
0.123861
0.083173
0.022430
-0.020979
-0.057785
-0.100117
-0.165174
-0.196809
-0.169568
-0.132193
-0.107156
-0.056702
-0.021722
0.027387
0.058336
0.101482
0.123916
0.131846
0.126774
0.099520
0.073265
0.030869
-0.023869
-0.079421
-0.119798
-0.157363
-0.168413
-0.187533
-0.192707
-0.183966
-0.147948
-0.117091
-0.057971
0.021333
0.040458
0.061745
0.104510
0.146883
0.121164
0.066871
0.033800
-0.009013
-0.066650
-0.117455
-0.154638
-0.203669
-0.230653
-0.231099
-0.210713
-0.204465
-0.152743
-0.120742
-0.098808
-0.035808
0.033630
0.070754
0.087820
0.098917
0.097919
0.065158
0.039111
-0.010221
-0.061846
-0.114426
-0.165866
-0.201488
-0.232922
-0.231680
-0.208831
-0.200859
-0.155696
-0.136635
-0.073470
-0.024797
0.009022
0.031932
0.070298
0.103033
0.074219
0.059164
0.037484
-0.021683
-0.039843
-0.093424
-0.154339
-0.171553
-0.209522
-0.229107
-0.212027
-0.196508
-0.151807
-0.104628
-0.055805
-0.011481
0.013999
0.046899
0.084214
0.108170
0.108355
0.080447
0.048775
-0.005563
-0.057019
-0.088684
-0.146446
-0.180981
-0.212691
-0.201615
-0.191140
-0.200689
-0.157699
-0.090300
-0.034340
-0.001329
0.037590
0.085530
0.093333
0.103773
0.094843
0.072868
0.031864
-0.015425
-0.058013
-0.080397
-0.109444
-0.153822
-0.186291
-0.211933
-0.184014
-0.159709
-0.128372
-0.090767
-0.070427
-0.002754
0.032600
0.056952
0.100699
0.119868
0.105799
0.070335
0.022552
-0.007656
-0.043541
-0.107447
-0.136324
-0.135574
-0.168021
-0.193138
-0.208009
-0.189685
-0.154539
-0.098526
-0.048658
-0.010790
0.029667
0.071222
0.108568
0.122351
0.111007
0.103646
0.057188
-0.009557
-0.057551
-0.079844
-0.136514
-0.164014
-0.197928
-0.209800
-0.188910
-0.154535
-0.127164
-0.099847
-0.056984
-0.004830
0.018055
0.074089
0.117496
0.109664
0.089774
0.072259
0.030813
-0.007037
-0.035345
-0.090382
-0.137217
-0.171935
-0.193468
-0.207843
-0.212074
-0.183233
-0.141673
-0.087327
-0.032197
0.013553
0.052460
0.060073
0.083136
0.088298
0.027768
0.046146
0.013508
-0.032871
-0.078088
-0.117772
-0.126926
-0.161723
-0.212290
-0.212756
-0.217114
-0.201962
-0.167360
-0.094385
-0.021283
0.002547
-0.008098
0.029684
0.059960
0.092131
0.077772
0.052554
0.018842
-0.012887
-0.025736
-0.096409
-0.155030
-0.190450
-0.203605
-0.217124
-0.196644
-0.200784
-0.182270
-0.126115
-0.072727
-0.016941
0.010115
0.033157
0.062260
0.032617
0.047213
0.038807
0.024553
-0.026634
-0.077958
-0.129084
-0.158432
-0.190979
-0.220378
-0.239498
-0.220694
-0.182169
-0.140912
-0.102023
-0.077600
-0.015975
0.035765
0.056476
0.085456
0.085168
0.079458
0.064631
0.040244
-0.022883
-0.047379
-0.087046
-0.118356
-0.166341
-0.200921
-0.226777
-0.219690
-0.207357
-0.174935
-0.133912
-0.106057
-0.049217
0.013969
0.050342
0.072843
0.091249
0.083283
0.060209
0.027132
-0.008907
-0.057809
-0.116599
-0.162828
-0.192155
-0.196810
-0.227686
-0.238223
-0.246042
-0.175394
-0.092219
-0.076648
-0.050186
0.000043
0.045041
0.095539
0.080345
0.055636
0.022693
0.005236
0.003039
-0.054489
-0.121093
-0.168424
-0.176089
-0.210241
-0.213399
-0.194532
-0.168326
-0.122173
-0.068436
-0.045135
-0.015840
0.038109
0.085525
0.099970
0.084919
0.116780
0.127625
0.103016
0.047807
-0.023995
-0.074800
-0.121791
-0.145140
-0.180797
-0.205520
-0.195138
-0.155693
-0.113736
-0.091769
-0.056363
0.005498
0.068694
0.100947
0.123257
0.116555
0.088190
0.096419
0.085449
0.052944
0.011703
-0.050683
-0.104052
-0.131740
-0.162560
-0.196130
-0.178790
-0.148689
-0.107351
-0.077459
-0.061909
-0.000404
0.060905
0.080388
0.089555
0.098619
0.097563
0.087647
0.037695
-0.003656
-0.055680
-0.073123
-0.115892
-0.155180
-0.197796
-0.227063
-0.231802
-0.220408
-0.181259
-0.139702
-0.082498
-0.024276
0.055544
0.109843
0.115684
0.075900
0.058819
0.035797
-0.002206
-0.035364
-0.076202
-0.133759
-0.222139
-0.256278
-0.267054
-0.237118
-0.221177
-0.207875
-0.186799
-0.133743
-0.109822
-0.047667
-0.003934
0.029903
0.047030
0.045634
0.038072
0.004160
-0.048924
-0.080146
-0.100101
-0.128930
-0.181649
-0.212853
-0.267351
-0.262426
-0.247351
-0.226646
-0.184542
-0.142409
-0.109495
-0.057782
-0.004018
0.019505
0.045805
0.057880
0.050042
0.043340
0.002334
-0.048426
-0.095052
-0.142974
-0.185553
-0.224384
-0.223805
-0.252048
-0.245951
-0.213445
-0.164656
-0.161835
-0.125262
-0.058061
-0.012550
0.004822
0.042688
0.060103
0.046456
0.012160
-0.009969
-0.045467
-0.104637
-0.175219
-0.205135
-0.230342
-0.227911
-0.225277
-0.194391
-0.191393
-0.204866
-0.169681
-0.115051
-0.063000
-0.033092
0.031472
0.070515
0.055065
0.037428
0.022727
-0.016258
-0.064266
-0.117522
-0.144670
-0.158532
-0.143541
-0.200402
-0.227476
-0.214333
-0.134938
-0.071588
-0.001407
0.029322
0.045756
0.114526
0.190932
0.223737
0.276387
0.314229
0.332780
0.312839
0.304609
0.292843
0.287606
0.265642
0.274401
0.292252
0.312045
0.362929
0.432917
0.498086
0.572937
0.654775
0.782175
0.840187
0.873267
0.894946
0.910839
0.908920
0.881696
0.818063
0.739748
0.661207
0.590806
0.484909
0.365883
0.291417
0.207201
0.186106
0.155754
0.160392
0.164796
0.161162
0.133201
0.166996
0.216353
0.242252
0.253651
0.226264
0.214491
0.140928
0.076314
0.029095
-0.039283
-0.094953
-0.125573
-0.130199
-0.152666
-0.167718
-0.172230
-0.109174
-0.053422
-0.019681
0.029586
0.082801
0.113447
0.152469
0.178523
0.147302
0.119252
0.051115
-0.003695
-0.053906
-0.086832
-0.122066
-0.163970
-0.179599
-0.182065
-0.205095
-0.218526
-0.175379
-0.105219
-0.044847
0.001265
0.035267
0.077498
0.114942
0.124511
0.093254
0.057110
-0.011964
-0.066141
-0.065088
-0.086680
-0.113055
-0.135725
-0.187600
-0.212796
-0.195575
-0.189384
-0.153773
-0.111455
-0.045306
0.015558
0.065915
0.108149
0.115434
0.116103
0.090453
0.072530
0.039829
-0.008892
-0.053960
-0.112440
-0.134515
-0.158094
-0.185500
-0.180270
-0.157343
-0.145817
-0.119555
-0.069801
-0.043499
-0.020682
0.057569
0.113961
0.120430
0.138549
0.141944
0.107812
0.057090
0.005833
-0.025463
-0.067393
-0.091116
-0.149581
-0.175405
-0.180509
-0.160008
-0.123911
-0.114000
-0.081401
-0.025506
0.030060
0.080007
0.129813
0.165046
0.156401
0.143151
0.126834
0.096811
0.063030
0.005362
-0.053673
-0.082669
-0.105109
-0.121584
-0.134018
-0.110530
-0.092233
-0.057659
-0.022667
0.019081
0.048740
0.149127
0.192181
0.180562
0.167896
0.162435
0.148367
0.122286
0.087069
0.040356
0.001536
-0.051542
-0.090263
-0.103529
-0.079878
-0.060735
-0.054420
-0.036903
0.003995
0.062358
0.099721
0.144765
0.161402
0.194165
0.228075
0.233984
0.195628
0.163965
0.123039
0.074216
0.029076
-0.016742
-0.035439
-0.056816
-0.095251
-0.109191
-0.069121
-0.032205
-0.000954
0.058872
0.114632
0.179600
0.197024
0.195992
0.227412
0.201513
0.183705
0.149304
0.128498
0.058400
-0.010079
-0.041930
-0.114053
-0.116109
-0.098344
-0.114428
-0.107679
-0.035741
-0.003018
0.059041
0.109353
0.140784
0.163415
0.192305
0.197899
0.191893
0.183574
0.154391
0.092621
0.037297
-0.013346
-0.060668
-0.085901
-0.107641
-0.131157
-0.134319
-0.132493
-0.101751
-0.063940
0.004386
0.058600
0.115979
0.146526
0.167274
0.164014
0.150707
0.146435
0.094030
0.077276
0.031319
-0.020336
-0.063777
-0.120727
-0.151004
-0.171861
-0.170250
-0.146705
-0.122486
-0.082261
-0.027853
0.022362
0.047649
0.074670
0.100413
0.109453
0.107092
0.096813
0.085843
0.029883
-0.031634
-0.099649
-0.168813
-0.225923
-0.194706
-0.193365
-0.200768
-0.219146
-0.177697
-0.104791
-0.069389
-0.001146
0.073416
0.091596
0.109669
0.115825
0.099248
0.090442
0.096211
0.040551
-0.056434
-0.126580
-0.165018
-0.174195
-0.208170
-0.214789
-0.209590
-0.182525
-0.140049
-0.123483
-0.076607
-0.030120
0.022033
0.067288
0.101865
0.095380
0.064616
0.057459
0.010656
-0.020901
-0.068288
-0.103536
-0.161027
-0.188618
-0.208891
-0.213410
-0.211650
-0.187169
-0.157831
-0.091279
-0.023585
0.027022
0.047636
0.049592
0.065832
0.061374
0.095707
0.085826
0.043558
0.008501
-0.043161
-0.088647
-0.142886
-0.165153
-0.224630
-0.216854
-0.199427
-0.182033
-0.136298
-0.076969
-0.001813
0.029236
0.050536
0.090476
0.107015
0.078185
0.092465
0.083674
0.047148
-0.016500
-0.058267
-0.097386
-0.121493
-0.160823
-0.183719
-0.179974
-0.190329
-0.167438
-0.125263
-0.076389
-0.028289
0.027614
0.066612
0.091666
0.114873
0.096375
0.100191
0.089247
0.063720
0.029265
-0.029900
-0.081748
-0.134090
-0.161329
-0.194270
-0.190549
-0.170866
-0.176445
-0.141797
-0.106147
-0.041945
0.023810
0.046782
0.060942
0.106014
0.115569
0.106262
0.092274
0.066567
0.022708
-0.037169
-0.061043
-0.100336
-0.159977
-0.212125
-0.240597
-0.170452
-0.158704
-0.133782
-0.098006
-0.025660
0.002698
0.046740
0.065609
0.089986
0.108045
0.084601
0.072291
0.048808
0.014777
-0.024046
-0.068697
-0.131894
-0.159616
-0.176219
-0.176509
-0.176701
-0.159805
-0.145729
-0.128000
-0.038324
0.013471
0.046918
0.066259
0.087358
0.132366
0.105083
0.092000
0.062870
-0.001069
-0.050109
-0.094017
-0.157633
-0.192883
-0.194190
-0.194054
-0.174417
-0.146350
-0.117088
-0.089271
-0.037588
0.005766
0.036619
0.037300
0.075094
0.096412
0.101992
0.086349
0.057037
0.036738
-0.021546
-0.104258
-0.159645
-0.185958
-0.202040
-0.213046
-0.234315
-0.197776
-0.139523
-0.088216
-0.047400
-0.018550
0.031194
0.074599
0.110652
0.112901
0.074778
0.037745
0.047041
0.011316
-0.051088
-0.093850
-0.122389
-0.158623
-0.191799
-0.204095
-0.224315
-0.219935
-0.187744
-0.130069
-0.033417
0.020433
0.066025
0.097182
0.096537
0.099867
0.099194
0.054423
-0.013703
-0.029431
-0.063569
-0.109143
-0.146762
-0.182816
-0.197067
-0.199025
-0.219210
-0.184515
-0.134295
-0.138464
-0.102097
-0.031371
0.030208
0.095945
0.118040
0.125007
0.112449
0.070905
0.053923
-0.023060
-0.077708
-0.103964
-0.141031
-0.196292
-0.207946
-0.213063
-0.223028
-0.198045
-0.164461
-0.135698
-0.066404
-0.015604
0.036947
0.058247
0.074410
0.058370
0.041633
0.038378
0.034288
-0.003634
-0.009753
-0.070463
-0.127792
-0.161878
-0.199664
-0.215276
-0.226332
-0.171594
-0.142133
-0.122614
-0.067185
-0.016596
0.026296
0.051464
0.075799
0.095515
0.111595
0.075332
0.036297
-0.009822
-0.062224
-0.107944
-0.133363
-0.202488
-0.230901
-0.225831
-0.214394
-0.174717
-0.144474
-0.088940
-0.005132
0.001567
0.044592
0.055894
0.066371
0.088861
0.073166
0.059260
0.040006
0.004989
-0.075366
-0.137744
-0.170138
-0.200687
-0.224932
-0.228551
-0.219871
-0.195781
-0.145125
-0.111824
-0.050915
-0.006264
0.032573
0.057873
0.075869
0.095168
0.113536
0.084277
0.034321
-0.007440
-0.060842
-0.098749
-0.132708
-0.158574
-0.171160
-0.201382
-0.188604
-0.157974
-0.114634
-0.086544
-0.021520
0.022571
0.035958
0.032434
0.085156
0.139584
0.151524
0.138251
0.089876
0.046230
-0.022859
-0.087246
-0.115449
-0.147042
-0.170590
-0.175103
-0.153547
-0.141278
-0.110656
-0.077198
-0.040175
0.028734
0.068134
0.104270
0.103071
0.083353
0.107596
0.101822
0.103552
0.079010
0.031437
-0.012469
-0.068717
-0.139027
-0.161846
-0.145236
-0.147887
-0.129024
-0.089538
-0.062271
-0.023954
0.047834
0.059425
0.096240
0.133981
0.132191
0.105367
0.086827
0.052882
0.018052
-0.032886
-0.090563
-0.128188
-0.169412
-0.181594
-0.195921
-0.177216
-0.161594
-0.118720
-0.088822
-0.074495
-0.017561
0.034589
0.074529
0.096209
0.080417
0.084709
0.062124
0.028563
-0.006474
-0.058724
-0.129668
-0.165645
-0.194117
-0.221251
-0.234273
-0.226822
-0.200553
-0.159394
-0.104420
-0.051062
-0.006984
0.028472
0.051042
0.061720
0.071758
0.081183
0.028780
-0.001101
-0.014299
-0.081363
-0.153432
-0.178068
-0.205822
-0.242643
-0.243710
-0.227483
-0.210997
-0.198464
-0.138944
-0.092204
-0.018746
0.004865
0.031163
0.065170
0.083889
0.071005
0.041158
0.006764
-0.017653
-0.086671
-0.129818
-0.160059
-0.207005
-0.239190
-0.242788
-0.245300
-0.214346
-0.191361
-0.143312
-0.102027
-0.051772
-0.009607
0.032120
0.075155
0.135523
0.109564
0.057555
0.001564
-0.034279
-0.083515
-0.108417
-0.155287
-0.194140
-0.224675
-0.243091
-0.252410
-0.237808
-0.191507
-0.112272
-0.059542
-0.012630
0.018687
0.042908
0.075068
0.073403
0.037550
0.008699
-0.015118
-0.039591
-0.096823
-0.161196
-0.176623
-0.197062
-0.211079
-0.221365
-0.218954
-0.190106
-0.151818
-0.090083
-0.003108
0.065897
0.141380
0.201319
0.234471
0.221576
0.221407
0.235178
0.238071
0.208370
0.192427
0.166509
0.160907
0.150406
0.176870
0.218254
0.262416
0.314187
0.382301
0.453490
0.548872
0.632276
0.718846
0.787754
0.837989
0.881681
0.908382
0.908439
0.877254
0.821240
0.770012
0.697393
0.656778
0.607822
0.547345
0.497818
0.428505
0.368393
0.337323
0.320725
0.308780
0.288142
0.293714
0.297491
0.289615
0.284733
0.276203
0.239624
0.192770
0.139896
0.075189
0.002092
-0.050947
-0.053012
-0.084913
-0.124677
-0.145949
-0.113258
-0.055209
-0.017446
0.015036
0.061703
0.097110
0.136925
0.145526
0.149003
0.165414
0.151367
0.116654
0.048654
-0.030370
-0.063136
-0.125355
-0.156826
-0.157339
-0.162819
-0.186562
-0.183166
-0.112329
-0.085306
-0.069288
0.027353
0.066369
0.081853
0.110981
0.140649
0.116539
0.097301
0.062894
0.024634
-0.021829
-0.066275
-0.092680
-0.147224
-0.180443
-0.189714
-0.188909
-0.162980
-0.123033
-0.082663
-0.033631
0.015462
0.041084
0.098577
0.095522
0.131716
0.150079
0.106979
0.076097
0.049711
0.006814
-0.043980
-0.114352
-0.176444
-0.205122
-0.206198
-0.165714
-0.118097
-0.117371
-0.073038
-0.029416
0.020388
0.078370
0.115175
0.126086
0.127383
0.128860
0.128956
0.110757
0.059911
0.007818
-0.050410
-0.100914
-0.141709
-0.147357
-0.135276
-0.133013
-0.103670
-0.082725
-0.070485
-0.000922
0.062066
0.098209
0.124026
0.168656
0.172325
0.182206
0.155118
0.103440
0.067971
0.035069
-0.021741
-0.062579
-0.084021
-0.109804
-0.118353
-0.120766
-0.101338
-0.062639
-0.027925
0.009605
0.096367
0.130209
0.150965
0.185582
0.197853
0.210840
0.209590
0.166050
0.114257
0.069247
0.014409
-0.041642
-0.094131
-0.101613
-0.105266
-0.090583
-0.062189
-0.018164
0.041546
0.087548
0.123061
0.127475
0.170745
0.205038
0.233694
0.247618
0.239112
0.198866
0.129210
0.098725
0.015741
0.002106
-0.037636
-0.070909
-0.093372
-0.080214
-0.052797
-0.021033
0.049193
0.098628
0.134830
0.191678
0.261776
0.262259
0.234713
0.206256
0.197838
0.170096
0.132395
0.096550
0.036670
-0.023590
-0.046791
-0.052826
-0.068425
-0.058562
-0.040957
-0.003447
0.039741
0.087428
0.130392
0.174559
0.203074
0.206230
0.221287
0.213069
0.194083
0.156982
0.104420
0.064698
0.007039
-0.019158
-0.054950
-0.084766
-0.089789
-0.094665
-0.079052
-0.028456
0.005296
0.056997
0.104868
0.144606
0.176343
0.190466
0.181405
0.163802
0.173960
0.132543
0.081293
0.017783
-0.052316
-0.098741
-0.107437
-0.125800
-0.128398
-0.091894
-0.084720
-0.069296
-0.027214
0.015839
0.071462
0.105908
0.135507
0.139040
0.131786
0.133450
0.115065
0.079167
0.034317
0.007828
-0.048862
-0.092801
-0.143603
-0.161220
-0.176016
-0.150857
-0.139160
-0.137395
-0.078209
-0.020708
0.043489
0.100302
0.155853
0.141252
0.141338
0.141335
0.089749
0.063698
0.024333
-0.034348
-0.080189
-0.112181
-0.165085
-0.178902
-0.164251
-0.161137
-0.170931
-0.119650
-0.067703
-0.041649
-0.020797
0.012135
0.022313
0.094748
0.146777
0.119875
0.078400
0.066456
0.039469
-0.014769
-0.068680
-0.121746
-0.169486
-0.189408
-0.182566
-0.171400
-0.161498
-0.116110
-0.068192
-0.015673
0.027641
0.056546
0.074977
0.095113
0.120348
0.130018
0.097622
0.045222
-0.009790
-0.053166
-0.087968
-0.117136
-0.149891
-0.186346
-0.194631
-0.176734
-0.146057
-0.118283
-0.083734
-0.029684
0.018175
0.076188
0.079224
0.084031
0.110226
0.147698
0.119595
0.069411
0.005027
-0.032766
-0.061811
-0.101925
-0.155116
-0.156913
-0.171230
-0.167116
-0.139194
-0.122842
-0.080345
-0.032884
0.023780
0.083882
0.133546
0.166473
0.173461
0.132104
0.078502
0.062826
0.025083
-0.015331
-0.050556
-0.092084
-0.135609
-0.173824
-0.163692
-0.144159
-0.148296
-0.091138
-0.061830
-0.014137
0.006985
0.043486
0.099000
0.129444
0.146279
0.139855
0.114126
0.056761
0.029610
0.000559
-0.063119
-0.125907
-0.155526
-0.189686
-0.167245
-0.129746
-0.109111
-0.109544
-0.061293
0.001867
0.050170
0.098543
0.111772
0.138107
0.143294
0.139130
0.104024
0.080997
0.030018
-0.015961
-0.076120
-0.095069
-0.132208
-0.152552
-0.170431
-0.168617
-0.153346
-0.128826
-0.068192
-0.019568
0.029734
0.059735
0.120781
0.145195
0.136131
0.106665
0.070516
0.031532
0.021402
0.018494
-0.030790
-0.095133
-0.154627
-0.194886
-0.194471
-0.196377
-0.180616
-0.145754
-0.082496
-0.032576
0.041436
0.080602
0.114033
0.139113
0.120199
0.105299
0.087603
0.037396
-0.006078
-0.016030
-0.066048
-0.112431
-0.150380
-0.137099
-0.160860
-0.173925
-0.165662
-0.145020
-0.097911
-0.041832
0.023105
0.065180
0.083863
0.102996
0.125591
0.111819
0.085542
0.055556
0.026111
-0.015553
-0.049174
-0.097401
-0.142503
-0.168617
-0.190106
-0.190454
-0.174716
-0.127633
-0.055564
-0.018928
0.029285
0.057838
0.102746
0.119306
0.122797
0.129514
0.107959
0.098988
0.026300
-0.061535
-0.104209
-0.126994
-0.166320
-0.224669
-0.246734
-0.206507
-0.161625
-0.132927
-0.106169
-0.059205
-0.015571
0.031170
0.063426
0.096164
0.117776
0.099355
0.069337
0.052253
0.024348
-0.044159
-0.109968
-0.169055
-0.172497
-0.203495
-0.178421
-0.179205
-0.144474
-0.101239
-0.071609
-0.017276
0.041167
0.091009
0.118816
0.135946
0.151234
0.128582
0.078159
0.026689
-0.008690
-0.063100
-0.114684
-0.160425
-0.192527
-0.210815
-0.203997
-0.199082
-0.188445
-0.129991
-0.065305
-0.025230
0.014896
0.059229
0.087328
0.107247
0.118174
0.109561
0.097798
0.086957
0.033394
-0.028358
-0.096982
-0.131396
-0.166881
-0.189113
-0.180138
-0.167840
-0.157605
-0.139072
-0.063494
-0.007360
0.020762
0.039795
0.046636
0.068579
0.108797
0.113724
0.115498
0.071968
0.013326
-0.037330
-0.062076
-0.111180
-0.148486
-0.199492
-0.201692
-0.189093
-0.169175
-0.133547
-0.085774
-0.025638
-0.024727
0.006197
0.064583
0.107855
0.124936
0.132101
0.093820
0.035473
0.007684
-0.029992
-0.083196
-0.143333
-0.187851
-0.249499
-0.246308
-0.174328
-0.114327
-0.112932
-0.092337
-0.056219
0.019423
0.091062
0.109283
0.151944
0.169594
0.166550
0.110060
0.064236
0.013380
-0.019126
-0.029791
-0.086856
-0.133469
-0.149719
-0.129307
-0.121860
-0.097258
-0.074116
-0.043485
0.004070
0.062256
0.096682
0.125006
0.139614
0.150569
0.160673
0.150472
0.124031
0.063536
-0.002585
-0.063968
-0.113474
-0.135533
-0.136934
-0.138314
-0.102466
-0.067243
-0.026349
-0.008996
0.001170
0.030598
0.079650
0.126062
0.187476
0.179760
0.149278
0.132368
0.132458
0.094459
0.031846
-0.037719
-0.060167
-0.114805
-0.162612
-0.182115
-0.168864
-0.144059
-0.086159
-0.047603
-0.007245
0.023874
0.078354
0.111967
0.138571
0.150372
0.123129
0.110820
0.082335
0.024208
-0.028880
-0.072775
-0.124820
-0.164784
-0.176595
-0.185331
-0.189462
-0.198212
-0.165942
-0.112490
-0.049197
-0.019547
0.009039
0.058002
0.101174
0.120880
0.157964
0.108513
0.068150
0.021392
-0.050829
-0.104839
-0.156425
-0.219427
-0.191933
-0.188882
-0.175467
-0.166817
-0.126730
-0.049865
-0.013163
0.000733
0.003466
0.021028
0.054106
0.098746
0.149975
0.129378
0.084572
0.058918
-0.019862
-0.093630
-0.138312
-0.168996
-0.200484
-0.222220
-0.204843
-0.190785
-0.158124
-0.094881
-0.040999
0.002488
0.044460
0.076552
0.102147
0.106286
0.092772
0.046417
0.011989
-0.012959
-0.066171
-0.118733
-0.174717
-0.196196
-0.193531
-0.218618
-0.185167
-0.135219
-0.094747
-0.080613
-0.056394
-0.014621
0.023389
0.060061
0.093162
0.101130
0.121658
0.093740
0.031955
-0.021571
-0.054948
-0.118194
-0.155506
-0.191695
-0.192262
-0.221573
-0.204618
-0.178178
-0.160643
-0.132506
-0.059845
-0.003450
0.022509
0.060029
0.112625
0.159799
0.179432
0.127465
0.103119
0.086110
0.058374
0.020969
-0.007825
-0.044286
-0.063032
-0.056542
-0.047379
-0.008767
0.084719
0.210089
0.285827
0.356973
0.430949
0.508422
0.559289
0.601320
0.665217
0.684981
0.663652
0.641232
0.614289
0.595603
0.571148
0.587943
0.629537
0.634173
0.646706
0.647588
0.686715
0.735423
0.744419
0.776659
0.809524
0.834677
0.797729
0.742378
0.662270
0.552818
0.444103
0.364271
0.251382
0.163759
0.101335
0.051036
0.006510
-0.031213
0.023660
-0.005313
0.003673
0.052177
0.115168
0.132055
0.157039
0.197072
0.217968
0.244113
0.223787
0.167901
0.135776
0.114203
0.068464
0.014766
-0.062284
-0.106316
-0.144390
-0.138432
-0.122084
-0.122320
-0.093495
-0.050851
0.030089
0.083379
0.102083
0.112699
0.151287
0.191597
0.194087
0.176071
0.126719
0.079471
0.005094
-0.061485
-0.112924
-0.139520
-0.161231
-0.175351
-0.148251
-0.124594
-0.098750
-0.058556
0.007716
0.069652
0.111214
0.119016
0.131656
0.157540
0.153283
0.111176
0.077834
0.030514
-0.039038
-0.062926
-0.095957
-0.118600
-0.133820
-0.159628
-0.148129
-0.113948
-0.097546
-0.051995
0.012126
0.074297
0.112295
0.133537
0.166733
0.178654
0.164329
0.134042
0.079035
0.078114
0.024855
-0.014765
-0.073162
-0.106644
-0.116857
-0.122413
-0.109222
-0.070810
-0.040883
-0.022696
0.005485
0.033112
0.113658
0.176352
0.196831
0.171729
0.168539
0.167952
0.125383
0.090636
0.057018
-0.012573
-0.083600
-0.141741
-0.143408
-0.143694
-0.108003
-0.051543
0.003246
0.062798
0.081364
0.105571
0.149547
0.181253
0.195632
0.234717
0.230797
0.210097
0.179514
0.144513
0.090270
0.036680
-0.022813
-0.069163
-0.072568
-0.067737
-0.061842
-0.055124
-0.038501
0.077504
0.150212
0.179100
0.217430
0.225625
0.242496
0.264635
0.264271
0.233148
0.195209
0.144011
0.104631
0.050323
0.025032
-0.016578
-0.042864
-0.057186
-0.054472
-0.037187
-0.004093
0.040277
0.117840
0.108202
0.172068
0.222204
0.263150
0.264371
0.306666
0.306126
0.254430
0.176892
0.083554
0.066429
0.031320
-0.025201
-0.029739
-0.046906
-0.024884
-0.022534
0.007938
0.053383
0.111577
0.175945
0.182001
0.235903
0.254265
0.275374
0.268676
0.240500
0.168948
0.158099
0.093765
0.058601
0.011417
-0.005074
-0.015283
-0.032617
-0.037060
-0.024598
0.013100
0.053636
0.098837
0.131898
0.173385
0.216490
0.240170
0.233805
0.211423
0.184094
0.138296
0.100464
0.061211
-0.006753
-0.030283
-0.038021
-0.058344
-0.067094
-0.061347
-0.024957
-0.021670
0.004339
0.053963
0.096028
0.140591
0.159336
0.207393
0.213361
0.207441
0.196998
0.146096
0.071787
0.006796
-0.047540
-0.079747
-0.102670
-0.113070
-0.094150
